2.500100024005761590e+00 4.975123746518144685e+02
2.500200048011522735e+00 4.975660771304768559e+02
2.500300072017283881e+00 4.976198181455347367e+02
2.500400096023045471e+00 4.976735962890818996e+02
2.500500120028807061e+00 4.977274101592906277e+02
2.500600144034568206e+00 4.977812583604284669e+02
2.500700168040329352e+00 4.978351395028720390e+02
2.500800192046090942e+00 4.978890522031207411e+02
2.500900216051852532e+00 4.979429950838105583e+02
2.501000240057613677e+00 4.979969667737279906e+02
2.501100264063374823e+00 4.980509659078228992e+02
2.501200288069136413e+00 4.981049911272216946e+02
2.501300312074898002e+00 4.981590410792384773e+02
2.501400336080659148e+00 4.982131144173877146e+02
2.501500360086420294e+00 4.982672098013967457e+02
2.501600384092181883e+00 4.983213258972156723e+02
2.501700408097943473e+00 4.983754613770298647e+02
2.501800432103704619e+00 4.984296149192689427e+02
2.501900456109465765e+00 4.984837852086185421e+02
2.502000480115227354e+00 4.985379709360293532e+02
2.502100504120988944e+00 4.985921707987275227e+02
2.502200528126750090e+00 4.986463835002226119e+02
2.502300552132511235e+00 4.987006077503189658e+02
2.502400576138272825e+00 4.987548422651216811e+02
2.502500600144034415e+00 4.988090857670455875e+02
2.502600624149796005e+00 4.988633369848251391e+02
2.502700648155557595e+00 4.989175946535191315e+02
2.502800672161318740e+00 4.989718575145200248e+02
2.502900696167080330e+00 4.990261243155604234e+02
2.503000720172841476e+00 4.990803938107188742e+02
2.503100744178603065e+00 4.991346647604275972e+02
2.503200768184364211e+00 4.991889359314770900e+02
2.503300792190125801e+00 4.992432060970218117e+02
2.503400816195886947e+00 4.992974740365875732e+02
2.503500840201648536e+00 4.993517385360731851e+02
2.503600864207409682e+00 4.994059983877589275e+02
2.503700888213171272e+00 4.994602523903068914e+02
2.503800912218932417e+00 4.995144993487682541e+02
2.503900936224694007e+00 4.995687380745847577e+02
2.504000960230455153e+00 4.996229673855950750e+02
2.504100984236216743e+00 4.996771861060332185e+02
2.504201008241977888e+00 4.997313930665363841e+02
2.504301032247739478e+00 4.997855871041435876e+02
2.504401056253500624e+00 4.998397670622998703e+02
2.504501080259262213e+00 4.998939317908569251e+02
2.504601104265023359e+00 4.999480801460759380e+02
2.504701128270784949e+00 5.000022109906274750e+02
2.504801152276546095e+00 5.000563231935927888e+02
2.504901176282307684e+00 5.001104156304658659e+02
2.505001200288068830e+00 5.001644871831508681e+02
2.505101224293830420e+00 5.002185367399648612e+02
2.505201248299591565e+00 5.002725631956357688e+02
2.505301272305353155e+00 5.003265654513032246e+02
2.505401296311114301e+00 5.003805424145153324e+02
2.505501320316875891e+00 5.004344929992300877e+02
2.505601344322637036e+00 5.004884161258128756e+02
2.505701368328398626e+00 5.005423107210336866e+02
2.505801392334159772e+00 5.005961757180670588e+02
2.505901416339921361e+00 5.006500100564877584e+02
2.506001440345682507e+00 5.007038126822689037e+02
2.506101464351444097e+00 5.007575825477799754e+02
2.506201488357205243e+00 5.008113186117819282e+02
2.506301512362967276e+00 5.008650198394241215e+02
2.506401536368728422e+00 5.009186852022425001e+02
2.506501560374490012e+00 5.009723136781518633e+02
2.506601584380251602e+00 5.010259042514445582e+02
2.506701608386012747e+00 5.010794559127851926e+02
2.506801632391773893e+00 5.011329676592039277e+02
2.506901656397535483e+00 5.011864384940947730e+02
2.507001680403297073e+00 5.012398674272058656e+02
2.507101704409058218e+00 5.012932534746377655e+02
2.507201728414819364e+00 5.013465956588346444e+02
2.507301752420580954e+00 5.013998930085795678e+02
2.507401776426342543e+00 5.014531445589864234e+02
2.507501800432103689e+00 5.015063493514960555e+02
2.507601824437864835e+00 5.015595064338650673e+02
2.507701848443626425e+00 5.016126148601617842e+02
2.507801872449388014e+00 5.016656736907585810e+02
2.507901896455149160e+00 5.017186819923208532e+02
2.508001920460910306e+00 5.017716388378032661e+02
2.508101944466671895e+00 5.018245433064374197e+02
2.508201968472433485e+00 5.018773944837271301e+02
2.508301992478194631e+00 5.019301914614354700e+02
2.508402016483955776e+00 5.019829333375790839e+02
2.508502040489717366e+00 5.020356192164173308e+02
2.508602064495478956e+00 5.020882482084429057e+02
2.508702088501240102e+00 5.021408194303704704e+02
2.508802112507001247e+00 5.021933320051304577e+02
2.508902136512762837e+00 5.022457850618546900e+02
2.509002160518524427e+00 5.022981777358680802e+02
2.509102184524285573e+00 5.023505091686764672e+02
2.509202208530046718e+00 5.024027785079579758e+02
2.509302232535808308e+00 5.024549849075481234e+02
2.509402256541569898e+00 5.025071275274309528e+02
2.509502280547331043e+00 5.025592055337275497e+02
2.509602304553092189e+00 5.026112180986819453e+02
2.509702328558853779e+00 5.026631644006506008e+02
2.509802352564615369e+00 5.027150436240897307e+02
2.509902376570376514e+00 5.027668549595423428e+02
2.510002400576138548e+00 5.028185976036250509e+02
2.510102424581899694e+00 5.028702707590157956e+02
2.510202448587661284e+00 5.029218736344403169e+02
2.510302472593422429e+00 5.029734054446587947e+02
2.510402496599184019e+00 5.030248654104505590e+02
2.510502520604945165e+00 5.030762527586030615e+02
2.510602544610706754e+00 5.031275667218948797e+02
2.510702568616467900e+00 5.031788065390832116e+02
2.510802592622229490e+00 5.032299714548886982e+02
2.510902616627990636e+00 5.032810607199805872e+02
2.511002640633752225e+00 5.033320735909614996e+02
2.511102664639513371e+00 5.033830093303529338e+02
2.511202688645274961e+00 5.034338672065795208e+02
2.511302712651036106e+00 5.034846464939531643e+02
2.511402736656797696e+00 5.035353464726575226e+02
2.511502760662558842e+00 5.035859664287332293e+02
2.511602784668320432e+00 5.036365056540590786e+02
2.511702808674081577e+00 5.036869634463384386e+02
2.511802832679843167e+00 5.037373391090806081e+02
2.511902856685604313e+00 5.037876319515857517e+02
2.512002880691365903e+00 5.038378412889273932e+02
2.512102904697127048e+00 5.038879664419343385e+02
2.512202928702888638e+00 5.039380067371752716e+02
2.512302952708649784e+00 5.039879615069394276e+02
2.512402976714411373e+00 5.040378300892205061e+02
2.512503000720172519e+00 5.040876118276989359e+02
2.512603024725934109e+00 5.041373060717215822e+02
2.512703048731695255e+00 5.041869121762867394e+02
2.512803072737456844e+00 5.042364295020242935e+02
2.512903096743217990e+00 5.042858574151763378e+02
2.513003120748979580e+00 5.043351952875810866e+02
2.513103144754740725e+00 5.043844424966513884e+02
2.513203168760502315e+00 5.044335984253568768e+02
2.513303192766263461e+00 5.044826624622063491e+02
2.513403216772025051e+00 5.045316340012255978e+02
2.513503240777786196e+00 5.045805124419403569e+02
2.513603264783547786e+00 5.046292971893560662e+02
2.513703288789309376e+00 5.046779876539364977e+02
2.513803312795070966e+00 5.047265832515873853e+02
2.513903336800832555e+00 5.047750834036327205e+02
2.514003360806593701e+00 5.048234875367967334e+02
2.514103384812354847e+00 5.048717950831840540e+02
2.514203408818116436e+00 5.049200054802561795e+02
2.514303432823878026e+00 5.049681181708150461e+02
2.514403456829639172e+00 5.050161326029793258e+02
2.514503480835400318e+00 5.050640482301644170e+02
2.514603504841161907e+00 5.051118645110616399e+02
2.514703528846923497e+00 5.051595809096173753e+02
2.514803552852684643e+00 5.052071968950104974e+02
2.514903576858445788e+00 5.052547119416327632e+02
2.515003600864207378e+00 5.053021255290668137e+02
2.515103624869968968e+00 5.053494371420630387e+02
2.515203648875730114e+00 5.053966462705191702e+02
2.515303672881491259e+00 5.054437524094595346e+02
2.515403696887252849e+00 5.054907550590097571e+02
2.515503720893014439e+00 5.055376537243782877e+02
2.515603744898775584e+00 5.055844479158319018e+02
2.515703768904536730e+00 5.056311371486737585e+02
2.515803792910298320e+00 5.056777209432218001e+02
2.515903816916059910e+00 5.057241988247851623e+02
2.516003840921821055e+00 5.057705703236424029e+02
2.516103864927582201e+00 5.058168349750177413e+02
2.516203888933343791e+00 5.058629923190596287e+02
2.516303912939105381e+00 5.059090419008153958e+02
2.516403936944866526e+00 5.059549832702116419e+02
2.516503960950627672e+00 5.060008159820280866e+02
2.516603984956389262e+00 5.060465395958752879e+02
2.516704008962150851e+00 5.060921536761726429e+02
2.516804032967911997e+00 5.061376577921218427e+02
2.516904056973673143e+00 5.061830515176872609e+02
2.517004080979434733e+00 5.062283344315688964e+02
2.517104104985196322e+00 5.062735061171811140e+02
2.517204128990957468e+00 5.063185661626266096e+02
2.517304152996718614e+00 5.063635141606758339e+02
2.517404177002480647e+00 5.064083497087392516e+02
2.517504201008242237e+00 5.064530724088464240e+02
2.517604225014003383e+00 5.064976818676203720e+02
2.517704249019764973e+00 5.065421776962529066e+02
2.517804273025526118e+00 5.065865595104830845e+02
2.517904297031287708e+00 5.066308269305685599e+02
2.518004321037048854e+00 5.066749795812662569e+02
2.518104345042810444e+00 5.067190170918041758e+02
2.518204369048571589e+00 5.067629390958581439e+02
2.518304393054333179e+00 5.068067452315273158e+02
2.518404417060094325e+00 5.068504351413105269e+02
2.518504441065855914e+00 5.068940084720799177e+02
2.518604465071617060e+00 5.069374648750562073e+02
2.518704489077378650e+00 5.069808040057861831e+02
2.518804513083139796e+00 5.070240255241153591e+02
2.518904537088901385e+00 5.070671290941650682e+02
2.519004561094662531e+00 5.071101143843056320e+02
2.519104585100424121e+00 5.071529810671330551e+02
2.519204609106185266e+00 5.071957288194433886e+02
2.519304633111946856e+00 5.072383573222066957e+02
2.519404657117708002e+00 5.072808662605440304e+02
2.519504681123469592e+00 5.073232553237010620e+02
2.519604705129230737e+00 5.073655242050220977e+02
2.519704729134992327e+00 5.074076726019275156e+02
2.519804753140753473e+00 5.074497002158852865e+02
2.519904777146515062e+00 5.074916067523883498e+02
2.520004801152276208e+00 5.075333919209269880e+02
2.520104825158037798e+00 5.075750554349666572e+02
2.520204849163798944e+00 5.076165970119188842e+02
2.520304873169560533e+00 5.076580163731197217e+02
2.520404897175321679e+00 5.076993132438006455e+02
2.520504921181083269e+00 5.077404873530663849e+02
2.520604945186844414e+00 5.077815384338671834e+02
2.520704969192606004e+00 5.078224662229745263e+02
2.520804993198367150e+00 5.078632704609551070e+02
2.520905017204128740e+00 5.079039508921472361e+02
2.521005041209889885e+00 5.079445072646316817e+02
2.521105065215651919e+00 5.079849393302092153e+02
2.521205089221413509e+00 5.080252468443741805e+02
2.521305113227174655e+00 5.080654295662897084e+02
2.521405137232935800e+00 5.081054872587603199e+02
2.521505161238697390e+00 5.081454196882093584e+02
2.521605185244458980e+00 5.081852266246501131e+02
2.521705209250220125e+00 5.082249078416629686e+02
2.521805233255981271e+00 5.082644631163682902e+02
2.521905257261742861e+00 5.083038922294028339e+02
2.522005281267504451e+00 5.083431949648909836e+02
2.522105305273265596e+00 5.083823711104246286e+02
2.522205329279026742e+00 5.084214204570303082e+02
2.522305353284788332e+00 5.084603427991513058e+02
2.522405377290549922e+00 5.084991379346168969e+02
2.522505401296311067e+00 5.085378056646201230e+02
2.522605425302072213e+00 5.085763457936898817e+02
2.522705449307833803e+00 5.086147581296672229e+02
2.522805473313595392e+00 5.086530424836805651e+02
2.522905497319356538e+00 5.086911986701172737e+02
2.523005521325117684e+00 5.087292265066018899e+02
2.523105545330879274e+00 5.087671258139699262e+02
2.523205569336640863e+00 5.088048964162399557e+02
2.523305593342402009e+00 5.088425381405925236e+02
2.523405617348163155e+00 5.088800508173420099e+02
2.523505641353924744e+00 5.089174342799120154e+02
2.523605665359686334e+00 5.089546883648121707e+02
2.523705689365447480e+00 5.089918129116097134e+02
2.523805713371208626e+00 5.090288077629068084e+02
2.523905737376970215e+00 5.090656727643151953e+02
2.524005761382731805e+00 5.091024077644314616e+02
2.524105785388492951e+00 5.091390126148100421e+02
2.524205809394254096e+00 5.091754871699405385e+02
2.524305833400015686e+00 5.092118312872235038e+02
2.524405857405777276e+00 5.092480448269427029e+02
2.524505881411538422e+00 5.092841276522428871e+02
2.524605905417299567e+00 5.093200796291041570e+02
2.524705929423061157e+00 5.093559006263171796e+02
2.524805953428823191e+00 5.093915905154589723e+02
2.524905977434584337e+00 5.094271491708683470e+02
2.525006001440345926e+00 5.094625764696217516e+02
2.525106025446107072e+00 5.094978722915069511e+02
2.525206049451868662e+00 5.095330365190018256e+02
2.525306073457629807e+00 5.095680690372475965e+02
2.525406097463391397e+00 5.096029697340250095e+02
2.525506121469152543e+00 5.096377384997315971e+02
2.525606145474914133e+00 5.096723752273562695e+02
2.525706169480675278e+00 5.097068798124542468e+02
2.525806193486436868e+00 5.097412521531259699e+02
2.525906217492198014e+00 5.097754921499905549e+02
2.526006241497959603e+00 5.098095997061639082e+02
2.526106265503720749e+00 5.098435747272334879e+02
2.526206289509482339e+00 5.098774171212352257e+02
2.526306313515243485e+00 5.099111267986302209e+02
2.526406337521005074e+00 5.099447036722796724e+02
2.526506361526766220e+00 5.099781476574250405e+02
2.526606385532527810e+00 5.100114586716595682e+02
2.526706409538288955e+00 5.100446366349104323e+02
2.526806433544050545e+00 5.100776814694106633e+02
2.526906457549811691e+00 5.101105930996786242e+02
2.527006481555573281e+00 5.101433714524957281e+02
2.527106505561334426e+00 5.101760164568798928e+02
2.527206529567096016e+00 5.102085280440682027e+02
2.527306553572857162e+00 5.102409061474882606e+02
2.527406577578618752e+00 5.102731507027395992e+02
2.527506601584379897e+00 5.103052616475691821e+02
2.527606625590141487e+00 5.103372389218501439e+02
2.527706649595902633e+00 5.103690824675582007e+02
2.527806673601664222e+00 5.104007922287497649e+02
2.527906697607425368e+00 5.104323681515396061e+02
2.528006721613186958e+00 5.104638101840794775e+02
2.528106745618948104e+00 5.104951182765350950e+02
2.528206769624709693e+00 5.105262923810654456e+02
2.528306793630470839e+00 5.105573324517990841e+02
2.528406817636232429e+00 5.105882384448141806e+02
2.528506841641994463e+00 5.106190103181158975e+02
2.528606865647755608e+00 5.106496480316158113e+02
2.528706889653516754e+00 5.106801515471099151e+02
2.528806913659278344e+00 5.107105208282570743e+02
2.528906937665039933e+00 5.107407558405581085e+02
2.529006961670801079e+00 5.107708565513348162e+02
2.529106985676562225e+00 5.108008229297088860e+02
2.529207009682323815e+00 5.108306549465817170e+02
2.529307033688085404e+00 5.108603525746126479e+02
2.529407057693846550e+00 5.108899157881988913e+02
2.529507081699607696e+00 5.109193445634544446e+02
2.529607105705369285e+00 5.109486388781911046e+02
2.529707129711130875e+00 5.109777987118963551e+02
2.529807153716892021e+00 5.110068240457148363e+02
2.529907177722653167e+00 5.110357148624273691e+02
2.530007201728414756e+00 5.110644711464317993e+02
2.530107225734176346e+00 5.110930928837212264e+02
2.530207249739937492e+00 5.111215800618672347e+02
2.530307273745698637e+00 5.111499326699985204e+02
2.530407297751460227e+00 5.111781506987818489e+02
2.530507321757221817e+00 5.112062341404023869e+02
2.530607345762982963e+00 5.112341829885459674e+02
2.530707369768744108e+00 5.112619972383776599e+02
2.530807393774505698e+00 5.112896768865253989e+02
2.530907417780267288e+00 5.113172219310594642e+02
2.531007441786028433e+00 5.113446323714746313e+02
2.531107465791789579e+00 5.113719082086706749e+02
2.531207489797551169e+00 5.113990494449352582e+02
2.531307513803312759e+00 5.114260560839258005e+02
2.531407537809073904e+00 5.114529281306494681e+02
2.531507561814835050e+00 5.114796655914465191e+02
2.531607585820596640e+00 5.115062684739732504e+02
2.531707609826358230e+00 5.115327367871825004e+02
2.531807633832119375e+00 5.115590705413077899e+02
2.531907657837880521e+00 5.115852697478436539e+02
2.532007681843642111e+00 5.116113344195306354e+02
2.532107705849403700e+00 5.116372645703369813e+02
2.532207729855165290e+00 5.116630602154421581e+02
2.532307753860926880e+00 5.116887213712187190e+02
2.532407777866688026e+00 5.117142480552170696e+02
2.532507801872449615e+00 5.117396402861484148e+02
2.532607825878210761e+00 5.117648980838674220e+02
2.532707849883972351e+00 5.117900214693576117e+02
2.532807873889733496e+00 5.118150104647133389e+02
2.532907897895495086e+00 5.118398650931248994e+02
2.533007921901256232e+00 5.118645853788626141e+02
2.533107945907017822e+00 5.118891713472602873e+02
2.533207969912778967e+00 5.119136230247009394e+02
2.533307993918540557e+00 5.119379404386000374e+02
2.533408017924301703e+00 5.119621236173906027e+02
2.533508041930063293e+00 5.119861725905096819e+02
2.533608065935824438e+00 5.120100873883799295e+02
2.533708089941586028e+00 5.120338680423983533e+02
2.533808113947347174e+00 5.120575145849181808e+02
2.533908137953108763e+00 5.120810270492382870e+02
2.534008161958869909e+00 5.121044054695854584e+02
2.534108185964631499e+00 5.121276498811018882e+02
2.534208209970392645e+00 5.121507603198301695e+02
2.534308233976154234e+00 5.121737368227001070e+02
2.534408257981915380e+00 5.121965794275138251e+02
2.534508281987676970e+00 5.122192881729340570e+02
2.534608305993438115e+00 5.122418630984697074e+02
2.534708329999199705e+00 5.122643042444603907e+02
2.534808354004960851e+00 5.122866116520676769e+02
2.534908378010722441e+00 5.123087853632582664e+02
2.535008402016483586e+00 5.123308254207923937e+02
2.535108426022245176e+00 5.123527318682126861e+02
2.535208450028006322e+00 5.123745047498289296e+02
2.535308474033767911e+00 5.123961441107078372e+02
2.535408498039529057e+00 5.124176499966586107e+02
2.535508522045290647e+00 5.124390224542250962e+02
2.535608546051051793e+00 5.124602615306674807e+02
2.535708570056813382e+00 5.124813672739568347e+02
2.535808594062574528e+00 5.125023397327603334e+02
2.535908618068336562e+00 5.125231789564290921e+02
2.536008642074097708e+00 5.125438849949898668e+02
2.536108666079859297e+00 5.125644578991308435e+02
2.536208690085620887e+00 5.125848977201932257e+02
2.536308714091382033e+00 5.126052045101585009e+02
2.536408738097143178e+00 5.126253783216386637e+02
2.536508762102904768e+00 5.126454192078665528e+02
2.536608786108666358e+00 5.126653272226842546e+02
2.536708810114427504e+00 5.126851024205334397e+02
2.536808834120188649e+00 5.127047448564454726e+02
2.536908858125950239e+00 5.127242545860312930e+02
2.537008882131711829e+00 5.127436316654731172e+02
2.537108906137472975e+00 5.127628761515113638e+02
2.537208930143234120e+00 5.127819881014412431e+02
2.537308954148995710e+00 5.128009675730982053e+02
2.537408978154757300e+00 5.128198146248505509e+02
2.537509002160518445e+00 5.128385293155915861e+02
2.537609026166279591e+00 5.128571117047310963e+02
2.537709050172041181e+00 5.128755618521843189e+02
2.537809074177802771e+00 5.128938798183677363e+02
2.537909098183563916e+00 5.129120656641860023e+02
2.538009122189325062e+00 5.129301194510283040e+02
2.538109146195086652e+00 5.129480412407577887e+02
2.538209170200848241e+00 5.129658310957056528e+02
2.538309194206609387e+00 5.129834890786607957e+02
2.538409218212370533e+00 5.130010152528659546e+02
2.538509242218132123e+00 5.130184096820089508e+02
2.538609266223893712e+00 5.130356724302147313e+02
2.538709290229654858e+00 5.130528035620396849e+02
2.538809314235416004e+00 5.130698031424653891e+02
2.538909338241177593e+00 5.130866712368894014e+02
2.539009362246939183e+00 5.131034079111235542e+02
2.539109386252700329e+00 5.131200132313823588e+02
2.539209410258461475e+00 5.131364872642810724e+02
2.539309434264223064e+00 5.131528300768272857e+02
2.539409458269984654e+00 5.131690417364168297e+02
2.539509482275745800e+00 5.131851223108277509e+02
2.539609506281507834e+00 5.132010718682138304e+02
2.539709530287268979e+00 5.132168904771010602e+02
2.539809554293030569e+00 5.132325782063811630e+02
2.539909578298791715e+00 5.132481351253070443e+02
2.540009602304553304e+00 5.132635613034890412e+02
2.540109626310314450e+00 5.132788568108887830e+02
2.540209650316076040e+00 5.132940217178152125e+02
2.540309674321837186e+00 5.133090560949217434e+02
2.540409698327598775e+00 5.133239600131996667e+02
2.540509722333359921e+00 5.133387335439767867e+02
2.540609746339121511e+00 5.133533767589103718e+02
2.540709770344882656e+00 5.133678897299879509e+02
2.540809794350644246e+00 5.133822725295193550e+02
2.540909818356405392e+00 5.133965252301359214e+02
2.541009842362166982e+00 5.134106479047878793e+02
2.541109866367928127e+00 5.134246406267387783e+02
2.541209890373689717e+00 5.134385034695650347e+02
2.541309914379450863e+00 5.134522365071522927e+02
2.541409938385212453e+00 5.134658398136932647e+02
2.541509962390973598e+00 5.134793134636843206e+02
2.541609986396735188e+00 5.134926575319248059e+02
2.541710010402496334e+00 5.135058720935139718e+02
2.541810034408257923e+00 5.135189572238492701e+02
2.541910058414019069e+00 5.135319129986249891e+02
2.542010082419780659e+00 5.135447394938296384e+02
2.542110106425541804e+00 5.135574367857468587e+02
2.542210130431303394e+00 5.135700049509506471e+02
2.542310154437064540e+00 5.135824440663075166e+02
2.542410178442826130e+00 5.135947542089737681e+02
2.542510202448587275e+00 5.136069354563944671e+02
2.542610226454348865e+00 5.136189878863043532e+02
2.542710250460110011e+00 5.136309115767261346e+02
2.542810274465871601e+00 5.136427066059695790e+02
2.542910298471632746e+00 5.136543730526331046e+02
2.543010322477394336e+00 5.136659109956024167e+02
2.543110346483155482e+00 5.136773205140506207e+02
2.543210370488917071e+00 5.136886016874389043e+02
2.543310394494678661e+00 5.136997545955173337e+02
2.543410418500440251e+00 5.137107793183236026e+02
2.543510442506201841e+00 5.137216759361861023e+02
2.543610466511962986e+00 5.137324445297236934e+02
2.543710490517724132e+00 5.137430851798455933e+02
2.543810514523485722e+00 5.137535979677543310e+02
2.543910538529247312e+00 5.137639829749456339e+02
2.544010562535008457e+00 5.137742402832116113e+02
2.544110586540769603e+00 5.137843699746400716e+02
2.544210610546531193e+00 5.137943721316172514e+02
2.544310634552292782e+00 5.138042468368307709e+02
2.544410658558053928e+00 5.138139941732691796e+02
2.544510682563815074e+00 5.138236142242267306e+02
2.544610706569576664e+00 5.138331070733044044e+02
2.544710730575338253e+00 5.138424728044105905e+02
2.544810754581099399e+00 5.138517115017677952e+02
2.544910778586860545e+00 5.138608232499117321e+02
2.545010802592622134e+00 5.138698081336947325e+02
2.545110826598383724e+00 5.138786662382905206e+02
2.545210850604144870e+00 5.138873976491961457e+02
2.545310874609906016e+00 5.138960024522343701e+02
2.545410898615667605e+00 5.139044807335576479e+02
2.545510922621429195e+00 5.139128325796534682e+02
2.545610946627190341e+00 5.139210580773449237e+02
2.545710970632951486e+00 5.139291573137968498e+02
2.545810994638713076e+00 5.139371303765179846e+02
2.545911018644474666e+00 5.139449773533659709e+02
2.546011042650235812e+00 5.139526983325529272e+02
2.546111066655996957e+00 5.139602934026468120e+02
2.546211090661758547e+00 5.139677626525773348e+02
2.546311114667520137e+00 5.139751061716401637e+02
2.546411138673281283e+00 5.139823240495032906e+02
2.546511162679042428e+00 5.139894163762093058e+02
2.546611186684804018e+00 5.139963832421815368e+02
2.546711210690565608e+00 5.140032247382292780e+02
2.546811234696326753e+00 5.140099409555522243e+02
2.546911258702087899e+00 5.140165319857472923e+02
2.547011282707849933e+00 5.140229979208113491e+02
2.547111306713611523e+00 5.140293388531503069e+02
2.547211330719372668e+00 5.140355548755820791e+02
2.547311354725134258e+00 5.140416460813418098e+02
2.547411378730895404e+00 5.140476125640913097e+02
2.547511402736656994e+00 5.140534544179212162e+02
2.547611426742418139e+00 5.140591717373598613e+02
2.547711450748179729e+00 5.140647646173778185e+02
2.547811474753940875e+00 5.140702331533950655e+02
2.547911498759702464e+00 5.140755774412864412e+02
2.548011522765463610e+00 5.140807975773905127e+02
2.548111546771225200e+00 5.140858936585138963e+02
2.548211570776986346e+00 5.140908657819385326e+02
2.548311594782747935e+00 5.140957140454300998e+02
2.548411618788509081e+00 5.141004385472422200e+02
2.548511642794270671e+00 5.141050393861272596e+02
2.548611666800031816e+00 5.141095166613404217e+02
2.548711690805793406e+00 5.141138704726475908e+02
2.548811714811554552e+00 5.141181009203356780e+02
2.548911738817316142e+00 5.141222081052155772e+02
2.549011762823077287e+00 5.141261921286325105e+02
2.549111786828838877e+00 5.141300530924745544e+02
2.549211810834600023e+00 5.141337910991783247e+02
2.549311834840361612e+00 5.141374062517372749e+02
2.549411858846122758e+00 5.141408986537114743e+02
2.549511882851884348e+00 5.141442684092342006e+02
2.549611906857645494e+00 5.141475156230204675e+02
2.549711930863407083e+00 5.141506404003744137e+02
2.549811954869168229e+00 5.141536428472001035e+02
2.549911978874929819e+00 5.141565230700088023e+02
2.550012002880690964e+00 5.141592811759253436e+02
2.550112026886452554e+00 5.141619172727004070e+02
2.550212050892213700e+00 5.141644314687176802e+02
2.550312074897975290e+00 5.141668238730019311e+02
2.550412098903736435e+00 5.141690945952296943e+02
2.550512122909498025e+00 5.141712437457356373e+02
2.550612146915259171e+00 5.141732714355254075e+02
2.550712170921021205e+00 5.141751777762807478e+02
2.550812194926782794e+00 5.141769628803722298e+02
2.550912218932543940e+00 5.141786268608672117e+02
2.551012242938305086e+00 5.141801698315375688e+02
2.551112266944066675e+00 5.141815919068723133e+02
2.551212290949828265e+00 5.141828932020848697e+02
2.551312314955589411e+00 5.141840738331234206e+02
2.551412338961350557e+00 5.141851339166807975e+02
2.551512362967112146e+00 5.141860735702050533e+02
2.551612386972873736e+00 5.141868929119068525e+02
2.551712410978634882e+00 5.141875920607724311e+02
2.551812434984396027e+00 5.141881711365701904e+02
2.551912458990157617e+00 5.141886302598654765e+02
2.552012482995919207e+00 5.141889695520252417e+02
2.552112507001680353e+00 5.141891891352329367e+02
2.552212531007441498e+00 5.141892891324953325e+02
2.552312555013203088e+00 5.141892696676553669e+02
2.552412579018964678e+00 5.141891308654010118e+02
2.552512603024725824e+00 5.141888728512758462e+02
2.552612627030486969e+00 5.141884957516901977e+02
2.552712651036248559e+00 5.141879996939316015e+02
2.552812675042010149e+00 5.141873848061744638e+02
2.552912699047771294e+00 5.141866512174921127e+02
2.553012723053532440e+00 5.141857990578665749e+02
2.553112747059294030e+00 5.141848284581990356e+02
2.553212771065055620e+00 5.141837395503227981e+02
2.553312795070816765e+00 5.141825324670104465e+02
2.553412819076577911e+00 5.141812073419891931e+02
2.553512843082339501e+00 5.141797643099471316e+02
2.553612867088101090e+00 5.141782035065488117e+02
2.553712891093862236e+00 5.141765250684428565e+02
2.553812915099623382e+00 5.141747291332749228e+02
2.553912939105384972e+00 5.141728158396977051e+02
2.554012963111146561e+00 5.141707853273838964e+02
2.554112987116907707e+00 5.141686377370341461e+02
2.554213011122668853e+00 5.141663732103924076e+02
2.554313035128430442e+00 5.141639918902531008e+02
2.554413059134192476e+00 5.141614939204768007e+02
2.554513083139953622e+00 5.141588794459971723e+02
2.554613107145715212e+00 5.141561486128359775e+02
2.554713131151476357e+00 5.141533015681118286e+02
2.554813155157237947e+00 5.141503384600537174e+02
2.554913179162999093e+00 5.141472594380106784e+02
2.555013203168760683e+00 5.141440646524648628e+02
2.555113227174521828e+00 5.141407542550418839e+02
2.555213251180283418e+00 5.141373283985227545e+02
2.555313275186044564e+00 5.141337872368561648e+02
2.555413299191806153e+00 5.141301309251690554e+02
2.555513323197567299e+00 5.141263596197775314e+02
2.555613347203328889e+00 5.141224734782019823e+02
2.555713371209090035e+00 5.141184726591736762e+02
2.555813395214851624e+00 5.141143573226509034e+02
2.555913419220612770e+00 5.141101276298279572e+02
2.556013443226374360e+00 5.141057837431478674e+02
2.556113467232135505e+00 5.141013258263134276e+02
2.556213491237897095e+00 5.140967540443002690e+02
2.556313515243658241e+00 5.140920685633666380e+02
2.556413539249419831e+00 5.140872695510662425e+02
2.556513563255180976e+00 5.140823571762608708e+02
2.556613587260942566e+00 5.140773316091296010e+02
2.556713611266703712e+00 5.140721930211834660e+02
2.556813635272465302e+00 5.140669415852748898e+02
2.556913659278226447e+00 5.140615774756105338e+02
2.557013683283988037e+00 5.140561008677623249e+02
2.557113707289749183e+00 5.140505119386804154e+02
2.557213731295510772e+00 5.140448108667034148e+02
2.557313755301271918e+00 5.140389978315715780e+02
2.557413779307033508e+00 5.140330730144368090e+02
2.557513803312794654e+00 5.140270365978757354e+02
2.557613827318556243e+00 5.140208887659016455e+02
2.557713851324317389e+00 5.140146297039736965e+02
2.557813875330078979e+00 5.140082595990128311e+02
2.557913899335840124e+00 5.140017786394088262e+02
2.558013923341601714e+00 5.139951870150352988e+02
2.558113947347363748e+00 5.139884849172599388e+02
2.558213971353124894e+00 5.139816725389551948e+02
2.558313995358886039e+00 5.139747500745127127e+02
2.558414019364647629e+00 5.139677177198523168e+02
2.558514043370409219e+00 5.139605756724338335e+02
2.558614067376170365e+00 5.139533241312693690e+02
2.558714091381931510e+00 5.139459632969358154e+02
2.558814115387693100e+00 5.139384933715831494e+02
2.558914139393454690e+00 5.139309145589488708e+02
2.559014163399215835e+00 5.139232270643685752e+02
2.559114187404976981e+00 5.139154310947862996e+02
2.559214211410738571e+00 5.139075268587674827e+02
2.559314235416500161e+00 5.138995145665084010e+02
2.559414259422261306e+00 5.138913944298493561e+02
2.559514283428022452e+00 5.138831666622845660e+02
2.559614307433784042e+00 5.138748314789737606e+02
2.559714331439545631e+00 5.138663890967542329e+02
2.559814355445306777e+00 5.138578397341502750e+02
2.559914379451067923e+00 5.138491836113861382e+02
2.560014403456829513e+00 5.138404209503943321e+02
2.560114427462591102e+00 5.138315519748297220e+02
2.560214451468352248e+00 5.138225769100793059e+02
2.560314475474113394e+00 5.138134959832724462e+02
2.560414499479874983e+00 5.138043094232909880e+02
2.560514523485636573e+00 5.137950174607832423e+02
2.560614547491397719e+00 5.137856203281722856e+02
2.560714571497158865e+00 5.137761182596661911e+02
2.560814595502920454e+00 5.137665114912699664e+02
2.560914619508682044e+00 5.137568002607970357e+02
2.561014643514443190e+00 5.137469848078762880e+02
2.561114667520204335e+00 5.137370653739662885e+02
2.561214691525965925e+00 5.137270422023639185e+02
2.561314715531727515e+00 5.137169155382154031e+02
2.561414739537488661e+00 5.137066856285246104e+02
2.561514763543249806e+00 5.136963527221670347e+02
2.561614787549011396e+00 5.136859170698961634e+02
2.561714811554772986e+00 5.136753789243556412e+02
2.561814835560534576e+00 5.136647385400885923e+02
2.561914859566296165e+00 5.136539961735484212e+02
2.562014883572057311e+00 5.136431520831083617e+02
2.562114907577818901e+00 5.136322065290695491e+02
2.562214931583580046e+00 5.136211597736738668e+02
2.562314955589341636e+00 5.136100120811108809e+02
2.562414979595102782e+00 5.135987637175292093e+02
2.562515003600864372e+00 5.135874149510453890e+02
2.562615027606625517e+00 5.135759660517530847e+02
2.562715051612387107e+00 5.135644172917329797e+02
2.562815075618148253e+00 5.135527689450610751e+02
2.562915099623909843e+00 5.135410212878194898e+02
2.563015123629670988e+00 5.135291745981043050e+02
2.563115147635432578e+00 5.135172291560350004e+02
2.563215171641193724e+00 5.135051852437630941e+02
2.563315195646955313e+00 5.134930431454818063e+02
2.563415219652716459e+00 5.134808031474339032e+02
2.563515243658478049e+00 5.134684655379207925e+02
2.563615267664239195e+00 5.134560306073117317e+02
2.563715291670000784e+00 5.134434986480512180e+02
2.563815315675761930e+00 5.134308699546672869e+02
2.563915339681523520e+00 5.134181448237818586e+02
2.564015363687284665e+00 5.134053235541171034e+02
2.564115387693046255e+00 5.133924064465024912e+02
2.564215411698807401e+00 5.133793938038867282e+02
2.564315435704568991e+00 5.133662859313412810e+02
2.564415459710330136e+00 5.133530831360717457e+02
2.564515483716091726e+00 5.133397857274225089e+02
2.564615507721852872e+00 5.133263940168876616e+02
2.564715531727614461e+00 5.133129083181155465e+02
2.564815555733375607e+00 5.132993289469180809e+02
2.564915579739137197e+00 5.132856562212757581e+02
2.565015603744898343e+00 5.132718904613490167e+02
2.565115627750659932e+00 5.132580319894808554e+02
2.565215651756421078e+00 5.132440811302067232e+02
2.565315675762182668e+00 5.132300382102598633e+02
2.565415699767943813e+00 5.132159035585789297e+02
2.565515723773705847e+00 5.132016775063143541e+02
2.565615747779466993e+00 5.131873603868352802e+02
2.565715771785228583e+00 5.131729525357335433e+02
2.565815795790990173e+00 5.131584542908351523e+02
2.565915819796751318e+00 5.131438659922006309e+02
2.566015843802512464e+00 5.131291879821354769e+02
2.566115867808274054e+00 5.131144206051942547e+02
2.566215891814035643e+00 5.130995642081850292e+02
2.566315915819796789e+00 5.130846191401783472e+02
2.566415939825557935e+00 5.130695857525106476e+02
2.566515963831319525e+00 5.130544643987894915e+02
2.566615987837081114e+00 5.130392554349010652e+02
2.566716011842842260e+00 5.130239592190125677e+02
2.566816035848603406e+00 5.130085761115784635e+02
2.566916059854364995e+00 5.129931064753470764e+02
2.567016083860126585e+00 5.129775506753624086e+02
2.567116107865887731e+00 5.129619090789714164e+02
2.567216131871648876e+00 5.129461820558271938e+02
2.567316155877410466e+00 5.129303699778939745e+02
2.567416179883172056e+00 5.129144732194503149e+02
2.567516203888933202e+00 5.128984921570954612e+02
2.567616227894694347e+00 5.128824271697516224e+02
2.567716251900455937e+00 5.128662786386671542e+02
2.567816275906217527e+00 5.128500469474233796e+02
2.567916299911978673e+00 5.128337324819353853e+02
2.568016323917739818e+00 5.128173356304555455e+02
2.568116347923501408e+00 5.128008567835797749e+02
2.568216371929262998e+00 5.127842963342473013e+02
2.568316395935024143e+00 5.127676546777445310e+02
2.568416419940785289e+00 5.127509322117114152e+02
2.568516443946546879e+00 5.127341293361375847e+02
2.568616467952308469e+00 5.127172464533716720e+02
2.568716491958069614e+00 5.127002839681193791e+02
2.568816515963830760e+00 5.126832422874483655e+02
2.568916539969592350e+00 5.126661218207889306e+02
2.569016563975353939e+00 5.126489229799356053e+02
2.569116587981115085e+00 5.126316461790524954e+02
2.569216611986877119e+00 5.126142918346694159e+02
2.569316635992638265e+00 5.125968603656892810e+02
2.569416659998399854e+00 5.125793521933856027e+02
2.569516684004161000e+00 5.125617677414047648e+02
2.569616708009922590e+00 5.125441074357680691e+02
2.569716732015683736e+00 5.125263717048716217e+02
2.569816756021445325e+00 5.125085609794889479e+02
2.569916780027206471e+00 5.124906756927686047e+02
2.570016804032968061e+00 5.124727162802377052e+02
2.570116828038729206e+00 5.124546831798007815e+02
2.570216852044490796e+00 5.124365768317398988e+02
2.570316876050251942e+00 5.124183976787159054e+02
2.570416900056013532e+00 5.124001461657665004e+02
2.570516924061774677e+00 5.123818227403073706e+02
2.570616948067536267e+00 5.123634278521326451e+02
2.570716972073297413e+00 5.123449619534103476e+02
2.570816996079059003e+00 5.123264254986875130e+02
2.570917020084820148e+00 5.123078189448835928e+02
2.571017044090581738e+00 5.122891427512931841e+02
2.571117068096342884e+00 5.122703973795830734e+02
2.571217092102104473e+00 5.122515832937911000e+02
2.571317116107865619e+00 5.122327009603267243e+02
2.571417140113627209e+00 5.122137508479636381e+02
2.571517164119388354e+00 5.121947334278445396e+02
2.571617188125149944e+00 5.121756491734761312e+02
2.571717212130911090e+00 5.121564985607250264e+02
2.571817236136672680e+00 5.121372820678187736e+02
2.571917260142433825e+00 5.121180001753408533e+02
2.572017284148195415e+00 5.120986533662293141e+02
2.572117308153956561e+00 5.120792421257726801e+02
2.572217332159718151e+00 5.120597669416093822e+02
2.572317356165479296e+00 5.120402283037205962e+02
2.572417380171240886e+00 5.120206267044297874e+02
2.572517404177002032e+00 5.120009626383985051e+02
2.572617428182763621e+00 5.119812366026228574e+02
2.572717452188524767e+00 5.119614490964275433e+02
2.572817476194286357e+00 5.119416006214648860e+02
2.572917500200047947e+00 5.119216916817078982e+02
2.573017524205809536e+00 5.119017227834484061e+02
2.573117548211571126e+00 5.118816944352894325e+02
2.573217572217332272e+00 5.118616071481428094e+02
2.573317596223093418e+00 5.118414614352231524e+02
2.573417620228855007e+00 5.118212578120428020e+02
2.573517644234616597e+00 5.118009967964059683e+02
2.573617668240377743e+00 5.117806789084064008e+02
2.573717692246138888e+00 5.117603046704156782e+02
2.573817716251900478e+00 5.117398746070827542e+02
2.573917740257662068e+00 5.117193892453262833e+02
2.574017764263423214e+00 5.116988491143276860e+02
2.574117788269184359e+00 5.116782547455239865e+02
2.574217812274945949e+00 5.116576066726049703e+02
2.574317836280707539e+00 5.116369054315023277e+02
2.574417860286468684e+00 5.116161515603845373e+02
2.574517884292229830e+00 5.115953455996494768e+02
2.574617908297991420e+00 5.115744880919180559e+02
2.574717932303753010e+00 5.115535795820253497e+02
2.574817956309514155e+00 5.115326206170138335e+02
2.574917980315275301e+00 5.115116117461243448e+02
2.575018004321036891e+00 5.114905535207903426e+02
2.575118028326798481e+00 5.114694464946276184e+02
2.575218052332559626e+00 5.114482912234271907e+02
2.575318076338320772e+00 5.114270882651460397e+02
2.575418100344082362e+00 5.114058381798981259e+02
2.575518124349843951e+00 5.113845415299471142e+02
2.575618148355605097e+00 5.113631988796956307e+02
2.575718172361366243e+00 5.113418107956761105e+02
2.575818196367127833e+00 5.113203778465421578e+02
2.575918220372889422e+00 5.112989006030587689e+02
2.576018244378650568e+00 5.112773796380915883e+02
2.576118268384411714e+00 5.112558155265985533e+02
2.576218292390173303e+00 5.112342088456175588e+02
2.576318316395934893e+00 5.112125601742579875e+02
2.576418340401696039e+00 5.111908700936897958e+02
2.576518364407457184e+00 5.111691391871313499e+02
2.576618388413219218e+00 5.111473680398412398e+02
2.576718412418980808e+00 5.111255572391035003e+02
2.576818436424741954e+00 5.111037073742201642e+02
2.576918460430503544e+00 5.110818190364971656e+02
2.577018484436264689e+00 5.110598928192337098e+02
2.577118508442026279e+00 5.110379293177106774e+02
2.577218532447787425e+00 5.110159291291781756e+02
2.577318556453549014e+00 5.109938928528421798e+02
2.577418580459310160e+00 5.109718210898556663e+02
2.577518604465071750e+00 5.109497144433018434e+02
2.577618628470832896e+00 5.109275735181843743e+02
2.577718652476594485e+00 5.109053989214130524e+02
2.577818676482355631e+00 5.108831912617915805e+02
2.577918700488117221e+00 5.108609511500032454e+02
2.578018724493878366e+00 5.108386791985980153e+02
2.578118748499639956e+00 5.108163760219803180e+02
2.578218772505401102e+00 5.107940422363916468e+02
2.578318796511162692e+00 5.107716784599003859e+02
2.578418820516923837e+00 5.107492853123848704e+02
2.578518844522685427e+00 5.107268634155211657e+02
2.578618868528446573e+00 5.107044133927661846e+02
2.578718892534208162e+00 5.106819358693458071e+02
2.578818916539969308e+00 5.106594314722369177e+02
2.578918940545730898e+00 5.106369008301547296e+02
2.579018964551492044e+00 5.106143445735362434e+02
2.579118988557253633e+00 5.105917633345253535e+02
2.579219012563014779e+00 5.105691577469560798e+02
2.579319036568776369e+00 5.105465284463391527e+02
2.579419060574537514e+00 5.105238760698430838e+02
2.579519084580299104e+00 5.105012012562814334e+02
2.579619108586060250e+00 5.104785046460923468e+02
2.579719132591821840e+00 5.104557868813255936e+02
2.579819156597582985e+00 5.104330486056229006e+02
2.579919180603344575e+00 5.104102904642054455e+02
2.580019204609105721e+00 5.103875131038511768e+02
2.580119228614867311e+00 5.103647171728820808e+02
2.580219252620628456e+00 5.103419033211444003e+02
2.580319276626390490e+00 5.103190721999922062e+02
2.580419300632152080e+00 5.102962244622691514e+02
2.580519324637913225e+00 5.102733607622903946e+02
2.580619348643674371e+00 5.102504817558244099e+02
2.580719372649435961e+00 5.102275881000759910e+02
2.580819396655197551e+00 5.102046804536658442e+02
2.580919420660958696e+00 5.101817594766136494e+02
2.581019444666719842e+00 5.101588258303180510e+02
2.581119468672481432e+00 5.101358801775387519e+02
2.581219492678243022e+00 5.101129231823764485e+02
2.581319516684004167e+00 5.100899555102541854e+02
2.581419540689765313e+00 5.100669778278975173e+02
2.581519564695526903e+00 5.100439908033139318e+02
2.581619588701288492e+00 5.100209951057760236e+02
2.581719612707049638e+00 5.099979914057990982e+02
2.581819636712810784e+00 5.099749803751193440e+02
2.581919660718572374e+00 5.099519626866784847e+02
2.582019684724333963e+00 5.099289390145990524e+02
2.582119708730095109e+00 5.099059100341654016e+02
2.582219732735856255e+00 5.098828764218021661e+02
2.582319756741617844e+00 5.098598388550543632e+02
2.582419780747379434e+00 5.098367980125657368e+02
2.582519804753140580e+00 5.098137545740568157e+02
2.582619828758901726e+00 5.097907092203038815e+02
2.582719852764663315e+00 5.097676626331187322e+02
2.582819876770424905e+00 5.097446154953240693e+02
2.582919900776186051e+00 5.097215684907334321e+02
2.583019924781947196e+00 5.096985223041298241e+02
2.583119948787708786e+00 5.096754776212414981e+02
2.583219972793470376e+00 5.096524351287194463e+02
2.583319996799231522e+00 5.096293955141179026e+02
2.583420020804992667e+00 5.096063594658675697e+02
2.583520044810754257e+00 5.095833276732552690e+02
2.583620068816515847e+00 5.095603008264010896e+02
2.583720092822276992e+00 5.095372796162328086e+02
2.583820116828038138e+00 5.095142647344645752e+02
2.583920140833799728e+00 5.094912568735734908e+02
2.584020164839561762e+00 5.094682567267747118e+02
2.584120188845322907e+00 5.094452649879989394e+02
2.584220212851084497e+00 5.094222823518655332e+02
2.584320236856845643e+00 5.093993095136638658e+02
2.584420260862607233e+00 5.093763471693240490e+02
2.584520284868368378e+00 5.093533960153936277e+02
2.584620308874129968e+00 5.093304567490151840e+02
2.584720332879891114e+00 5.093075300678995063e+02
2.584820356885652703e+00 5.092846166703005792e+02
2.584920380891413849e+00 5.092617172549930729e+02
2.585020404897175439e+00 5.092388325212440350e+02
2.585120428902936585e+00 5.092159631687898695e+02
2.585220452908698174e+00 5.091931098978103023e+02
2.585320476914459320e+00 5.091702734089013234e+02
2.585420500920220910e+00 5.091474544030536435e+02
2.585520524925982055e+00 5.091246535816209189e+02
2.585620548931743645e+00 5.091018716462988323e+02
2.585720572937504791e+00 5.090791092990969560e+02
2.585820596943266381e+00 5.090563672423121488e+02
2.585920620949027526e+00 5.090336461785029201e+02
2.586020644954789116e+00 5.090109468104636221e+02
2.586120668960550262e+00 5.089882698411949491e+02
2.586220692966311852e+00 5.089656159738808583e+02
2.586320716972072997e+00 5.089429859118593527e+02
2.586420740977834587e+00 5.089203803585965602e+02
2.586520764983595733e+00 5.088978000176582555e+02
2.586620788989357322e+00 5.088752455926839957e+02
2.586720812995118468e+00 5.088527177873593814e+02
2.586820837000880058e+00 5.088302173053878050e+02
2.586920861006641204e+00 5.088077448504640188e+02
2.587020885012402793e+00 5.087853011262444625e+02
2.587120909018163939e+00 5.087628868363224228e+02
2.587220933023925529e+00 5.087405026841969402e+02
2.587320957029686674e+00 5.087181493732458080e+02
2.587420981035448264e+00 5.086958276066984013e+02
2.587521005041209410e+00 5.086735380876068575e+02
2.587621029046971000e+00 5.086512815188154946e+02
2.587721053052733033e+00 5.086290586029351743e+02
2.587821077058494179e+00 5.086068700423128348e+02
2.587921101064255325e+00 5.085847165390039777e+02
2.588021125070016915e+00 5.085625987947425983e+02
2.588121149075778504e+00 5.085405175109130482e+02
2.588221173081539650e+00 5.085184733885193396e+02
2.588321197087300796e+00 5.084964671281580877e+02
2.588421221093062385e+00 5.084744994299886116e+02
2.588521245098823975e+00 5.084525709937015563e+02
2.588621269104585121e+00 5.084306825184924037e+02
2.588721293110346267e+00 5.084088347030300383e+02
2.588821317116107856e+00 5.083870282454262792e+02
2.588921341121869446e+00 5.083652638432087087e+02
2.589021365127630592e+00 5.083435421932877034e+02
2.589121389133391737e+00 5.083218639919283532e+02
2.589221413139153327e+00 5.083002299347212443e+02
2.589321437144914917e+00 5.082786407165485230e+02
2.589421461150676063e+00 5.082570970315578052e+02
2.589521485156437208e+00 5.082355995731300027e+02
2.589621509162198798e+00 5.082141490338478320e+02
2.589721533167960388e+00 5.081927461054666537e+02
2.589821557173721533e+00 5.081713914788840611e+02
2.589921581179482679e+00 5.081500858441081618e+02
2.590021605185244269e+00 5.081288298902277347e+02
2.590121629191005859e+00 5.081076243053799431e+02
2.590221653196767004e+00 5.080864697767215148e+02
2.590321677202528150e+00 5.080653669903962282e+02
2.590421701208289740e+00 5.080443166315030226e+02
2.590521725214051330e+00 5.080233193840676336e+02
2.590621749219812475e+00 5.080023759310089986e+02
2.590721773225573621e+00 5.079814869541078224e+02
2.590821797231335211e+00 5.079606531339767912e+02
2.590921821237096800e+00 5.079398751500281719e+02
2.591021845242857946e+00 5.079191536804427187e+02
2.591121869248619092e+00 5.078984894021374430e+02
2.591221893254380682e+00 5.078778829907341787e+02
2.591321917260142271e+00 5.078573351205285462e+02
2.591421941265903861e+00 5.078368464644572668e+02
2.591521965271665451e+00 5.078164176940672974e+02
2.591621989277426596e+00 5.077960494794828037e+02
2.591722013283188186e+00 5.077757424893744655e+02
2.591822037288949332e+00 5.077554973909259957e+02
2.591922061294710922e+00 5.077353148498044675e+02
2.592022085300472067e+00 5.077151955301248449e+02
2.592122109306233657e+00 5.076951400944213901e+02
2.592222133311994803e+00 5.076751492036139553e+02
2.592322157317756393e+00 5.076552235169731375e+02
2.592422181323517538e+00 5.076353636920940176e+02
2.592522205329279128e+00 5.076155703848583016e+02
2.592622229335040274e+00 5.075958442494042515e+02
2.592722253340801863e+00 5.075761859380939995e+02
2.592822277346563009e+00 5.075565961014822278e+02
2.592922301352324599e+00 5.075370753882813233e+02
2.593022325358085745e+00 5.075176244453310801e+02
2.593122349363847334e+00 5.074982439175653894e+02
2.593222373369608480e+00 5.074789344479795545e+02
2.593322397375370070e+00 5.074596966775967530e+02
2.593422421381131215e+00 5.074405312454383647e+02
2.593522445386892805e+00 5.074214387884879898e+02
2.593622469392653951e+00 5.074024199416610941e+02
2.593722493398415541e+00 5.073834753377703919e+02
2.593822517404176686e+00 5.073646056074954345e+02
2.593922541409938276e+00 5.073458113793479356e+02
2.594022565415699422e+00 5.073270932796410762e+02
2.594122589421461011e+00 5.073084519324532948e+02
2.594222613427222157e+00 5.072898879595993549e+02
2.594322637432983747e+00 5.072714019805957832e+02
2.594422661438744893e+00 5.072529946126279583e+02
2.594522685444506482e+00 5.072346664705177091e+02
2.594622709450267628e+00 5.072164181666901754e+02
2.594722733456029218e+00 5.071982503111419192e+02
2.594822757461790363e+00 5.071801635114057945e+02
2.594922781467551953e+00 5.071621583725227538e+02
2.595022805473313099e+00 5.071442354970041038e+02
2.595122829479075133e+00 5.071263954848010371e+02
2.595222853484836278e+00 5.071086389332711519e+02
2.595322877490597868e+00 5.070909664371473582e+02
2.595422901496359458e+00 5.070733785885030329e+02
2.595522925502120604e+00 5.070558759767200172e+02
2.595622949507881749e+00 5.070384591884560450e+02
2.595722973513643339e+00 5.070211288076114897e+02
2.595822997519404929e+00 5.070038854152978161e+02
2.595923021525166074e+00 5.069867295898036446e+02
2.596023045530927220e+00 5.069696619065629193e+02
2.596123069536688810e+00 5.069526829381216544e+02
2.596223093542450400e+00 5.069357932541046239e+02
2.596323117548211545e+00 5.069189934211855757e+02
2.596423141553972691e+00 5.069022840030505108e+02
2.596523165559734281e+00 5.068856655603694890e+02
2.596623189565495871e+00 5.068691386507604193e+02
2.596723213571257016e+00 5.068527038287589903e+02
2.596823237577018162e+00 5.068363616457843932e+02
2.596923261582779752e+00 5.068201126501098202e+02
2.597023285588541341e+00 5.068039573868253456e+02
2.597123309594302487e+00 5.067878963978112097e+02
2.597223333600063633e+00 5.067719302217004156e+02
2.597323357605825223e+00 5.067560593938505349e+02
2.597423381611586812e+00 5.067402844463086353e+02
2.597523405617347958e+00 5.067246059077804716e+02
2.597623429623109104e+00 5.067090243035978006e+02
2.597723453628870693e+00 5.066935401556883676e+02
2.597823477634632283e+00 5.066781539825403229e+02
2.597923501640393429e+00 5.066628662991716396e+02
2.598023525646154575e+00 5.066476776171019196e+02
2.598123549651916164e+00 5.066325884443144218e+02
2.598223573657677754e+00 5.066175992852279819e+02
2.598323597663438900e+00 5.066027106406651228e+02
2.598423621669200045e+00 5.065879230078202227e+02
2.598523645674961635e+00 5.065732368802265455e+02
2.598623669680723225e+00 5.065586527477262280e+02
2.598723693686484371e+00 5.065441710964385038e+02
2.598823717692246404e+00 5.065297924087288379e+02
2.598923741698007550e+00 5.065155171631765825e+02
2.599023765703769140e+00 5.065013458345441677e+02
2.599123789709530286e+00 5.064872788937458949e+02
2.599223813715291875e+00 5.064733168078176391e+02
2.599323837721053021e+00 5.064594600398853572e+02
2.599423861726814611e+00 5.064457090491333702e+02
2.599523885732575756e+00 5.064320642907750880e+02
2.599623909738337346e+00 5.064185262160219168e+02
2.599723933744098492e+00 5.064050952720509144e+02
2.599823957749860082e+00 5.063917719019773926e+02
2.599923981755621227e+00 5.063785565448218904e+02
2.600024005761382817e+00 5.063654496354797629e+02
2.600124029767143963e+00 5.063524516046942381e+02
2.600224053772905553e+00 5.063395628790217415e+02
2.600324077778666698e+00 5.063267838808053511e+02
2.600424101784428288e+00 5.063141150281434193e+02
2.600524125790189434e+00 5.063015567348581953e+02
2.600624149795951023e+00 5.062891094104703598e+02
2.600724173801712169e+00 5.062767734601657139e+02
2.600824197807473759e+00 5.062645492847667583e+02
2.600924221813234904e+00 5.062524372807031341e+02
2.601024245818996494e+00 5.062404378399825191e+02
2.601124269824757640e+00 5.062285513501623768e+02
2.601224293830519230e+00 5.062167781943196587e+02
2.601324317836280375e+00 5.062051187510224963e+02
2.601424341842041965e+00 5.061935733943000741e+02
2.601524365847803111e+00 5.061821424936174481e+02
2.601624389853564701e+00 5.061708264138421782e+02
2.601724413859325846e+00 5.061596255152196591e+02
2.601824437865087436e+00 5.061485401533429922e+02
2.601924461870848582e+00 5.061375706791272933e+02
2.602024485876610171e+00 5.061267174387768932e+02
2.602124509882371317e+00 5.061159807737626011e+02
2.602224533888132907e+00 5.061053610207904967e+02
2.602324557893894053e+00 5.060948585117768062e+02
2.602424581899655642e+00 5.060844735738171494e+02
2.602524605905417232e+00 5.060742065291640870e+02
2.602624629911178822e+00 5.060640576951938669e+02
2.602724653916940412e+00 5.060540273843855061e+02
2.602824677922701557e+00 5.060441159042896970e+02
2.602924701928462703e+00 5.060343235575035692e+02
2.603024725934224293e+00 5.060246506416442571e+02
2.603124749939985882e+00 5.060150974493215017e+02
2.603224773945747028e+00 5.060056642681130370e+02
2.603324797951508174e+00 5.059963513805369644e+02
2.603424821957269764e+00 5.059871590640268550e+02
2.603524845963031353e+00 5.059780875909050337e+02
2.603624869968792499e+00 5.059691372283575674e+02
2.603724893974553645e+00 5.059603082384086292e+02
2.603824917980315234e+00 5.059516008778959986e+02
2.603924941986076824e+00 5.059430153984430376e+02
2.604024965991837970e+00 5.059345520464397055e+02
2.604124989997599116e+00 5.059262110630096458e+02
2.604225014003360705e+00 5.059179926839930204e+02
2.604325038009122295e+00 5.059098971399184279e+02
2.604425062014883441e+00 5.059019246559778367e+02
2.604525086020644586e+00 5.058940754520060068e+02
2.604625110026406176e+00 5.058863497424531488e+02
2.604725134032167766e+00 5.058787477363627545e+02
2.604825158037928912e+00 5.058712696373484619e+02
2.604925182043690057e+00 5.058639156435700670e+02
2.605025206049451647e+00 5.058566859477107869e+02
2.605125230055213237e+00 5.058495807369533850e+02
2.605225254060974382e+00 5.058426001929582867e+02
2.605325278066735528e+00 5.058357444918421493e+02
2.605425302072497118e+00 5.058290138041525665e+02
2.605525326078258708e+00 5.058224082948490263e+02
2.605625350084019853e+00 5.058159281232775015e+02
2.605725374089780999e+00 5.058095734431533401e+02
2.605825398095542589e+00 5.058033444025352878e+02
2.605925422101304179e+00 5.057972411438065592e+02
2.606025446107065324e+00 5.057912638036523276e+02
2.606125470112826470e+00 5.057854125130411944e+02
2.606225494118588504e+00 5.057796873972009735e+02
2.606325518124350094e+00 5.057740885756012972e+02
2.606425542130111239e+00 5.057686161619318455e+02
2.606525566135872829e+00 5.057632702640815978e+02
2.606625590141633975e+00 5.057580509841216099e+02
2.606725614147395564e+00 5.057529584182814233e+02
2.606825638153156710e+00 5.057479926569337749e+02
2.606925662158918300e+00 5.057431537845731100e+02
2.607025686164679446e+00 5.057384418797956300e+02
2.607125710170441035e+00 5.057338570152836041e+02
2.607225734176202181e+00 5.057293992577839958e+02
2.607325758181963771e+00 5.057250686680918079e+02
2.607425782187724916e+00 5.057208653010317221e+02
2.607525806193486506e+00 5.057167892054402500e+02
2.607625830199247652e+00 5.057128404241467479e+02
2.607725854205009242e+00 5.057090189939577840e+02
2.607825878210770387e+00 5.057053249456408821e+02
2.607925902216531977e+00 5.057017583039045689e+02
2.608025926222293123e+00 5.056983190873842773e+02
2.608125950228054712e+00 5.056950073086251223e+02
2.608225974233815858e+00 5.056918229740650759e+02
2.608325998239577448e+00 5.056887660840205854e+02
2.608426022245338594e+00 5.056858366326690657e+02
2.608526046251100183e+00 5.056830346080348590e+02
2.608626070256861329e+00 5.056803599919751377e+02
2.608726094262622919e+00 5.056778127601607480e+02
2.608826118268384064e+00 5.056753928820663759e+02
2.608926142274145654e+00 5.056731003209529263e+02
2.609026166279906800e+00 5.056709350338554714e+02
2.609126190285668390e+00 5.056688969715680173e+02
2.609226214291429535e+00 5.056669860786298614e+02
2.609326238297191125e+00 5.056652022933129160e+02
2.609426262302952271e+00 5.056635455476086918e+02
2.609526286308713861e+00 5.056620157672138589e+02
2.609626310314475006e+00 5.056606128715206978e+02
2.609726334320236596e+00 5.056593367736008986e+02
2.609826358325997742e+00 5.056581873801974325e+02
2.609926382331759775e+00 5.056571645917091473e+02
2.610026406337521365e+00 5.056562683021822977e+02
2.610126430343282511e+00 5.056554983992970733e+02
2.610226454349043657e+00 5.056548547643579354e+02
2.610326478354805246e+00 5.056543372722836125e+02
2.610426502360566836e+00 5.056539457915926619e+02
2.610526526366327982e+00 5.056536801843993203e+02
2.610626550372089127e+00 5.056535403063993499e+02
2.610726574377850717e+00 5.056535260068616253e+02
2.610826598383612307e+00 5.056536371286188114e+02
2.610926622389373453e+00 5.056538735080592915e+02
2.611026646395134598e+00 5.056542349751168786e+02
2.611126670400896188e+00 5.056547213532624596e+02
2.611226694406657778e+00 5.056553324594974583e+02
2.611326718412418924e+00 5.056560681043455929e+02
2.611426742418180069e+00 5.056569280918424738e+02
2.611526766423941659e+00 5.056579122195324771e+02
2.611626790429703249e+00 5.056590202784587404e+02
2.611726814435464394e+00 5.056602520531580467e+02
2.611826838441225540e+00 5.056616073216528093e+02
2.611926862446987130e+00 5.056630858554478323e+02
2.612026886452748720e+00 5.056646874195209307e+02
2.612126910458509865e+00 5.056664117723196910e+02
2.612226934464271011e+00 5.056682586657561842e+02
2.612326958470032601e+00 5.056702278451998041e+02
2.612426982475794190e+00 5.056723190494766413e+02
2.612527006481555336e+00 5.056745320108609576e+02
2.612627030487316482e+00 5.056768664550745029e+02
2.612727054493078072e+00 5.056793221012808317e+02
2.612827078498839661e+00 5.056818986620822329e+02
2.612927102504600807e+00 5.056845958435167745e+02
2.613027126510361953e+00 5.056874133450558588e+02
2.613127150516123542e+00 5.056903508596009260e+02
2.613227174521885132e+00 5.056934080734831696e+02
2.613327198527646278e+00 5.056965846664587616e+02
2.613427222533407424e+00 5.056998803117096486e+02
2.613527246539169013e+00 5.057032946758413345e+02
2.613627270544931047e+00 5.057068274188817441e+02
2.613727294550692193e+00 5.057104781942814498e+02
2.613827318556453783e+00 5.057142466489131607e+02
2.613927342562214928e+00 5.057181324230711539e+02
2.614027366567976518e+00 5.057221351504715585e+02
2.614127390573737664e+00 5.057262544582538339e+02
2.614227414579499253e+00 5.057304899669816223e+02
2.614327438585260399e+00 5.057348412906437716e+02
2.614427462591021989e+00 5.057393080366548475e+02
2.614527486596783135e+00 5.057438898058592258e+02
2.614627510602544724e+00 5.057485861925327413e+02
2.614727534608305870e+00 5.057533967843837104e+02
2.614827558614067460e+00 5.057583211625570812e+02
2.614927582619828605e+00 5.057633589016387532e+02
2.615027606625590195e+00 5.057685095696569988e+02
2.615127630631351341e+00 5.057737727280873514e+02
2.615227654637112931e+00 5.057791479318568690e+02
2.615327678642874076e+00 5.057846347293491363e+02
2.615427702648635666e+00 5.057902326624085845e+02
2.615527726654396812e+00 5.057959412663450394e+02
2.615627750660158402e+00 5.058017600699400873e+02
2.615727774665919547e+00 5.058076885954545219e+02
2.615827798671681137e+00 5.058137263586302197e+02
2.615927822677442283e+00 5.058198728687020775e+02
2.616027846683203872e+00 5.058261276284004566e+02
2.616127870688965018e+00 5.058324901339603343e+02
2.616227894694726608e+00 5.058389598751292624e+02
2.616327918700487754e+00 5.058455363351739607e+02
2.616427942706249343e+00 5.058522189908895257e+02
2.616527966712010489e+00 5.058590073126084690e+02
2.616627990717772079e+00 5.058659007642069696e+02
2.616728014723533224e+00 5.058728988031179483e+02
2.616828038729294814e+00 5.058800008803373203e+02
2.616928062735055960e+00 5.058872064404356479e+02
2.617028086740817550e+00 5.058945149215691117e+02
2.617128110746578695e+00 5.059019257554862179e+02
2.617228134752340285e+00 5.059094383675443964e+02
2.617328158758102319e+00 5.059170521767168225e+02
2.617428182763863465e+00 5.059247665956066271e+02
2.617528206769624610e+00 5.059325810304565039e+02
2.617628230775386200e+00 5.059404948811635450e+02
2.617728254781147790e+00 5.059485075412898141e+02
2.617828278786908935e+00 5.059566183980776373e+02
2.617928302792670081e+00 5.059648268324593801e+02
2.618028326798431671e+00 5.059731322190752962e+02
2.618128350804193261e+00 5.059815339262846692e+02
2.618228374809954406e+00 5.059900313161805911e+02
2.618328398815715552e+00 5.059986237446062205e+02
2.618428422821477142e+00 5.060073105611682536e+02
2.618528446827238731e+00 5.060160911092522156e+02
2.618628470832999877e+00 5.060249647260397978e+02
2.618728494838761023e+00 5.060339307425237507e+02
2.618828518844522613e+00 5.060429884835240273e+02
2.618928542850284202e+00 5.060521372677062573e+02
2.619028566856045348e+00 5.060613764075970948e+02
2.619128590861806494e+00 5.060707052096023517e+02
2.619228614867568083e+00 5.060801229740253575e+02
2.619328638873329673e+00 5.060896289950834444e+02
2.619428662879090819e+00 5.060992225609290358e+02
2.619528686884851965e+00 5.061089029536680073e+02
2.619628710890613554e+00 5.061186694493750338e+02
2.619728734896375144e+00 5.061285213181197946e+02
2.619828758902136290e+00 5.061384578239808434e+02
2.619928782907897435e+00 5.061484782250698231e+02
2.620028806913659025e+00 5.061585817735502815e+02
2.620128830919420615e+00 5.061687677156585323e+02
2.620228854925181761e+00 5.061790352917263363e+02
2.620328878930942906e+00 5.061893837362015915e+02
2.620428902936704496e+00 5.061998122776701052e+02
2.620528926942466086e+00 5.062103201388791263e+02
2.620628950948227232e+00 5.062209065367582639e+02
2.620728974953988377e+00 5.062315706824447830e+02
2.620828998959749967e+00 5.062423117813046360e+02
2.620929022965511557e+00 5.062531290329590661e+02
2.621029046971273146e+00 5.062640216313052406e+02
2.621129070977034736e+00 5.062749887645441618e+02
2.621229094982795882e+00 5.062860296152028923e+02
2.621329118988557472e+00 5.062971433601611579e+02
2.621429142994318617e+00 5.063083291706766431e+02
2.621529167000080207e+00 5.063195862124102291e+02
2.621629191005841353e+00 5.063309136454524833e+02
2.621729215011602943e+00 5.063423106243515122e+02
2.621829239017364088e+00 5.063537762981364381e+02
2.621929263023125678e+00 5.063653098103488901e+02
2.622029287028886824e+00 5.063769102990680722e+02
2.622129311034648413e+00 5.063885768969395826e+02
2.622229335040409559e+00 5.064003087312012781e+02
2.622329359046171149e+00 5.064121049237168108e+02
2.622429383051932295e+00 5.064239645909999581e+02
2.622529407057693884e+00 5.064358868442459425e+02
2.622629431063455030e+00 5.064478707893615592e+02
2.622729455069216620e+00 5.064599155269943367e+02
2.622829479074977765e+00 5.064720201525626635e+02
2.622929503080739355e+00 5.064841837562868250e+02
2.623029527086500501e+00 5.064964054232202670e+02
2.623129551092262091e+00 5.065086842332815991e+02
2.623229575098023236e+00 5.065210192612838682e+02
2.623329599103784826e+00 5.065334095769701435e+02
2.623429623109545972e+00 5.065458542450423920e+02
2.623529647115307561e+00 5.065583523251967790e+02
2.623629671121068707e+00 5.065709028721558411e+02
2.623729695126830297e+00 5.065835049357018534e+02
2.623829719132591443e+00 5.065961575607103669e+02
2.623929743138353032e+00 5.066088597871849402e+02
2.624029767144114178e+00 5.066216106502909042e+02
2.624129791149875768e+00 5.066344091803911169e+02
2.624229815155636913e+00 5.066472544030795575e+02
2.624329839161398503e+00 5.066601453392187864e+02
2.624429863167159649e+00 5.066730810049726301e+02
2.624529887172921239e+00 5.066860604118465972e+02
2.624629911178682384e+00 5.066990825667206195e+02
2.624729935184444418e+00 5.067121464718867969e+02
2.624829959190205564e+00 5.067252511250878797e+02
2.624929983195967154e+00 5.067383955195539897e+02
2.625030007201728743e+00 5.067515786440384318e+02
2.625130031207489889e+00 5.067647994828590186e+02
2.625230055213251035e+00 5.067780570159346212e+02
2.625330079219012624e+00 5.067913502188241068e+02
2.625430103224774214e+00 5.068046780627651628e+02
2.625530127230535360e+00 5.068180395147159061e+02
2.625630151236296506e+00 5.068314335373902395e+02
2.625730175242058095e+00 5.068448590893020764e+02
2.625830199247819685e+00 5.068583151248046761e+02
2.625930223253580831e+00 5.068718005941295814e+02
2.626030247259341976e+00 5.068853144434295359e+02
2.626130271265103566e+00 5.068988556148185012e+02
2.626230295270865156e+00 5.069124230464161656e+02
2.626330319276626302e+00 5.069260156723853470e+02
2.626430343282387447e+00 5.069396324229776383e+02
2.626530367288149037e+00 5.069532722245750165e+02
2.626630391293910627e+00 5.069669339997333282e+02
2.626730415299671773e+00 5.069806166672254903e+02
2.626830439305432918e+00 5.069943191420833273e+02
2.626930463311194508e+00 5.070080403356433862e+02
2.627030487316956098e+00 5.070217791555910480e+02
2.627130511322717243e+00 5.070355345060034438e+02
2.627230535328478389e+00 5.070493052873965780e+02
2.627330559334239979e+00 5.070630903967676204e+02
2.627430583340001569e+00 5.070768887276437908e+02
2.627530607345762714e+00 5.070906991701243669e+02
2.627630631351523860e+00 5.071045206109295691e+02
2.627730655357285450e+00 5.071183519334458651e+02
2.627830679363047039e+00 5.071321920177709330e+02
2.627930703368808185e+00 5.071460397407641949e+02
2.628030727374569331e+00 5.071598939760913254e+02
2.628130751380330921e+00 5.071737535942728528e+02
2.628230775386092510e+00 5.071876174627309410e+02
2.628330799391853656e+00 5.072014844458380480e+02
2.628430823397615690e+00 5.072153534049666064e+02
2.628530847403376836e+00 5.072292231985355784e+02
2.628630871409138425e+00 5.072430926820608192e+02
2.628730895414899571e+00 5.072569607082041330e+02
2.628830919420661161e+00 5.072708261268224987e+02
2.628930943426422306e+00 5.072846877850182068e+02
2.629030967432183896e+00 5.072985445271892218e+02
2.629130991437945042e+00 5.073123951950784658e+02
2.629231015443706632e+00 5.073262386278261715e+02
2.629331039449467777e+00 5.073400736620196199e+02
2.629431063455229367e+00 5.073538991317447540e+02
2.629531087460990513e+00 5.073677138686387025e+02
2.629631111466752103e+00 5.073815167019396881e+02
2.629731135472513248e+00 5.073953064585399488e+02
2.629831159478274838e+00 5.074090819630389433e+02
2.629931183484035984e+00 5.074228420377949078e+02
2.630031207489797573e+00 5.074365855029787440e+02
2.630131231495558719e+00 5.074503111766258030e+02
2.630231255501320309e+00 5.074640178746900006e+02
2.630331279507081454e+00 5.074777044110986708e+02
2.630431303512843044e+00 5.074913695978042369e+02
2.630531327518604190e+00 5.075050122448405432e+02
2.630631351524365780e+00 5.075186311603763443e+02
2.630731375530126925e+00 5.075322251507689657e+02
2.630831399535888515e+00 5.075457930206223409e+02
2.630931423541649661e+00 5.075593335728392503e+02
2.631031447547411251e+00 5.075728456086777669e+02
2.631131471553172396e+00 5.075863279278075879e+02
2.631231495558933986e+00 5.075997793283657984e+02
2.631331519564695132e+00 5.076131986070125208e+02
2.631431543570456721e+00 5.076265845589884975e+02
2.631531567576217867e+00 5.076399359781700582e+02
2.631631591581979457e+00 5.076532516571276119e+02
2.631731615587740603e+00 5.076665303871830588e+02
2.631831639593502192e+00 5.076797709584664062e+02
2.631931663599263338e+00 5.076929721599724985e+02
2.632031687605024928e+00 5.077061327796214414e+02
2.632131711610786517e+00 5.077192516043144792e+02
2.632231735616548107e+00 5.077323274199934531e+02
2.632331759622309697e+00 5.077453590116998043e+02
2.632431783628070843e+00 5.077583451636314180e+02
2.632531807633831988e+00 5.077712846592045821e+02
2.632631831639593578e+00 5.077841762811111153e+02
2.632731855645355168e+00 5.077970188113782797e+02
2.632831879651116314e+00 5.078098110314284668e+02
2.632931903656877459e+00 5.078225517221401333e+02
2.633031927662639049e+00 5.078352396639060089e+02
2.633131951668400639e+00 5.078478736366953967e+02
2.633231975674161784e+00 5.078604524201142567e+02
2.633331999679922930e+00 5.078729747934640955e+02
2.633432023685684520e+00 5.078854395358055740e+02
2.633532047691446110e+00 5.078978454260181365e+02
2.633632071697207255e+00 5.079101912428628225e+02
2.633732095702968401e+00 5.079224757650401898e+02
2.633832119708729991e+00 5.079346977712575040e+02
2.633932143714491581e+00 5.079468560402855246e+02
2.634032167720252726e+00 5.079589493510252396e+02
2.634132191726013872e+00 5.079709764825658453e+02
2.634232215731775462e+00 5.079829362142501168e+02
2.634332239737537051e+00 5.079948273257367646e+02
2.634432263743298197e+00 5.080066485970622807e+02
2.634532287749059343e+00 5.080183988087050011e+02
2.634632311754820932e+00 5.080300767416482017e+02
2.634732335760582522e+00 5.080416811774421717e+02
2.634832359766343668e+00 5.080532108982690715e+02
2.634932383772104814e+00 5.080646646870080190e+02
2.635032407777866403e+00 5.080760413272961387e+02
2.635132431783627993e+00 5.080873396035945575e+02
2.635232455789389139e+00 5.080985583012518418e+02
2.635332479795150284e+00 5.081096962065684011e+02
2.635432503800911874e+00 5.081207521068628807e+02
2.635532527806673464e+00 5.081317247905333261e+02
2.635632551812434610e+00 5.081426130471256783e+02
2.635732575818195755e+00 5.081534156673964162e+02
2.635832599823957789e+00 5.081641314433788921e+02
2.635932623829719379e+00 5.081747591684484178e+02
2.636032647835480525e+00 5.081852976373874071e+02
2.636132671841242114e+00 5.081957456464518827e+02
2.636232695847003260e+00 5.082061019934359933e+02
2.636332719852764850e+00 5.082163654777385773e+02
2.636432743858525996e+00 5.082265349004292148e+02
2.636532767864287585e+00 5.082366090643148482e+02
2.636632791870048731e+00 5.082465867740045269e+02
2.636732815875810321e+00 5.082564668359775055e+02
2.636832839881571466e+00 5.082662480586487845e+02
2.636932863887333056e+00 5.082759292524360717e+02
2.637032887893094202e+00 5.082855092298267436e+02
2.637132911898855792e+00 5.082949868054441254e+02
2.637232935904616937e+00 5.083043607961162706e+02
2.637332959910378527e+00 5.083136300209392289e+02
2.637432983916139673e+00 5.083227933013487814e+02
2.637533007921901262e+00 5.083318494611845608e+02
2.637633031927662408e+00 5.083407973267596844e+02
2.637733055933423998e+00 5.083496357269260670e+02
2.637833079939185144e+00 5.083583634931444521e+02
2.637933103944946733e+00 5.083669794595488156e+02
2.638033127950707879e+00 5.083754824630185567e+02
2.638133151956469469e+00 5.083838713432432996e+02
2.638233175962230614e+00 5.083921449427904236e+02
2.638333199967992204e+00 5.084003021071760600e+02
2.638433223973753350e+00 5.084083416849298374e+02
2.638533247979514940e+00 5.084162625276665040e+02
2.638633271985276085e+00 5.084240634901508997e+02
2.638733295991037675e+00 5.084317434303690106e+02
2.638833319996798821e+00 5.084393012095951008e+02
2.638933344002560411e+00 5.084467356924593560e+02
2.639033368008321556e+00 5.084540457470191086e+02
2.639133392014083146e+00 5.084612302448247192e+02
2.639233416019844292e+00 5.084682880609899485e+02
2.639333440025605881e+00 5.084752180742603969e+02
2.639433464031367027e+00 5.084820191670808072e+02
2.639533488037129061e+00 5.084886902256665735e+02
2.639633512042890651e+00 5.084952301400704187e+02
2.639733536048651796e+00 5.085016378042521978e+02
2.639833560054412942e+00 5.085079121161477929e+02
2.639933584060174532e+00 5.085140519777386316e+02
2.640033608065936122e+00 5.085200562951192751e+02
2.640133632071697267e+00 5.085259239785676186e+02
2.640233656077458413e+00 5.085316539426147529e+02
2.640333680083220003e+00 5.085372451061120955e+02
2.640433704088981592e+00 5.085426963923024459e+02
2.640533728094742738e+00 5.085480067288868895e+02
2.640633752100503884e+00 5.085531750480968185e+02
2.640733776106265474e+00 5.085582002867606661e+02
2.640833800112027063e+00 5.085630813863757567e+02
2.640933824117788209e+00 5.085678172931740164e+02
2.641033848123549355e+00 5.085724069581938238e+02
2.641133872129310944e+00 5.085768493373489036e+02
2.641233896135072534e+00 5.085811433914969939e+02
2.641333920140833680e+00 5.085852880865091379e+02
2.641433944146594825e+00 5.085892823933392037e+02
2.641533968152356415e+00 5.085931252880931197e+02
2.641633992158118005e+00 5.085968157520967452e+02
2.641734016163879151e+00 5.086003527719677777e+02
2.641834040169640296e+00 5.086037353396827143e+02
2.641934064175401886e+00 5.086069624526458028e+02
2.642034088181163476e+00 5.086100331137596413e+02
2.642134112186924622e+00 5.086129463314937880e+02
2.642234136192685767e+00 5.086157011199531439e+02
2.642334160198447357e+00 5.086182964989478705e+02
2.642434184204208947e+00 5.086207314940611468e+02
2.642534208209970092e+00 5.086230051367198257e+02
2.642634232215731238e+00 5.086251164642613389e+02
2.642734256221492828e+00 5.086270645200055469e+02
2.642834280227254418e+00 5.086288483533183467e+02
2.642934304233015563e+00 5.086304670196874440e+02
2.643034328238776709e+00 5.086319195807845972e+02
2.643134352244538299e+00 5.086332051045380922e+02
2.643234376250300333e+00 5.086343226651986242e+02
2.643334400256061478e+00 5.086352713434126827e+02
2.643434424261823068e+00 5.086360502262837713e+02
2.643534448267584214e+00 5.086366584074473849e+02
2.643634472273345803e+00 5.086370949871349012e+02
2.643734496279106949e+00 5.086373590722449762e+02
2.643834520284868539e+00 5.086374497764088005e+02
2.643934544290629685e+00 5.086373662200600165e+02
2.644034568296391274e+00 5.086371075305025897e+02
2.644134592302152420e+00 5.086366728419773153e+02
2.644234616307914010e+00 5.086360612957317358e+02
2.644334640313675155e+00 5.086352720400853968e+02
2.644434664319436745e+00 5.086343042305003905e+02
2.644534688325197891e+00 5.086331570296450195e+02
2.644634712330959481e+00 5.086318296074645673e+02
2.644734736336720626e+00 5.086303211412467817e+02
2.644834760342482216e+00 5.086286308156900304e+02
2.644934784348243362e+00 5.086267578229689548e+02
2.645034808354004952e+00 5.086247013628027958e+02
2.645134832359766097e+00 5.086224606425219008e+02
2.645234856365527687e+00 5.086200348771333779e+02
2.645334880371288833e+00 5.086174232893890803e+02
2.645434904377050422e+00 5.086146251098510334e+02
2.645534928382811568e+00 5.086116395769573160e+02
2.645634952388573158e+00 5.086084659370903864e+02
2.645734976394334304e+00 5.086051034446393828e+02
2.645835000400095893e+00 5.086015513620704951e+02
2.645935024405857039e+00 5.085978089599885834e+02
2.646035048411618629e+00 5.085938755172045944e+02
2.646135072417379774e+00 5.085897503208030344e+02
2.646235096423141364e+00 5.085854326662010862e+02
2.646335120428902510e+00 5.085809218572211989e+02
2.646435144434664100e+00 5.085762172061503747e+02
2.646535168440425245e+00 5.085713180338073016e+02
2.646635192446186835e+00 5.085662236696068703e+02
2.646735216451947981e+00 5.085609334516244644e+02
2.646835240457709570e+00 5.085554467266593406e+02
2.646935264463471604e+00 5.085497628503002261e+02
2.647035288469232750e+00 5.085438811869868232e+02
2.647135312474993896e+00 5.085378011100766571e+02
2.647235336480755485e+00 5.085315220019057278e+02
2.647335360486517075e+00 5.085250432538533119e+02
2.647435384492278221e+00 5.085183642664043759e+02
2.647535408498039367e+00 5.085114844492135262e+02
2.647635432503800956e+00 5.085044032211664558e+02
2.647735456509562546e+00 5.084971200104431546e+02
2.647835480515323692e+00 5.084896342545794141e+02
2.647935504521084837e+00 5.084819454005302646e+02
2.648035528526846427e+00 5.084740529047309678e+02
2.648135552532608017e+00 5.084659562331585221e+02
2.648235576538369163e+00 5.084576548613935074e+02
2.648335600544130308e+00 5.084491482746803968e+02
2.648435624549891898e+00 5.084404359679900267e+02
2.648535648555653488e+00 5.084315174460797380e+02
2.648635672561414633e+00 5.084223922235524924e+02
2.648735696567175779e+00 5.084130598249194009e+02
2.648835720572937369e+00 5.084035197846584992e+02
2.648935744578698959e+00 5.083937716472746615e+02
2.649035768584460104e+00 5.083838149673583757e+02
2.649135792590221250e+00 5.083736493096469644e+02
2.649235816595982840e+00 5.083632742490818828e+02
2.649335840601744430e+00 5.083526893708680063e+02
2.649435864607505575e+00 5.083418942705323502e+02
2.649535888613266721e+00 5.083308885539826747e+02
2.649635912619028311e+00 5.083196718375651244e+02
2.649735936624789900e+00 5.083082437481201623e+02
2.649835960630551046e+00 5.082966039230436763e+02
2.649935984636312192e+00 5.082847520103413217e+02
2.650036008642073782e+00 5.082726876686863307e+02
2.650136032647835371e+00 5.082604105674759580e+02
2.650236056653596517e+00 5.082479203868883815e+02
2.650336080659357663e+00 5.082352168179378396e+02
2.650436104665119252e+00 5.082222995625306794e+02
2.650536128670880842e+00 5.082091683335214043e+02
2.650636152676642432e+00 5.081958228547678118e+02
2.650736176682404022e+00 5.081822628611841992e+02
2.650836200688165167e+00 5.081684880987979795e+02
2.650936224693926757e+00 5.081544983248030576e+02
2.651036248699687903e+00 5.081402933076142290e+02
2.651136272705449493e+00 5.081258728269195331e+02
2.651236296711210638e+00 5.081112366737350499e+02
2.651336320716972228e+00 5.080963846504571393e+02
2.651436344722733374e+00 5.080813165709153623e+02
2.651536368728494963e+00 5.080660322604248336e+02
2.651636392734256109e+00 5.080505315558377220e+02
2.651736416740017699e+00 5.080348143055967967e+02
2.651836440745778845e+00 5.080188803697834601e+02
2.651936464751540434e+00 5.080027296201719196e+02
2.652036488757301580e+00 5.079863619402781865e+02
2.652136512763063170e+00 5.079697772254118036e+02
2.652236536768824315e+00 5.079529753827232526e+02
2.652336560774585905e+00 5.079359563312568184e+02
2.652436584780347051e+00 5.079187200019977126e+02
2.652536608786108641e+00 5.079012663379214700e+02
2.652636632791869786e+00 5.078835952940430047e+02
2.652736656797631376e+00 5.078657068374650407e+02
2.652836680803392522e+00 5.078476009474242687e+02
2.652936704809154111e+00 5.078292776153416526e+02
2.653036728814915257e+00 5.078107368448666534e+02
2.653136752820676847e+00 5.077919786519250920e+02
2.653236776826437993e+00 5.077730030647668400e+02
2.653336800832199582e+00 5.077538101240109540e+02
2.653436824837960728e+00 5.077343998826895586e+02
2.653536848843722318e+00 5.077147724062951966e+02
2.653636872849483463e+00 5.076949277728256220e+02
2.653736896855245053e+00 5.076748660728273990e+02
2.653836920861006199e+00 5.076545874094400119e+02
2.653936944866767789e+00 5.076340918984394648e+02
2.654036968872528934e+00 5.076133796682835282e+02
2.654136992878290524e+00 5.075924508601506773e+02
2.654237016884051670e+00 5.075713056279860780e+02
2.654337040889813704e+00 5.075499441385436512e+02
2.654437064895574849e+00 5.075283665714235894e+02
2.654537088901336439e+00 5.075065731191194800e+02
2.654637112907098029e+00 5.074845639870538889e+02
2.654737136912859174e+00 5.074623393936229263e+02
2.654837160918620320e+00 5.074398995702329103e+02
2.654937184924381910e+00 5.074172447613422037e+02
2.655037208930143500e+00 5.073943752244990719e+02
2.655137232935904645e+00 5.073712912303811891e+02
2.655237256941665791e+00 5.073479930628334387e+02
2.655337280947427381e+00 5.073244810189063401e+02
2.655437304953188971e+00 5.073007554088920301e+02
2.655537328958950116e+00 5.072768165563635421e+02
2.655637352964711262e+00 5.072526647982092527e+02
2.655737376970472852e+00 5.072283004846702852e+02
2.655837400976234441e+00 5.072037239793743879e+02
2.655937424981995587e+00 5.071789356593738489e+02
2.656037448987756733e+00 5.071539359151780673e+02
2.656137472993518323e+00 5.071287251507881138e+02
2.656237496999279912e+00 5.071033037837315760e+02
2.656337521005041058e+00 5.070776722450952434e+02
2.656437545010802204e+00 5.070518309795579057e+02
2.656537569016563793e+00 5.070257804454222423e+02
2.656637593022325383e+00 5.069995211146489851e+02
2.656737617028086529e+00 5.069730534728857947e+02
2.656837641033847675e+00 5.069463780194995479e+02
2.656937665039609264e+00 5.069194952676065213e+02
2.657037689045370854e+00 5.068924057441035416e+02
2.657137713051132000e+00 5.068651099896961796e+02
2.657237737056893145e+00 5.068376085589276272e+02
2.657337761062654735e+00 5.068099020202103588e+02
2.657437785068416325e+00 5.067819909558489258e+02
2.657537809074177471e+00 5.067538759620726978e+02
2.657637833079938616e+00 5.067255576490609315e+02
2.657737857085700206e+00 5.066970366409681219e+02
2.657837881091461796e+00 5.066683135759534480e+02
2.657937905097222941e+00 5.066393891062023158e+02
2.658037929102984975e+00 5.066102638979555763e+02
2.658137953108746121e+00 5.065809386315318648e+02
2.658237977114507711e+00 5.065514140013509632e+02
2.658338001120268856e+00 5.065216907159600623e+02
2.658438025126030446e+00 5.064917694980553051e+02
2.658538049131791592e+00 5.064616510845039556e+02
2.658638073137553182e+00 5.064313362263670228e+02
2.658738097143314327e+00 5.064008256889225095e+02
2.658838121149075917e+00 5.063701202516823514e+02
2.658938145154837063e+00 5.063392207084183383e+02
2.659038169160598652e+00 5.063081278671772338e+02
2.659138193166359798e+00 5.062768425503027743e+02
2.659238217172121388e+00 5.062453655944553930e+02
2.659338241177882534e+00 5.062136978506272840e+02
2.659438265183644123e+00 5.061818401841642867e+02
2.659538289189405269e+00 5.061497934747807221e+02
2.659638313195166859e+00 5.061175586165769573e+02
2.659738337200928004e+00 5.060851365180558901e+02
2.659838361206689594e+00 5.060525281021377850e+02
2.659938385212450740e+00 5.060197343061774404e+02
2.660038409218212330e+00 5.059867560819755568e+02
2.660138433223973475e+00 5.059535943957963582e+02
2.660238457229735065e+00 5.059202502283797003e+02
2.660338481235496211e+00 5.058867245749531776e+02
2.660438505241257801e+00 5.058530184452458798e+02
2.660538529247018946e+00 5.058191328634991351e+02
2.660638553252780536e+00 5.057850688684798115e+02
2.660738577258541682e+00 5.057508275134885594e+02
2.660838601264303271e+00 5.057164098663723735e+02
2.660938625270064417e+00 5.056818170095324376e+02
2.661038649275826007e+00 5.056470500399336743e+02
2.661138673281587153e+00 5.056121100691148058e+02
2.661238697287348742e+00 5.055769982231938684e+02
2.661338721293109888e+00 5.055417156428771932e+02
2.661438745298871478e+00 5.055062634834663413e+02
2.661538769304632623e+00 5.054706429148633333e+02
2.661638793310394213e+00 5.054348551215767884e+02
2.661738817316155803e+00 5.053989013027270403e+02
2.661838841321917393e+00 5.053627826720516509e+02
2.661938865327678982e+00 5.053265004579067181e+02
2.662038889333440128e+00 5.052900559032735259e+02
2.662138913339201274e+00 5.052534502657589996e+02
2.662238937344962864e+00 5.052166848175984910e+02
2.662338961350724453e+00 5.051797608456581656e+02
2.662438985356485599e+00 5.051426796514335251e+02
2.662539009362246745e+00 5.051054425510545798e+02
2.662639033368008334e+00 5.050680508752804485e+02
2.662739057373769924e+00 5.050305059695019168e+02
2.662839081379531070e+00 5.049928091937385943e+02
2.662939105385292216e+00 5.049549619226378354e+02
2.663039129391053805e+00 5.049169655454713848e+02
2.663139153396815395e+00 5.048788214661332177e+02
2.663239177402576541e+00 5.048405311031351630e+02
2.663339201408337686e+00 5.048020958896029242e+02
2.663439225414099276e+00 5.047635172732698834e+02
2.663539249419860866e+00 5.047247967164730085e+02
2.663639273425622012e+00 5.046859356961472258e+02
2.663739297431383157e+00 5.046469357038161547e+02
2.663839321437144747e+00 5.046077982455875031e+02
2.663939345442906337e+00 5.045685248421428923e+02
2.664039369448667482e+00 5.045291170287310933e+02
2.664139393454428628e+00 5.044895763551574532e+02
2.664239417460190218e+00 5.044499043857748575e+02
2.664339441465951808e+00 5.044101026994723611e+02
2.664439465471712953e+00 5.043701728896660939e+02
2.664539489477474099e+00 5.043301165642853334e+02
2.664639513483235689e+00 5.042899353457623874e+02
2.664739537488997279e+00 5.042496308710171888e+02
2.664839561494758424e+00 5.042092047914463819e+02
2.664939585500519570e+00 5.041686587729072926e+02
2.665039609506281160e+00 5.041279944957046268e+02
2.665139633512042749e+00 5.040872136545733042e+02
2.665239657517803895e+00 5.040463179586645879e+02
2.665339681523565041e+00 5.040053091315281222e+02
2.665439705529327075e+00 5.039641889110952775e+02
2.665539729535088664e+00 5.039229590496598234e+02
2.665639753540849810e+00 5.038816213138631497e+02
2.665739777546611400e+00 5.038401774846693115e+02
2.665839801552372546e+00 5.037986293573515013e+02
2.665939825558134135e+00 5.037569787414670941e+02
2.666039849563895281e+00 5.037152274608392304e+02
2.666139873569656871e+00 5.036733773535335104e+02
2.666239897575418016e+00 5.036314302718370755e+02
2.666339921581179606e+00 5.035893880822354163e+02
2.666439945586940752e+00 5.035472526653867362e+02
2.666539969592702342e+00 5.035050259161031931e+02
2.666639993598463487e+00 5.034627097433190102e+02
2.666740017604225077e+00 5.034203060700701826e+02
2.666840041609986223e+00 5.033778168334662269e+02
2.666940065615747812e+00 5.033352439846648281e+02
2.667040089621508958e+00 5.032925894888427365e+02
2.667140113627270548e+00 5.032498553251698468e+02
2.667240137633031694e+00 5.032070434867786730e+02
2.667340161638793283e+00 5.031641559807359272e+02
2.667440185644554429e+00 5.031211948280132447e+02
2.667540209650316019e+00 5.030781620634555793e+02
2.667640233656077164e+00 5.030350597357509059e+02
2.667740257661838754e+00 5.029918899073968532e+02
2.667840281667599900e+00 5.029486546546714294e+02
2.667940305673361490e+00 5.029053560675962444e+02
2.668040329679122635e+00 5.028619962499054736e+02
2.668140353684884225e+00 5.028185773190097620e+02
2.668240377690645371e+00 5.027751014059619479e+02
2.668340401696406960e+00 5.027315706554225017e+02
2.668440425702168106e+00 5.026879872256207022e+02
2.668540449707929696e+00 5.026443532883204171e+02
2.668640473713690842e+00 5.026006710287807664e+02
2.668740497719452431e+00 5.025569426457174131e+02
2.668840521725213577e+00 5.025131703512658987e+02
2.668940545730975167e+00 5.024693563709417390e+02
2.669040569736736312e+00 5.024255029435973938e+02
2.669140593742498346e+00 5.023816123213854326e+02
2.669240617748259936e+00 5.023376867697136277e+02
2.669340641754021082e+00 5.022937285672058465e+02
2.669440665759782227e+00 5.022497400056574293e+02
2.669540689765543817e+00 5.022057233899926132e+02
2.669640713771305407e+00 5.021616810382205358e+02
2.669740737777066553e+00 5.021176152813898170e+02
2.669840761782827698e+00 5.020735284635447329e+02
2.669940785788589288e+00 5.020294229416778649e+02
2.670040809794350878e+00 5.019853010856847391e+02
2.670140833800112024e+00 5.019411652783148270e+02
2.670240857805873169e+00 5.018970179151264119e+02
2.670340881811634759e+00 5.018528614044358278e+02
2.670440905817396349e+00 5.018086981672687443e+02
2.670540929823157494e+00 5.017645306373116227e+02
2.670640953828918640e+00 5.017203612608604999e+02
2.670740977834680230e+00 5.016761924967692607e+02
2.670841001840441820e+00 5.016320268163987635e+02
2.670941025846202965e+00 5.015878667035654530e+02
2.671041049851964111e+00 5.015437146544851430e+02
2.671141073857725701e+00 5.014995731777245851e+02
2.671241097863487290e+00 5.014554447941409876e+02
2.671341121869248436e+00 5.014113320368338691e+02
2.671441145875009582e+00 5.013672374510830991e+02
2.671541169880771172e+00 5.013231635942985349e+02
2.671641193886532761e+00 5.012791130359586305e+02
2.671741217892293907e+00 5.012350883575551279e+02
2.671841241898055053e+00 5.011910921525361005e+02
2.671941265903816642e+00 5.011471270262442204e+02
2.672041289909578232e+00 5.011031955958609956e+02
2.672141313915339378e+00 5.010593004903439578e+02
2.672241337921100524e+00 5.010154443503681705e+02
2.672341361926862113e+00 5.009716298282626212e+02
2.672441385932623703e+00 5.009278595879513318e+02
2.672541409938384849e+00 5.008841363048894095e+02
2.672641433944145994e+00 5.008404626659990981e+02
2.672741457949907584e+00 5.007968413696074208e+02
2.672841481955669618e+00 5.007532751253820607e+02
2.672941505961430764e+00 5.007097666542647403e+02
2.673041529967192353e+00 5.006663186884074435e+02
2.673141553972953499e+00 5.006229339711056809e+02
2.673241577978715089e+00 5.005796152567303352e+02
2.673341601984476235e+00 5.005363653106631432e+02
2.673441625990237824e+00 5.004931869092247325e+02
2.673541649995998970e+00 5.004500828396094789e+02
2.673641674001760560e+00 5.004070558998147362e+02
2.673741698007521705e+00 5.003641088985705210e+02
2.673841722013283295e+00 5.003212446552695383e+02
2.673941746019044441e+00 5.002784659998958432e+02
2.674041770024806031e+00 5.002357757729538434e+02
2.674141794030567176e+00 5.001931768253949713e+02
2.674241818036328766e+00 5.001506720185442418e+02
2.674341842042089912e+00 5.001082642240286305e+02
2.674441866047851502e+00 5.000659563237012435e+02
2.674541890053612647e+00 5.000237512095661714e+02
2.674641914059374237e+00 4.999816517837063543e+02
2.674741938065135383e+00 4.999396609582022393e+02
2.674841962070896972e+00 4.998977816550600437e+02
2.674941986076658118e+00 4.998560168061313789e+02
2.675042010082419708e+00 4.998143693530372502e+02
2.675142034088180854e+00 4.997728422470900682e+02
2.675242058093942443e+00 4.997314384492115096e+02
2.675342082099703589e+00 4.996901609298564608e+02
2.675442106105465179e+00 4.996490126689316185e+02
2.675542130111226324e+00 4.996079966557132934e+02
2.675642154116987914e+00 4.995671158887693082e+02
2.675742178122749060e+00 4.995263733758730496e+02
2.675842202128510650e+00 4.994857721339235468e+02
2.675942226134271795e+00 4.994453151888623097e+02
2.676042250140033385e+00 4.994050055755885182e+02
2.676142274145794531e+00 4.993648463378756333e+02
2.676242298151556120e+00 4.993248405282859608e+02
2.676342322157317266e+00 4.992849912080847616e+02
2.676442346163078856e+00 4.992453014471561801e+02
2.676542370168840890e+00 4.992057743239146816e+02
2.676642394174602035e+00 4.991664129252179691e+02
2.676742418180363181e+00 4.991272203462811490e+02
2.676842442186124771e+00 4.990881996905858955e+02
2.676942466191886361e+00 4.990493540697939352e+02
2.677042490197647506e+00 4.990106866036555289e+02
2.677142514203408652e+00 4.989722004199213643e+02
2.677242538209170242e+00 4.989338986542504131e+02
2.677342562214931831e+00 4.988957844501198338e+02
2.677442586220692977e+00 4.988578609587329993e+02
2.677542610226454123e+00 4.988201313389275811e+02
2.677642634232215713e+00 4.987825987570819279e+02
2.677742658237977302e+00 4.987452663870217862e+02
2.677842682243738448e+00 4.987081374099292361e+02
2.677942706249499594e+00 4.986712150142428754e+02
2.678042730255261183e+00 4.986345023955687452e+02
2.678142754261022773e+00 4.985980027565805131e+02
2.678242778266783919e+00 4.985617193069252835e+02
2.678342802272545065e+00 4.985256552631271916e+02
2.678442826278306654e+00 4.984898138484888932e+02
2.678542850284068244e+00 4.984541982929968071e+02
2.678642874289829390e+00 4.984188118332189106e+02
2.678742898295590535e+00 4.983836577122100948e+02
2.678842922301352125e+00 4.983487391794095629e+02
2.678942946307113715e+00 4.983140594905434000e+02
2.679042970312874861e+00 4.982796219075239605e+02
2.679142994318636006e+00 4.982454296983476070e+02
2.679243018324397596e+00 4.982114861369951200e+02
2.679343042330159186e+00 4.981777945033290393e+02
2.679443066335920332e+00 4.981443580829924827e+02
2.679543090341681477e+00 4.981111801673046671e+02
2.679643114347443067e+00 4.980782640531583070e+02
2.679743138353204657e+00 4.980456130429165000e+02
2.679843162358965802e+00 4.980132304443078510e+02
2.679943186364726948e+00 4.979811195703215390e+02
2.680043210370488538e+00 4.979492837391009630e+02
2.680143234376250128e+00 4.979177262738415379e+02
2.680243258382011717e+00 4.978864505026804181e+02
2.680343282387773307e+00 4.978554597585918486e+02
2.680443306393534453e+00 4.978247573792791627e+02
2.680543330399296043e+00 4.977943467070675752e+02
2.680643354405057188e+00 4.977642310887957819e+02
2.680743378410818778e+00 4.977344138757073893e+02
2.680843402416579924e+00 4.977048984233416036e+02
2.680943426422341513e+00 4.976756880914234671e+02
2.681043450428102659e+00 4.976467862437543772e+02
2.681143474433864249e+00 4.976181962481011851e+02
2.681243498439625395e+00 4.975899214760856353e+02
2.681343522445386984e+00 4.975619653030712470e+02
2.681443546451148130e+00 4.975343311080542321e+02
2.681543570456909720e+00 4.975070222735492962e+02
2.681643594462670865e+00 4.974800421854764636e+02
2.681743618468432455e+00 4.974533942330491527e+02
2.681843642474193601e+00 4.974270818086600912e+02
2.681943666479955191e+00 4.974011083077674584e+02
2.682043690485716336e+00 4.973754771287787548e+02
2.682143714491477926e+00 4.973501916729387631e+02
2.682243738497239072e+00 4.973252553442106318e+02
2.682343762503000661e+00 4.973006715491630985e+02
2.682443786508761807e+00 4.972764436968533346e+02
2.682543810514523397e+00 4.972525751987083140e+02
2.682643834520284543e+00 4.972290694684115238e+02
2.682743858526046132e+00 4.972059299217826265e+02
2.682843882531807278e+00 4.971831599766596241e+02
2.682943906537568868e+00 4.971607630527823289e+02
2.683043930543330013e+00 4.971387425716719122e+02
2.683143954549091603e+00 4.971171019565137499e+02
2.683243978554852749e+00 4.970958446320354938e+02
2.683344002560614339e+00 4.970749740243891210e+02
2.683444026566375484e+00 4.970544935610301991e+02
2.683544050572137074e+00 4.970344066705964110e+02
2.683644074577898220e+00 4.970147167827883550e+02
2.683744098583659810e+00 4.969954273282463646e+02
2.683844122589420955e+00 4.969765417384298871e+02
2.683944146595182989e+00 4.969580634454936217e+02
2.684044170600944135e+00 4.969399958821681480e+02
2.684144194606705724e+00 4.969223424816344163e+02
2.684244218612467314e+00 4.969051066774012497e+02
2.684344242618228460e+00 4.968882919031821643e+02
2.684444266623989606e+00 4.968719015927712235e+02
2.684544290629751195e+00 4.968559391799182094e+02
2.684644314635512785e+00 4.968404080982056144e+02
2.684744338641273931e+00 4.968253117809216519e+02
2.684844362647035076e+00 4.968106536609367936e+02
2.684944386652796666e+00 4.967964371705767803e+02
2.685044410658558256e+00 4.967826657414975102e+02
2.685144434664319402e+00 4.967693428045587893e+02
2.685244458670080547e+00 4.967564717896966613e+02
2.685344482675842137e+00 4.967440561257984655e+02
2.685444506681603727e+00 4.967320992405744846e+02
2.685544530687364873e+00 4.967206045604286260e+02
2.685644554693126018e+00 4.967095755103355259e+02
2.685744578698887608e+00 4.966990155137058878e+02
2.685844602704649198e+00 4.966889279922650076e+02
2.685944626710410343e+00 4.966793163659180550e+02
2.686044650716171489e+00 4.966701840526250749e+02
2.686144674721933079e+00 4.966615344682698492e+02
2.686244698727694669e+00 4.966533710265298396e+02
2.686344722733455814e+00 4.966456971387489148e+02
2.686444746739216960e+00 4.966385162138041096e+02
2.686544770744978550e+00 4.966318316579781822e+02
2.686644794750740139e+00 4.966256468748273392e+02
2.686744818756501285e+00 4.966199652650483927e+02
2.686844842762262431e+00 4.966147902263531932e+02
2.686944866768024021e+00 4.966101251533314667e+02
2.687044890773785610e+00 4.966059734373210404e+02
2.687144914779546756e+00 4.966023384662791500e+02
2.687244938785307902e+00 4.965992236246448215e+02
2.687344962791069491e+00 4.965966322932106891e+02
2.687444986796831081e+00 4.965945678489886177e+02
2.687545010802592227e+00 4.965930336650775985e+02
2.687645034808354261e+00 4.965920331105294849e+02
2.687745058814115406e+00 4.965915695502170024e+02
2.687845082819876996e+00 4.965916463447002798e+02
2.687945106825638142e+00 4.965922668500924146e+02
2.688045130831399732e+00 4.965934344179257778e+02
2.688145154837160877e+00 4.965951523950184878e+02
2.688245178842922467e+00 4.965974241233390103e+02
2.688345202848683613e+00 4.966002529398729166e+02
2.688445226854445202e+00 4.966036421764878241e+02
2.688545250860206348e+00 4.966075951597975404e+02
2.688645274865967938e+00 4.966121152110296180e+02
2.688745298871729084e+00 4.966172056458871680e+02
2.688845322877490673e+00 4.966228697744143119e+02
2.688945346883251819e+00 4.966291109008627132e+02
2.689045370889013409e+00 4.966359323235524812e+02
2.689145394894774554e+00 4.966433373347406359e+02
2.689245418900536144e+00 4.966513292204796244e+02
2.689345442906297290e+00 4.966599112604867514e+02
2.689445466912058880e+00 4.966690867280038333e+02
2.689545490917820025e+00 4.966788588896627630e+02
2.689645514923581615e+00 4.966892310053488018e+02
2.689745538929342761e+00 4.967002063280624498e+02
2.689845562935104351e+00 4.967117881037858069e+02
2.689945586940865496e+00 4.967239795713412605e+02
2.690045610946627086e+00 4.967367839622581300e+02
2.690145634952388232e+00 4.967502045006341405e+02
2.690245658958149821e+00 4.967642444029977469e+02
2.690345682963910967e+00 4.967789068781718242e+02
2.690445706969672557e+00 4.967941951271347989e+02
2.690545730975433703e+00 4.968101123428849633e+02
2.690645754981195292e+00 4.968266617103009253e+02
2.690745778986956438e+00 4.968438464060051274e+02
2.690845802992718028e+00 4.968616695982256033e+02
2.690945826998479173e+00 4.968801344466590422e+02
2.691045851004240763e+00 4.968992441023309539e+02
2.691145875010001909e+00 4.969190017074599268e+02
2.691245899015763499e+00 4.969394103953164858e+02
2.691345923021525088e+00 4.969604732900894533e+02
2.691445947027286678e+00 4.969821935067436129e+02
2.691545971033048268e+00 4.970045741508840820e+02
2.691645995038809414e+00 4.970276183186163053e+02
2.691746019044570559e+00 4.970513290964098587e+02
2.691846043050332149e+00 4.970757095609579892e+02
2.691946067056093739e+00 4.971007627790406218e+02
2.692046091061854884e+00 4.971264918073858325e+02
2.692146115067616030e+00 4.971528996925314914e+02
2.692246139073377620e+00 4.971799894706866780e+02
2.692346163079139210e+00 4.972077641675928135e+02
2.692446187084900355e+00 4.972362267983868378e+02
2.692546211090661501e+00 4.972653803674605228e+02
2.692646235096423091e+00 4.972952278683254690e+02
2.692746259102184681e+00 4.973257722834710535e+02
2.692846283107945826e+00 4.973570165842290294e+02
2.692946307113706972e+00 4.973889637306336908e+02
2.693046331119468562e+00 4.974216166712835161e+02
2.693146355125230151e+00 4.974549783432033792e+02
2.693246379130991297e+00 4.974890516717075002e+02
2.693346403136752443e+00 4.975238395702590424e+02
2.693446427142514032e+00 4.975593449403335740e+02
2.693546451148275622e+00 4.975955706712805977e+02
2.693646475154036768e+00 4.976325196401859898e+02
2.693746499159797914e+00 4.976701947117328473e+02
2.693846523165559503e+00 4.977085987380651204e+02
2.693946547171321093e+00 4.977477345586478350e+02
2.694046571177082239e+00 4.977876050001340218e+02
2.694146595182843384e+00 4.978282128762202774e+02
2.694246619188604974e+00 4.978695609875139212e+02
2.694346643194366564e+00 4.979116521213959459e+02
2.694446667200127710e+00 4.979544890518797615e+02
2.694546691205888855e+00 4.979980745394783526e+02
2.694646715211650445e+00 4.980424113310643861e+02
2.694746739217412035e+00 4.980875021597343562e+02
2.694846763223173181e+00 4.981333497446709657e+02
2.694946787228935214e+00 4.981799567910065321e+02
2.695046811234696360e+00 4.982273259896879836e+02
2.695146835240457950e+00 4.982754600173375934e+02
2.695246859246219095e+00 4.983243615361191701e+02
2.695346883251980685e+00 4.983740331935995300e+02
2.695446907257741831e+00 4.984244776226148588e+02
2.695546931263503421e+00 4.984756974411328656e+02
2.695646955269264566e+00 4.985276952521177236e+02
2.695746979275026156e+00 4.985804736433952939e+02
2.695847003280787302e+00 4.986340351875159058e+02
2.695947027286548892e+00 4.986883824416210587e+02
2.696047051292310037e+00 4.987435179473069979e+02
2.696147075298071627e+00 4.987994442304911900e+02
2.696247099303832773e+00 4.988561638012757271e+02
2.696347123309594362e+00 4.989136791538138596e+02
2.696447147315355508e+00 4.989719927661775500e+02
2.696547171321117098e+00 4.990311071002195149e+02
2.696647195326878244e+00 4.990910246014434506e+02
2.696747219332639833e+00 4.991517476988665862e+02
2.696847243338400979e+00 4.992132788048899101e+02
2.696947267344162569e+00 4.992756203151619729e+02
2.697047291349923714e+00 4.993387746084465562e+02
2.697147315355685304e+00 4.994027440464931829e+02
2.697247339361446450e+00 4.994675309738993292e+02
2.697347363367208040e+00 4.995331377179819015e+02
2.697447387372969185e+00 4.995995665886441088e+02
2.697547411378730775e+00 4.996668198782443255e+02
2.697647435384491921e+00 4.997348998614626225e+02
2.697747459390253510e+00 4.998038087951730404e+02
2.697847483396014656e+00 4.998735489183095524e+02
2.697947507401776246e+00 4.999441224517355522e+02
2.698047531407537392e+00 5.000155315981168087e+02
2.698147555413298981e+00 5.000877785417882251e+02
2.698247579419060127e+00 5.001608654486231558e+02
2.698347603424821717e+00 5.002347944659080667e+02
2.698447627430582862e+00 5.003095677222097493e+02
2.698547651436344452e+00 5.003851873272477633e+02
2.698647675442106042e+00 5.004616553717650049e+02
2.698747699447867632e+00 5.005389739274022531e+02
2.698847723453629222e+00 5.006171450465664066e+02
2.698947747459390367e+00 5.006961707623042912e+02
2.699047771465151513e+00 5.007760530881784007e+02
2.699147795470913103e+00 5.008567940181341669e+02
2.699247819476674692e+00 5.009383955263788266e+02
2.699347843482435838e+00 5.010208595672515912e+02
2.699447867488196984e+00 5.011041880750998985e+02
2.699547891493958574e+00 5.011883829641532202e+02
2.699647915499720163e+00 5.012734461283970973e+02
2.699747939505481309e+00 5.013593794414497324e+02
2.699847963511242455e+00 5.014461847564368213e+02
2.699947987517004044e+00 5.015338639058669514e+02
2.700048011522765634e+00 5.016224187015096732e+02
2.700148035528526780e+00 5.017118509342705579e+02
2.700248059534287925e+00 5.018021623740692689e+02
2.700348083540049515e+00 5.018933547697165523e+02
2.700448107545811105e+00 5.019854298487924211e+02
2.700548131551572251e+00 5.020783893175246249e+02
2.700648155557333396e+00 5.021722348606681408e+02
2.700748179563094986e+00 5.022669681413818807e+02
2.700848203568856576e+00 5.023625908011115371e+02
2.700948227574617722e+00 5.024591044594671416e+02
2.701048251580378867e+00 5.025565107141050589e+02
2.701148275586140457e+00 5.026548111406070802e+02
2.701248299591902047e+00 5.027540072923650882e+02
2.701348323597663192e+00 5.028541007004590710e+02
2.701448347603424338e+00 5.029550928735415027e+02
2.701548371609185928e+00 5.030569852977201322e+02
2.701648395614947518e+00 5.031597794364398624e+02
2.701748419620708663e+00 5.032634767303681542e+02
2.701848443626469809e+00 5.033680785972772469e+02
2.701948467632231399e+00 5.034735864319310963e+02
2.702048491637992989e+00 5.035800016059678228e+02
2.702148515643754134e+00 5.036873254677871614e+02
2.702248539649515280e+00 5.037955593424364338e+02
2.702348563655277314e+00 5.039047045314964066e+02
2.702448587661038903e+00 5.040147623129673207e+02
2.702548611666800049e+00 5.041257339411601492e+02
2.702648635672561639e+00 5.042376206465809219e+02
2.702748659678322785e+00 5.043504236358209596e+02
2.702848683684084374e+00 5.044641440914453483e+02
2.702948707689845520e+00 5.045787831718841971e+02
2.703048731695607110e+00 5.046943420113204866e+02
2.703148755701368255e+00 5.048108217195837710e+02
2.703248779707129845e+00 5.049282233820381975e+02
2.703348803712890991e+00 5.050465480594760947e+02
2.703448827718652581e+00 5.051657967880105957e+02
2.703548851724413726e+00 5.052859705789680902e+02
2.703648875730175316e+00 5.054070704187815863e+02
2.703748899735936462e+00 5.055290972688856073e+02
2.703848923741698052e+00 5.056520520656080180e+02
2.703948947747459197e+00 5.057759357200701515e+02
2.704048971753220787e+00 5.059007491180783518e+02
2.704148995758981933e+00 5.060264931200213709e+02
2.704249019764743522e+00 5.061531685607695294e+02
2.704349043770504668e+00 5.062807762495688735e+02
2.704449067776266258e+00 5.064093169699418127e+02
2.704549091782027403e+00 5.065387914795842903e+02
2.704649115787788993e+00 5.066692005102676717e+02
2.704749139793550139e+00 5.068005447677351185e+02
2.704849163799311729e+00 5.069328249316045572e+02
2.704949187805072874e+00 5.070660416552701122e+02
2.705049211810834464e+00 5.072001955658025167e+02
2.705149235816595610e+00 5.073352872638528765e+02
2.705249259822357200e+00 5.074713173235547856e+02
2.705349283828118345e+00 5.076082862924289429e+02
2.705449307833879935e+00 5.077461946912861777e+02
2.705549331839641081e+00 5.078850430141346806e+02
2.705649355845402670e+00 5.080248317280842798e+02
2.705749379851163816e+00 5.081655612732524787e+02
2.705849403856925406e+00 5.083072320626720852e+02
2.705949427862686552e+00 5.084498444821993530e+02
2.706049451868448585e+00 5.085933988904210992e+02
2.706149475874210175e+00 5.087378956185654602e+02
2.706249499879971321e+00 5.088833349704094644e+02
2.706349523885732467e+00 5.090297172221913797e+02
2.706449547891494056e+00 5.091770426225210713e+02
2.706549571897255646e+00 5.093253113922912121e+02
2.706649595903016792e+00 5.094745237245905400e+02
2.706749619908777937e+00 5.096246797846170011e+02
2.706849643914539527e+00 5.097757797095913475e+02
2.706949667920301117e+00 5.099278236086709626e+02
2.707049691926062263e+00 5.100808115628673818e+02
2.707149715931823408e+00 5.102347436249607995e+02
2.707249739937584998e+00 5.103896198194159979e+02
2.707349763943346588e+00 5.105454401423013451e+02
2.707449787949107733e+00 5.107022045612069405e+02
2.707549811954868879e+00 5.108599130151629879e+02
2.707649835960630469e+00 5.110185654145592480e+02
2.707749859966392059e+00 5.111781616410660263e+02
2.707849883972153204e+00 5.113387015475556723e+02
2.707949907977914350e+00 5.115001849580231692e+02
2.708049931983675940e+00 5.116626116675107028e+02
2.708149955989437530e+00 5.118259814420288762e+02
2.708249979995198675e+00 5.119902940184833824e+02
2.708350004000959821e+00 5.121555491045985491e+02
2.708450028006721411e+00 5.123217463788425903e+02
2.708550052012483000e+00 5.124888854903556421e+02
2.708650076018244146e+00 5.126569660588756960e+02
2.708750100024005292e+00 5.128259876746679993e+02
2.708850124029766882e+00 5.129959498984520678e+02
2.708950148035528471e+00 5.131668522613343839e+02
2.709050172041289617e+00 5.133386942647352953e+02
2.709150196047050763e+00 5.135114753803231906e+02
2.709250220052812352e+00 5.136851950499442410e+02
2.709350244058573942e+00 5.138598526855572572e+02
2.709450268064335088e+00 5.140354476691672971e+02
2.709550292070096233e+00 5.142119793527575666e+02
2.709650316075857823e+00 5.143894470582282565e+02
2.709750340081619857e+00 5.145678500773304904e+02
2.709850364087381003e+00 5.147471876716032284e+02
2.709950388093142593e+00 5.149274590723131269e+02
2.710050412098903738e+00 5.151086634803907600e+02
2.710150436104665328e+00 5.152908000663710482e+02
2.710250460110426474e+00 5.154738679703344815e+02
2.710350484116188063e+00 5.156578663018467523e+02
2.710450508121949209e+00 5.158427941399008887e+02
2.710550532127710799e+00 5.160286505328623434e+02
2.710650556133471945e+00 5.162154344984091949e+02
2.710750580139233534e+00 5.164031450234798513e+02
2.710850604144994680e+00 5.165917810642166614e+02
2.710950628150756270e+00 5.167813415459123689e+02
2.711050652156517415e+00 5.169718253629580431e+02
2.711150676162279005e+00 5.171632313787906696e+02
2.711250700168040151e+00 5.173555584258422186e+02
2.711350724173801741e+00 5.175488053054893953e+02
2.711450748179562886e+00 5.177429707880031629e+02
2.711550772185324476e+00 5.179380536125028129e+02
2.711650796191085622e+00 5.181340524869062847e+02
2.711750820196847211e+00 5.183309660878833256e+02
2.711850844202608357e+00 5.185287930608117222e+02
2.711950868208369947e+00 5.187275320197313704e+02
2.712050892214131093e+00 5.189271815472992557e+02
2.712150916219892682e+00 5.191277401947476164e+02
2.712250940225653828e+00 5.193292064818418794e+02
2.712350964231415418e+00 5.195315788968391644e+02
2.712450988237176563e+00 5.197348558964458789e+02
2.712551012242938153e+00 5.199390359057829301e+02
2.712651036248699299e+00 5.201441173183427509e+02
2.712751060254460889e+00 5.203500984959538300e+02
2.712851084260222034e+00 5.205569777687441047e+02
2.712951108265983624e+00 5.207647534351041259e+02
2.713051132271744770e+00 5.209734237616535211e+02
2.713151156277506360e+00 5.211829869832064333e+02
2.713251180283267505e+00 5.213934413027380970e+02
2.713351204289029095e+00 5.216047848913540292e+02
2.713451228294791129e+00 5.218170158882586520e+02
2.713551252300552274e+00 5.220301324007243693e+02
2.713651276306313420e+00 5.222441325040633728e+02
2.713751300312075010e+00 5.224590142415987657e+02
2.713851324317836600e+00 5.226747756246378458e+02
2.713951348323597745e+00 5.228914146324456169e+02
2.714051372329358891e+00 5.231089292122194365e+02
2.714151396335120481e+00 5.233273172790641183e+02
2.714251420340882071e+00 5.235465767159691950e+02
2.714351444346643216e+00 5.237667053737865217e+02
2.714451468352404362e+00 5.239877010712087895e+02
2.714551492358165952e+00 5.242095615947483793e+02
2.714651516363927541e+00 5.244322846987179219e+02
2.714751540369688687e+00 5.246558681052130169e+02
2.714851564375449833e+00 5.248803095040926792e+02
2.714951588381211423e+00 5.251056065529638772e+02
2.715051612386973012e+00 5.253317568771670949e+02
2.715151636392734158e+00 5.255587580697580279e+02
2.715251660398495304e+00 5.257866076914986024e+02
2.715351684404256893e+00 5.260153032708407181e+02
2.715451708410018483e+00 5.262448423039162435e+02
2.715551732415779629e+00 5.264752222545251925e+02
2.715651756421540775e+00 5.267064405541287897e+02
2.715751780427302364e+00 5.269384946018359415e+02
2.715851804433063954e+00 5.271713817644010760e+02
2.715951828438825100e+00 5.274050993762139115e+02
2.716051852444586245e+00 5.276396447392939990e+02
2.716151876450347835e+00 5.278750151232875396e+02
2.716251900456109425e+00 5.281112077654632913e+02
2.716351924461870571e+00 5.283482198707080215e+02
2.716451948467631716e+00 5.285860486115279855e+02
2.716551972473393306e+00 5.288246911280464246e+02
2.716651996479154896e+00 5.290641445280034532e+02
2.716752020484916041e+00 5.293044058867596959e+02
2.716852044490677187e+00 5.295454722472956064e+02
2.716952068496438777e+00 5.297873406202179467e+02
2.717052092502200367e+00 5.300300079837627436e+02
2.717152116507961956e+00 5.302734712838004043e+02
2.717252140513723546e+00 5.305177274338429925e+02
2.717352164519484692e+00 5.307627733150520726e+02
2.717452188525246282e+00 5.310086057762462133e+02
2.717552212531007427e+00 5.312552216339113329e+02
2.717652236536769017e+00 5.315026176722121818e+02
2.717752260542530163e+00 5.317507906430015510e+02
2.717852284548291752e+00 5.319997372658347103e+02
2.717952308554052898e+00 5.322494542279839607e+02
2.718052332559814488e+00 5.324999381844515938e+02
2.718152356565575634e+00 5.327511857579861498e+02
2.718252380571337223e+00 5.330031935391001525e+02
2.718352404577098369e+00 5.332559580860879578e+02
2.718452428582859959e+00 5.335094759250426932e+02
2.718552452588621104e+00 5.337637435498795639e+02
2.718652476594382694e+00 5.340187574223532465e+02
2.718752500600143840e+00 5.342745139720831276e+02
2.718852524605905430e+00 5.345310095965752453e+02
2.718952548611666575e+00 5.347882406612453678e+02
2.719052572617428165e+00 5.350462034994459373e+02
2.719152596623189311e+00 5.353048944124909667e+02
2.719252620628950901e+00 5.355643096696848033e+02
2.719352644634712046e+00 5.358244455083486173e+02
2.719452668640473636e+00 5.360852981338522341e+02
2.719552692646234782e+00 5.363468637196425561e+02
2.719652716651996371e+00 5.366091384072755091e+02
2.719752740657757517e+00 5.368721183064495790e+02
2.719852764663519107e+00 5.371357994950390093e+02
2.719952788669280253e+00 5.374001780191277930e+02
2.720052812675041842e+00 5.376652498930465072e+02
2.720152836680802988e+00 5.379310110994085790e+02
2.720252860686564578e+00 5.381974575891481436e+02
2.720352884692325723e+00 5.384645852815591525e+02
2.720452908698087313e+00 5.387323900643352772e+02
2.720552932703848459e+00 5.390008677936108370e+02
2.720652956709610049e+00 5.392700142940035448e+02
2.720752980715371194e+00 5.395398253586577084e+02
2.720853004721133228e+00 5.398102967492868629e+02
2.720953028726894374e+00 5.400814241962212918e+02
2.721053052732655964e+00 5.403532033984528198e+02
2.721153076738417553e+00 5.406256300236830157e+02
2.721253100744178699e+00 5.408986997083717370e+02
2.721353124749939845e+00 5.411724080577866971e+02
2.721453148755701434e+00 5.414467506460522372e+02
2.721553172761463024e+00 5.417217230162050328e+02
2.721653196767224170e+00 5.419973206802429786e+02
2.721753220772985316e+00 5.422735391191818053e+02
2.721853244778746905e+00 5.425503737831068065e+02
2.721953268784508495e+00 5.428278200912319562e+02
2.722053292790269641e+00 5.431058734319555015e+02
2.722153316796030786e+00 5.433845291629186249e+02
2.722253340801792376e+00 5.436637826110631977e+02
2.722353364807553966e+00 5.439436290726937386e+02
2.722453388813315112e+00 5.442240638135376685e+02
2.722553412819076257e+00 5.445050820688078375e+02
2.722653436824837847e+00 5.447866790432663038e+02
2.722753460830599437e+00 5.450688499112882255e+02
2.722853484836360582e+00 5.453515898169279126e+02
2.722953508842121728e+00 5.456348938739845380e+02
2.723053532847883318e+00 5.459187571660713729e+02
2.723153556853644908e+00 5.462031747466830893e+02
2.723253580859406053e+00 5.464881416392663596e+02
2.723353604865167199e+00 5.467736528372887506e+02
2.723453628870928789e+00 5.470597033043150077e+02
2.723553652876690379e+00 5.473462879740749258e+02
2.723653676882451524e+00 5.476334017505414522e+02
2.723753700888212670e+00 5.479210395080019680e+02
2.723853724893974260e+00 5.482091960911377555e+02
2.723953748899735849e+00 5.484978663151011915e+02
2.724053772905496995e+00 5.487870449655899847e+02
2.724153796911258141e+00 5.490767267989306220e+02
2.724253820917019731e+00 5.493669065421574942e+02
2.724353844922781320e+00 5.496575788930935005e+02
2.724453868928542466e+00 5.499487385204340626e+02
2.724553892934304500e+00 5.502403800638289795e+02
2.724653916940065645e+00 5.505324981339681472e+02
2.724753940945827235e+00 5.508250873126661418e+02
2.724853964951588381e+00 5.511181421529506679e+02
2.724953988957349971e+00 5.514116571791489605e+02
2.725054012963111116e+00 5.517056268869762334e+02
2.725154036968872706e+00 5.520000457436264014e+02
2.725254060974633852e+00 5.522949081878624611e+02
2.725354084980395442e+00 5.525902086301085774e+02
2.725454108986156587e+00 5.528859414525429656e+02
2.725554132991918177e+00 5.531821010091923654e+02
2.725654156997679323e+00 5.534786816260261730e+02
2.725754181003440912e+00 5.537756776010521662e+02
2.725854205009202058e+00 5.540730832044171166e+02
2.725954229014963648e+00 5.543708926784989899e+02
2.726054253020724794e+00 5.546691002380111968e+02
2.726154277026486383e+00 5.549677000701011593e+02
2.726254301032247529e+00 5.552666863344503554e+02
2.726354325038009119e+00 5.555660531633780010e+02
2.726454349043770264e+00 5.558657946619451877e+02
2.726554373049531854e+00 5.561659049080553814e+02
2.726654397055293000e+00 5.564663779525648124e+02
2.726754421061054590e+00 5.567672078193855896e+02
2.726854445066815735e+00 5.570683885055938163e+02
2.726954469072577325e+00 5.573699139815390708e+02
2.727054493078338471e+00 5.576717781909511586e+02
2.727154517084100060e+00 5.579739750510535714e+02
2.727254541089861206e+00 5.582764984526746730e+02
2.727354565095622796e+00 5.585793422603568388e+02
2.727454589101383942e+00 5.588825003124740078e+02
2.727554613107145531e+00 5.591859664213443466e+02
2.727654637112906677e+00 5.594897343733460957e+02
2.727754661118668267e+00 5.597937979290333033e+02
2.727854685124429412e+00 5.600981508232534907e+02
2.727954709130191002e+00 5.604027867652695249e+02
2.728054733135952148e+00 5.607076994388721687e+02
2.728154757141713738e+00 5.610128825025080914e+02
2.728254781147475327e+00 5.613183295893959439e+02
2.728354805153236917e+00 5.616240343076516410e+02
2.728454829158998507e+00 5.619299902404114846e+02
2.728554853164759653e+00 5.622361909459552862e+02
2.728654877170520798e+00 5.625426299578334692e+02
2.728754901176282388e+00 5.628493007849924652e+02
2.728854925182043978e+00 5.631561969119022706e+02
2.728954949187805124e+00 5.634633117986863908e+02
2.729054973193566269e+00 5.637706388812481464e+02
2.729154997199327859e+00 5.640781715714036864e+02
2.729255021205089449e+00 5.643859032570117051e+02
2.729355045210850594e+00 5.646938273021074792e+02
2.729455069216611740e+00 5.650019370470345166e+02
2.729555093222373330e+00 5.653102258085777976e+02
2.729655117228134920e+00 5.656186868801024730e+02
2.729755141233896065e+00 5.659273135316868775e+02
2.729855165239657211e+00 5.662360990102608866e+02
2.729955189245418801e+00 5.665450365397427959e+02
2.730055213251180390e+00 5.668541193211808604e+02
2.730155237256941536e+00 5.671633405328898334e+02
2.730255261262702682e+00 5.674726933305945522e+02
2.730355285268464272e+00 5.677821708475690912e+02
2.730455309274225861e+00 5.680917661947838724e+02
2.730555333279987007e+00 5.684014724610436815e+02
2.730655357285748153e+00 5.687112827131360291e+02
2.730755381291509742e+00 5.690211899959763286e+02
2.730855405297271332e+00 5.693311873327529611e+02
2.730955429303032478e+00 5.696412677250759771e+02
2.731055453308793624e+00 5.699514241531238667e+02
2.731155477314555213e+00 5.702616495757949906e+02
2.731255501320316803e+00 5.705719369308545765e+02
2.731355525326077949e+00 5.708822791350896750e+02
2.731455549331839094e+00 5.711926690844562700e+02
2.731555573337600684e+00 5.715030996542370758e+02
2.731655597343362274e+00 5.718135636991914907e+02
2.731755621349123420e+00 5.721240540537119159e+02
2.731855645354884565e+00 5.724345635319785970e+02
2.731955669360646599e+00 5.727450849281171941e+02
2.732055693366408189e+00 5.730556110163543053e+02
2.732155717372169335e+00 5.733661345511759464e+02
2.732255741377930924e+00 5.736766482674880763e+02
2.732355765383692070e+00 5.739871448807748493e+02
2.732455789389453660e+00 5.742976170872598232e+02
2.732555813395214805e+00 5.746080575640679626e+02
2.732655837400976395e+00 5.749184589693877570e+02
2.732755861406737541e+00 5.752288139426345879e+02
2.732855885412499131e+00 5.755391151046148934e+02
2.732955909418260276e+00 5.758493550576912412e+02
2.733055933424021866e+00 5.761595263859479701e+02
2.733155957429783012e+00 5.764696216553586510e+02
2.733255981435544602e+00 5.767796334139524106e+02
2.733356005441305747e+00 5.770895541919838934e+02
2.733456029447067337e+00 5.773993765021009494e+02
2.733556053452828483e+00 5.777090928395152787e+02
2.733656077458590072e+00 5.780186956821735293e+02
2.733756101464351218e+00 5.783281774909287378e+02
2.733856125470112808e+00 5.786375307097135874e+02
2.733956149475873953e+00 5.789467477657115069e+02
2.734056173481635543e+00 5.792558210695335674e+02
2.734156197487396689e+00 5.795647430153907180e+02
2.734256221493158279e+00 5.798735059812722739e+02
2.734356245498919424e+00 5.801821023291200845e+02
2.734456269504681014e+00 5.804905244050073634e+02
2.734556293510442160e+00 5.807987645393142202e+02
2.734656317516203750e+00 5.811068150469113789e+02
2.734756341521964895e+00 5.814146682273342321e+02
2.734856365527726485e+00 5.817223163649663320e+02
2.734956389533487631e+00 5.820297517292204930e+02
2.735056413539249220e+00 5.823369665747197814e+02
2.735156437545010366e+00 5.826439531414800967e+02
2.735256461550771956e+00 5.829507036550950261e+02
2.735356485556533102e+00 5.832572103269180843e+02
2.735456509562294691e+00 5.835634653542490469e+02
2.735556533568055837e+00 5.838694609205191455e+02
2.735656557573817871e+00 5.841751891954768325e+02
2.735756581579579461e+00 5.844806423353754781e+02
2.735856605585340606e+00 5.847858124831619762e+02
2.735956629591101752e+00 5.850906917686626230e+02
2.736056653596863342e+00 5.853952723087768391e+02
2.736156677602624931e+00 5.856995462076619106e+02
2.736256701608386077e+00 5.860035055569273936e+02
2.736356725614147223e+00 5.863071424358253125e+02
2.736456749619908813e+00 5.866104489114425178e+02
2.736556773625670402e+00 5.869134170388915663e+02
2.736656797631431548e+00 5.872160388615078546e+02
2.736756821637192694e+00 5.875183064110394753e+02
2.736856845642954283e+00 5.878202117078462834e+02
2.736956869648715873e+00 5.881217467610908898e+02
2.737056893654477019e+00 5.884229035689390912e+02
2.737156917660238165e+00 5.887236741187535927e+02
2.737256941665999754e+00 5.890240503872917088e+02
2.737356965671761344e+00 5.893240243409064760e+02
2.737456989677522490e+00 5.896235879357402609e+02
2.737557013683283635e+00 5.899227331179291696e+02
2.737657037689045225e+00 5.902214518237997254e+02
2.737757061694806815e+00 5.905197359800704362e+02
2.737857085700567961e+00 5.908175775040547251e+02
2.737957109706329106e+00 5.911149683038584044e+02
2.738057133712090696e+00 5.914119002785881776e+02
2.738157157717852286e+00 5.917083653185488856e+02
2.738257181723613432e+00 5.920043553054516678e+02
2.738357205729374577e+00 5.922998621126142780e+02
2.738457229735136167e+00 5.925948776051706091e+02
2.738557253740897757e+00 5.928893936402718055e+02
2.738657277746658902e+00 5.931834020672941961e+02
2.738757301752420048e+00 5.934768947280463181e+02
2.738857325758181638e+00 5.937698634569746901e+02
2.738957349763943228e+00 5.940623000813732233e+02
2.739057373769704373e+00 5.943541964215895632e+02
2.739157397775465519e+00 5.946455442912360922e+02
2.739257421781227109e+00 5.949363354973970672e+02
2.739357445786989143e+00 5.952265618408400769e+02
2.739457469792750288e+00 5.955162151162265900e+02
2.739557493798511878e+00 5.958052871123221621e+02
2.739657517804273024e+00 5.960937696122068701e+02
2.739757541810034613e+00 5.963816543934898391e+02
2.739857565815795759e+00 5.966689332285205865e+02
2.739957589821557349e+00 5.969555978846017297e+02
2.740057613827318495e+00 5.972416401242020356e+02
