2.800016003520774177e+00 5.173742400020357763e+02
2.800116025525615449e+00 5.173445887981586111e+02
2.800216047530456720e+00 5.173145318039859148e+02
2.800316069535297547e+00 5.172840698027602002e+02
2.800416091540138819e+00 5.172532036015722952e+02
2.800516113544979646e+00 5.172219340313830571e+02
2.800616135549820918e+00 5.171902619470408808e+02
2.800716157554661745e+00 5.171581882272988651e+02
2.800816179559502572e+00 5.171257137748307287e+02
2.800916201564343844e+00 5.170928395162483184e+02
2.801016223569185115e+00 5.170595664021142284e+02
2.801116245574026387e+00 5.170258954069565789e+02
2.801216267578867214e+00 5.169918275292795897e+02
2.801316289583708485e+00 5.169573637915773361e+02
2.801416311588549313e+00 5.169225052403396603e+02
2.801516333593390140e+00 5.168872529460691112e+02
2.801616355598231412e+00 5.168516080032802620e+02
2.801716377603072239e+00 5.168155715305138074e+02
2.801816399607913510e+00 5.167791446703390648e+02
2.801916421612754782e+00 5.167423285893610228e+02
2.802016443617596053e+00 5.167051244782218191e+02
2.802116465622436881e+00 5.166675335516076757e+02
2.802216487627277708e+00 5.166295570482479889e+02
2.802316509632118979e+00 5.165911962309162391e+02
2.802416531636959807e+00 5.165524523864315825e+02
2.802516553641801078e+00 5.165133268256566907e+02
2.802616575646641905e+00 5.164738208834955913e+02
2.802716597651483177e+00 5.164339359188907110e+02
2.802816619656324448e+00 5.163936733148177609e+02
2.802916641661164832e+00 5.163530344782814154e+02
2.803016663666006547e+00 5.163120208403081506e+02
2.803116685670847374e+00 5.162706338559399910e+02
2.803216707675688646e+00 5.162288750042235961e+02
2.803316729680529473e+00 5.161867457882030976e+02
2.803416751685370745e+00 5.161442477349070259e+02
2.803516773690211572e+00 5.161013823953402380e+02
2.803616795695052399e+00 5.160581513444666371e+02
2.803716817699894115e+00 5.160145561811988273e+02
2.803816839704734498e+00 5.159705985283815153e+02
2.803916861709576214e+00 5.159262800327743435e+02
2.804016883714417041e+00 5.158816023650398392e+02
2.804116905719258313e+00 5.158365672197179492e+02
2.804216927724099140e+00 5.157911763152130789e+02
2.804316949728939967e+00 5.157454313937704455e+02
2.804416971733781239e+00 5.156993342214556151e+02
2.804516993738622066e+00 5.156528865881324464e+02
2.804617015743463782e+00 5.156060903074391035e+02
2.804717037748304165e+00 5.155589472167634995e+02
2.804817059753145880e+00 5.155114591772185122e+02
2.804917081757986708e+00 5.154636280736136769e+02
2.805017103762827535e+00 5.154154558144284692e+02
2.805117125767668806e+00 5.153669443317835430e+02
2.805217147772509634e+00 5.153180955814100344e+02
2.805317169777350905e+00 5.152689115426197759e+02
2.805417191782191733e+00 5.152193942182711908e+02
2.805517213787033448e+00 5.151695456347378013e+02
2.805617235791873831e+00 5.151193678418746913e+02
2.805717257796715103e+00 5.150688629129800802e+02
2.805817279801556374e+00 5.150180329447618988e+02
2.805917301806397202e+00 5.149668800572983400e+02
2.806017323811238473e+00 5.149154063940015931e+02
2.806117345816079300e+00 5.148636141215755515e+02
2.806217367820920572e+00 5.148115054299762505e+02
2.806317389825761399e+00 5.147590825323715080e+02
2.806417411830602227e+00 5.147063476650946541e+02
2.806517433835443498e+00 5.146533030876042858e+02
2.806617455840284769e+00 5.145999510824365188e+02
2.806717477845126041e+00 5.145462939551599675e+02
2.806817499849966868e+00 5.144923340343291329e+02
2.806917521854807696e+00 5.144380736714351769e+02
2.807017543859648967e+00 5.143835152408561271e+02
2.807117565864489794e+00 5.143286611398091281e+02
2.807217587869331066e+00 5.142735137882948493e+02
2.807317609874171893e+00 5.142180756290485988e+02
2.807417631879013165e+00 5.141623491274848448e+02
2.807517653883854436e+00 5.141063367716431003e+02
2.807617675888694819e+00 5.140500410721313074e+02
2.807717697893536535e+00 5.139934645620703577e+02
2.807817719898377362e+00 5.139366097970350893e+02
2.807917741903218634e+00 5.138794793549958513e+02
2.808017763908059461e+00 5.138220758362577953e+02
2.808117785912900732e+00 5.137644018634014174e+02
2.808217807917741560e+00 5.137064600812179833e+02
2.808317829922582387e+00 5.136482531566473426e+02
2.808417851927424103e+00 5.135897837787143771e+02
2.808517873932264486e+00 5.135310546584624944e+02
2.808617895937106201e+00 5.134720685288882578e+02
2.808717917941947029e+00 5.134128281448728330e+02
2.808817939946788300e+00 5.133533362831133218e+02
2.808917961951629128e+00 5.132935957420538671e+02
2.809017983956469955e+00 5.132336093418159635e+02
2.809118005961311226e+00 5.131733799241230827e+02
2.809218027966152054e+00 5.131129103522321202e+02
2.809318049970993769e+00 5.130522035108577938e+02
2.809418071975834152e+00 5.129912623060961323e+02
2.809518093980675868e+00 5.129300896653508062e+02
2.809618115985516695e+00 5.128686885372559345e+02
2.809718137990357523e+00 5.128070618915962768e+02
2.809818159995198794e+00 5.127452127192295848e+02
2.809918182000039621e+00 5.126831440320059983e+02
2.810018204004880893e+00 5.126208588626877827e+02
2.810118226009721720e+00 5.125583602648659962e+02
2.810218248014563436e+00 5.124956513128765891e+02
2.810318270019403819e+00 5.124327351017180945e+02
2.810418292024245090e+00 5.123696147469643165e+02
2.810518314029086362e+00 5.123062933846792930e+02
2.810618336033927189e+00 5.122427741713304385e+02
2.810718358038768461e+00 5.121790602836971402e+02
2.810818380043609288e+00 5.121151549187848104e+02
2.810918402048450560e+00 5.120510612937316637e+02
2.811018424053291387e+00 5.119867826457205524e+02
2.811118446058132214e+00 5.119223222318814805e+02
2.811218468062973486e+00 5.118576833292024730e+02
2.811318490067814757e+00 5.117928692344338515e+02
2.811418512072656029e+00 5.117278832639906341e+02
2.811518534077496856e+00 5.116627287538588007e+02
2.811618556082338127e+00 5.115974090594963855e+02
2.811718578087178955e+00 5.115319275557338869e+02
2.811818600092019782e+00 5.114662876366765545e+02
2.811918622096861053e+00 5.114004927156029225e+02
2.812018644101701881e+00 5.113345462248625495e+02
2.812118666106543152e+00 5.112684516157755183e+02
2.812218688111384424e+00 5.112022123585251734e+02
2.812318710116225695e+00 5.111358319420573935e+02
2.812418732121066522e+00 5.110693138739729875e+02
2.812518754125907350e+00 5.110026616804212836e+02
2.812618776130748621e+00 5.109358789059929222e+02
2.812718798135589449e+00 5.108689691136116835e+02
2.812818820140430720e+00 5.108019358844241538e+02
2.812918842145271547e+00 5.107347828176892790e+02
2.813018864150112819e+00 5.106675135306682023e+02
2.813118886154954090e+00 5.106001316585104632e+02
2.813218908159794474e+00 5.105326408541416185e+02
2.813318930164636189e+00 5.104650447881468835e+02
2.813418952169477016e+00 5.103973471486594917e+02
2.813518974174318288e+00 5.103295516412412098e+02
2.813618996179159115e+00 5.102616619887665479e+02
2.813719018184000387e+00 5.101936819313050364e+02
2.813819040188841214e+00 5.101256152259998657e+02
2.813919062193682041e+00 5.100574656469519823e+02
2.814019084198523757e+00 5.099892369850933278e+02
2.814119106203364140e+00 5.099209330480722997e+02
2.814219128208205856e+00 5.098525576601232956e+02
2.814319150213046683e+00 5.097841146619485926e+02
2.814419172217887954e+00 5.097156079105916433e+02
2.814519194222728782e+00 5.096470412793104856e+02
2.814619216227569609e+00 5.095784186574539945e+02
2.814719238232410881e+00 5.095097439503307442e+02
2.814819260237251708e+00 5.094410210790846918e+02
2.814919282242093423e+00 5.093722539805618226e+02
2.815019304246933807e+00 5.093034466071839006e+02
2.815119326251775522e+00 5.092346029268152279e+02
2.815219348256616350e+00 5.091657269226319613e+02
2.815319370261457177e+00 5.090968225929869391e+02
2.815419392266298448e+00 5.090278939512787133e+02
2.815519414271139276e+00 5.089589450258156944e+02
2.815619436275980547e+00 5.088899798596817163e+02
2.815719458280821375e+00 5.088210025105980208e+02
2.815819480285663090e+00 5.087520170507874582e+02
2.815919502290503473e+00 5.086830275668352215e+02
2.816019524295344745e+00 5.086140381595528197e+02
2.816119546300186016e+00 5.085450529438336389e+02
2.816219568305026844e+00 5.084760760485171431e+02
2.816319590309868115e+00 5.084071116162435260e+02
2.816419612314708942e+00 5.083381638033144441e+02
2.816519634319550214e+00 5.082692367795478958e+02
2.816619656324391041e+00 5.082003347281357719e+02
2.816719678329231868e+00 5.081314618454969150e+02
2.816819700334073140e+00 5.080626223411342153e+02
2.816919722338914411e+00 5.079938204374855104e+02
2.817019744343755683e+00 5.079250603697796578e+02
2.817119766348596510e+00 5.078563463858846490e+02
2.817219788353437782e+00 5.077876827461610674e+02
2.817319810358278609e+00 5.077190737233121922e+02
2.817419832363119436e+00 5.076505236022338750e+02
2.817519854367960708e+00 5.075820366798612326e+02
2.817619876372801535e+00 5.075136172650207413e+02
2.817719898377642807e+00 5.074452696782722114e+02
2.817819920382484078e+00 5.073769982517592894e+02
2.817919942387325349e+00 5.073088073290531383e+02
2.818019964392166177e+00 5.072407012649988474e+02
2.818119986397007004e+00 5.071726844255574633e+02
2.818220008401848276e+00 5.071047611876513201e+02
2.818320030406689103e+00 5.070369359390055024e+02
2.818420052411530374e+00 5.069692130779901618e+02
2.818520074416371202e+00 5.069015970134613553e+02
2.818620096421212473e+00 5.068340921646022252e+02
2.818720118426053745e+00 5.067667029607616769e+02
2.818820140430894128e+00 5.066994338412944217e+02
2.818920162435735843e+00 5.066322892553978363e+02
2.819020184440576671e+00 5.065652736619508119e+02
2.819120206445417942e+00 5.064983915293499876e+02
2.819220228450258769e+00 5.064316473353459287e+02
2.819320250455100041e+00 5.063650455668782797e+02
2.819420272459940868e+00 5.062985907199110329e+02
2.819520294464781696e+00 5.062322872992660905e+02
2.819620316469623411e+00 5.061661398184577365e+02
2.819720338474463794e+00 5.061001527995232436e+02
2.819820360479305510e+00 5.060343307728567197e+02
2.819920382484146337e+00 5.059686782770397144e+02
2.820020404488987609e+00 5.059031998586722239e+02
2.820120426493828436e+00 5.058379000722035812e+02
2.820220448498669263e+00 5.057727834797590845e+02
2.820320470503510535e+00 5.057078546509714556e+02
2.820420492508351362e+00 5.056431181628092872e+02
2.820520514513193078e+00 5.055785785994011690e+02
2.820620536518033461e+00 5.055142405518668056e+02
2.820720558522875177e+00 5.054501086181408027e+02
2.820820580527716004e+00 5.053861874027984413e+02
2.820920602532556831e+00 5.053224815168808846e+02
2.821020624537398103e+00 5.052589955777211799e+02
2.821120646542238930e+00 5.051957342087662255e+02
2.821220668547080201e+00 5.051327020394007832e+02
2.821320690551921029e+00 5.050699037047698425e+02
2.821420712556762744e+00 5.050073438456013832e+02
2.821520734561603128e+00 5.049450271080278867e+02
2.821620756566444399e+00 5.048829581434067677e+02
2.821720778571285670e+00 5.048211416081420566e+02
2.821820800576126498e+00 5.047595821635018183e+02
2.821920822580967769e+00 5.046982844754406869e+02
2.822020844585808597e+00 5.046372532144158640e+02
2.822120866590649868e+00 5.045764930552086298e+02
2.822220888595490695e+00 5.045160086767382950e+02
2.822320910600331523e+00 5.044558047618832575e+02
2.822420932605172794e+00 5.043958859972938740e+02
2.822520954610014066e+00 5.043362570732126642e+02
2.822620976614855337e+00 5.042769226832872391e+02
2.822720998619696164e+00 5.042178875243872653e+02
2.822821020624537436e+00 5.041591562964169952e+02
2.822921042629378263e+00 5.041007337021332546e+02
2.823021064634219091e+00 5.040426244469564381e+02
2.823121086639060362e+00 5.039848332387832102e+02
2.823221108643901189e+00 5.039273647878030715e+02
2.823321130648742461e+00 5.038702238063067398e+02
2.823421152653583732e+00 5.038134150085018064e+02
2.823521174658425004e+00 5.037569431103208899e+02
2.823621196663265831e+00 5.037008128292354741e+02
2.823721218668106658e+00 5.036450288840660505e+02
2.823821240672947930e+00 5.035895959947908409e+02
2.823921262677788757e+00 5.035345188823582134e+02
2.824021284682630029e+00 5.034798022684942111e+02
2.824121306687470856e+00 5.034254508755126380e+02
2.824221328692312127e+00 5.033714694261242926e+02
2.824321350697153399e+00 5.033178626432427336e+02
2.824421372701993782e+00 5.032646352497962425e+02
2.824521394706835498e+00 5.032117919685315997e+02
2.824621416711676325e+00 5.031593375218249662e+02
2.824721438716517596e+00 5.031072766314847513e+02
2.824821460721358424e+00 5.030556140185622098e+02
2.824921482726199695e+00 5.030043544031545935e+02
2.825021504731040523e+00 5.029535025042122243e+02
2.825121526735881350e+00 5.029030630393442038e+02
2.825221548740723065e+00 5.028530407246240657e+02
2.825321570745563449e+00 5.028034402743933811e+02
2.825421592750405164e+00 5.027542664010671842e+02
2.825521614755245992e+00 5.027055238149380898e+02
2.825621636760087263e+00 5.026572172239811493e+02
2.825721658764928090e+00 5.026093513336561500e+02
2.825821680769768918e+00 5.025619308467125848e+02
2.825921702774610189e+00 5.025149604629913256e+02
2.826021724779451016e+00 5.024684448792284570e+02
2.826121746784292732e+00 5.024223887888595641e+02
2.826221768789133115e+00 5.023767968818179952e+02
2.826321790793974831e+00 5.023316738443417080e+02
2.826421812798815658e+00 5.022870243587717596e+02
2.826521834803656485e+00 5.022428531033568220e+02
2.826621856808497757e+00 5.021991647520526385e+02
2.826721878813338584e+00 5.021559639743239813e+02
2.826821900818179856e+00 5.021132554349458701e+02
2.826921922823020683e+00 5.020710437938054724e+02
2.827021944827862399e+00 5.020293337057017879e+02
2.827121966832702782e+00 5.019881298201456161e+02
2.827221988837544053e+00 5.019474367811612865e+02
2.827322010842385325e+00 5.019072592270869677e+02
2.827422032847226152e+00 5.018676017903725892e+02
2.827522054852067424e+00 5.018284690973839588e+02
2.827622076856908251e+00 5.017898657681973873e+02
2.827722098861749522e+00 5.017517964164040336e+02
2.827822120866590350e+00 5.017142656489054389e+02
2.827922142871431177e+00 5.016772780657169619e+02
2.828022164876272448e+00 5.016408382597637683e+02
2.828122186881113720e+00 5.016049508166815940e+02
2.828222208885954991e+00 5.015696203146157472e+02
2.828322230890795819e+00 5.015348513240197690e+02
2.828422252895637090e+00 5.015006484074551167e+02
2.828522274900477917e+00 5.014670161193884041e+02
2.828622296905318745e+00 5.014339590059928469e+02
2.828722318910160016e+00 5.014014816049447063e+02
2.828822340915000844e+00 5.013695884452226892e+02
2.828922362919842115e+00 5.013382840469073471e+02
2.829022384924683386e+00 5.013075729209778046e+02
2.829122406929524658e+00 5.012774595691137165e+02
2.829222428934365485e+00 5.012479484834896084e+02
2.829322450939206313e+00 5.012190441465780850e+02
2.829422472944047584e+00 5.011907510309430336e+02
2.829522494948888411e+00 5.011630735990443668e+02
2.829622516953729683e+00 5.011360163030307717e+02
2.829722538958570510e+00 5.011095835845432589e+02
2.829822560963411782e+00 5.010837798745089913e+02
2.829922582968253053e+00 5.010586095929448902e+02
2.830022604973093436e+00 5.010340771487524307e+02
2.830122626977935152e+00 5.010101869395185759e+02
2.830222648982775979e+00 5.009869433513138119e+02
2.830322670987617251e+00 5.009643507584916051e+02
2.830422692992458078e+00 5.009424135234871187e+02
2.830522714997299349e+00 5.009211359966154760e+02
2.830622737002140177e+00 5.009005225158722965e+02
2.830722759006981004e+00 5.008805774067322432e+02
2.830822781011822720e+00 5.008613049819477965e+02
2.830922803016663103e+00 5.008427095413503025e+02
2.831022825021504818e+00 5.008247953716481220e+02
2.831122847026345646e+00 5.008075667462276215e+02
2.831222869031186917e+00 5.007910279249509244e+02
2.831322891036027745e+00 5.007751831539586647e+02
2.831422913040868572e+00 5.007600366654686468e+02
2.831522935045709843e+00 5.007455926775754733e+02
2.831622957050550671e+00 5.007318553940526726e+02
2.831722979055392386e+00 5.007188290041536334e+02
2.831823001060232770e+00 5.007065176824092987e+02
2.831923023065074485e+00 5.006949255884328522e+02
2.832023045069915312e+00 5.006840568667205957e+02
2.832123067074756140e+00 5.006739156464494158e+02
2.832223089079597411e+00 5.006645060412844259e+02
2.832323111084438239e+00 5.006558321491771153e+02
2.832423133089279510e+00 5.006478980521668518e+02
2.832523155094120337e+00 5.006407078161863637e+02
2.832623177098962053e+00 5.006342654908627878e+02
2.832723199103802436e+00 5.006285751093200815e+02
2.832823221108643708e+00 5.006236406879822312e+02
2.832923243113484979e+00 5.006194662263787336e+02
2.833023265118325806e+00 5.006160557069443939e+02
2.833123287123167078e+00 5.006134130948279335e+02
2.833223309128007905e+00 5.006115423376925833e+02
2.833323331132849177e+00 5.006104473655231004e+02
2.833423353137690004e+00 5.006101320904288059e+02
2.833523375142530831e+00 5.006106004064506578e+02
2.833623397147372103e+00 5.006118561893659944e+02
2.833723419152213374e+00 5.006139032964933904e+02
2.833823441157054646e+00 5.006167455665005264e+02
2.833923463161895473e+00 5.006203868192110917e+02
2.834023485166736744e+00 5.006248308554096411e+02
2.834123507171577572e+00 5.006300814566504869e+02
2.834223529176418399e+00 5.006361423850652272e+02
2.834323551181259671e+00 5.006430173831708430e+02
2.834423573186100498e+00 5.006507101736775098e+02
2.834523595190941769e+00 5.006592244592991392e+02
2.834623617195783041e+00 5.006685639225602813e+02
2.834723639200624312e+00 5.006787322256074049e+02
2.834823661205465140e+00 5.006897330100196086e+02
2.834923683210305967e+00 5.007015698966172295e+02
2.835023705215147238e+00 5.007142464852752823e+02
2.835123727219988066e+00 5.007277663547315569e+02
2.835223749224829337e+00 5.007421330624026723e+02
2.835323771229670164e+00 5.007573501441928556e+02
2.835423793234511436e+00 5.007734211143080643e+02
2.835523815239352707e+00 5.007903494650712446e+02
2.835623837244193091e+00 5.008081386667324750e+02
2.835723859249034806e+00 5.008267921672857028e+02
2.835823881253875633e+00 5.008463133922832640e+02
2.835923903258716905e+00 5.008667057446510285e+02
2.836023925263557732e+00 5.008879726045028633e+02
2.836123947268399004e+00 5.009101173289595863e+02
2.836223969273239831e+00 5.009331432519634291e+02
2.836323991278080658e+00 5.009570536840967634e+02
2.836424013282922374e+00 5.009818519124002592e+02
2.836524035287762757e+00 5.010075412001899622e+02
2.836624057292604473e+00 5.010341247868773848e+02
2.836724079297445300e+00 5.010616058877902219e+02
2.836824101302286572e+00 5.010899876939893147e+02
2.836924123307127399e+00 5.011192733720934598e+02
2.837024145311968226e+00 5.011494660640976804e+02
2.837124167316809498e+00 5.011805688871970688e+02
2.837224189321650325e+00 5.012125849336082979e+02
2.837324211326492041e+00 5.012455172703931794e+02
2.837424233331332424e+00 5.012793689392838701e+02
2.837524255336174139e+00 5.013141429565037015e+02
2.837624277341014967e+00 5.013498423125977297e+02
2.837724299345855794e+00 5.013864699722519163e+02
2.837824321350697065e+00 5.014240288741266340e+02
2.837924343355537893e+00 5.014625219306772124e+02
2.838024365360379164e+00 5.015019520279860217e+02
2.838124387365219992e+00 5.015423220255895558e+02
2.838224409370061707e+00 5.015836347563075037e+02
2.838324431374902090e+00 5.016258930260716511e+02
2.838424453379743362e+00 5.016690996137584193e+02
2.838524475384584633e+00 5.017132572710174827e+02
2.838624497389425461e+00 5.017583687221062974e+02
2.838724519394266732e+00 5.018044366637206508e+02
2.838824541399107559e+00 5.018514637648283383e+02
2.838924563403948831e+00 5.018994526665056242e+02
2.839024585408789658e+00 5.019484059817679054e+02
2.839124607413630486e+00 5.019983262954090719e+02
2.839224629418471757e+00 5.020492161638360358e+02
2.839324651423313028e+00 5.021010781149040554e+02
2.839424673428154300e+00 5.021539146477604163e+02
2.839524695432995127e+00 5.022077282326750947e+02
2.839624717437836399e+00 5.022625213108876210e+02
2.839724739442677226e+00 5.023182962944429164e+02
2.839824761447518053e+00 5.023750555660315058e+02
2.839924783452359325e+00 5.024328014788362680e+02
2.840024805457200152e+00 5.024915363563698634e+02
2.840124827462041424e+00 5.025512624923208023e+02
2.840224849466882695e+00 5.026119821503978073e+02
2.840324871471723966e+00 5.026736975641737217e+02
2.840424893476564794e+00 5.027364109369318612e+02
2.840524915481405621e+00 5.028001244415132760e+02
2.840624937486246893e+00 5.028648402201648082e+02
2.840724959491087720e+00 5.029305603843855010e+02
2.840824981495928991e+00 5.029972870147787489e+02
2.840925003500769819e+00 5.030650221608999573e+02
2.841025025505611090e+00 5.031337678411097158e+02
2.841125047510452362e+00 5.032035260424246417e+02
2.841225069515292745e+00 5.032742987203704388e+02
2.841325091520134460e+00 5.033460877988363791e+02
2.841425113524975288e+00 5.034188951699296126e+02
2.841525135529816559e+00 5.034927226938302169e+02
2.841625157534657387e+00 5.035675721986483495e+02
2.841725179539498214e+00 5.036434454802822529e+02
2.841825201544339485e+00 5.037203443022751230e+02
2.841925223549180313e+00 5.037982703956765249e+02
2.842025245554022028e+00 5.038772254589006252e+02
2.842125267558862411e+00 5.039572111575893700e+02
2.842225289563704127e+00 5.040382291244732187e+02
2.842325311568544954e+00 5.041202809592349467e+02
2.842425333573385782e+00 5.042033682283736766e+02
2.842525355578227053e+00 5.042874924650710682e+02
2.842625377583067880e+00 5.043726551690548945e+02
2.842725399587909152e+00 5.044588578064689841e+02
2.842825421592749979e+00 5.045461018097401507e+02
2.842925443597591695e+00 5.046343885774464297e+02
2.843025465602432078e+00 5.047237194741885560e+02
2.843125487607273350e+00 5.048140958304614969e+02
2.843225509612114621e+00 5.049055189425246226e+02
2.843325531616955448e+00 5.049979900722769344e+02
2.843425553621796720e+00 5.050915104471298491e+02
2.843525575626637547e+00 5.051860812598831671e+02
2.843625597631478819e+00 5.052817036686017786e+02
2.843725619636319646e+00 5.053783787964933936e+02
2.843825641641160473e+00 5.054761077317842251e+02
2.843925663646001745e+00 5.055748915276025741e+02
2.844025685650843016e+00 5.056747312018557636e+02
2.844125707655684288e+00 5.057756277371150873e+02
2.844225729660525115e+00 5.058775820804950740e+02
2.844325751665366386e+00 5.059805951435404268e+02
2.844425773670207214e+00 5.060846678021099478e+02
2.844525795675048041e+00 5.061898008962608628e+02
2.844625817679889312e+00 5.062959952301387148e+02
2.844725839684730140e+00 5.064032515718640184e+02
2.844825861689571411e+00 5.065115706534215860e+02
2.844925883694412683e+00 5.066209531705524114e+02
2.845025905699253954e+00 5.067313997826425975e+02
2.845125927704094781e+00 5.068429111126195039e+02
2.845225949708935609e+00 5.069554877468426639e+02
2.845325971713776880e+00 5.070691302350010119e+02
2.845425993718617708e+00 5.071838390900074387e+02
2.845526015723458979e+00 5.072996147878972124e+02
2.845626037728299806e+00 5.074164577677277066e+02
2.845726059733141078e+00 5.075343684314728989e+02
2.845826081737982349e+00 5.076533471439308869e+02
2.845926103742822733e+00 5.077733942326228771e+02
2.846026125747664448e+00 5.078945099876944482e+02
2.846126147752505275e+00 5.080166946618238626e+02
2.846226169757346547e+00 5.081399484701242955e+02
2.846326191762187374e+00 5.082642715900532266e+02
2.846426213767028646e+00 5.083896641613186489e+02
2.846526235771869473e+00 5.085161262857889142e+02
2.846626257776710300e+00 5.086436580274036601e+02
2.846726279781552016e+00 5.087722594120836561e+02
2.846826301786392399e+00 5.089019304276467892e+02
2.846926323791234115e+00 5.090326710237181373e+02
2.847026345796074942e+00 5.091644811116493088e+02
2.847126367800916213e+00 5.092973605644322674e+02
2.847226389805757041e+00 5.094313092166174783e+02
2.847326411810597868e+00 5.095663268642343269e+02
2.847426433815439140e+00 5.097024132647102874e+02
2.847526455820279967e+00 5.098395681367920815e+02
2.847626477825121682e+00 5.099777911604696783e+02
2.847726499829962066e+00 5.101170819768997262e+02
2.847826521834803781e+00 5.102574401883306336e+02
2.847926543839644609e+00 5.103988653580297523e+02
2.848026565844485436e+00 5.105413570102112999e+02
2.848126587849326707e+00 5.106849146299648510e+02
2.848226609854167535e+00 5.108295376631857607e+02
2.848326631859008806e+00 5.109752255165081465e+02
2.848426653863849634e+00 5.111219775572368462e+02
2.848526675868691349e+00 5.112697931132810254e+02
2.848626697873531732e+00 5.114186714730926724e+02
2.848726719878373004e+00 5.115686118856002622e+02
2.848826741883214275e+00 5.117196135601487867e+02
2.848926763888055103e+00 5.118716756664388186e+02
2.849026785892896374e+00 5.120247973344689854e+02
2.849126807897737201e+00 5.121789776544741244e+02
2.849226829902578473e+00 5.123342156768738960e+02
2.849326851907419300e+00 5.124905104122140074e+02
2.849426873912260127e+00 5.126478608311141443e+02
2.849526895917101399e+00 5.128062658642144243e+02
2.849626917921942670e+00 5.129657244021254883e+02
2.849726939926783942e+00 5.131262352953783648e+02
2.849826961931624769e+00 5.132877973543739927e+02
2.849926983936466041e+00 5.134504093493404753e+02
2.850027005941306868e+00 5.136140700102832852e+02
2.850127027946147695e+00 5.137787780269427458e+02
2.850227049950988967e+00 5.139445320487513982e+02
2.850327071955829794e+00 5.141113306847905733e+02
2.850427093960671066e+00 5.142791725037520791e+02
2.850527115965512337e+00 5.144480560338989790e+02
2.850627137970353608e+00 5.146179797630265966e+02
2.850727159975194436e+00 5.147889421384278421e+02
2.850827181980035263e+00 5.149609415668591055e+02
2.850927203984876535e+00 5.151339764145037634e+02
2.851027225989717362e+00 5.153080450069439848e+02
2.851127247994558633e+00 5.154831456291279892e+02
2.851227269999399461e+00 5.156592765253410562e+02
2.851327292004240732e+00 5.158364358991781273e+02
2.851427314009082004e+00 5.160146219135173169e+02
2.851527336013922387e+00 5.161938326904941050e+02
2.851627358018764102e+00 5.163740663114803056e+02
2.851727380023604930e+00 5.165553208170579182e+02
2.851827402028446201e+00 5.167375942070023029e+02
2.851927424033287028e+00 5.169208844402600107e+02
2.852027446038128300e+00 5.171051894349313898e+02
2.852127468042969127e+00 5.172905070682559199e+02
2.852227490047809955e+00 5.174768351765944772e+02
2.852327512052651670e+00 5.176641715554179655e+02
2.852427534057492053e+00 5.178525139592927644e+02
2.852527556062333769e+00 5.180418601018718618e+02
2.852627578067174596e+00 5.182322076558838262e+02
2.852727600072015868e+00 5.184235542531266674e+02
2.852827622076856695e+00 5.186158974844602199e+02
2.852927644081697522e+00 5.188092348998000034e+02
2.853027666086538794e+00 5.190035640081154042e+02
2.853127688091379621e+00 5.191988822774269465e+02
2.853227710096221337e+00 5.193951871348051554e+02
2.853327732101061720e+00 5.195924759663699888e+02
2.853427754105903436e+00 5.197907461172961803e+02
2.853527776110744263e+00 5.199899948918135806e+02
2.853627798115585090e+00 5.201902195532136375e+02
2.853727820120426362e+00 5.203914173238557623e+02
2.853827842125267189e+00 5.205935853851746060e+02
2.853927864130108460e+00 5.207967208776905181e+02
2.854027886134949288e+00 5.210008209010193241e+02
2.854127908139791003e+00 5.212058825138853990e+02
2.854227930144631387e+00 5.214119027341334913e+02
2.854327952149472658e+00 5.216188785387462303e+02
2.854427974154313929e+00 5.218268068638612931e+02
2.854527996159154757e+00 5.220356846047849331e+02
2.854628018163996028e+00 5.222455086160174460e+02
2.854728040168836856e+00 5.224562757112698819e+02
2.854828062173678127e+00 5.226679826634884876e+02
2.854928084178518954e+00 5.228806262048778990e+02
2.855028106183359782e+00 5.230942030269271754e+02
2.855128128188201053e+00 5.233087097804361747e+02
2.855228150193042325e+00 5.235241430755440888e+02
2.855328172197883596e+00 5.237404994817593433e+02
2.855428194202724423e+00 5.239577755279910889e+02
2.855528216207565695e+00 5.241759677025805786e+02
2.855628238212406522e+00 5.243950724533381162e+02
2.855728260217247350e+00 5.246150861875756846e+02
2.855828282222088621e+00 5.248360052721461670e+02
2.855928304226929448e+00 5.250578260334820015e+02
2.856028326231770720e+00 5.252805447576331517e+02
2.856128348236611991e+00 5.255041576903122404e+02
2.856228370241453263e+00 5.257286610369330901e+02
2.856328392246294090e+00 5.259540509626606308e+02
2.856428414251134917e+00 5.261803235924517139e+02
2.856528436255976189e+00 5.264074750111062713e+02
2.856628458260817016e+00 5.266355012633148363e+02
2.856728480265658288e+00 5.268643983537095892e+02
2.856828502270499115e+00 5.270941622469140384e+02
2.856928524275340386e+00 5.273247888676002049e+02
2.857028546280181658e+00 5.275562741005403495e+02
2.857128568285022041e+00 5.277886137906646127e+02
2.857228590289863757e+00 5.280218037431193352e+02
2.857328612294704584e+00 5.282558397233248115e+02
2.857428634299545855e+00 5.284907174570374764e+02
2.857528656304386683e+00 5.287264326304109545e+02
2.857628678309227954e+00 5.289629808900617718e+02
2.857728700314068782e+00 5.292003578431321102e+02
2.857828722318909609e+00 5.294385590573569971e+02
2.857928744323751324e+00 5.296775800611336535e+02
2.858028766328591708e+00 5.299174163435914124e+02
2.858128788333433423e+00 5.301580633546602712e+02
2.858228810338274251e+00 5.303995165051454705e+02
2.858328832343115522e+00 5.306417711668009360e+02
2.858428854347956349e+00 5.308848226724053347e+02
2.858528876352797177e+00 5.311286663158371084e+02
2.858628898357638448e+00 5.313732973521564418e+02
2.858728920362479275e+00 5.316187109976802958e+02
2.858828942367320991e+00 5.318649024300689234e+02
2.858928964372161374e+00 5.321118667884044271e+02
2.859028986377003090e+00 5.323595991732777293e+02
2.859129008381843917e+00 5.326080946468727007e+02
2.859229030386684745e+00 5.328573482330538127e+02
2.859329052391526016e+00 5.331073549174553818e+02
2.859429074396366843e+00 5.333581096475713821e+02
2.859529096401208115e+00 5.336096073328463945e+02
2.859629118406048942e+00 5.338618428447696260e+02
2.859729140410890658e+00 5.341148110169680194e+02
2.859829162415731041e+00 5.343685066453026593e+02
2.859929184420572312e+00 5.346229244879679072e+02
2.860029206425413584e+00 5.348780592655868986e+02
2.860129228430254411e+00 5.351339056613151115e+02
2.860229250435095683e+00 5.353904583209393877e+02
2.860329272439936510e+00 5.356477118529828658e+02
2.860429294444777781e+00 5.359056608288085499e+02
2.860529316449618609e+00 5.361642997827262889e+02
2.860629338454459436e+00 5.364236232120987324e+02
2.860729360459300707e+00 5.366836255774513802e+02
2.860829382464141979e+00 5.369443013025835398e+02
2.860929404468983250e+00 5.372056447746771255e+02
2.861029426473824078e+00 5.374676503444137552e+02
2.861129448478665349e+00 5.377303123260866187e+02
2.861229470483506176e+00 5.379936249977174612e+02
2.861329492488347004e+00 5.382575826011734534e+02
2.861429514493188275e+00 5.385221793422870178e+02
2.861529536498029103e+00 5.387874093909746307e+02
2.861629558502870374e+00 5.390532668813605142e+02
2.861729580507711646e+00 5.393197459118983943e+02
2.861829602512552917e+00 5.395868405454954200e+02
2.861929624517393744e+00 5.398545448096394921e+02
2.862029646522234572e+00 5.401228526965256833e+02
2.862129668527075843e+00 5.403917581631856137e+02
2.862229690531916670e+00 5.406612551316165991e+02
2.862329712536757942e+00 5.409313374889138686e+02
2.862429734541598769e+00 5.412019990874031237e+02
2.862529756546440041e+00 5.414732337447748023e+02
2.862629778551281312e+00 5.417450352442209578e+02
2.862729800556121695e+00 5.420173973345697505e+02
2.862829822560963411e+00 5.422903137304251686e+02
2.862929844565804238e+00 5.425637781123086825e+02
2.863029866570645510e+00 5.428377841267968051e+02
2.863129888575486337e+00 5.431123253866668392e+02
2.863229910580327608e+00 5.433873954710379621e+02
2.863329932585168436e+00 5.436629879255194737e+02
2.863429954590009263e+00 5.439390962623543828e+02
2.863529976594850979e+00 5.442157139605695875e+02
2.863629998599691362e+00 5.444928344661246911e+02
2.863730020604533077e+00 5.447704511920612731e+02
2.863830042609373905e+00 5.450485575186567075e+02
2.863930064614215176e+00 5.453271467935766168e+02
2.864030086619056004e+00 5.456062123320297133e+02
2.864130108623896831e+00 5.458857474169237776e+02
2.864230130628738102e+00 5.461657452990230013e+02
2.864330152633578930e+00 5.464461991971062389e+02
2.864430174638420645e+00 5.467271022981271926e+02
2.864530196643261029e+00 5.470084477573769846e+02
2.864630218648102744e+00 5.472902286986449099e+02
2.864730240652943571e+00 5.475724382143823732e+02
2.864830262657784399e+00 5.478550693658696673e+02
2.864930284662625670e+00 5.481381151833816148e+02
2.865030306667466498e+00 5.484215686663544602e+02
2.865130328672307769e+00 5.487054227835564006e+02
2.865230350677148596e+00 5.489896704732572061e+02
2.865330372681990312e+00 5.492743046434006828e+02
2.865430394686830695e+00 5.495593181717754305e+02
2.865530416691671967e+00 5.498447039061924215e+02
2.865630438696513238e+00 5.501304546646570088e+02
2.865730460701354065e+00 5.504165632355477555e+02
2.865830482706195337e+00 5.507030223777942410e+02
2.865930504711036164e+00 5.509898248210556631e+02
2.866030526715877436e+00 5.512769632659017134e+02
2.866130548720718263e+00 5.515644303839937947e+02
2.866230570725559090e+00 5.518522188182690797e+02
2.866330592730400362e+00 5.521403211831228646e+02
2.866430614735241633e+00 5.524287300645969481e+02
2.866530636740082905e+00 5.527174380205631223e+02
2.866630658744923732e+00 5.530064375809122339e+02
2.866730680749765003e+00 5.532957212477446092e+02
2.866830702754605831e+00 5.535852814955577514e+02
2.866930724759446658e+00 5.538751107714398358e+02
2.867030746764287930e+00 5.541652014952620675e+02
2.867130768769128757e+00 5.544555460598721766e+02
2.867230790773970028e+00 5.547461368312892773e+02
2.867330812778811300e+00 5.550369661489003192e+02
2.867430834783652571e+00 5.553280263256577882e+02
2.867530856788493399e+00 5.556193096482777491e+02
2.867630878793334226e+00 5.559108083774403894e+02
2.867730900798175497e+00 5.562025147479902216e+02
2.867830922803016325e+00 5.564944209691392416e+02
2.867930944807857596e+00 5.567865192246666766e+02
2.868030966812698423e+00 5.570788016731293055e+02
2.868130988817539695e+00 5.573712604480609798e+02
2.868231010822380966e+00 5.576638876581831710e+02
2.868331032827221350e+00 5.579566753876105167e+02
2.868431054832063065e+00 5.582496156960609142e+02
2.868531076836903893e+00 5.585427006190650445e+02
2.868631098841745164e+00 5.588359221681776035e+02
2.868731120846585991e+00 5.591292723311895543e+02
2.868831142851427263e+00 5.594227430723399266e+02
2.868931164856268090e+00 5.597163263325321623e+02
2.869031186861108917e+00 5.600100140295487563e+02
2.869131208865950633e+00 5.603037980582689670e+02
2.869231230870791016e+00 5.605976702908822062e+02
2.869331252875632732e+00 5.608916225771124573e+02
2.869431274880473559e+00 5.611856467444335976e+02
2.869531296885314831e+00 5.614797345982926799e+02
2.869631318890155658e+00 5.617738779223301435e+02
2.869731340894996485e+00 5.620680684786025267e+02
2.869831362899837757e+00 5.623622980078087039e+02
2.869931384904678584e+00 5.626565582295107788e+02
2.870031406909520300e+00 5.629508408423645278e+02
2.870131428914360683e+00 5.632451375243417715e+02
2.870231450919202398e+00 5.635394399329620683e+02
2.870331472924043226e+00 5.638337397055190650e+02
2.870431494928884053e+00 5.641280284593115084e+02
2.870531516933725324e+00 5.644222977918745983e+02
2.870631538938566152e+00 5.647165392812099753e+02
2.870731560943407423e+00 5.650107444860199166e+02
2.870831582948248251e+00 5.653049049459409616e+02
2.870931604953089966e+00 5.655990121817794716e+02
2.871031626957930349e+00 5.658930576957435505e+02
2.871131648962771621e+00 5.661870329716865626e+02
2.871231670967612892e+00 5.664809294753356426e+02
2.871331692972453720e+00 5.667747386545390782e+02
2.871431714977294991e+00 5.670684519394995959e+02
2.871531736982135818e+00 5.673620607430169684e+02
2.871631758986977090e+00 5.676555564607292581e+02
2.871731780991817917e+00 5.679489304713538331e+02
2.871831802996658745e+00 5.682421741369322490e+02
2.871931825001500016e+00 5.685352788030718330e+02
2.872031847006341287e+00 5.688282357991915887e+02
2.872131869011182559e+00 5.691210364387684422e+02
2.872231891016023386e+00 5.694136720195830321e+02
2.872331913020864658e+00 5.697061338239657289e+02
2.872431935025705485e+00 5.699984131190471999e+02
2.872531957030546312e+00 5.702905011570049965e+02
2.872631979035387584e+00 5.705823891753163934e+02
2.872732001040228411e+00 5.708740683970056580e+02
2.872832023045069683e+00 5.711655300308985943e+02
2.872932045049910954e+00 5.714567652718709496e+02
2.873032067054752225e+00 5.717477653011058010e+02
2.873132089059593053e+00 5.720385212863452580e+02
2.873232111064433880e+00 5.723290243821438708e+02
2.873332133069275152e+00 5.726192657301266991e+02
2.873432155074115979e+00 5.729092364592439708e+02
2.873532177078957250e+00 5.731989276860275595e+02
2.873632199083798078e+00 5.734883305148505315e+02
2.873732221088639349e+00 5.737774360381826000e+02
2.873832243093480621e+00 5.740662353368525146e+02
2.873932265098321004e+00 5.743547194803059028e+02
2.874032287103162719e+00 5.746428795268661815e+02
2.874132309108003547e+00 5.749307065239966050e+02
2.874232331112844818e+00 5.752181915085609489e+02
2.874332353117685646e+00 5.755053255070881733e+02
2.874432375122526917e+00 5.757920995360326515e+02
2.874532397127367744e+00 5.760785046020432674e+02
2.874632419132208572e+00 5.763645317022222798e+02
2.874732441137050287e+00 5.766501718243948744e+02
2.874832463141890670e+00 5.769354159473734853e+02
2.874932485146732386e+00 5.772202550412243909e+02
2.875032507151573213e+00 5.775046800675365830e+02
2.875132529156414485e+00 5.777886819796877944e+02
2.875232551161255312e+00 5.780722517231141637e+02
2.875332573166096140e+00 5.783553802355789912e+02
2.875432595170937411e+00 5.786380584474420630e+02
2.875532617175778238e+00 5.789202772819314760e+02
2.875632639180619954e+00 5.792020276554134171e+02
2.875732661185460337e+00 5.794833004776634198e+02
2.875832683190302053e+00 5.797640866521393264e+02
2.875932705195142880e+00 5.800443770762541362e+02
2.876032727199983707e+00 5.803241626416472627e+02
2.876132749204824979e+00 5.806034342344603374e+02
2.876232771209665806e+00 5.808821827356109679e+02
2.876332793214507078e+00 5.811603990210667234e+02
2.876432815219347905e+00 5.814380739621217344e+02
2.876532837224189620e+00 5.817151984256710193e+02
2.876632859229030004e+00 5.819917632744881075e+02
2.876732881233871275e+00 5.822677593675007301e+02
2.876832903238712547e+00 5.825431775600682158e+02
2.876932925243553374e+00 5.828180087042605919e+02
2.877032947248394645e+00 5.830922436491348435e+02
2.877132969253235473e+00 5.833658732410149241e+02
2.877232991258076300e+00 5.836388883237700611e+02
2.877333013262917571e+00 5.839112797390948799e+02
2.877433035267758399e+00 5.841830383267883917e+02
2.877533057272599670e+00 5.844541549250359367e+02
2.877633079277440942e+00 5.847246203706874894e+02
2.877733101282282213e+00 5.849944254995418760e+02
2.877833123287123041e+00 5.852635611466258752e+02
2.877933145291963868e+00 5.855320181464761617e+02
2.878033167296805139e+00 5.857997873334236374e+02
2.878133189301645967e+00 5.860668595418750328e+02
2.878233211306487238e+00 5.863332256065942829e+02
2.878333233311328065e+00 5.865988763629882214e+02
2.878433255316169337e+00 5.868638026473889795e+02
2.878533277321010608e+00 5.871279952973382024e+02
2.878633299325850992e+00 5.873914451518721762e+02
2.878733321330692707e+00 5.876541430518036577e+02
2.878833343335533534e+00 5.879160798400114345e+02
2.878933365340374806e+00 5.881772463617205631e+02
2.879033387345215633e+00 5.884376334647914746e+02
2.879133409350056905e+00 5.886972320000041918e+02
2.879233431354897732e+00 5.889560328213433422e+02
2.879333453359738559e+00 5.892140267862863539e+02
2.879433475364580275e+00 5.894712047560899464e+02
2.879533497369420658e+00 5.897275575960730976e+02
2.879633519374262374e+00 5.899830761759105826e+02
2.879733541379103201e+00 5.902377513699132123e+02
2.879833563383944472e+00 5.904915740573189851e+02
2.879933585388785300e+00 5.907445351225809418e+02
2.880033607393626127e+00 5.909966254556524063e+02
2.880133629398467399e+00 5.912478359522772280e+02
2.880233651403308226e+00 5.914981575142754764e+02
2.880333673408149942e+00 5.917475810498347073e+02
2.880433695412990325e+00 5.919960974737940660e+02
2.880533717417832040e+00 5.922436977079379403e+02
2.880633739422672868e+00 5.924903726812797231e+02
2.880733761427513695e+00 5.927361133303530778e+02
2.880833783432354966e+00 5.929809105995004757e+02
2.880933805437195794e+00 5.932247554411616193e+02
2.881033827442037065e+00 5.934676388161623208e+02
2.881133849446877893e+00 5.937095516940036077e+02
2.881233871451719608e+00 5.939504850531521924e+02
2.881333893456559991e+00 5.941904298813271907e+02
2.881433915461401263e+00 5.944293771757913873e+02
2.881533937466242534e+00 5.946673179436392047e+02
2.881633959471083362e+00 5.949042432020867182e+02
2.881733981475924633e+00 5.951401439787608751e+02
2.881834003480765460e+00 5.953750113119876914e+02
2.881934025485606732e+00 5.956088362510845400e+02
2.882034047490447559e+00 5.958416098566445953e+02
2.882134069495288387e+00 5.960733232008318510e+02
2.882234091500129658e+00 5.963039673676648817e+02
2.882334113504970929e+00 5.965335334533099285e+02
2.882434135509812201e+00 5.967620125663686395e+02
2.882534157514653028e+00 5.969893958281659252e+02
2.882634179519494300e+00 5.972156743730420203e+02
2.882734201524335127e+00 5.974408393486380646e+02
2.882834223529175954e+00 5.976648819161866868e+02
2.882934245534017226e+00 5.978877932508011099e+02
2.883034267538858053e+00 5.981095645417623246e+02
2.883134289543699325e+00 5.983301869928096721e+02
2.883234311548540596e+00 5.985496518224271085e+02
2.883334333553381867e+00 5.987679502641318550e+02
2.883434355558222695e+00 5.989850735667632762e+02
2.883534377563063522e+00 5.992010129947718724e+02
2.883634399567904794e+00 5.994157598285030417e+02
2.883734421572745621e+00 5.996293053644892552e+02
2.883834443577586892e+00 5.998416409157340468e+02
2.883934465582427720e+00 6.000527578120021417e+02
2.884034487587268991e+00 6.002626474001032193e+02
2.884134509592110263e+00 6.004713010441817005e+02
2.884234531596950646e+00 6.006787101260007375e+02
2.884334553601792361e+00 6.008848660452304102e+02
2.884434575606633189e+00 6.010897602197333072e+02
2.884534597611474460e+00 6.012933840858489702e+02
2.884634619616315288e+00 6.014957290986818634e+02
2.884734641621156559e+00 6.016967867323835435e+02
2.884834663625997386e+00 6.018965484804416519e+02
2.884934685630838214e+00 6.020950058559602667e+02
2.885034707635679929e+00 6.022921503919473025e+02
2.885134729640520312e+00 6.024879736415973639e+02
2.885234751645362028e+00 6.026824671785752798e+02
2.885334773650202855e+00 6.028756225972997527e+02
2.885434795655044127e+00 6.030674315132276888e+02
2.885534817659884954e+00 6.032578855631338683e+02
2.885634839664725781e+00 6.034469764053972085e+02
2.885734861669567053e+00 6.036346957202774774e+02
2.885834883674407880e+00 6.038210352102037177e+02
2.885934905679249596e+00 6.040059866000485727e+02
2.886034927684089979e+00 6.041895416374130718e+02
2.886134949688931695e+00 6.043716920929064145e+02
2.886234971693772522e+00 6.045524297604254116e+02
2.886334993698613349e+00 6.047317464574334736e+02
2.886435015703454621e+00 6.049096340252411892e+02
2.886535037708295448e+00 6.050860843292822437e+02
2.886635059713136719e+00 6.052610892593952485e+02
2.886735081717977547e+00 6.054346407300977262e+02
2.886835103722819262e+00 6.056067306808668036e+02
2.886935125727659646e+00 6.057773510764116054e+02
2.887035147732500917e+00 6.059464939069544016e+02
2.887135169737342189e+00 6.061141511885024329e+02
2.887235191742183016e+00 6.062803149631249653e+02
2.887335213747024287e+00 6.064449772992257977e+02
2.887435235751865115e+00 6.066081302918214533e+02
2.887535257756706386e+00 6.067697660628101630e+02
2.887635279761547213e+00 6.069298767612477832e+02
2.887735301766388041e+00 6.070884545636189387e+02
2.887835323771229312e+00 6.072454916741100988e+02
2.887935345776070584e+00 6.074009803248778780e+02
2.888035367780911855e+00 6.075549127763232491e+02
2.888135389785752682e+00 6.077072813173606392e+02
2.888235411790593954e+00 6.078580782656852080e+02
2.888335433795434781e+00 6.080072959680435360e+02
2.888435455800275609e+00 6.081549268005027216e+02
2.888535477805116880e+00 6.083009631687147021e+02
2.888635499809957707e+00 6.084453975081871704e+02
2.888735521814798979e+00 6.085882222845458500e+02
2.888835543819640250e+00 6.087294299938025688e+02
2.888935565824481522e+00 6.088690131626199218e+02
2.889035587829322349e+00 6.090069643485741153e+02
2.889135609834163176e+00 6.091432761404197436e+02
2.889235631839004448e+00 6.092779411583505862e+02
2.889335653843845275e+00 6.094109520542660903e+02
2.889435675848686547e+00 6.095423015120261425e+02
2.889535697853527374e+00 6.096719822477173238e+02
2.889635719858368645e+00 6.097999870099096142e+02
2.889735741863209917e+00 6.099263085799168493e+02
2.889835763868050300e+00 6.100509397720543348e+02
2.889935785872892016e+00 6.101738734338964605e+02
2.890035807877732843e+00 6.102951024465334058e+02
2.890135829882574114e+00 6.104146197248278440e+02
2.890235851887414942e+00 6.105324182176681234e+02
2.890335873892256213e+00 6.106484909082256536e+02
2.890435895897097041e+00 6.107628308142045626e+02
2.890535917901937868e+00 6.108754309880989695e+02
2.890635939906779583e+00 6.109862845174404811e+02
2.890735961911619967e+00 6.110953845250510312e+02
2.890835983916461682e+00 6.112027241692941288e+02
2.890936005921302510e+00 6.113082966443225814e+02
2.891036027926143781e+00 6.114120951803265598e+02
2.891136049930984608e+00 6.115141130437832544e+02
2.891236071935825436e+00 6.116143435377006199e+02
2.891336093940666707e+00 6.117127800018654398e+02
2.891436115945507535e+00 6.118094158130871847e+02
2.891536137950349250e+00 6.119042443854423254e+02
2.891636159955189633e+00 6.119972591705160312e+02
2.891736181960031349e+00 6.120884536576460278e+02
2.891836203964872176e+00 6.121778213741622494e+02
2.891936225969713004e+00 6.122653558856277414e+02
2.892036247974554275e+00 6.123510507960771747e+02
2.892136269979395102e+00 6.124348997482559298e+02
2.892236291984236374e+00 6.125168964238569060e+02
2.892336313989077201e+00 6.125970345437551714e+02
2.892436335993918917e+00 6.126753078682477280e+02
2.892536357998759300e+00 6.127517101972807723e+02
2.892636380003600571e+00 6.128262353706898011e+02
2.892736402008441843e+00 6.128988772684275546e+02
2.892836424013282670e+00 6.129696298107966186e+02
2.892936446018123942e+00 6.130384869586789591e+02
2.893036468022964769e+00 6.131054427137655694e+02
2.893136490027806040e+00 6.131704911187848666e+02
2.893236512032646868e+00 6.132336262577279058e+02
2.893336534037487695e+00 6.132948422560758672e+02
2.893436556042328966e+00 6.133541332810248150e+02
2.893536578047170238e+00 6.134114935417077277e+02
2.893636600052011509e+00 6.134669172894195981e+02
2.893736622056852337e+00 6.135203988178362806e+02
2.893836644061693608e+00 6.135719324632369762e+02
2.893936666066534436e+00 6.136215126047231934e+02
2.894036688071375263e+00 6.136691336644349803e+02
2.894136710076216534e+00 6.137147901077706820e+02
2.894236732081057362e+00 6.137584764436005571e+02
2.894336754085898633e+00 6.138001872244824426e+02
2.894436776090739905e+00 6.138399170468751436e+02
2.894536798095581176e+00 6.138776605513517097e+02
2.894636820100422003e+00 6.139134124228085057e+02
2.894736842105262831e+00 6.139471673906765545e+02
2.894836864110104102e+00 6.139789202291307220e+02
2.894936886114944929e+00 6.140086657572966260e+02
2.895036908119786201e+00 6.140363988394568651e+02
2.895136930124627028e+00 6.140621143852565638e+02
2.895236952129468300e+00 6.140858073499075545e+02
2.895336974134309571e+00 6.141074727343897166e+02
2.895436996139149954e+00 6.141271055856550447e+02
2.895537018143991670e+00 6.141447009968252360e+02
2.895637040148832497e+00 6.141602541073920065e+02
2.895737062153673769e+00 6.141737601034153613e+02
2.895837084158514596e+00 6.141852142177167480e+02
2.895937106163355867e+00 6.141946117300797141e+02
2.896037128168196695e+00 6.142019479674390823e+02
2.896137150173037522e+00 6.142072183040753544e+02
2.896237172177879238e+00 6.142104181618053644e+02
2.896337194182719621e+00 6.142115430101741822e+02
2.896437216187561337e+00 6.142105883666404225e+02
2.896537238192402164e+00 6.142075497967672391e+02
2.896637260197243435e+00 6.142024229144054743e+02
2.896737282202084263e+00 6.141952033818797645e+02
2.896837304206925090e+00 6.141858869101716891e+02
2.896937326211766361e+00 6.141744692591006469e+02
2.897037348216607189e+00 6.141609462375073463e+02
2.897137370221448904e+00 6.141453137034288829e+02
2.897237392226289288e+00 6.141275675642813212e+02
2.897337414231131003e+00 6.141077037770320430e+02
2.897437436235971830e+00 6.140857183483772133e+02
2.897537458240812658e+00 6.140616073349153794e+02
2.897637480245653929e+00 6.140353668433192524e+02
2.897737502250494757e+00 6.140069930305061234e+02
2.897837524255336028e+00 6.139764821038090759e+02
2.897937546260176855e+00 6.139438303211441053e+02
2.898037568265018571e+00 6.139090339911762157e+02
2.898137590269858954e+00 6.138720894734863123e+02
2.898237612274700226e+00 6.138329931787327496e+02
2.898337634279541497e+00 6.137917415688159508e+02
2.898437656284382324e+00 6.137483311570383648e+02
2.898537678289223596e+00 6.137027585082646510e+02
2.898637700294064423e+00 6.136550202390776576e+02
2.898737722298905695e+00 6.136051130179373558e+02
2.898837744303746522e+00 6.135530335653343172e+02
2.898937766308587349e+00 6.134987786539455783e+02
2.899037788313428621e+00 6.134423451087833428e+02
2.899137810318269892e+00 6.133837298073485726e+02
2.899237832323111164e+00 6.133229296797782126e+02
2.899337854327951991e+00 6.132599417089944609e+02
2.899437876332793262e+00 6.131947629308493788e+02
2.899537898337634090e+00 6.131273904342704100e+02
2.899637920342474917e+00 6.130578213614036258e+02
2.899737942347316189e+00 6.129860529077540150e+02
2.899837964352157016e+00 6.129120823223265688e+02
2.899937986356998287e+00 6.128359069077657750e+02
2.900038008361839559e+00 6.127575240204891998e+02
2.900138030366680830e+00 6.126769310708268677e+02
2.900238052371521658e+00 6.125941255231523428e+02
2.900338074376362485e+00 6.125091048960165381e+02
2.900438096381203756e+00 6.124218667622772045e+02
2.900538118386044584e+00 6.123324087492289891e+02
2.900638140390885855e+00 6.122407285387307638e+02
2.900738162395726683e+00 6.121468238673319320e+02
2.900838184400567954e+00 6.120506925263956646e+02
2.900938206405409225e+00 6.119523323622230464e+02
2.901038228410249609e+00 6.118517412761736978e+02
2.901138250415091324e+00 6.117489172247851457e+02
2.901238272419932152e+00 6.116438582198916265e+02
2.901338294424773423e+00 6.115365623287402741e+02
2.901438316429614250e+00 6.114270276741043517e+02
2.901538338434455522e+00 6.113152524343988716e+02
2.901638360439296349e+00 6.112012348437906439e+02
2.901738382444137176e+00 6.110849731923080981e+02
2.901838404448978892e+00 6.109664658259500811e+02
2.901938426453819275e+00 6.108457111467931782e+02
2.902038448458660991e+00 6.107227076130938030e+02
2.902138470463501818e+00 6.105974537393968831e+02
2.902238492468343090e+00 6.104699480966304463e+02
2.902338514473183917e+00 6.103401893122124875e+02
2.902438536478024744e+00 6.102081760701443045e+02
2.902538558482866016e+00 6.100739071111108842e+02
2.902638580487706843e+00 6.099373812325729887e+02
2.902738602492548559e+00 6.097985972888620836e+02
2.902838624497388942e+00 6.096575541912712879e+02
2.902938646502230657e+00 6.095142509081473463e+02
2.903038668507071485e+00 6.093686864649750987e+02
2.903138690511912312e+00 6.092208599444682022e+02
2.903238712516753584e+00 6.090707704866515542e+02
2.903338734521594411e+00 6.089184172889443971e+02
2.903438756526435682e+00 6.087637996062442198e+02
2.903538778531276510e+00 6.086069167510034958e+02
2.903638800536118225e+00 6.084477680933104011e+02
2.903738822540958608e+00 6.082863530609633926e+02
2.903838844545799880e+00 6.081226711395464690e+02
2.903938866550641151e+00 6.079567218725029534e+02
2.904038888555481979e+00 6.077885048612048422e+02
2.904138910560323250e+00 6.076180197650244281e+02
2.904238932565164077e+00 6.074452663014022846e+02
2.904338954570005349e+00 6.072702442459087706e+02
2.904438976574846176e+00 6.070929534323142889e+02
2.904538998579687004e+00 6.069133937526495401e+02
2.904639020584528275e+00 6.067315651572644128e+02
2.904739042589369546e+00 6.065474676548898287e+02
2.904839064594210818e+00 6.063611013126942453e+02
2.904939086599051645e+00 6.061724662563377706e+02
2.905039108603892917e+00 6.059815626700286657e+02
2.905139130608733744e+00 6.057883907965729122e+02
2.905239152613574571e+00 6.055929509374257123e+02
2.905339174618415843e+00 6.053952434527402602e+02
2.905439196623256670e+00 6.051952687614145816e+02
2.905539218628097942e+00 6.049930273411343933e+02
2.905639240632939213e+00 6.047885197284197147e+02
2.905739262637780485e+00 6.045817465186646587e+02
2.905839284642621312e+00 6.043727083661756296e+02
2.905939306647462139e+00 6.041614059842120241e+02
2.906039328652303411e+00 6.039478401450217007e+02
2.906139350657144238e+00 6.037320116798730396e+02
2.906239372661985509e+00 6.035139214790905271e+02
2.906339394666826337e+00 6.032935704920834041e+02
2.906439416671667608e+00 6.030709597273753388e+02
2.906539438676508880e+00 6.028460902526330756e+02
2.906639460681349263e+00 6.026189631946898544e+02
2.906739482686190978e+00 6.023895797395690579e+02
2.906839504691031806e+00 6.021579411325071760e+02
2.906939526695873077e+00 6.019240486779735875e+02
2.907039548700713905e+00 6.016879037396881813e+02
2.907139570705555176e+00 6.014495077406393193e+02
2.907239592710396003e+00 6.012088621630941816e+02
2.907339614715236831e+00 6.009659685486183207e+02
2.907439636720078546e+00 6.007208284980807775e+02
2.907539658724918930e+00 6.004734436716670416e+02
2.907639680729760645e+00 6.002238157888832575e+02
2.907739702734601472e+00 5.999719466285646376e+02
2.907839724739442744e+00 5.997178380288776225e+02
2.907939746744283571e+00 5.994614918873226088e+02
2.908039768749124399e+00 5.992029101607339499e+02
2.908139790753965670e+00 5.989420948652783636e+02
2.908239812758806497e+00 5.986790480764497033e+02
2.908339834763648213e+00 5.984137719290667974e+02
2.908439856768488596e+00 5.981462686172642407e+02
2.908539878773330312e+00 5.978765403944842092e+02
2.908639900778171139e+00 5.976045895734648639e+02
2.908739922783011966e+00 5.973304185262295505e+02
2.908839944787853238e+00 5.970540296840691781e+02
2.908939966792694065e+00 5.967754255375303956e+02
2.909039988797535337e+00 5.964946086363941049e+02
2.909140010802376164e+00 5.962115815896569302e+02
2.909240032807217879e+00 5.959263470655093897e+02
2.909340054812058263e+00 5.956389077913127039e+02
2.909440076816899534e+00 5.953492665535725337e+02
2.909540098821740806e+00 5.950574261979137418e+02
2.909640120826581633e+00 5.947633896290486746e+02
2.909740142831422904e+00 5.944671598107488535e+02
2.909840164836263732e+00 5.941687397658117789e+02
2.909940186841105003e+00 5.938681325760251184e+02
2.910040208845945831e+00 5.935653413821327149e+02
2.910140230850786658e+00 5.932603693837943410e+02
2.910240252855627929e+00 5.929532198395471596e+02
2.910340274860469201e+00 5.926438960667641140e+02
2.910440296865310472e+00 5.923324014416098180e+02
2.910540318870151300e+00 5.920187393989942848e+02
2.910640340874992571e+00 5.917029134325284758e+02
2.910740362879833398e+00 5.913849270944731416e+02
2.910840384884674226e+00 5.910647839956880034e+02
2.910940406889515497e+00 5.907424878055799127e+02
2.911040428894356324e+00 5.904180422520488492e+02
2.911140450899197596e+00 5.900914511214299409e+02
2.911240472904038867e+00 5.897627182584371894e+02
2.911340494908880139e+00 5.894318475661032153e+02
2.911440516913720966e+00 5.890988430057167307e+02
2.911540538918561793e+00 5.887637085967587609e+02
2.911640560923403065e+00 5.884264484168400031e+02
2.911740582928243892e+00 5.880870666016296582e+02
2.911840604933085164e+00 5.877455673447905156e+02
2.911940626937925991e+00 5.874019548979048295e+02
2.912040648942766818e+00 5.870562335704040606e+02
2.912140670947608534e+00 5.867084077294944109e+02
2.912240692952448917e+00 5.863584818000775840e+02
2.912340714957290633e+00 5.860064602646782532e+02
2.912440736962131460e+00 5.856523476633591372e+02
2.912540758966972732e+00 5.852961485936421013e+02
2.912640780971813559e+00 5.849378677104248254e+02
2.912740802976654386e+00 5.845775097258945152e+02
2.912840824981495658e+00 5.842150794094418416e+02
2.912940846986336485e+00 5.838505815875724920e+02
2.913040868991178201e+00 5.834840211438149709e+02
2.913140890996018584e+00 5.831154030186301043e+02
2.913240913000860299e+00 5.827447322093163393e+02
2.913340935005701127e+00 5.823720137699133375e+02
2.913440957010541954e+00 5.819972528111054544e+02
2.913540979015383225e+00 5.816204545001207862e+02
2.913641001020224053e+00 5.812416240606327165e+02
2.913741023025065324e+00 5.808607667726519139e+02
2.913841045029906152e+00 5.804778879724276521e+02
2.913941067034747867e+00 5.800929930523368512e+02
2.914041089039588250e+00 5.797060874607775531e+02
2.914141111044429522e+00 5.793171767020595553e+02
2.914241133049270793e+00 5.789262663362895864e+02
2.914341155054111621e+00 5.785333619792620539e+02
2.914441177058952892e+00 5.781384693023402406e+02
2.914541199063793719e+00 5.777415940323409131e+02
2.914641221068634991e+00 5.773427419514149506e+02
2.914741243073475818e+00 5.769419188969270635e+02
2.914841265078316646e+00 5.765391307613336949e+02
2.914941287083157917e+00 5.761343834920576228e+02
2.915041309087999188e+00 5.757276830913637014e+02
2.915141331092840460e+00 5.753190356162315311e+02
2.915241353097681287e+00 5.749084471782241508e+02
2.915341375102522559e+00 5.744959239433602534e+02
2.915441397107363386e+00 5.740814721319777618e+02
2.915541419112204213e+00 5.736650980186019524e+02
2.915641441117045485e+00 5.732468079318095988e+02
2.915741463121886312e+00 5.728266082540890238e+02
2.915841485126727584e+00 5.724045054217019697e+02
2.915941507131568855e+00 5.719805059245439907e+02
2.916041529136410126e+00 5.715546163059957507e+02
2.916141551141250954e+00 5.711268431627863720e+02
2.916241573146091781e+00 5.706971931448398436e+02
2.916341595150933053e+00 5.702656729551321177e+02
2.916441617155773880e+00 5.698322893495386552e+02
2.916541639160615151e+00 5.693970491366831084e+02
2.916641661165455979e+00 5.689599591777864589e+02
2.916741683170297250e+00 5.685210263865086517e+02
2.916841705175138522e+00 5.680802577287958002e+02
2.916941727179978905e+00 5.676376602227200010e+02
2.917041749184820620e+00 5.671932409383200593e+02
2.917141771189661448e+00 5.667470069974398257e+02
2.917241793194502719e+00 5.662989655735655106e+02
2.917341815199343547e+00 5.658491238916614066e+02
2.917441837204184818e+00 5.653974892280029962e+02
2.917541859209025645e+00 5.649440689100082409e+02
2.917641881213866473e+00 5.644888703160693240e+02
2.917741903218708188e+00 5.640319008753807566e+02
2.917841925223548571e+00 5.635731680677669146e+02
2.917941947228390287e+00 5.631126794235058242e+02
2.918041969233231114e+00 5.626504425231570394e+02
2.918141991238072386e+00 5.621864649973782662e+02
2.918242013242913213e+00 5.617207545267517617e+02
2.918342035247754040e+00 5.612533188415992527e+02
2.918442057252595312e+00 5.607841657218018554e+02
2.918542079257436139e+00 5.603133029966141976e+02
2.918642101262277855e+00 5.598407385444811553e+02
2.918742123267118238e+00 5.593664802928478821e+02
2.918842145271959954e+00 5.588905362179722260e+02
2.918942167276800781e+00 5.584129143447348724e+02
2.919042189281641608e+00 5.579336227464469857e+02
2.919142211286482880e+00 5.574526695446563735e+02
2.919242233291323707e+00 5.569700629089527411e+02
2.919342255296164979e+00 5.564858110567704443e+02
2.919442277301005806e+00 5.559999222531919258e+02
2.919542299305847521e+00 5.555124048107463750e+02
2.919642321310687905e+00 5.550232670892096394e+02
2.919742343315529176e+00 5.545325174954006116e+02
2.919842365320370448e+00 5.540401644829768202e+02
2.919942387325211275e+00 5.535462165522312716e+02
2.920042409330052546e+00 5.530506822498816746e+02
2.920142431334893374e+00 5.525535701688638710e+02
2.920242453339734645e+00 5.520548889481206061e+02
2.920342475344575472e+00 5.515546472723908664e+02
2.920442497349416300e+00 5.510528538719950120e+02
2.920542519354257571e+00 5.505495175226224092e+02
2.920642541359098843e+00 5.500446470451128107e+02
2.920742563363940114e+00 5.495382513052405784e+02
2.920842585368780941e+00 5.490303392134950400e+02
2.920942607373622213e+00 5.485209197248595956e+02
2.921042629378463040e+00 5.480100018385904832e+02
2.921142651383303868e+00 5.474975945979929293e+02
2.921242673388145139e+00 5.469837070901958214e+02
2.921342695392985966e+00 5.464683484459280862e+02
2.921442717397827238e+00 5.459515278392865412e+02
2.921542739402668509e+00 5.454332544875113626e+02
2.921642761407509781e+00 5.449135376507526871e+02
2.921742783412350608e+00 5.443923866318403952e+02
2.921842805417191435e+00 5.438698107760496896e+02
2.921942827422032707e+00 5.433458194708679230e+02
2.922042849426873534e+00 5.428204221457561971e+02
2.922142871431714806e+00 5.422936282719166456e+02
2.922242893436555633e+00 5.417654473620469844e+02
2.922342915441396904e+00 5.412358889701065436e+02
2.922442937446238176e+00 5.407049626910719553e+02
2.922542959451078559e+00 5.401726781606948862e+02
2.922642981455920275e+00 5.396390450552578386e+02
2.922743003460761102e+00 5.391040730913301786e+02
2.922843025465602373e+00 5.385677720255184795e+02
2.922943047470443201e+00 5.380301516542210720e+02
2.923043069475284472e+00 5.374912218133782744e+02
2.923143091480125300e+00 5.369509923782215992e+02
2.923243113484966127e+00 5.364094732630209137e+02
2.923343135489807842e+00 5.358666744208327373e+02
2.923443157494648226e+00 5.353226058432449008e+02
2.923543179499489941e+00 5.347772775601214335e+02
2.923643201504330769e+00 5.342306996393450618e+02
2.923743223509172040e+00 5.336828821865591408e+02
2.923843245514012867e+00 5.331338353449084480e+02
2.923943267518853695e+00 5.325835692947791813e+02
2.924043289523694966e+00 5.320320942535349786e+02
2.924143311528535794e+00 5.314794204752566884e+02
2.924243333533377509e+00 5.309255582504748645e+02
2.924343355538217892e+00 5.303705179059073771e+02
2.924443377543059608e+00 5.298143098041902022e+02
2.924543399547900435e+00 5.292569443436111669e+02
2.924643421552741263e+00 5.286984319578405120e+02
2.924743443557582534e+00 5.281387831156599759e+02
2.924843465562423361e+00 5.275780083206925610e+02
2.924943487567264633e+00 5.270161181111287760e+02
2.925043509572105460e+00 5.264531230594537874e+02
2.925143531576947176e+00 5.258890337721726382e+02
2.925243553581787559e+00 5.253238608895341031e+02
2.925343575586628830e+00 5.247576150852534056e+02
2.925443597591470102e+00 5.241903070662336859e+02
2.925543619596310929e+00 5.236219475722887182e+02
2.925643641601152201e+00 5.230525473758607404e+02
2.925743663605993028e+00 5.224821172817389652e+02
2.925843685610834299e+00 5.219106681267779777e+02
2.925943707615675127e+00 5.213382107796140872e+02
2.926043729620515954e+00 5.207647561403799727e+02
2.926143751625357226e+00 5.201903151404203527e+02
2.926243773630198497e+00 5.196148987420034473e+02
2.926343795635039768e+00 5.190385179380346017e+02
2.926443817639880596e+00 5.184611837517676349e+02
2.926543839644721867e+00 5.178829072365139154e+02
2.926643861649562695e+00 5.173036994753531417e+02
2.926743883654403522e+00 5.167235715808399164e+02
2.926843905659244793e+00 5.161425346947124808e+02
2.926943927664085621e+00 5.155605999875979251e+02
2.927043949668926892e+00 5.149777786587179662e+02
2.927143971673768164e+00 5.143940819355939311e+02
2.927243993678609435e+00 5.138095210737484422e+02
2.927344015683450262e+00 5.132241073564100589e+02
2.927444037688291090e+00 5.126378520942128034e+02
2.927544059693132361e+00 5.120507666248983014e+02
2.927644081697973188e+00 5.114628623130149663e+02
2.927744103702814460e+00 5.108741505496162176e+02
2.927844125707655287e+00 5.102846427519590407e+02
2.927944147712496559e+00 5.096943503632006127e+02
2.928044169717337830e+00 5.091032848520964080e+02
2.928144191722178213e+00 5.085114577126922768e+02
2.928244213727019929e+00 5.079188804640194803e+02
2.928344235731860756e+00 5.073255646497915450e+02
2.928444257736702028e+00 5.067315218380936699e+02
2.928544279741542855e+00 5.061367636210745218e+02
2.928644301746384127e+00 5.055413016146410996e+02
2.928744323751224954e+00 5.049451474581441630e+02
2.928844345756065781e+00 5.043483128140708232e+02
2.928944367760907497e+00 5.037508093677329839e+02
2.929044389765747880e+00 5.031526488269540778e+02
2.929144411770589596e+00 5.025538429217567682e+02
2.929244433775430423e+00 5.019544034040507654e+02
2.929344455780271694e+00 5.013543420473160381e+02
2.929444477785112522e+00 5.007536706462897769e+02
2.929544499789953349e+00 5.001524010166488665e+02
2.929644521794794620e+00 4.995505449946948602e+02
2.929744543799635448e+00 4.989481144370369066e+02
2.929844565804477163e+00 4.983451212202708120e+02
2.929944587809317547e+00 4.977415772406658334e+02
2.930044609814159262e+00 4.971374944138400451e+02
2.930144631819000089e+00 4.965328846744427551e+02
2.930244653823840917e+00 4.959277599758345332e+02
2.930344675828682188e+00 4.953221322897642267e+02
2.930444697833523016e+00 4.947160136060487616e+02
2.930544719838364287e+00 4.941094159322489077e+02
2.930644741843205114e+00 4.935023512933478855e+02
2.930744763848046830e+00 4.928948317314256542e+02
2.930844785852887213e+00 4.922868693053359266e+02
2.930944807857728485e+00 4.916784760903809683e+02
2.931044829862569756e+00 4.910696641779863398e+02
2.931144851867410583e+00 4.904604456753731938e+02
2.931244873872251855e+00 4.898508327052335289e+02
2.931344895877092682e+00 4.892408374054018054e+02
2.931444917881933954e+00 4.886304719285292322e+02
2.931544939886774781e+00 4.880197484417506075e+02
2.931644961891615608e+00 4.874086791263617329e+02
2.931744983896456880e+00 4.867972761774860828e+02
2.931845005901298151e+00 4.861855518037454544e+02
2.931945027906139423e+00 4.855735182269315260e+02
2.932045049910980250e+00 4.849611876816725271e+02
2.932145071915821521e+00 4.843485724151045133e+02
2.932245093920662349e+00 4.837356846865380362e+02
2.932345115925503176e+00 4.831225367671261210e+02
2.932445137930344448e+00 4.825091409395324149e+02
2.932545159935185275e+00 4.818955094975983684e+02
2.932645181940026546e+00 4.812816547460080301e+02
2.932745203944867818e+00 4.806675889999567062e+02
2.932845225949709089e+00 4.800533245848156980e+02
2.932945247954549917e+00 4.794388738357968691e+02
2.933045269959390744e+00 4.788242490976186332e+02
2.933145291964232015e+00 4.782094627241706917e+02
2.933245313969072843e+00 4.775945270781783734e+02
2.933345335973914114e+00 4.769794545308662350e+02
2.933445357978754942e+00 4.763642574616219463e+02
2.933545379983596213e+00 4.757489482576600039e+02
2.933645401988437484e+00 4.751335393136837411e+02
2.933745423993277868e+00 4.745180430315492686e+02
2.933845445998119583e+00 4.739024718199278254e+02
2.933945468002960411e+00 4.732868380939671624e+02
2.934045490007801682e+00 4.726711542749535511e+02
2.934145512012642509e+00 4.720554327899747022e+02
2.934245534017483781e+00 4.714396860715803541e+02
2.934345556022324608e+00 4.708239265574421211e+02
2.934445578027165435e+00 4.702081666900175492e+02
2.934545600032007151e+00 4.695924189162083167e+02
2.934645622036847534e+00 4.689766956870216745e+02
2.934745644041689250e+00 4.683610094572306934e+02
2.934845666046530077e+00 4.677453726850353632e+02
2.934945688051371349e+00 4.671297978317210777e+02
2.935045710056212176e+00 4.665142973613192225e+02
2.935145732061053003e+00 4.658988837402670242e+02
2.935245754065894275e+00 4.652835694370682518e+02
2.935345776070735102e+00 4.646683669219494277e+02
2.935445798075576818e+00 4.640532886665229171e+02
2.935545820080417201e+00 4.634383471434441617e+02
2.935645842085258916e+00 4.628235548260704491e+02
2.935745864090099744e+00 4.622089241881219550e+02
2.935845886094940571e+00 4.615944677033390917e+02
2.935945908099781843e+00 4.609801978451416176e+02
2.936045930104622670e+00 4.603661270862875199e+02
2.936145952109463941e+00 4.597522678985336029e+02
2.936245974114304769e+00 4.591386327522908459e+02
2.936345996119146484e+00 4.585252341162873222e+02
2.936446018123986867e+00 4.579120844572237274e+02
2.936546040128828139e+00 4.572991962394337975e+02
2.936646062133669410e+00 4.566865819245423381e+02
2.936746084138510238e+00 4.560742539711250174e+02
2.936846106143351509e+00 4.554622248343666229e+02
2.936946128148192336e+00 4.548505069657200011e+02
2.937046150153033608e+00 4.542391128125653381e+02
2.937146172157874435e+00 4.536280548178688150e+02
2.937246194162715263e+00 4.530173454198424565e+02
2.937346216167556534e+00 4.524069970516020476e+02
2.937446238172397805e+00 4.517970221408285170e+02
2.937546260177239077e+00 4.511874331094250010e+02
2.937646282182079904e+00 4.505782423731785116e+02
2.937746304186921176e+00 4.499694623414180228e+02
2.937846326191762003e+00 4.493611054166767076e+02
2.937946348196602830e+00 4.487531839943485465e+02
2.938046370201444102e+00 4.481457104623496548e+02
2.938146392206284929e+00 4.475386972007820532e+02
2.938246414211126201e+00 4.469321565815895951e+02
2.938346436215967472e+00 4.463261009682206009e+02
2.938446458220808744e+00 4.457205427152887296e+02
2.938546480225649571e+00 4.451154941682342496e+02
2.938646502230490398e+00 4.445109676629870137e+02
2.938746524235331670e+00 4.439069755256231247e+02
2.938846546240172497e+00 4.433035300720333680e+02
2.938946568245013768e+00 4.427006436075803890e+02
2.939046590249854596e+00 4.420983284267636009e+02
2.939146612254695867e+00 4.414965968128808527e+02
2.939246634259537139e+00 4.408954610376923711e+02
2.939346656264377522e+00 4.402949333610832809e+02
2.939446678269219237e+00 4.396950260307281155e+02
2.939546700274060065e+00 4.390957512817525412e+02
2.939646722278901336e+00 4.384971213364012215e+02
2.939746744283742164e+00 4.378991484036997690e+02
2.939846766288583435e+00 4.373018446791203928e+02
2.939946788293424262e+00 4.367052223442483978e+02
2.940046810298265090e+00 4.361092935664458423e+02
2.940146832303106805e+00 4.355140704985194589e+02
2.940246854307947189e+00 4.349195652783872106e+02
2.940346876312788904e+00 4.343257900287439952e+02
2.940446898317629731e+00 4.337327568567302478e+02
2.940546920322471003e+00 4.331404778535987248e+02
2.940646942327311830e+00 4.325489650943844140e+02
2.940746964332152658e+00 4.319582306375712051e+02
2.940846986336993929e+00 4.313682865247625955e+02
2.940947008341834756e+00 4.307791447803515439e+02
2.941047030346676472e+00 4.301908174111883341e+02
2.941147052351516855e+00 4.296033164062549758e+02
2.941247074356358571e+00 4.290166537363325006e+02
2.941347096361199398e+00 4.284308413536758167e+02
2.941447118366040225e+00 4.278458911916836200e+02
2.941547140370881497e+00 4.272618151645726243e+02
2.941647162375722324e+00 4.266786251670505976e+02
2.941747184380563596e+00 4.260963330739892854e+02
2.941847206385404423e+00 4.255149507400998345e+02
2.941947228390246138e+00 4.249344899996074787e+02
2.942047250395086522e+00 4.243549626659281557e+02
2.942147272399927793e+00 4.237763805313418857e+02
2.942247294404769065e+00 4.231987553666735380e+02
2.942347316409609892e+00 4.226220989209659820e+02
2.942447338414451163e+00 4.220464229211627867e+02
2.942547360419291991e+00 4.214717390717825651e+02
2.942647382424133262e+00 4.208980590546012195e+02
2.942747404428974090e+00 4.203253945283311168e+02
2.942847426433814917e+00 4.197537571283013449e+02
2.942947448438656188e+00 4.191831584661400711e+02
2.943047470443497460e+00 4.186136101294554237e+02
2.943147492448338731e+00 4.180451236815190441e+02
2.943247514453179559e+00 4.174777106609498105e+02
2.943347536458020830e+00 4.169113825813977314e+02
2.943447558462861657e+00 4.163461509312277258e+02
2.943547580467702485e+00 4.157820271732080073e+02
2.943647602472543756e+00 4.152190227441943193e+02
2.943747624477384583e+00 4.146571490548175802e+02
2.943847646482225855e+00 4.140964174891722678e+02
2.943947668487067126e+00 4.135368394045053719e+02
2.944047690491908398e+00 4.129784261309046087e+02
2.944147712496749225e+00 4.124211889709908974e+02
2.944247734501590053e+00 4.118651391996074835e+02
2.944347756506431324e+00 4.113102880635141787e+02
2.944447778511272151e+00 4.107566467810769382e+02
2.944547800516113423e+00 4.102042265419653972e+02
2.944647822520954250e+00 4.096530385068444957e+02
2.944747844525795522e+00 4.091030938070705361e+02
2.944847866530636793e+00 4.085544035443878101e+02
2.944947888535477176e+00 4.080069787906270449e+02
2.945047910540318892e+00 4.074608305874000393e+02
2.945147932545159719e+00 4.069159699458023169e+02
2.945247954550000991e+00 4.063724078461100362e+02
2.945347976554841818e+00 4.058301552374820176e+02
2.945447998559683089e+00 4.052892230376622820e+02
2.945548020564523917e+00 4.047496221326803720e+02
2.945648042569364744e+00 4.042113633765578697e+02
2.945748064574206460e+00 4.036744575910095136e+02
2.945848086579046843e+00 4.031389155651520468e+02
2.945948108583888558e+00 4.026047480552088587e+02
2.946048130588729386e+00 4.020719657842160473e+02
2.946148152593570657e+00 4.015405794417353604e+02
2.946248174598411484e+00 4.010105996835577002e+02
2.946348196603252312e+00 4.004820371314191902e+02
2.946448218608093583e+00 3.999549023727084318e+02
2.946548240612934411e+00 3.994292059601817755e+02
2.946648262617776126e+00 3.989049584116750111e+02
2.946748284622616509e+00 3.983821702098189803e+02
2.946848306627457781e+00 3.978608518017550182e+02
2.946948328632299052e+00 3.973410135988518164e+02
2.947048350637139880e+00 3.968226659764225133e+02
2.947148372641981151e+00 3.963058192734441718e+02
2.947248394646821978e+00 3.957904837922781667e+02
2.947348416651663250e+00 3.952766697983898894e+02
2.947448438656504077e+00 3.947643875200727166e+02
2.947548460661344905e+00 3.942536471481697049e+02
2.947648482666186176e+00 3.937444588357981843e+02
2.947748504671027447e+00 3.932368326980773645e+02
2.947848526675868719e+00 3.927307788118515077e+02
2.947948548680709546e+00 3.922263072154211159e+02
2.948048570685550818e+00 3.917234279082708213e+02
2.948148592690391645e+00 3.912221508507975045e+02
2.948248614695232472e+00 3.907224859640459158e+02
2.948348636700073744e+00 3.902244431294369065e+02
2.948448658704914571e+00 3.897280321885039029e+02
2.948548680709755843e+00 3.892332629426274480e+02
2.948648702714597114e+00 3.887401451527703671e+02
2.948748724719438385e+00 3.882486885392164595e+02
2.948848746724279213e+00 3.877589027813070857e+02
2.948948768729120040e+00 3.872707975171841781e+02
2.949048790733961312e+00 3.867843823435281934e+02
2.949148812738802139e+00 3.862996668153036808e+02
2.949248834743643410e+00 3.858166604454985986e+02
2.949348856748484238e+00 3.853353727048736346e+02
2.949448878753325509e+00 3.848558130217058988e+02
2.949548900758166781e+00 3.843779907815363686e+02
2.949648922763007164e+00 3.839019153269206299e+02
2.949748944767848879e+00 3.834275959571759813e+02
2.949848966772689707e+00 3.829550419281351310e+02
2.949948988777530978e+00 3.824842624518980756e+02
2.950049010782371806e+00 3.820152666965859680e+02
2.950149032787213077e+00 3.815480637860962929e+02
2.950249054792053904e+00 3.810826627998608842e+02
2.950349076796894732e+00 3.806190727726026353e+02
2.950449098801736447e+00 3.801573026940934596e+02
2.950549120806576830e+00 3.796973615089196414e+02
2.950649142811418546e+00 3.792392581162384317e+02
2.950749164816259373e+00 3.787830013695467528e+02
2.950849186821100645e+00 3.783286000764413757e+02
2.950949208825941472e+00 3.778760629983880790e+02
2.951049230830782300e+00 3.774253988504895574e+02
2.951149252835623571e+00 3.769766163012516813e+02
2.951249274840464398e+00 3.765297239723574876e+02
2.951349296845306114e+00 3.760847304384367931e+02
2.951449318850146497e+00 3.756416442268405262e+02
2.951549340854988213e+00 3.752004738174143199e+02
2.951649362859829040e+00 3.747612276422770492e+02
2.951749384864669867e+00 3.743239140855960727e+02
2.951849406869511139e+00 3.738885414833677032e+02
2.951949428874351966e+00 3.734551181231972805e+02
2.952049450879193238e+00 3.730236522440818590e+02
2.952149472884034065e+00 3.725941520361934067e+02
2.952249494888875780e+00 3.721666256406625735e+02
2.952349516893716164e+00 3.717410811493679716e+02
2.952449538898557435e+00 3.713175266047213086e+02
2.952549560903398707e+00 3.708959699994599646e+02
2.952649582908239534e+00 3.704764192764336599e+02
2.952749604913080805e+00 3.700588823284018645e+02
2.952849626917921633e+00 3.696433669978249554e+02
2.952949648922762904e+00 3.692298810766598081e+02
2.953049670927603731e+00 3.688184323061589680e+02
2.953149692932444559e+00 3.684090283766655602e+02
2.953249714937285830e+00 3.680016769274182025e+02
2.953349736942127102e+00 3.675963855463504046e+02
2.953449758946968373e+00 3.671931617698920149e+02
2.953549780951809201e+00 3.667920130827779985e+02
2.953649802956650472e+00 3.663929469178519867e+02
2.953749824961491299e+00 3.659959706558748849e+02
2.953849846966332127e+00 3.656010916253371192e+02
2.953949868971173398e+00 3.652083171022652550e+02
2.954049890976014225e+00 3.648176543100383924e+02
2.954149912980855497e+00 3.644291104192017769e+02
2.954249934985696768e+00 3.640426925472810353e+02
2.954349956990538040e+00 3.636584077586030048e+02
2.954449978995378867e+00 3.632762630641117880e+02
2.954550001000219694e+00 3.628962654211924814e+02
2.954650023005060966e+00 3.625184217334914933e+02
2.954750045009901793e+00 3.621427388507412388e+02
2.954850067014743065e+00 3.617692235685876199e+02
2.954950089019583892e+00 3.613978826284132992e+02
2.955050111024425163e+00 3.610287227171730251e+02
2.955150133029266435e+00 3.606617504672175869e+02
2.955250155034106818e+00 3.602969724561317548e+02
2.955350177038948534e+00 3.599343952065650001e+02
2.955450199043789361e+00 3.595740251860687522e+02
2.955550221048630632e+00 3.592158688069327468e+02
2.955650243053471460e+00 3.588599324260253525e+02
2.955750265058312731e+00 3.585062223446327039e+02
2.955850287063153559e+00 3.581547448083036329e+02
2.955950309067994386e+00 3.578055060066909050e+02
2.956050331072836101e+00 3.574585120733999020e+02
2.956150353077676485e+00 3.571137690858332689e+02
2.956250375082518200e+00 3.567712830650423825e+02
2.956350397087359028e+00 3.564310599755781368e+02
2.956450419092200299e+00 3.560931057253422978e+02
2.956550441097041126e+00 3.557574261654435759e+02
2.956650463101881954e+00 3.554240270900523910e+02
2.956750485106723225e+00 3.550929142362592188e+02
2.956850507111564053e+00 3.547640932839350398e+02
2.956950529116405768e+00 3.544375698555912777e+02
2.957050551121246151e+00 3.541133495162436020e+02
2.957150573126087867e+00 3.537914377732772095e+02
2.957250595130928694e+00 3.534718400763120485e+02
2.957350617135769522e+00 3.531545618170732723e+02
2.957450639140610793e+00 3.528396083292594767e+02
2.957550661145451620e+00 3.525269848884144039e+02
2.957650683150292892e+00 3.522166967118024559e+02
2.957750705155133719e+00 3.519087489582828994e+02
2.957850727159975435e+00 3.516031467281864025e+02
2.957950749164815818e+00 3.512998950631954358e+02
2.958050771169657089e+00 3.509989989462241624e+02
2.958150793174498361e+00 3.507004633013004309e+02
2.958250815179339188e+00 3.504042929934511790e+02
2.958350837184180460e+00 3.501104928285886899e+02
2.958450859189021287e+00 3.498190675533966214e+02
2.958550881193862558e+00 3.495300218552211504e+02
2.958650903198703386e+00 3.492433603619634823e+02
2.958750925203544213e+00 3.489590876419694041e+02
2.958850947208385485e+00 3.486772082039294673e+02
2.958950969213226756e+00 3.483977264967717815e+02
2.959050991218068027e+00 3.481206469095619127e+02
2.959151013222908855e+00 3.478459737714043172e+02
2.959251035227750126e+00 3.475737113513437748e+02
2.959351057232590954e+00 3.473038638582700059e+02
2.959451079237431781e+00 3.470364354408229133e+02
2.959551101242273052e+00 3.467714301873015188e+02
2.959651123247113880e+00 3.465088521255726164e+02
2.959751145251955151e+00 3.462487052229831761e+02
2.959851167256796423e+00 3.459909933862720095e+02
2.959951189261637694e+00 3.457357204614868920e+02
2.960051211266478521e+00 3.454828902339000933e+02
2.960151233271319349e+00 3.452325064279281719e+02
2.960251255276160620e+00 3.449845727070519388e+02
2.960351277281001448e+00 3.447390926737389805e+02
2.960451299285842719e+00 3.444960698693683412e+02
2.960551321290683546e+00 3.442555077741572518e+02
2.960651343295524818e+00 3.440174098070863238e+02
2.960751365300366089e+00 3.437817793258341226e+02
2.960851387305206472e+00 3.435486196267058290e+02
2.960951409310048188e+00 3.433179339445656524e+02
2.961051431314889015e+00 3.430897254527759515e+02
2.961151453319730287e+00 3.428639972631314095e+02
2.961251475324571114e+00 3.426407524258004855e+02
2.961351497329412386e+00 3.424199939292639101e+02
2.961451519334253213e+00 3.422017247002603426e+02
2.961551541339094040e+00 3.419859476037297554e+02
2.961651563343935756e+00 3.417726654427590915e+02
2.961751585348776139e+00 3.415618809585326972e+02
2.961851607353617855e+00 3.413535968302810488e+02
2.961951629358458682e+00 3.411478156752344262e+02
2.962051651363299953e+00 3.409445400485756181e+02
2.962151673368140781e+00 3.407437724433975745e+02
2.962251695372981608e+00 3.405455152906587841e+02
2.962351717377822879e+00 3.403497709591459284e+02
2.962451739382663707e+00 3.401565417554321016e+02
2.962551761387505422e+00 3.399658299238438417e+02
2.962651783392345806e+00 3.397776376464244663e+02
2.962751805397187521e+00 3.395919670429003077e+02
2.962851827402028349e+00 3.394088201706521204e+02
2.962951849406869176e+00 3.392281990246851251e+02
2.963051871411710447e+00 3.390501055376005866e+02
2.963151893416551275e+00 3.388745415795732470e+02
2.963251915421392546e+00 3.387015089583240979e+02
2.963351937426233373e+00 3.385310094191036114e+02
2.963451959431075089e+00 3.383630446446666156e+02
2.963551981435915472e+00 3.381976162552598453e+02
2.963652003440756744e+00 3.380347258086029001e+02
2.963752025445598015e+00 3.378743747998741469e+02
2.963852047450438842e+00 3.377165646617002039e+02
2.963952069455280114e+00 3.375612967641437194e+02
2.964052091460120941e+00 3.374085724146977441e+02
2.964152113464962213e+00 3.372583928582762383e+02
2.964252135469803040e+00 3.371107592772111730e+02
2.964352157474643867e+00 3.369656727912496876e+02
2.964452179479485139e+00 3.368231344575510775e+02
2.964552201484326410e+00 3.366831452706921937e+02
2.964652223489167682e+00 3.365457061626660220e+02
2.964752245494008509e+00 3.364108180028881065e+02
2.964852267498849780e+00 3.362784815982040527e+02
2.964952289503690608e+00 3.361486976928957233e+02
2.965052311508531435e+00 3.360214669686940283e+02
2.965152333513372707e+00 3.358967900447890997e+02
2.965252355518213534e+00 3.357746674778468332e+02
2.965352377523054805e+00 3.356550997620212797e+02
2.965452399527896077e+00 3.355380873289765873e+02
2.965552421532737348e+00 3.354236305479034854e+02
2.965652443537578176e+00 3.353117297255421363e+02
2.965752465542419003e+00 3.352023851062059521e+02
2.965852487547260274e+00 3.350955968718051849e+02
2.965952509552101102e+00 3.349913651418768836e+02
2.966052531556942373e+00 3.348896899736108708e+02
2.966152553561783201e+00 3.347905713618830532e+02
2.966252575566624472e+00 3.346940092392866859e+02
2.966352597571465743e+00 3.346000034761673305e+02
2.966452619576306127e+00 3.345085538806588943e+02
2.966552641581147842e+00 3.344196601987236477e+02
2.966652663585988670e+00 3.343333221141887748e+02
2.966752685590829941e+00 3.342495392487934964e+02
2.966852707595670768e+00 3.341683111622276101e+02
2.966952729600512040e+00 3.340896373521804890e+02
2.967052751605352867e+00 3.340135172543879207e+02
2.967152773610193695e+00 3.339399502426813910e+02
2.967252795615035410e+00 3.338689356290381625e+02
2.967352817619875793e+00 3.338004726636356736e+02
2.967452839624717509e+00 3.337345605349055404e+02
2.967552861629558336e+00 3.336711983695920480e+02
2.967652883634399608e+00 3.336103852328071184e+02
2.967752905639240435e+00 3.335521201280945434e+02
2.967852927644081262e+00 3.334964019974896701e+02
2.967952949648922534e+00 3.334432297215831795e+02
2.968052971653763361e+00 3.333926021195899807e+02
2.968152993658605077e+00 3.333445179494124773e+02
2.968253015663445460e+00 3.332989759077135545e+02
2.968353037668287175e+00 3.332559746299847916e+02
2.968453059673128003e+00 3.332155126906227451e+02
2.968553081677968830e+00 3.331775886030015954e+02
2.968653103682810102e+00 3.331422008195504532e+02
2.968753125687650929e+00 3.331093477318306668e+02
2.968853147692492200e+00 3.330790276706181317e+02
2.968953169697333028e+00 3.330512389059837233e+02
2.969053191702174743e+00 3.330259796473790175e+02
2.969153213707015126e+00 3.330032480437177469e+02
2.969253235711856398e+00 3.329830421834684557e+02
2.969353257716697669e+00 3.329653600947393102e+02
2.969453279721538497e+00 3.329501997453719468e+02
2.969553301726379768e+00 3.329375590430331613e+02
2.969653323731220596e+00 3.329274358353080174e+02
2.969753345736061867e+00 3.329198279097988689e+02
2.969853367740902694e+00 3.329147329942203442e+02
2.969953389745743522e+00 3.329121487565010398e+02
2.970053411750584793e+00 3.329120728048847013e+02
2.970153433755426065e+00 3.329145026880331670e+02
2.970253455760267336e+00 3.329194358951314143e+02
2.970353477765108163e+00 3.329268698559935729e+02
2.970453499769949435e+00 3.329368019411736555e+02
2.970553521774790262e+00 3.329492294620719122e+02
2.970653543779631089e+00 3.329641496710510182e+02
2.970753565784472361e+00 3.329815597615473166e+02
2.970853587789313188e+00 3.330014568681846754e+02
2.970953609794154460e+00 3.330238380668961895e+02
2.971053631798995731e+00 3.330487003750380381e+02
2.971153653803837003e+00 3.330760407515132897e+02
2.971253675808677830e+00 3.331058560968919551e+02
2.971353697813518657e+00 3.331381432535367821e+02
2.971453719818359929e+00 3.331728990057267765e+02
2.971553741823200756e+00 3.332101200797866341e+02
2.971653763828042027e+00 3.332498031442142974e+02
2.971753785832882855e+00 3.332919448098103317e+02
2.971853807837724126e+00 3.333365416298139507e+02
2.971953829842565398e+00 3.333835901000332456e+02
2.972053851847405781e+00 3.334330866589826314e+02
2.972153873852247497e+00 3.334850276880198408e+02
2.972253895857088324e+00 3.335394095114846778e+02
2.972353917861929595e+00 3.335962283968399333e+02
2.972453939866770423e+00 3.336554805548126978e+02
2.972553961871611694e+00 3.337171621395397096e+02
2.972653983876452521e+00 3.337812692487114532e+02
2.972754005881293349e+00 3.338477979237192130e+02
2.972854027886135064e+00 3.339167441498054245e+02
2.972954049890975448e+00 3.339881038562124900e+02
2.973054071895817163e+00 3.340618729163352896e+02
2.973154093900657990e+00 3.341380471478731806e+02
2.973254115905499262e+00 3.342166223129898412e+02
2.973354137910340089e+00 3.342975941184633939e+02
2.973454159915180917e+00 3.343809582158503417e+02
2.973554181920022188e+00 3.344667102016415470e+02
2.973654203924863015e+00 3.345548456174269631e+02
2.973754225929704731e+00 3.346453599500562177e+02
2.973854247934545114e+00 3.347382486318039128e+02
2.973954269939386830e+00 3.348335070405370857e+02
2.974054291944227657e+00 3.349311304998806804e+02
2.974154313949068484e+00 3.350311142793891577e+02
2.974254335953909756e+00 3.351334535947153199e+02
2.974354357958750583e+00 3.352381436077838543e+02
2.974454379963591855e+00 3.353451794269639663e+02
2.974554401968432682e+00 3.354545561072475266e+02
2.974654423973274397e+00 3.355662686504222734e+02
2.974754445978114781e+00 3.356803120052534268e+02
2.974854467982956052e+00 3.357966810676615523e+02
2.974954489987797324e+00 3.359153706809038340e+02
2.975054511992638151e+00 3.360363756357595548e+02
2.975154533997479422e+00 3.361596906707116545e+02
2.975254556002320250e+00 3.362853104721333466e+02
2.975354578007161521e+00 3.364132296744762698e+02
2.975454600012002349e+00 3.365434428604595496e+02
2.975554622016843176e+00 3.366759445612571540e+02
2.975654644021684447e+00 3.368107292566934348e+02
2.975754666026525719e+00 3.369477913754333258e+02
2.975854688031366990e+00 3.370871252951791348e+02
2.975954710036207818e+00 3.372287253428646636e+02
2.976054732041049089e+00 3.373725857948538760e+02
2.976154754045889916e+00 3.375187008771389401e+02
2.976254776050730744e+00 3.376670647655409425e+02
2.976354798055572015e+00 3.378176715859108867e+02
2.976454820060412843e+00 3.379705154143346135e+02
2.976554842065254114e+00 3.381255902773341404e+02
2.976654864070095385e+00 3.382828901520758222e+02
2.976754886074936657e+00 3.384424089665767497e+02
2.976854908079777484e+00 3.386041405999139329e+02
2.976954930084618312e+00 3.387680788824319507e+02
2.977054952089459583e+00 3.389342175959579322e+02
2.977154974094300410e+00 3.391025504740093766e+02
2.977254996099141682e+00 3.392730712020141937e+02
2.977355018103982509e+00 3.394457734175184100e+02
2.977455040108823781e+00 3.396206507104096204e+02
2.977555062113665052e+00 3.397976966231310598e+02
2.977655084118505435e+00 3.399769046509009058e+02
2.977755106123347151e+00 3.401582682419342518e+02
2.977855128128187978e+00 3.403417807976644553e+02
2.977955150133029250e+00 3.405274356729645433e+02
2.978055172137870077e+00 3.407152261763735055e+02
2.978155194142711348e+00 3.409051455703211104e+02
2.978255216147552176e+00 3.410971870713538578e+02
2.978355238152393003e+00 3.412913438503654220e+02
2.978455260157234719e+00 3.414876090328229452e+02
2.978555282162075102e+00 3.416859756989995276e+02
2.978655304166916817e+00 3.418864368842052954e+02
2.978755326171757645e+00 3.420889855790213119e+02
2.978855348176598916e+00 3.422936147295322371e+02
2.978955370181439744e+00 3.425003172375625695e+02
2.979055392186280571e+00 3.427090859609139102e+02
2.979155414191121842e+00 3.429199137136004083e+02
2.979255436195962670e+00 3.431327932660903457e+02
2.979355458200804385e+00 3.433477173455459024e+02
2.979455480205644768e+00 3.435646786360620695e+02
2.979555502210486484e+00 3.437836697789106211e+02
2.979655524215327311e+00 3.440046833727853937e+02
2.979755546220168139e+00 3.442277119740434728e+02
2.979855568225009410e+00 3.444527480969535418e+02
2.979955590229850237e+00 3.446797842139421277e+02
2.980055612234691509e+00 3.449088127558416659e+02
2.980155634239532336e+00 3.451398261121390760e+02
2.980255656244374052e+00 3.453728166312263852e+02
2.980355678249214435e+00 3.456077766206520892e+02
2.980455700254055706e+00 3.458446983473738783e+02
2.980555722258896978e+00 3.460835740380117613e+02
2.980655744263737805e+00 3.463243958791016439e+02
2.980755766268579077e+00 3.465671560173524313e+02
2.980855788273419904e+00 3.468118465599024489e+02
2.980955810278261175e+00 3.470584595745748402e+02
2.981055832283102003e+00 3.473069870901395007e+02
2.981155854287942830e+00 3.475574210965696693e+02
2.981255876292784102e+00 3.478097535453059095e+02
2.981355898297625373e+00 3.480639763495132684e+02
2.981455920302466645e+00 3.483200813843484411e+02
2.981555942307307472e+00 3.485780604872200570e+02
2.981655964312148299e+00 3.488379054580556158e+02
2.981755986316989571e+00 3.490996080595656395e+02
2.981856008321830398e+00 3.493631600175093581e+02
2.981956030326671669e+00 3.496285530209641479e+02
2.982056052331512497e+00 3.498957787225940024e+02
2.982156074336353768e+00 3.501648287389148777e+02
2.982256096341195040e+00 3.504356946505695873e+02
2.982356118346035423e+00 3.507083680025964441e+02
2.982456140350877138e+00 3.509828403047022221e+02
2.982556162355717966e+00 3.512591030315333569e+02
2.982656184360559237e+00 3.515371476229514656e+02
2.982756206365400065e+00 3.518169654843075591e+02
2.982856228370241336e+00 3.520985479867167669e+02
2.982956250375082163e+00 3.523818864673341977e+02
2.983056272379922991e+00 3.526669722296346663e+02
2.983156294384764706e+00 3.529537965436865647e+02
2.983256316389605090e+00 3.532423506464350567e+02
2.983356338394446805e+00 3.535326257419781655e+02
2.983456360399287632e+00 3.538246130018490589e+02
2.983556382404128904e+00 3.541183035652953777e+02
2.983656404408969731e+00 3.544136885395645891e+02
2.983756426413810559e+00 3.547107590001826338e+02
2.983856448418651830e+00 3.550095059912391093e+02
2.983956470423492657e+00 3.553099205256730784e+02
2.984056492428334373e+00 3.556119935855551830e+02
2.984156514433174756e+00 3.559157161223757839e+02
2.984256536438016472e+00 3.562210790573295185e+02
2.984356558442857299e+00 3.565280732816029285e+02
2.984456580447698126e+00 3.568366896566633386e+02
2.984556602452539398e+00 3.571469190145461425e+02
2.984656624457380225e+00 3.574587521581439660e+02
2.984756646462221497e+00 3.577721798614983868e+02
2.984856668467062324e+00 3.580871928700865965e+02
2.984956690471904039e+00 3.584037819011176111e+02
2.985056712476744423e+00 3.587219376438197855e+02
2.985156734481585694e+00 3.590416507597357736e+02
2.985256756486426966e+00 3.593629118830147604e+02
2.985356778491267793e+00 3.596857116207052059e+02
2.985456800496109064e+00 3.600100405530517378e+02
2.985556822500949892e+00 3.603358892337869861e+02
2.985656844505791163e+00 3.606632481904297265e+02
2.985756866510631991e+00 3.609921079245792157e+02
2.985856888515472818e+00 3.613224589122115162e+02
2.985956910520314089e+00 3.616542916039783222e+02
2.986056932525155361e+00 3.619875964255045346e+02
2.986156954529996632e+00 3.623223637776834494e+02
2.986256976534837460e+00 3.626585840369799598e+02
2.986356998539678731e+00 3.629962475557264270e+02
2.986457020544519558e+00 3.633353446624237222e+02
2.986557042549360386e+00 3.636758656620428383e+02
2.986657064554201657e+00 3.640178008363228059e+02
2.986757086559042484e+00 3.643611404440738397e+02
2.986857108563883756e+00 3.647058747214787786e+02
2.986957130568725027e+00 3.650519938823948110e+02
2.987057152573566299e+00 3.653994881186562793e+02
2.987157174578407126e+00 3.657483476003779401e+02
2.987257196583247953e+00 3.660985624762581097e+02
2.987357218588089225e+00 3.664501228738819236e+02
2.987457240592930052e+00 3.668030189000272117e+02
2.987557262597771324e+00 3.671572406409677569e+02
2.987657284602612151e+00 3.675127781627785453e+02
2.987757306607453422e+00 3.678696215116420944e+02
2.987857328612294694e+00 3.682277607141519979e+02
2.987957350617135077e+00 3.685871857776217553e+02
2.988057372621976793e+00 3.689478866903898506e+02
2.988157394626817620e+00 3.693098534221263662e+02
2.988257416631658892e+00 3.696730759241399937e+02
2.988357438636499719e+00 3.700375441296871486e+02
2.988457460641340990e+00 3.704032479542767078e+02
2.988557482646181818e+00 3.707701772959810569e+02
2.988657504651022645e+00 3.711383220357422488e+02
2.988757526655864361e+00 3.715076720376811181e+02
2.988857548660704744e+00 3.718782171494072486e+02
2.988957570665546459e+00 3.722499472023257567e+02
2.989057592670387287e+00 3.726228520119489076e+02
2.989157614675228558e+00 3.729969213782043198e+02
2.989257636680069385e+00 3.733721450857445348e+02
2.989357658684910213e+00 3.737485129042588028e+02
2.989457680689751484e+00 3.741260145887797535e+02
2.989557702694592312e+00 3.745046398799973986e+02
2.989657724699434027e+00 3.748843785045683603e+02
2.989757746704274410e+00 3.752652201754247017e+02
2.989857768709116126e+00 3.756471545920879294e+02
2.989957790713956953e+00 3.760301714409771989e+02
2.990057812718797781e+00 3.764142603957225788e+02
2.990157834723639052e+00 3.767994111174744489e+02
2.990257856728479879e+00 3.771856132552171061e+02
2.990357878733321151e+00 3.775728564460773100e+02
2.990457900738161978e+00 3.779611303156377744e+02
2.990557922743003694e+00 3.783504244782496357e+02
2.990657944747844077e+00 3.787407285373411696e+02
2.990757966752685348e+00 3.791320320857329307e+02
2.990857988757526620e+00 3.795243247059472083e+02
2.990958010762367447e+00 3.799175959705202104e+02
2.991058032767208719e+00 3.803118354423164078e+02
2.991158054772049546e+00 3.807070326748364550e+02
2.991258076776890817e+00 3.811031772125323869e+02
2.991358098781731645e+00 3.815002585911176993e+02
2.991458120786572472e+00 3.818982663378813527e+02
2.991558142791413744e+00 3.822971899719960334e+02
2.991658164796255015e+00 3.826970190048351697e+02
2.991758186801096286e+00 3.830977429402797156e+02
2.991858208805937114e+00 3.834993512750330069e+02
2.991958230810778385e+00 3.839018334989318646e+02
2.992058252815619213e+00 3.843051790952588362e+02
2.992158274820460040e+00 3.847093775410515946e+02
2.992258296825301311e+00 3.851144183074168268e+02
2.992358318830142139e+00 3.855202908598405429e+02
2.992458340834983410e+00 3.859269846584998049e+02
2.992558362839824682e+00 3.863344891585738878e+02
2.992658384844665953e+00 3.867427938105549856e+02
2.992758406849506780e+00 3.871518880605589175e+02
2.992858428854347608e+00 3.875617613506367434e+02
2.992958450859188879e+00 3.879724031190850155e+02
2.993058472864029707e+00 3.883838028007558023e+02
2.993158494868870978e+00 3.887959498273664849e+02
2.993258516873711805e+00 3.892088336278127940e+02
2.993358538878553077e+00 3.896224436284748549e+02
2.993458560883394348e+00 3.900367692535280639e+02
2.993558582888234731e+00 3.904517999252537379e+02
2.993658604893076447e+00 3.908675250643476602e+02
2.993758626897917274e+00 3.912839340902279446e+02
2.993858648902758546e+00 3.917010164213452867e+02
2.993958670907599373e+00 3.921187614754912829e+02
2.994058692912440645e+00 3.925371586701048159e+02
2.994158714917281472e+00 3.929561974225825907e+02
2.994258736922122299e+00 3.933758671505847246e+02
2.994358758926964015e+00 3.937961572723422705e+02
2.994458780931804398e+00 3.942170572069656487e+02
2.994558802936646114e+00 3.946385563747500100e+02
2.994658824941486941e+00 3.950606441974818495e+02
2.994758846946328212e+00 3.954833100987452781e+02
2.994858868951169040e+00 3.959065435042271019e+02
2.994958890956009867e+00 3.963303338420230943e+02
2.995058912960851139e+00 3.967546705429415397e+02
2.995158934965691966e+00 3.971795430408100742e+02
2.995258956970533681e+00 3.976049407727766720e+02
2.995358978975374065e+00 3.980308531796156331e+02
2.995459000980215780e+00 3.984572697060321502e+02
2.995559022985056608e+00 3.988841798009610784e+02
2.995659044989897435e+00 3.993115729178730930e+02
2.995759066994738706e+00 3.997394385150760741e+02
2.995859088999579534e+00 4.001677660560143295e+02
2.995959111004420805e+00 4.005965450095740152e+02
2.996059133009261632e+00 4.010257648503800283e+02
2.996159155014103348e+00 4.014554150590982999e+02
2.996259177018943731e+00 4.018854851227350764e+02
2.996359199023785003e+00 4.023159645349348921e+02
2.996459221028626274e+00 4.027468427962823512e+02
2.996559243033467101e+00 4.031781094145967472e+02
2.996659265038308373e+00 4.036097539052331058e+02
2.996759287043149200e+00 4.040417657913758376e+02
2.996859309047990472e+00 4.044741346043395538e+02
2.996959331052831299e+00 4.049068498838611276e+02
2.997059353057672126e+00 4.053399011783980086e+02
2.997159375062513398e+00 4.057732780454214776e+02
2.997259397067354669e+00 4.062069700517129149e+02
2.997359419072195941e+00 4.066409667736547817e+02
2.997459441077036768e+00 4.070752577975259214e+02
2.997559463081878040e+00 4.075098327197950425e+02
2.997659485086718867e+00 4.079446811474097672e+02
2.997759507091559694e+00 4.083797926980892612e+02
2.997859529096400966e+00 4.088151570006169777e+02
2.997959551101241793e+00 4.092507636951272048e+02
2.998059573106083064e+00 4.096866024333968426e+02
2.998159595110924336e+00 4.101226628791335429e+02
2.998259617115765607e+00 4.105589347082638483e+02
2.998359639120606435e+00 4.109954076092200808e+02
2.998459661125447262e+00 4.114320712832279696e+02
2.998559683130288533e+00 4.118689154445921190e+02
2.998659705135129361e+00 4.123059298209809072e+02
2.998759727139970632e+00 4.127431041537113856e+02
2.998859749144811460e+00 4.131804281980343490e+02
2.998959771149652731e+00 4.136178917234157666e+02
2.999059793154494002e+00 4.140554845138199767e+02
2.999159815159334386e+00 4.144931963679902083e+02
2.999259837164176101e+00 4.149310170997321165e+02
2.999359859169016929e+00 4.153689365381912353e+02
2.999459881173858200e+00 4.158069445281328740e+02
2.999559903178699027e+00 4.162450309302222422e+02
2.999659925183540299e+00 4.166831856213001402e+02
2.999759947188381126e+00 4.171213984946608093e+02
2.999859969193221954e+00 4.175596594603289873e+02
2.999959991198063669e+00 4.179979584453332109e+02
3.000060013202904052e+00 5.117486396061422056e+02
3.000160035207745768e+00 5.117559295922352476e+02
3.000260057212586595e+00 5.117632302146267875e+02
3.000360079217427867e+00 5.117705413581842322e+02
3.000460101222268694e+00 5.117778629065454084e+02
3.000560123227109521e+00 5.117851947421253271e+02
3.000660145231950793e+00 5.117925367461156725e+02
3.000760167236791620e+00 5.117998887984867906e+02
3.000860189241633336e+00 5.118072507779896227e+02
3.000960211246473719e+00 5.118146225621589451e+02
3.001060233251315434e+00 5.118220040273141080e+02
3.001160255256156262e+00 5.118293950485619916e+02
3.001260277260997089e+00 5.118367954997991092e+02
3.001360299265838361e+00 5.118442052537131417e+02
3.001460321270679188e+00 5.118516241817861783e+02
3.001560343275520459e+00 5.118590521542971032e+02
3.001660365280361287e+00 5.118664890403243817e+02
3.001760387285203002e+00 5.118739347077462867e+02
3.001860409290043386e+00 5.118813890232469248e+02
3.001960431294884657e+00 5.118888518523171456e+02
3.002060453299725928e+00 5.118963230592564173e+02
3.002160475304566756e+00 5.119038025071765219e+02
3.002260497309408027e+00 5.119112900580059318e+02
3.002360519314248855e+00 5.119187855724899805e+02
3.002460541319090126e+00 5.119262889101953533e+02
3.002560563323930953e+00 5.119337999295127588e+02
3.002660585328771781e+00 5.119413184876598848e+02
3.002760607333613052e+00 5.119488444406854910e+02
3.002860629338454324e+00 5.119563776434711713e+02
3.002960651343295595e+00 5.119639179497354462e+02
3.003060673348136422e+00 5.119714652120372875e+02
3.003160695352977694e+00 5.119790192817786760e+02
3.003260717357818521e+00 5.119865800092089216e+02
3.003360739362659348e+00 5.119941472434281877e+02
3.003460761367500620e+00 5.120017208323895375e+02
3.003560783372341447e+00 5.120093006229052435e+02
3.003660805377182719e+00 5.120168864606473562e+02
3.003760827382023990e+00 5.120244781901544684e+02
3.003860849386865262e+00 5.120320756548329655e+02
3.003960871391706089e+00 5.120396786969636196e+02
3.004060893396546916e+00 5.120472871577014757e+02
3.004160915401388188e+00 5.120549008770846058e+02
3.004260937406229015e+00 5.120625196940345631e+02
3.004360959411070287e+00 5.120701434463624082e+02
3.004460981415911114e+00 5.120777719707716642e+02
3.004561003420752385e+00 5.120854051028638878e+02
3.004661025425593657e+00 5.120930426771408293e+02
3.004761047430434040e+00 5.121006845270114809e+02
3.004861069435275756e+00 5.121083304847950330e+02
3.004961091440116583e+00 5.121159803817243983e+02
3.005061113444957854e+00 5.121236340479523506e+02
3.005161135449798682e+00 5.121312913125555042e+02
3.005261157454639953e+00 5.121389520035392025e+02
3.005361179459480780e+00 5.121466159478410418e+02
3.005461201464321608e+00 5.121542829713367837e+02
3.005561223469163323e+00 5.121619528988460388e+02
3.005661245474003707e+00 5.121696255541340861e+02
3.005761267478845422e+00 5.121773007599200582e+02
3.005861289483686249e+00 5.121849783378802385e+02
3.005961311488527521e+00 5.121926581086519263e+02
3.006061333493368348e+00 5.122003398918423045e+02
3.006161355498209176e+00 5.122080235060298037e+02
3.006261377503050447e+00 5.122157087687705825e+02
3.006361399507891274e+00 5.122233954966048941e+02
3.006461421512732990e+00 5.122310835050606102e+02
3.006561443517573373e+00 5.122387726086593602e+02
3.006661465522415089e+00 5.122464626209227845e+02
3.006761487527255916e+00 5.122541533543760579e+02
3.006861509532096743e+00 5.122618446205559621e+02
3.006961531536938015e+00 5.122695362300137276e+02
3.007061553541778842e+00 5.122772279923227643e+02
3.007161575546620114e+00 5.122849197160835502e+02
3.007261597551460941e+00 5.122926112089297703e+02
3.007361619556302657e+00 5.123003022775320687e+02
3.007461641561143040e+00 5.123079927276086210e+02
3.007561663565984311e+00 5.123156823639253616e+02
3.007661685570825583e+00 5.123233709903053068e+02
3.007761707575666410e+00 5.123310584096349203e+02
3.007861729580507681e+00 5.123387444238680928e+02
3.007961751585348509e+00 5.123464288340338726e+02
3.008061773590189780e+00 5.123541114402413541e+02
3.008161795595030608e+00 5.123617920416876359e+02
3.008261817599871435e+00 5.123694704366623682e+02
3.008361839604712706e+00 5.123771464225549153e+02
3.008461861609553978e+00 5.123848197958604942e+02
3.008561883614395249e+00 5.123924903521882470e+02
3.008661905619236077e+00 5.124001578862631732e+02
3.008761927624077348e+00 5.124078221919386351e+02
3.008861949628918175e+00 5.124154830621982910e+02
3.008961971633759003e+00 5.124231402891648486e+02
3.009061993638600274e+00 5.124307936641070000e+02
3.009162015643441102e+00 5.124384429774445380e+02
3.009262037648282373e+00 5.124460880187564271e+02
3.009362059653123644e+00 5.124537285767873982e+02
3.009462081657964916e+00 5.124613644394553376e+02
3.009562103662805743e+00 5.124689953938557210e+02
3.009662125667646571e+00 5.124766212262732097e+02
3.009762147672487842e+00 5.124842417221834694e+02
3.009862169677328669e+00 5.124918566662639705e+02
3.009962191682169941e+00 5.124994658424002409e+02
3.010062213687010768e+00 5.125070690336909820e+02
3.010162235691852040e+00 5.125146660224584139e+02
3.010262257696693311e+00 5.125222565902547558e+02
3.010362279701533694e+00 5.125298405178660914e+02
3.010462301706375410e+00 5.125374175853252154e+02
3.010562323711216237e+00 5.125449875719153852e+02
3.010662345716057509e+00 5.125525502561781650e+02
3.010762367720898336e+00 5.125601054159221803e+02
3.010862389725739607e+00 5.125676528282295976e+02
3.010962411730580435e+00 5.125751922694646510e+02
3.011062433735421262e+00 5.125827235152795538e+02
3.011162455740262978e+00 5.125902463406242759e+02
3.011262477745103361e+00 5.125977605197525691e+02
3.011362499749945076e+00 5.126052658262308341e+02
3.011462521754785904e+00 5.126127620329453976e+02
3.011562543759627175e+00 5.126202489121109238e+02
3.011662565764468003e+00 5.126277262352772368e+02
3.011762587769308830e+00 5.126351937733372779e+02
3.011862609774150101e+00 5.126426512965379061e+02
3.011962631778990929e+00 5.126500985744830814e+02
3.012062653783832644e+00 5.126575353761462566e+02
3.012162675788673027e+00 5.126649614698764026e+02
3.012262697793514743e+00 5.126723766234057393e+02
3.012362719798355570e+00 5.126797806038591716e+02
3.012462741803196398e+00 5.126871731777628156e+02
3.012562763808037669e+00 5.126945541110499107e+02
3.012662785812878496e+00 5.127019231690720744e+02
3.012762807817719768e+00 5.127092801166055551e+02
3.012862829822560595e+00 5.127166247178594176e+02
3.012962851827402311e+00 5.127239567364872528e+02
3.013062873832242694e+00 5.127312759355909293e+02
3.013162895837083965e+00 5.127385820777319623e+02
3.013262917841925237e+00 5.127458749249396988e+02
3.013362939846766064e+00 5.127531542387198442e+02
3.013462961851607336e+00 5.127604197800629890e+02
3.013562983856448163e+00 5.127676713094525667e+02
3.013663005861289435e+00 5.127749085868738348e+02
3.013763027866130262e+00 5.127821313718236524e+02
3.013863049870971089e+00 5.127893394233187792e+02
3.013963071875812361e+00 5.127965324999021277e+02
3.014063093880653632e+00 5.128037103596569750e+02
3.014163115885494904e+00 5.128108727602095769e+02
3.014263137890335731e+00 5.128180194587429241e+02
3.014363159895177002e+00 5.128251502120039049e+02
3.014463181900017830e+00 5.128322647763110353e+02
3.014563203904858657e+00 5.128393629075651461e+02
3.014663225909699928e+00 5.128464443612590458e+02
3.014763247914540756e+00 5.128535088924826368e+02
3.014863269919382027e+00 5.128605562559375812e+02
3.014963291924223299e+00 5.128675862059423025e+02
3.015063313929064570e+00 5.128745984964427862e+02
3.015163335933905397e+00 5.128815928810203104e+02
3.015263357938746225e+00 5.128885691129039515e+02
3.015363379943587496e+00 5.128955269449751313e+02
3.015463401948428324e+00 5.129024661297816010e+02
3.015563423953269595e+00 5.129093864195433525e+02
3.015663445958110422e+00 5.129162875661631915e+02
3.015763467962951694e+00 5.129231693212361733e+02
3.015863489967792965e+00 5.129300314360590392e+02
3.015963511972633349e+00 5.129368736616395381e+02
3.016063533977475064e+00 5.129436957487050677e+02
3.016163555982315891e+00 5.129504974477139285e+02
3.016263577987157163e+00 5.129572785088626006e+02
3.016363599991997990e+00 5.129640386820969979e+02
3.016463621996838818e+00 5.129707777171220187e+02
3.016563644001680089e+00 5.129774953634092753e+02
3.016663666006520916e+00 5.129841913702096008e+02
3.016763688011362632e+00 5.129908654865589597e+02
3.016863710016203015e+00 5.129975174612923183e+02
3.016963732021044731e+00 5.130041470430495565e+02
3.017063754025885558e+00 5.130107539802877454e+02
3.017163776030726385e+00 5.130173380212886514e+02
3.017263798035567657e+00 5.130238989141718093e+02
3.017363820040408484e+00 5.130304364069002077e+02
3.017463842045249756e+00 5.130369502472934755e+02
3.017563864050090583e+00 5.130434401830358411e+02
3.017663886054932298e+00 5.130499059616857949e+02
3.017763908059772682e+00 5.130563473306871174e+02
3.017863930064613953e+00 5.130627640373785425e+02
3.017963952069455225e+00 5.130691558290028524e+02
3.018063974074296052e+00 5.130755224527173368e+02
3.018163996079137323e+00 5.130818636556034562e+02
3.018264018083978151e+00 5.130881791846770739e+02
3.018364040088819422e+00 5.130944687868993697e+02
3.018464062093660250e+00 5.131007322091837750e+02
3.018564084098501077e+00 5.131069691984091605e+02
3.018664106103342348e+00 5.131131795014289310e+02
3.018764128108183620e+00 5.131193628650802339e+02
3.018864150113024891e+00 5.131255190361948735e+02
3.018964172117865719e+00 5.131316477616089742e+02
3.019064194122706990e+00 5.131377487881729849e+02
3.019164216127547817e+00 5.131438218627624792e+02
3.019264238132388645e+00 5.131498667322880465e+02
3.019364260137229916e+00 5.131558831437027948e+02
3.019464282142070743e+00 5.131618708440188357e+02
3.019564304146912015e+00 5.131678295803097853e+02
3.019664326151753286e+00 5.131737590997271354e+02
3.019764348156594558e+00 5.131796591495062785e+02
3.019864370161435385e+00 5.131855294769790135e+02
3.019964392166276212e+00 5.131913698295828681e+02
3.020064414171117484e+00 5.131971799548714444e+02
3.020164436175958311e+00 5.132029596005253325e+02
3.020264458180799583e+00 5.132087085143609784e+02
3.020364480185640410e+00 5.132144264443420525e+02
3.020464502190481682e+00 5.132201131385888857e+02
3.020564524195322953e+00 5.132257683453904065e+02
3.020664546200163336e+00 5.132313918132116441e+02
3.020764568205005052e+00 5.132369832907058935e+02
3.020864590209845879e+00 5.132425425267261971e+02
3.020964612214687151e+00 5.132480692703320528e+02
3.021064634219527978e+00 5.132535632708029425e+02
3.021164656224369249e+00 5.132590242776470859e+02
3.021264678229210077e+00 5.132644520406122410e+02
3.021364700234050904e+00 5.132698463096963906e+02
3.021464722238892620e+00 5.132752068351569505e+02
3.021564744243733003e+00 5.132805333675222528e+02
3.021664766248574718e+00 5.132858256576012081e+02
3.021764788253415546e+00 5.132910834564933111e+02
3.021864810258256817e+00 5.132963065156008042e+02
3.021964832263097644e+00 5.133014945866365224e+02
3.022064854267938472e+00 5.133066474216367396e+02
3.022164876272779743e+00 5.133117647729681039e+02
3.022264898277620571e+00 5.133168463933427574e+02
3.022364920282462286e+00 5.133218920358237938e+02
3.022464942287302669e+00 5.133269014538393549e+02
3.022564964292144385e+00 5.133318744011912713e+02
3.022664986296985212e+00 5.133368106320644983e+02
3.022765008301826040e+00 5.133417099010408720e+02
3.022865030306667311e+00 5.133465719631044522e+02
3.022965052311508138e+00 5.133513965736568707e+02
3.023065074316349410e+00 5.133561834885254029e+02
3.023165096321190237e+00 5.133609324639705846e+02
3.023265118326031953e+00 5.133656432567031516e+02
3.023365140330872336e+00 5.133703156238884731e+02
3.023465162335713607e+00 5.133749493231584893e+02
3.023565184340554879e+00 5.133795441126244441e+02
3.023665206345395706e+00 5.133840997508838200e+02
3.023765228350236978e+00 5.133886159970320477e+02
3.023865250355077805e+00 5.133930926106742163e+02
3.023965272359919076e+00 5.133975293519334855e+02
3.024065294364759904e+00 5.134019259814612042e+02
3.024165316369600731e+00 5.134062822604486200e+02
3.024265338374442003e+00 5.134105979506368840e+02
3.024365360379283274e+00 5.134148728143275093e+02
3.024465382384124545e+00 5.134191066143899889e+02
3.024565404388965373e+00 5.134232991142769151e+02
3.024665426393806644e+00 5.134274500780294375e+02
3.024765448398647472e+00 5.134315592702909044e+02
3.024865470403488299e+00 5.134356264563152763e+02
3.024965492408329570e+00 5.134396514019782671e+02
3.025065514413170398e+00 5.134436338737866663e+02
3.025165536418011669e+00 5.134475736388892528e+02
3.025265558422852941e+00 5.134514704650871408e+02
3.025365580427694212e+00 5.134553241208428744e+02
3.025465602432535039e+00 5.134591343752929333e+02
3.025565624437375867e+00 5.134629009982548951e+02
3.025665646442217138e+00 5.134666237602388037e+02
3.025765668447057966e+00 5.134703024324587659e+02
3.025865690451899237e+00 5.134739367868406816e+02
3.025965712456740064e+00 5.134775265960337265e+02
3.026065734461581336e+00 5.134810716334206973e+02
3.026165756466422607e+00 5.134845716731276752e+02
3.026265778471262990e+00 5.134880264900322118e+02
3.026365800476104706e+00 5.134914358597767432e+02
3.026465822480945533e+00 5.134947995587771175e+02
3.026565844485786805e+00 5.134981173642314616e+02
3.026665866490627632e+00 5.135013890541314368e+02
3.026765888495468904e+00 5.135046144072724701e+02
3.026865910500309731e+00 5.135077932032623949e+02
3.026965932505150558e+00 5.135109252225325918e+02
3.027065954509992274e+00 5.135140102463473113e+02
3.027165976514832657e+00 5.135170480568137918e+02
3.027265998519674373e+00 5.135200384368918094e+02
3.027366020524515200e+00 5.135229811704040230e+02
3.027466042529356471e+00 5.135258760420443878e+02
3.027566064534197299e+00 5.135287228373914559e+02
3.027666086539038126e+00 5.135315213429137202e+02
3.027766108543879398e+00 5.135342713459822335e+02
3.027866130548720225e+00 5.135369726348789072e+02
3.027966152553561940e+00 5.135396249988077670e+02
3.028066174558402324e+00 5.135422282279027968e+02
3.028166196563244039e+00 5.135447821132395347e+02
3.028266218568084867e+00 5.135472864468433727e+02
3.028366240572925694e+00 5.135497410216980825e+02
3.028466262577766965e+00 5.135521456317590037e+02
3.028566284582607793e+00 5.135545000719595237e+02
3.028666306587449064e+00 5.135568041382206275e+02
3.028766328592289891e+00 5.135590576274632895e+02
3.028866350597131607e+00 5.135612603376134757e+02
3.028966372601971990e+00 5.135634120676159000e+02
3.029066394606813262e+00 5.135655126174406178e+02
3.029166416611654533e+00 5.135675617880943946e+02
3.029266438616495360e+00 5.135695593816276414e+02
3.029366460621336632e+00 5.135715052011469197e+02
3.029466482626177459e+00 5.135733990508203988e+02
3.029566504631018731e+00 5.135752407358917253e+02
3.029666526635859558e+00 5.135770300626845710e+02
3.029766548640700385e+00 5.135787668386151381e+02
3.029866570645541657e+00 5.135804508722001174e+02
3.029966592650382928e+00 5.135820819730665789e+02
3.030066614655224200e+00 5.135836599519581114e+02
3.030166636660065027e+00 5.135851846207498284e+02
3.030266658664906299e+00 5.135866557924509834e+02
3.030366680669747126e+00 5.135880732812177030e+02
3.030466702674587953e+00 5.135894369023611716e+02
3.030566724679429225e+00 5.135907464723579778e+02
3.030666746684270052e+00 5.135920018088547749e+02
3.030766768689111323e+00 5.135932027306819236e+02
3.030866790693952595e+00 5.135943490578599722e+02
3.030966812698793866e+00 5.135954406116087512e+02
3.031066834703634694e+00 5.135964772143554455e+02
3.031166856708475521e+00 5.135974586897453946e+02
3.031266878713316792e+00 5.135983848626487998e+02
3.031366900718157620e+00 5.135992555591703876e+02
3.031466922722998891e+00 5.136000706066569137e+02
3.031566944727839719e+00 5.136008298337077349e+02
3.031666966732680990e+00 5.136015330701816310e+02
3.031766988737522261e+00 5.136021801472056723e+02
3.031867010742362645e+00 5.136027708971834045e+02
3.031967032747204360e+00 5.136033051538045129e+02
3.032067054752045188e+00 5.136037827520522114e+02
3.032167076756886459e+00 5.136042035282113147e+02
3.032267098761727286e+00 5.136045673198772192e+02
3.032367120766568558e+00 5.136048739659638613e+02
3.032467142771409385e+00 5.136051233067121302e+02
3.032567164776250213e+00 5.136053151836971438e+02
3.032667186781091928e+00 5.136054494398383667e+02
3.032767208785932311e+00 5.136055259194051814e+02
3.032867230790774027e+00 5.136055444680268920e+02
3.032967252795614854e+00 5.136055049326995459e+02
3.033067274800456126e+00 5.136054071617945738e+02
3.033167296805296953e+00 5.136052510050666342e+02
3.033267318810137780e+00 5.136050363136608894e+02
3.033367340814979052e+00 5.136047629401209633e+02
3.033467362819819879e+00 5.136044307383981504e+02
3.033567384824661595e+00 5.136040395638564178e+02
3.033667406829501978e+00 5.136035892732827506e+02
3.033767428834343693e+00 5.136030797248921544e+02
3.033867450839184521e+00 5.136025107783389103e+02
3.033967472844025348e+00 5.136018822947203262e+02
3.034067494848866620e+00 5.136011941365861730e+02
3.034167516853707447e+00 5.136004461679461883e+02
3.034267538858548718e+00 5.135996382542753054e+02
3.034367560863389546e+00 5.135987702625247948e+02
3.034467582868231261e+00 5.135978420611269257e+02
3.034567604873071645e+00 5.135968535200019005e+02
3.034667626877912916e+00 5.135958045105664951e+02
3.034767648882754187e+00 5.135946949057404254e+02
3.034867670887595015e+00 5.135935245799537370e+02
3.034967692892436286e+00 5.135922934091535126e+02
3.035067714897277114e+00 5.135910012708114891e+02
3.035167736902118385e+00 5.135896480439290599e+02
3.035267758906959212e+00 5.135882336090476201e+02
3.035367780911800040e+00 5.135867578482518638e+02
3.035467802916641311e+00 5.135852206451795610e+02
3.035567824921482583e+00 5.135836218850241721e+02
3.035667846926323854e+00 5.135819614545473542e+02
3.035767868931164681e+00 5.135802392420800970e+02
3.035867890936005953e+00 5.135784551375325009e+02
3.035967912940846780e+00 5.135766090323986646e+02
3.036067934945687607e+00 5.135747008197644163e+02
3.036167956950528879e+00 5.135727303943127708e+02
3.036267978955369706e+00 5.135706976523306366e+02
3.036368000960210978e+00 5.135686024917140458e+02
3.036468022965052249e+00 5.135664448119773624e+02
3.036568044969893521e+00 5.135642245142561251e+02
3.036668066974734348e+00 5.135619415013143225e+02
3.036768088979575175e+00 5.135595956775508739e+02
3.036868110984416447e+00 5.135571869490053132e+02
3.036968132989257274e+00 5.135547152233646102e+02
3.037068154994098546e+00 5.135521804099658993e+02
3.037168176998939373e+00 5.135495824198075070e+02
3.037268199003780644e+00 5.135469211655495201e+02
3.037368221008621916e+00 5.135441965615228810e+02
3.037468243013462299e+00 5.135414085237337076e+02
3.037568265018304015e+00 5.135385569698687505e+02
3.037668287023144842e+00 5.135356418193011905e+02
3.037768309027986113e+00 5.135326629930976878e+02
3.037868331032826941e+00 5.135296204140194050e+02
3.037968353037668212e+00 5.135265140065332616e+02
3.038068375042509039e+00 5.135233436968119349e+02
3.038168397047349867e+00 5.135201094127427268e+02
3.038268419052191582e+00 5.135168110839299516e+02
3.038368441057031966e+00 5.135134486417023254e+02
3.038468463061873681e+00 5.135100220191171729e+02
3.038568485066714508e+00 5.135065311509647472e+02
3.038668507071555780e+00 5.135029759737739141e+02
3.038768529076396607e+00 5.134993564258168135e+02
3.038868551081237435e+00 5.134956724471128382e+02
3.038968573086078706e+00 5.134919239794360237e+02
3.039068595090919533e+00 5.134881109663151619e+02
3.039168617095761249e+00 5.134842333530435781e+02
3.039268639100601632e+00 5.134802910866791308e+02
3.039368661105443348e+00 5.134762841160517155e+02
3.039468683110284175e+00 5.134722123917669023e+02
3.039568705115125002e+00 5.134680758662084372e+02
3.039668727119966274e+00 5.134638744935450632e+02
3.039768749124807101e+00 5.134596082297342718e+02
3.039868771129648373e+00 5.134552770325246911e+02
3.039968793134489200e+00 5.134508808614622239e+02
