1.900018003960871393e+00 5.263324711414759349e+02
1.900118025965712443e+00 5.263440845628612124e+02
1.900218047970553270e+00 5.263556352745773665e+02
1.900318069975394319e+00 5.263671225803021798e+02
1.900418091980235591e+00 5.263785457856873791e+02
1.900518113985076640e+00 5.263899041983870575e+02
1.900618135989917690e+00 5.264011971280875741e+02
1.900718157994758739e+00 5.264124238865324514e+02
1.900818179999599788e+00 5.264235837875526158e+02
1.900918202004440616e+00 5.264346761470928868e+02
1.901018224009281887e+00 5.264457002832411945e+02
1.901118246014122937e+00 5.264566555162535906e+02
1.901218268018963986e+00 5.264675411685855124e+02
1.901318290023805258e+00 5.264783565649165666e+02
1.901418312028646307e+00 5.264891010321784961e+02
1.901518334033487356e+00 5.264997738995849659e+02
1.901618356038328184e+00 5.265103744986560059e+02
1.901718378043169233e+00 5.265209021632471149e+02
1.901818400048010282e+00 5.265313562295766587e+02
1.901918422052851554e+00 5.265417360362528143e+02
1.902018444057692603e+00 5.265520409242999449e+02
1.902118466062533653e+00 5.265622702371887272e+02
1.902218488067374924e+00 5.265724233208588885e+02
1.902318510072215751e+00 5.265824995237502435e+02
1.902418532077056801e+00 5.265924981968274778e+02
1.902518554081897850e+00 5.266024186936083424e+02
1.902618576086738900e+00 5.266122603701901426e+02
1.902718598091579949e+00 5.266220225852745216e+02
1.902818620096421220e+00 5.266317047001984974e+02
1.902918642101262270e+00 5.266413060789584506e+02
1.903018664106103097e+00 5.266508260882358172e+02
1.903118686110944147e+00 5.266602640974258520e+02
1.903218708115785418e+00 5.266696194786632077e+02
1.903318730120626467e+00 5.266788916068483104e+02
1.903418752125467517e+00 5.266880798596739623e+02
1.903518774130308566e+00 5.266971836176514898e+02
1.903618796135149616e+00 5.267062022641368912e+02
1.903718818139990443e+00 5.267151351853569849e+02
1.903818840144831714e+00 5.267239817704354437e+02
1.903918862149672764e+00 5.267327414114201929e+02
1.904018884154513813e+00 5.267414135033055800e+02
1.904118906159355085e+00 5.267499974440630695e+02
1.904218928164196134e+00 5.267584926346639804e+02
1.904318950169037183e+00 5.267668984791050661e+02
1.904418972173878011e+00 5.267752143844352304e+02
1.904518994178719060e+00 5.267834397607812207e+02
1.904619016183560110e+00 5.267915740213719573e+02
1.904719038188401381e+00 5.267996165825651360e+02
1.904819060193242430e+00 5.268075668638712159e+02
1.904919082198083480e+00 5.268154242879794538e+02
1.905019104202924751e+00 5.268231882807831425e+02
1.905119126207765579e+00 5.268308582714037129e+02
1.905219148212606628e+00 5.268384336922163129e+02
1.905319170217447677e+00 5.268459139788755010e+02
1.905419192222288727e+00 5.268532985703379836e+02
1.905519214227129776e+00 5.268605869088877398e+02
1.905619236231971048e+00 5.268677784401636472e+02
1.905719258236812097e+00 5.268748726131793774e+02
1.905819280241652924e+00 5.268818688803499981e+02
1.905919302246493974e+00 5.268887666975175534e+02
1.906019324251335245e+00 5.268955655239724365e+02
1.906119346256176295e+00 5.269022648224795375e+02
1.906219368261017344e+00 5.269088640593013224e+02
1.906319390265858393e+00 5.269153627042221615e+02
1.906419412270699443e+00 5.269217602305716355e+02
1.906519434275540270e+00 5.269280561152487508e+02
1.906619456280381542e+00 5.269342498387463820e+02
1.906719478285222591e+00 5.269403408851717359e+02
1.906819500290063640e+00 5.269463287422721578e+02
1.906919522294904912e+00 5.269522129014594611e+02
1.907019544299745961e+00 5.269579928578295949e+02
1.907119566304587011e+00 5.269636681101892464e+02
1.907219588309427838e+00 5.269692381610757366e+02
1.907319610314268887e+00 5.269747025167829406e+02
1.907419632319109937e+00 5.269800606873807283e+02
1.907519654323951208e+00 5.269853121867423624e+02
1.907619676328792258e+00 5.269904565325595058e+02
1.907719698333633307e+00 5.269954932463733712e+02
1.907819720338474578e+00 5.270004218535897280e+02
1.907919742343315406e+00 5.270052418835063008e+02
1.908019764348156455e+00 5.270099528693309594e+02
1.908119786352997505e+00 5.270145543482068433e+02
1.908219808357838554e+00 5.270190458612310067e+02
1.908319830362679603e+00 5.270234269534793157e+02
1.908419852367520875e+00 5.270276971740257750e+02
1.908519874372361924e+00 5.270318560759658340e+02
1.908619896377202751e+00 5.270359032164349173e+02
1.908719918382043801e+00 5.270398381566337775e+02
1.908819940386885072e+00 5.270436604618442971e+02
1.908919962391726122e+00 5.270473697014567733e+02
1.909019984396567171e+00 5.270509654489857212e+02
1.909120006401408220e+00 5.270544472820918145e+02
1.909220028406249048e+00 5.270578147826051918e+02
1.909320050411090097e+00 5.270610675365417137e+02
1.909420072415931369e+00 5.270642051341269507e+02
1.909520094420772418e+00 5.270672271698147142e+02
1.909620116425613467e+00 5.270701332423063832e+02
1.909720138430454739e+00 5.270729229545734142e+02
1.909820160435295788e+00 5.270755959138743947e+02
1.909920182440136616e+00 5.270781517317767566e+02
1.910020204444977665e+00 5.270805900241768995e+02
1.910120226449818714e+00 5.270829104113158792e+02
1.910220248454659764e+00 5.270851125178030543e+02
1.910320270459501035e+00 5.270871959726330260e+02
1.910420292464342085e+00 5.270891604092056468e+02
1.910520314469183134e+00 5.270910054653438692e+02
1.910620336474023961e+00 5.270927307833135274e+02
1.910720358478865233e+00 5.270943360098420953e+02
1.910820380483706282e+00 5.270958207961350581e+02
1.910920402488547332e+00 5.270971847978983078e+02
1.911020424493388381e+00 5.270984276753522408e+02
1.911120446498229430e+00 5.270995490932519942e+02
1.911220468503070702e+00 5.271005487209056355e+02
1.911320490507911529e+00 5.271014262321907609e+02
1.911420512512752579e+00 5.271021813055727989e+02
1.911520534517593628e+00 5.271028136241236552e+02
1.911620556522434899e+00 5.271033228755358095e+02
1.911720578527275949e+00 5.271037087521430067e+02
1.911820600532116998e+00 5.271039709509365139e+02
1.911920622536958048e+00 5.271041091735803548e+02
1.912020644541798875e+00 5.271041231264304088e+02
1.912120666546639924e+00 5.271040125205487357e+02
1.912220688551481196e+00 5.271037770717224475e+02
1.912320710556322245e+00 5.271034165004788292e+02
1.912420732561163295e+00 5.271029305321003449e+02
1.912520754566004566e+00 5.271023188966433963e+02
1.912620776570845615e+00 5.271015813289521930e+02
1.912720798575686443e+00 5.271007175686754636e+02
1.912820820580527492e+00 5.270997273602805535e+02
1.912920842585368542e+00 5.270986104530718421e+02
1.913020864590209591e+00 5.270973666012024523e+02
1.913120886595050862e+00 5.270959955636923269e+02
1.913220908599891912e+00 5.270944971044407339e+02
1.913320930604732961e+00 5.270928709922437747e+02
1.913420952609573789e+00 5.270911170008060935e+02
1.913520974614415060e+00 5.270892349087578168e+02
1.913620996619256109e+00 5.270872244996687641e+02
1.913721018624097159e+00 5.270850855620591346e+02
1.913821040628938208e+00 5.270828178894199709e+02
1.913921062633779258e+00 5.270804212802195252e+02
1.914021084638620529e+00 5.270778955379232684e+02
1.914121106643461356e+00 5.270752404710048040e+02
1.914221128648302406e+00 5.270724558929572368e+02
1.914321150653143455e+00 5.270695416223112488e+02
1.914421172657984727e+00 5.270664974826428306e+02
1.914521194662825776e+00 5.270633233025912432e+02
1.914621216667666825e+00 5.270600189158677722e+02
1.914721238672507875e+00 5.270565841612692566e+02
1.914821260677348702e+00 5.270530188826935500e+02
1.914921282682189752e+00 5.270493229291456601e+02
1.915021304687031023e+00 5.270454961547563926e+02
1.915121326691872072e+00 5.270415384187904237e+02
1.915221348696713122e+00 5.270374495856574413e+02
1.915321370701554393e+00 5.270332295249266963e+02
1.915421392706395443e+00 5.270288781113364394e+02
1.915521414711236270e+00 5.270243952248055166e+02
1.915621436716077319e+00 5.270197807504441698e+02
1.915721458720918369e+00 5.270150345785654054e+02
1.915821480725759418e+00 5.270101566046953394e+02
1.915921502730600690e+00 5.270051467295845669e+02
1.916021524735441739e+00 5.270000048592170288e+02
1.916121546740282788e+00 5.269947309048209263e+02
1.916221568745123616e+00 5.269893247828799758e+02
1.916321590749964887e+00 5.269837864151410258e+02
1.916421612754805937e+00 5.269781157286255393e+02
1.916521634759646986e+00 5.269723126556375519e+02
1.916621656764488035e+00 5.269663771337757225e+02
1.916721678769329085e+00 5.269603091059382223e+02
1.916821700774170356e+00 5.269541085203358080e+02
1.916921722779011183e+00 5.269477753304990983e+02
1.917021744783852233e+00 5.269413094952855090e+02
1.917121766788693282e+00 5.269347109788901662e+02
1.917221788793534554e+00 5.269279797508535239e+02
1.917321810798375603e+00 5.269211157860685262e+02
1.917421832803216653e+00 5.269141190647901567e+02
1.917521854808057702e+00 5.269069895726411232e+02
1.917621876812898529e+00 5.268997273006204978e+02
1.917721898817739579e+00 5.268923322451120157e+02
1.917821920822580850e+00 5.268848044078898738e+02
1.917921942827421899e+00 5.268771437961255515e+02
1.918021964832262949e+00 5.268693504223962236e+02
1.918121986837104220e+00 5.268614243046899901e+02
1.918222008841945270e+00 5.268533654664125834e+02
1.918322030846786097e+00 5.268451739363949855e+02
1.918422052851627146e+00 5.268368497488969524e+02
1.918522074856468196e+00 5.268283929436155404e+02
1.918622096861309245e+00 5.268198035656896536e+02
1.918722118866150517e+00 5.268110816657051600e+02
1.918822140870991566e+00 5.268022272997008031e+02
1.918922162875832615e+00 5.267932405291736586e+02
1.919022184880673443e+00 5.267841214210843646e+02
1.919122206885514714e+00 5.267748700478606452e+02
1.919222228890355764e+00 5.267654864874028817e+02
1.919322250895196813e+00 5.267559708230878641e+02
1.919422272900037862e+00 5.267463231437759532e+02
1.919522294904878912e+00 5.267365435438098302e+02
1.919622316909720183e+00 5.267266321230227959e+02
1.919722338914561011e+00 5.267165889867411579e+02
1.919822360919402060e+00 5.267064142457862772e+02
1.919922382924243109e+00 5.266961080164816167e+02
1.920022404929084381e+00 5.266856704206518316e+02
1.920122426933925430e+00 5.266751015856270897e+02
1.920222448938766480e+00 5.266644016442470502e+02
1.920322470943607529e+00 5.266535707348625692e+02
1.920422492948448356e+00 5.266426090013371777e+02
1.920522514953289406e+00 5.266315165930509465e+02
1.920622536958130677e+00 5.266202936649012827e+02
1.920722558962971727e+00 5.266089403773059985e+02
1.920822580967812776e+00 5.265974568962022886e+02
1.920922602972654047e+00 5.265858433930519595e+02
1.921022624977495097e+00 5.265741000448392697e+02
1.921122646982335924e+00 5.265622270340745672e+02
1.921222668987176974e+00 5.265502245487926984e+02
1.921322690992018023e+00 5.265380927825571007e+02
1.921422712996859072e+00 5.265258319344557094e+02
1.921522735001700344e+00 5.265134422091053921e+02
1.921622757006541393e+00 5.265009238166499017e+02
1.921722779011382443e+00 5.264882769727610139e+02
1.921822801016223270e+00 5.264755018986356845e+02
1.921922823021064541e+00 5.264625988210000287e+02
1.922022845025905591e+00 5.264495679721036367e+02
1.922122867030746640e+00 5.264364095897230982e+02
1.922222889035587690e+00 5.264231239171583638e+02
1.922322911040428739e+00 5.264097112032313817e+02
1.922422933045270010e+00 5.263961717022870062e+02
1.922522955050110838e+00 5.263825056741876551e+02
1.922622977054951887e+00 5.263687133843164929e+02
1.922722999059792937e+00 5.263547951035708365e+02
1.922823021064634208e+00 5.263407511083620420e+02
1.922923043069475257e+00 5.263265816806130033e+02
1.923023065074316307e+00 5.263122871077555374e+02
1.923123087079157356e+00 5.262978676827270874e+02
1.923223109083998184e+00 5.262833237039689038e+02
1.923323131088839233e+00 5.262686554754213830e+02
1.923423153093680504e+00 5.262538633065220210e+02
1.923523175098521554e+00 5.262389475122009799e+02
1.923623197103362603e+00 5.262239084128783588e+02
1.923723219108203875e+00 5.262087463344585103e+02
1.923823241113044924e+00 5.261934616083277660e+02
1.923923263117885751e+00 5.261780545713497759e+02
1.924023285122726801e+00 5.261625255658601645e+02
1.924123307127567850e+00 5.261468749396622115e+02
1.924223329132408900e+00 5.261311030460224174e+02
1.924323351137250171e+00 5.261152102436644782e+02
1.924423373142091220e+00 5.260991968967655339e+02
1.924523395146932270e+00 5.260830633749482104e+02
1.924623417151773097e+00 5.260668100532784592e+02
1.924723439156614369e+00 5.260504373122561219e+02
1.924823461161455418e+00 5.260339455378120874e+02
1.924923483166296467e+00 5.260173351212988564e+02
1.925023505171137517e+00 5.260006064594871305e+02
1.925123527175978566e+00 5.259837599545562625e+02
1.925223549180819838e+00 5.259667960140908463e+02
1.925323571185660665e+00 5.259497150510708252e+02
1.925423593190501714e+00 5.259325174838647854e+02
1.925523615195342764e+00 5.259152037362240435e+02
1.925623637200184035e+00 5.258977742372749162e+02
1.925723659205025085e+00 5.258802294215080337e+02
1.925823681209866134e+00 5.258625697287736784e+02
1.925923703214707183e+00 5.258447956042722353e+02
1.926023725219548011e+00 5.258269074985471434e+02
1.926123747224389060e+00 5.258089058674736407e+02
1.926223769229230331e+00 5.257907911722525114e+02
1.926323791234071381e+00 5.257725638794005363e+02
1.926423813238912430e+00 5.257542244607400335e+02
1.926523835243753702e+00 5.257357733933927193e+02
1.926623857248594529e+00 5.257172111597664070e+02
1.926723879253435578e+00 5.256985382475479582e+02
1.926823901258276628e+00 5.256797551496930510e+02
1.926923923263117677e+00 5.256608623644139016e+02
1.927023945267958727e+00 5.256418603951724435e+02
1.927123967272799998e+00 5.256227497506679356e+02
1.927223989277641047e+00 5.256035309448262751e+02
1.927324011282481875e+00 5.255842044967894253e+02
1.927424033287322924e+00 5.255647709309047286e+02
1.927524055292164196e+00 5.255452307767141065e+02
1.927624077297005245e+00 5.255255845689412126e+02
1.927724099301846294e+00 5.255058328474806331e+02
1.927824121306687344e+00 5.254859761573871992e+02
1.927924143311528393e+00 5.254660150488616637e+02
1.928024165316369221e+00 5.254459500772418323e+02
1.928124187321210492e+00 5.254257818029868758e+02
1.928224209326051541e+00 5.254055107916663019e+02
1.928324231330892591e+00 5.253851376139494960e+02
1.928424253335733862e+00 5.253646628455877590e+02
1.928524275340574912e+00 5.253440870674049847e+02
1.928624297345415961e+00 5.253234108652856094e+02
1.928724319350256788e+00 5.253026348301567623e+02
1.928824341355097838e+00 5.252817595579779208e+02
1.928924363359938887e+00 5.252607856497261309e+02
1.929024385364780159e+00 5.252397137113829331e+02
1.929124407369621208e+00 5.252185443539175367e+02
1.929224429374462257e+00 5.251972781932770431e+02
1.929324451379303529e+00 5.251759158503663230e+02
1.929424473384144356e+00 5.251544579510386939e+02
1.929524495388985406e+00 5.251329051260772758e+02
1.929624517393826455e+00 5.251112580111807802e+02
1.929724539398667504e+00 5.250895172469499812e+02
1.929824561403508554e+00 5.250676834788687302e+02
1.929924583408349825e+00 5.250457573572936099e+02
1.930024605413190875e+00 5.250237395374330163e+02
1.930124627418031702e+00 5.250016306793329477e+02
1.930224649422872751e+00 5.249794314478625665e+02
1.930324671427714023e+00 5.249571425126956683e+02
1.930424693432555072e+00 5.249347645482951066e+02
1.930524715437396122e+00 5.249122982338952852e+02
1.930624737442237171e+00 5.248897442534873790e+02
1.930724759447078220e+00 5.248671032957990974e+02
1.930824781451919048e+00 5.248443760542807013e+02
1.930924803456760319e+00 5.248215632270851074e+02
1.931024825461601369e+00 5.247986655170520862e+02
1.931124847466442418e+00 5.247756836316893896e+02
1.931224869471283689e+00 5.247526182831550159e+02
1.931324891476124739e+00 5.247294701882393611e+02
1.931424913480965788e+00 5.247062400683477108e+02
1.931524935485806616e+00 5.246829286494796634e+02
1.931624957490647665e+00 5.246595366622121901e+02
1.931724979495488714e+00 5.246360648416814456e+02
1.931825001500329986e+00 5.246125139275615084e+02
1.931925023505171035e+00 5.245888846640477823e+02
1.932025045510012085e+00 5.245651777998355101e+02
1.932125067514853356e+00 5.245413940881018107e+02
1.932225089519694183e+00 5.245175342864855565e+02
1.932325111524535233e+00 5.244935991570671376e+02
1.932425133529376282e+00 5.244695894663491345e+02
1.932525155534217332e+00 5.244455059852363092e+02
1.932625177539058381e+00 5.244213494890144602e+02
1.932725199543899652e+00 5.243971207573302991e+02
1.932825221548740702e+00 5.243728205741711008e+02
1.932925243553581529e+00 5.243484497278438994e+02
1.933025265558422578e+00 5.243240090109543416e+02
1.933125287563263850e+00 5.242994992203844049e+02
1.933225309568104899e+00 5.242749211572742070e+02
1.933325331572945949e+00 5.242502756269969950e+02
1.933425353577786998e+00 5.242255634391399326e+02
1.933525375582628048e+00 5.242007854074809075e+02
1.933625397587468875e+00 5.241759423499672721e+02
1.933725419592310146e+00 5.241510350886941296e+02
1.933825441597151196e+00 5.241260644498809143e+02
1.933925463601992245e+00 5.241010312638504729e+02
1.934025485606833517e+00 5.240759363650042815e+02
1.934125507611674566e+00 5.240507805918022086e+02
1.934225529616515615e+00 5.240255647867387552e+02
1.934325551621356443e+00 5.240002897963177020e+02
1.934425573626197492e+00 5.239749564710331242e+02
1.934525595631038541e+00 5.239495656653426749e+02
1.934625617635879813e+00 5.239241182376456436e+02
1.934725639640720862e+00 5.238986150502582859e+02
1.934825661645561912e+00 5.238730569693917687e+02
1.934925683650403183e+00 5.238474448651257944e+02
1.935025705655244010e+00 5.238217796113856366e+02
1.935125727660085060e+00 5.237960620859194023e+02
1.935225749664926109e+00 5.237702931702700653e+02
1.935325771669767159e+00 5.237444737497545475e+02
1.935425793674608208e+00 5.237186047134359796e+02
1.935525815679449479e+00 5.236926869541021006e+02
1.935625837684290529e+00 5.236667213682366082e+02
1.935725859689131356e+00 5.236407088559964222e+02
1.935825881693972406e+00 5.236146503211862182e+02
1.935925903698813677e+00 5.235885466712321659e+02
1.936025925703654726e+00 5.235623988171557812e+02
1.936125947708495776e+00 5.235362076735503933e+02
1.936225969713336825e+00 5.235099741585527227e+02
1.936325991718177875e+00 5.234836991938191204e+02
1.936426013723018702e+00 5.234573837044977154e+02
1.936526035727859973e+00 5.234310286192028343e+02
1.936626057732701023e+00 5.234046348699885129e+02
1.936726079737542072e+00 5.233782033923221206e+02
1.936826101742383344e+00 5.233517351250563934e+02
1.936926123747224393e+00 5.233252310104051048e+02
1.937026145752065442e+00 5.232986919939137351e+02
1.937126167756906270e+00 5.232721190244328682e+02
1.937226189761747319e+00 5.232455130540917025e+02
1.937326211766588369e+00 5.232188750382700846e+02
1.937426233771429640e+00 5.231922059355712236e+02
1.937526255776270689e+00 5.231655067077931562e+02
1.937626277781111739e+00 5.231387783199035084e+02
1.937726299785953010e+00 5.231120217400073216e+02
1.937826321790793838e+00 5.230852379393239744e+02
1.937926343795634887e+00 5.230584278921544410e+02
1.938026365800475936e+00 5.230315925758559388e+02
1.938126387805316986e+00 5.230047329708131656e+02
1.938226409810158035e+00 5.229778500604087412e+02
1.938326431814999307e+00 5.229509448309944446e+02
1.938426453819840356e+00 5.229240182718641563e+02
1.938526475824681183e+00 5.228970713752219126e+02
1.938626497829522233e+00 5.228701051361580312e+02
1.938726519834363504e+00 5.228431205526128451e+02
1.938826541839204554e+00 5.228161186253536243e+02
1.938926563844045603e+00 5.227891003579420612e+02
1.939026585848886652e+00 5.227620667567053943e+02
1.939126607853727702e+00 5.227350188307075314e+02
1.939226629858568529e+00 5.227079575917177863e+02
1.939326651863409801e+00 5.226808840541818881e+02
1.939426673868250850e+00 5.226537992351927642e+02
1.939526695873091899e+00 5.226267041544588210e+02
1.939626717877933171e+00 5.225995998342747271e+02
1.939726739882774220e+00 5.225724872994918542e+02
1.939826761887615270e+00 5.225453675774853082e+02
1.939926783892456097e+00 5.225182416981266442e+02
1.940026805897297146e+00 5.224911106937504428e+02
1.940126827902138196e+00 5.224639755991248649e+02
1.940226849906979467e+00 5.224368374514217521e+02
1.940326871911820517e+00 5.224096972901829758e+02
1.940426893916661566e+00 5.223825561572919014e+02
1.940526915921502837e+00 5.223554150969414422e+02
1.940626937926343665e+00 5.223282751556026824e+02
1.940726959931184714e+00 5.223011373819919072e+02
1.940826981936025764e+00 5.222740028270425228e+02
1.940927003940866813e+00 5.222468725438716319e+02
1.941027025945707862e+00 5.222197475877462693e+02
1.941127047950549134e+00 5.221926290160565713e+02
1.941227069955390183e+00 5.221655178882787141e+02
1.941327091960231011e+00 5.221384152659463780e+02
1.941427113965072060e+00 5.221113222126175515e+02
1.941527135969913331e+00 5.220842397938426984e+02
1.941627157974754381e+00 5.220571690771316753e+02
1.941727179979595430e+00 5.220301111319221263e+02
1.941827201984436480e+00 5.220030670295474238e+02
1.941927223989277529e+00 5.219760378432027892e+02
1.942027245994118356e+00 5.219490246479151665e+02
1.942127267998959628e+00 5.219220285205068421e+02
1.942227290003800677e+00 5.218950505395671371e+02
1.942327312008641726e+00 5.218680917854143217e+02
1.942427334013482998e+00 5.218411533400686722e+02
1.942527356018324047e+00 5.218142362872140438e+02
1.942627378023165097e+00 5.217873417121681996e+02
1.942727400028005924e+00 5.217604707018477939e+02
1.942827422032846973e+00 5.217336243447366542e+02
1.942927444037688023e+00 5.217068037308505382e+02
1.943027466042529294e+00 5.216800099517059834e+02
1.943127488047370344e+00 5.216532441002843825e+02
1.943227510052211393e+00 5.216265072710002642e+02
1.943327532057052665e+00 5.215998005596675284e+02
1.943427554061893492e+00 5.215731250634638627e+02
1.943527576066734541e+00 5.215464818808997052e+02
1.943627598071575591e+00 5.215198721117818650e+02
1.943727620076416640e+00 5.214932968571815763e+02
1.943827642081257689e+00 5.214667572193991418e+02
1.943927664086098961e+00 5.214402543019311906e+02
1.944027686090939788e+00 5.214137892094339577e+02
1.944127708095780838e+00 5.213873630476928156e+02
1.944227730100621887e+00 5.213609769235853264e+02
1.944327752105463158e+00 5.213346319450470219e+02
1.944427774110304208e+00 5.213083292210386617e+02
1.944527796115145257e+00 5.212820698615107631e+02
1.944627818119986307e+00 5.212558549773679033e+02
1.944727840124827134e+00 5.212296856804373419e+02
1.944827862129668183e+00 5.212035630834296853e+02
1.944927884134509455e+00 5.211774882999098963e+02
1.945027906139350504e+00 5.211514624442586410e+02
1.945127928144191554e+00 5.211254866316373864e+02
1.945227950149032825e+00 5.210995619779557728e+02
1.945327972153873874e+00 5.210736895998358023e+02
1.945427994158714702e+00 5.210478706145761407e+02
1.945528016163555751e+00 5.210221061401174438e+02
1.945628038168396801e+00 5.209963972950090465e+02
1.945728060173237850e+00 5.209707451983709916e+02
1.945828082178079121e+00 5.209451509698612881e+02
1.945928104182920171e+00 5.209196157296396450e+02
1.946028126187761220e+00 5.208941405983312052e+02
1.946128148192602048e+00 5.208687266969945995e+02
1.946228170197443319e+00 5.208433751470832931e+02
1.946328192202284368e+00 5.208180870704115932e+02
1.946428214207125418e+00 5.207928635891197473e+02
1.946528236211966467e+00 5.207677058256373357e+02
1.946628258216807517e+00 5.207426149026485973e+02
1.946728280221648788e+00 5.207175919430578688e+02
1.946828302226489615e+00 5.206926380699513857e+02
1.946928324231330665e+00 5.206677544065646543e+02
1.947028346236171714e+00 5.206429420762448217e+02
1.947128368241012986e+00 5.206182022024164553e+02
1.947228390245854035e+00 5.205935359085449363e+02
1.947328412250695084e+00 5.205689443181012166e+02
1.947428434255536134e+00 5.205444285545254388e+02
1.947528456260376961e+00 5.205199897411939673e+02
1.947628478265218011e+00 5.204956290013782336e+02
1.947728500270059282e+00 5.204713474582149502e+02
1.947828522274900331e+00 5.204471462346666613e+02
1.947928544279741381e+00 5.204230264534865000e+02
1.948028566284582652e+00 5.203989892371836277e+02
1.948128588289423702e+00 5.203750357079850346e+02
1.948228610294264529e+00 5.203511669878032535e+02
1.948328632299105578e+00 5.203273841981967962e+02
1.948428654303946628e+00 5.203036884603358203e+02
1.948528676308787677e+00 5.202800808949671136e+02
1.948628698313628949e+00 5.202565626223768049e+02
1.948728720318469998e+00 5.202331347623551210e+02
1.948828742323311047e+00 5.202097984341596657e+02
1.948928764328151875e+00 5.201865547564807457e+02
1.949028786332993146e+00 5.201634048474043084e+02
1.949128808337834196e+00 5.201403498243770400e+02
1.949228830342675245e+00 5.201173908041678260e+02
1.949328852347516294e+00 5.200945289028363732e+02
1.949428874352357344e+00 5.200717652356931922e+02
1.949528896357198615e+00 5.200491009172642407e+02
1.949628918362039443e+00 5.200265370612570450e+02
1.949728940366880492e+00 5.200040747805223873e+02
1.949828962371721541e+00 5.199817151870200860e+02
1.949928984376562813e+00 5.199594593917813654e+02
1.950029006381403862e+00 5.199373085048748635e+02
1.950129028386244912e+00 5.199152636353680919e+02
1.950229050391085961e+00 5.198933258912945803e+02
1.950329072395926788e+00 5.198714963796159054e+02
1.950429094400767838e+00 5.198497762061848562e+02
1.950529116405609109e+00 5.198281664757120097e+02
1.950629138410450159e+00 5.198066682917286698e+02
1.950729160415291208e+00 5.197852827565504867e+02
1.950829182420132479e+00 5.197640109712428966e+02
1.950929204424973529e+00 5.197428540355825817e+02
1.951029226429814356e+00 5.197218130480257514e+02
1.951129248434655405e+00 5.197008891056672155e+02
1.951229270439496455e+00 5.196800833042100294e+02
1.951329292444337504e+00 5.196593967379251353e+02
1.951429314449178776e+00 5.196388304996187344e+02
1.951529336454019825e+00 5.196183856805932919e+02
1.951629358458860874e+00 5.195980633706166145e+02
1.951729380463701702e+00 5.195778646578804683e+02
1.951829402468542973e+00 5.195577906289698831e+02
1.951929424473384023e+00 5.195378423688234761e+02
1.952029446478225072e+00 5.195180209607012785e+02
1.952129468483066121e+00 5.194983274861476730e+02
1.952229490487907171e+00 5.194787630249539916e+02
1.952329512492748442e+00 5.194593286551264555e+02
1.952429534497589270e+00 5.194400254528477490e+02
1.952529556502430319e+00 5.194208544924445050e+02
1.952629578507271368e+00 5.194018168463478560e+02
1.952729600512112640e+00 5.193829135850621697e+02
1.952829622516953689e+00 5.193641457771274190e+02
1.952929644521794739e+00 5.193455144890842803e+02
1.953029666526635788e+00 5.193270207854395721e+02
1.953129688531476615e+00 5.193086657286283980e+02
1.953229710536317665e+00 5.192904503789831097e+02
1.953329732541158936e+00 5.192723757946965861e+02
1.953429754545999986e+00 5.192544430317841488e+02
1.953529776550841035e+00 5.192366531440526387e+02
1.953629798555682306e+00 5.192190071830635816e+02
1.953729820560523356e+00 5.192015061980982864e+02
1.953829842565364183e+00 5.191841512361237392e+02
1.953929864570205233e+00 5.191669433417564505e+02
1.954029886575046282e+00 5.191498835572285770e+02
1.954129908579887331e+00 5.191329729223523373e+02
1.954229930584728603e+00 5.191162124744880657e+02
1.954329952589569652e+00 5.190996032485053320e+02
1.954429974594410702e+00 5.190831462767509947e+02
1.954529996599251529e+00 5.190668425890158915e+02
1.954630018604092800e+00 5.190506932124973218e+02
1.954730040608933850e+00 5.190346991717656238e+02
1.954830062613774899e+00 5.190188614887323411e+02
1.954930084618615949e+00 5.190031811826119110e+02
1.955030106623456998e+00 5.189876592698910827e+02
1.955130128628298269e+00 5.189722967642929916e+02
1.955230150633139097e+00 5.189570946767421447e+02
1.955330172637980146e+00 5.189420540153336106e+02
1.955430194642821196e+00 5.189271757852964129e+02
1.955530216647662467e+00 5.189124609889591966e+02
1.955630238652503516e+00 5.188979106257208969e+02
1.955730260657344566e+00 5.188835256920090160e+02
1.955830282662185615e+00 5.188693071812559765e+02
1.955930304667026443e+00 5.188552560838568297e+02
1.956030326671867492e+00 5.188413733871419709e+02
1.956130348676708763e+00 5.188276600753385992e+02
1.956230370681549813e+00 5.188141171295415006e+02
1.956330392686390862e+00 5.188007455276778046e+02
1.956430414691232134e+00 5.187875462444751520e+02
1.956530436696073183e+00 5.187745202514264520e+02
1.956630458700914010e+00 5.187616685167595278e+02
1.956730480705755060e+00 5.187489920054014192e+02
1.956830502710596109e+00 5.187364916789485960e+02
1.956930524715437159e+00 5.187241684956317158e+02
1.957030546720278430e+00 5.187120234102836775e+02
1.957130568725119479e+00 5.187000573743082441e+02
1.957230590729960529e+00 5.186882713356462773e+02
1.957330612734801356e+00 5.186766662387434508e+02
1.957430634739642628e+00 5.186652430245187588e+02
1.957530656744483677e+00 5.186540026303315472e+02
1.957630678749324726e+00 5.186429459899491121e+02
1.957730700754165776e+00 5.186320740335170285e+02
1.957830722759006825e+00 5.186213876875233382e+02
1.957930744763848097e+00 5.186108878747709241e+02
1.958030766768688924e+00 5.186005755143424949e+02
1.958130788773529973e+00 5.185904515215707988e+02
1.958230810778371023e+00 5.185805168080064504e+02
1.958330832783212294e+00 5.185707722813873488e+02
1.958430854788053344e+00 5.185612188456063905e+02
1.958530876792894393e+00 5.185518574006798644e+02
1.958630898797735442e+00 5.185426888427184622e+02
1.958730920802576270e+00 5.185337140638932851e+02
1.958830942807417319e+00 5.185249339524094694e+02
1.958930964812258591e+00 5.185163493924701470e+02
1.959030986817099640e+00 5.185079612642491611e+02
1.959131008821940689e+00 5.184997704438598021e+02
1.959231030826781961e+00 5.184917778033236573e+02
1.959331052831623010e+00 5.184839842105416210e+02
1.959431074836463837e+00 5.184763905292622894e+02
1.959531096841304887e+00 5.184689976190541074e+02
1.959631118846145936e+00 5.184618063352714898e+02
1.959731140850986986e+00 5.184548175290295831e+02
1.959831162855828257e+00 5.184480320471702726e+02
1.959931184860669307e+00 5.184414507322359214e+02
1.960031206865510356e+00 5.184350744224385608e+02
1.960131228870351183e+00 5.184289039516297635e+02
1.960231250875192455e+00 5.184229401492730176e+02
1.960331272880033504e+00 5.184171838404132586e+02
1.960431294884874553e+00 5.184116358456479929e+02
1.960531316889715603e+00 5.184062969811002404e+02
1.960631338894556652e+00 5.184011680583857924e+02
1.960731360899397924e+00 5.183962498845900200e+02
1.960831382904238751e+00 5.183915432622351318e+02
1.960931404909079800e+00 5.183870489892526621e+02
1.961031426913920850e+00 5.183827678589569814e+02
1.961131448918762121e+00 5.183787006600153973e+02
1.961231470923603171e+00 5.183748481764209828e+02
1.961331492928444220e+00 5.183712111874646098e+02
1.961431514933285047e+00 5.183677904677064134e+02
1.961531536938126097e+00 5.183645867869506674e+02
1.961631558942967146e+00 5.183616009102156568e+02
1.961731580947808418e+00 5.183588335977079851e+02
1.961831602952649467e+00 5.183562856047938112e+02
1.961931624957490516e+00 5.183539576819746344e+02
1.962031646962331788e+00 5.183518505748576217e+02
1.962131668967172615e+00 5.183499650241311656e+02
1.962231690972013665e+00 5.183483017655355525e+02
1.962331712976854714e+00 5.183468615298394297e+02
1.962431734981695763e+00 5.183456450428116113e+02
1.962531756986536813e+00 5.183446530251964077e+02
1.962631778991378084e+00 5.183438861926860000e+02
1.962731800996219134e+00 5.183433452558950876e+02
1.962831823001059961e+00 5.183430309203364459e+02
1.962931845005901010e+00 5.183429438863943233e+02
1.963031867010742282e+00 5.183430848492976111e+02
1.963131889015583331e+00 5.183434544990983568e+02
1.963231911020424381e+00 5.183440535206424329e+02
1.963331933025265430e+00 5.183448825935481636e+02
1.963431955030106479e+00 5.183459423921779035e+02
1.963531977034947307e+00 5.183472335856176869e+02
1.963631999039788578e+00 5.183487568376494892e+02
1.963732021044629628e+00 5.183505128067266696e+02
1.963832043049470677e+00 5.183525021459538493e+02
1.963932065054311948e+00 5.183547255030564429e+02
1.964032087059152998e+00 5.183571835203633782e+02
1.964132109063994047e+00 5.183598768347794703e+02
1.964232131068834875e+00 5.183628060777621158e+02
1.964332153073675924e+00 5.183659718753000334e+02
1.964432175078516973e+00 5.183693748478868883e+02
1.964532197083358245e+00 5.183730156105011702e+02
1.964632219088199294e+00 5.183768947725828866e+02
1.964732241093040344e+00 5.183810129380080980e+02
1.964832263097881615e+00 5.183853707050703861e+02
1.964932285102722442e+00 5.183899686664548199e+02
1.965032307107563492e+00 5.183948074092181741e+02
1.965132329112404541e+00 5.183998875147658509e+02
1.965232351117245591e+00 5.184052095588308475e+02
1.965332373122086640e+00 5.184107741114499959e+02
1.965432395126927911e+00 5.184165817369449769e+02
1.965532417131768961e+00 5.184226329938999243e+02
1.965632439136609788e+00 5.184289284351385731e+02
1.965732461141450838e+00 5.184354686077065253e+02
1.965832483146292109e+00 5.184422540528468062e+02
1.965932505151133158e+00 5.184492853059826984e+02
1.966032527155974208e+00 5.184565628966940949e+02
1.966132549160815257e+00 5.184640873486996497e+02
1.966232571165656307e+00 5.184718591798346097e+02
1.966332593170497134e+00 5.184798789020326240e+02
1.966432615175338405e+00 5.184881470213035755e+02
1.966532637180179455e+00 5.184966640377174372e+02
1.966632659185020504e+00 5.185054304453810801e+02
1.966732681189861776e+00 5.185144467324216748e+02
1.966832703194702825e+00 5.185237133809665693e+02
1.966932725199543874e+00 5.185332308671237342e+02
1.967032747204384702e+00 5.185429996609652790e+02
1.967132769209225751e+00 5.185530202265055095e+02
1.967232791214066800e+00 5.185632930216867180e+02
1.967332813218908072e+00 5.185738184983571273e+02
1.967432835223749121e+00 5.185845971022540652e+02
1.967532857228590171e+00 5.185956292729886172e+02
1.967632879233431442e+00 5.186069154440242528e+02
1.967732901238272269e+00 5.186184560426619328e+02
1.967832923243113319e+00 5.186302514900222604e+02
1.967932945247954368e+00 5.186423022010269506e+02
1.968032967252795418e+00 5.186546085843860965e+02
1.968132989257636467e+00 5.186671710425752053e+02
1.968233011262477739e+00 5.186799899718242841e+02
1.968333033267318788e+00 5.186930657620986267e+02
1.968433055272159615e+00 5.187063987970833523e+02
1.968533077277000665e+00 5.187199894541688536e+02
1.968633099281841936e+00 5.187338381044328344e+02
1.968733121286682985e+00 5.187479451126243930e+02
1.968833143291524035e+00 5.187623108371528815e+02
1.968933165296365084e+00 5.187769356300677828e+02
1.969033187301206134e+00 5.187918198370471146e+02
1.969133209306046961e+00 5.188069637973804902e+02
1.969233231310888232e+00 5.188223678439563855e+02
1.969333253315729282e+00 5.188380323032459955e+02
1.969433275320570331e+00 5.188539574952902740e+02
1.969533297325411603e+00 5.188701437336865183e+02
1.969633319330252652e+00 5.188865913255725673e+02
1.969733341335093701e+00 5.189033005716145226e+02
1.969833363339934529e+00 5.189202717659939026e+02
1.969933385344775578e+00 5.189375051963925216e+02
1.970033407349616628e+00 5.189550011439824857e+02
1.970133429354457899e+00 5.189727598834102764e+02
1.970233451359298948e+00 5.189907816827862916e+02
1.970333473364139998e+00 5.190090668036709758e+02
1.970433495368981269e+00 5.190276155010647017e+02
1.970533517373822097e+00 5.190464280233928775e+02
1.970633539378663146e+00 5.190655046124969658e+02
1.970733561383504195e+00 5.190848455036214091e+02
1.970833583388345245e+00 5.191044509254021477e+02
1.970933605393186294e+00 5.191243210998562745e+02
1.971033627398027566e+00 5.191444562423711204e+02
1.971133649402868615e+00 5.191648565616924316e+02
1.971233671407709442e+00 5.191855222599140234e+02
1.971333693412550492e+00 5.192064535324687995e+02
1.971433715417391763e+00 5.192276505681174967e+02
1.971533737422232813e+00 5.192491135489384533e+02
1.971633759427073862e+00 5.192708426503184000e+02
1.971733781431914911e+00 5.192928380409424562e+02
1.971833803436755961e+00 5.193150998827871945e+02
1.971933825441596788e+00 5.193376283311062025e+02
1.972033847446438060e+00 5.193604235344282642e+02
1.972133869451279109e+00 5.193834856345421258e+02
1.972233891456120158e+00 5.194068147664918342e+02
1.972333913460961430e+00 5.194304110585674152e+02
1.972433935465802479e+00 5.194542746322968014e+02
1.972533957470643529e+00 5.194784056024387837e+02
1.972633979475484356e+00 5.195028040769734616e+02
1.972734001480325405e+00 5.195274701570956495e+02
1.972834023485166455e+00 5.195524039372095331e+02
1.972934045490007726e+00 5.195776055049192337e+02
1.973034067494848776e+00 5.196030749410223279e+02
1.973134089499689825e+00 5.196288123195040498e+02
1.973234111504531096e+00 5.196548177075313788e+02
1.973334133509371924e+00 5.196810911654449683e+02
1.973434155514212973e+00 5.197076327467550527e+02
1.973534177519054023e+00 5.197344424981350812e+02
1.973634199523895072e+00 5.197615204594156921e+02
1.973734221528736121e+00 5.197888666635799382e+02
1.973834243533577393e+00 5.198164811367573748e+02
1.973934265538418442e+00 5.198443638982213315e+02
1.974034287543259270e+00 5.198725149603816362e+02
1.974134309548100319e+00 5.199009343287809770e+02
1.974234331552941590e+00 5.199296220020917190e+02
1.974334353557782640e+00 5.199585779721110157e+02
1.974434375562623689e+00 5.199878022237555797e+02
1.974534397567464739e+00 5.200172947350622508e+02
1.974634419572305788e+00 5.200470554771791285e+02
1.974734441577146615e+00 5.200770844143667091e+02
1.974834463581987887e+00 5.201073815039928832e+02
1.974934485586828936e+00 5.201379466965305483e+02
1.975034507591669986e+00 5.201687799355555626e+02
1.975134529596511257e+00 5.201998811577439028e+02
1.975234551601352306e+00 5.202312502928691629e+02
1.975334573606193356e+00 5.202628872638019857e+02
1.975434595611034183e+00 5.202947919865073345e+02
1.975534617615875232e+00 5.203269643700427878e+02
1.975634639620716282e+00 5.203594043165589937e+02
1.975734661625557553e+00 5.203921117212960326e+02
1.975834683630398603e+00 5.204250864725852352e+02
1.975934705635239652e+00 5.204583284518470236e+02
1.976034727640080924e+00 5.204918375335911378e+02
1.976134749644921751e+00 5.205256135854150443e+02
1.976234771649762800e+00 5.205596564680066649e+02
1.976334793654603850e+00 5.205939660351430120e+02
1.976434815659444899e+00 5.206285421336903028e+02
1.976534837664285948e+00 5.206633846036054365e+02
1.976634859669127220e+00 5.206984932779369046e+02
1.976734881673968269e+00 5.207338679828250179e+02
1.976834903678809097e+00 5.207695085375055442e+02
1.976934925683650146e+00 5.208054147543076624e+02
1.977034947688491417e+00 5.208415864386591920e+02
1.977134969693332467e+00 5.208780233890871614e+02
1.977234991698173516e+00 5.209147253972198541e+02
1.977335013703014566e+00 5.209516922477891967e+02
1.977435035707855615e+00 5.209889237186337141e+02
1.977535057712696442e+00 5.210264195807022816e+02
1.977635079717537714e+00 5.210641795980549205e+02
1.977735101722378763e+00 5.211022035278676867e+02
1.977835123727219813e+00 5.211404911204385826e+02
1.977935145732061084e+00 5.211790421191844871e+02
1.978035167736902133e+00 5.212178562606526384e+02
1.978135189741743183e+00 5.212569332745200654e+02
1.978235211746584010e+00 5.212962728835993858e+02
1.978335233751425060e+00 5.213358748038444901e+02
1.978435255756266109e+00 5.213757387443528160e+02
1.978535277761107380e+00 5.214158644073730784e+02
1.978635299765948430e+00 5.214562514883083395e+02
1.978735321770789479e+00 5.214968996757228297e+02
1.978835343775630307e+00 5.215378086513480866e+02
1.978935365780471578e+00 5.215789780900860251e+02
1.979035387785312627e+00 5.216204076600192820e+02
1.979135409790153677e+00 5.216620970224133771e+02
1.979235431794994726e+00 5.217040458317256935e+02
1.979335453799835776e+00 5.217462537356124130e+02
1.979435475804677047e+00 5.217887203749343143e+02
1.979535497809517874e+00 5.218314453837637075e+02
1.979635519814358924e+00 5.218744283893930742e+02
1.979735541819199973e+00 5.219176690123425715e+02
1.979835563824041245e+00 5.219611668663659430e+02
1.979935585828882294e+00 5.220049215584612057e+02
1.980035607833723343e+00 5.220489326888781534e+02
1.980135629838564393e+00 5.220931998511242682e+02
1.980235651843405220e+00 5.221377226319777947e+02
1.980335673848246270e+00 5.221825006114925145e+02
1.980435695853087541e+00 5.222275333630090017e+02
1.980535717857928590e+00 5.222728204531645133e+02
1.980635739862769640e+00 5.223183614419004925e+02
1.980735761867610911e+00 5.223641558824733693e+02
1.980835783872451961e+00 5.224102033214653602e+02
1.980935805877292788e+00 5.224565032987925406e+02
1.981035827882133837e+00 5.225030553477180320e+02
1.981135849886974887e+00 5.225498589948580275e+02
1.981235871891815936e+00 5.225969137601989587e+02
1.981335893896657208e+00 5.226442191571020430e+02
1.981435915901498257e+00 5.226917746923202230e+02
1.981535937906339306e+00 5.227395798660038508e+02
1.981635959911180134e+00 5.227876341717169453e+02
1.981735981916021405e+00 5.228359370964481059e+02
1.981836003920862455e+00 5.228844881206193804e+02
1.981936025925703504e+00 5.229332867181022948e+02
1.982036047930544553e+00 5.229823323562297901e+02
1.982136069935385603e+00 5.230316244958057723e+02
1.982236091940226874e+00 5.230811625911219380e+02
1.982336113945067702e+00 5.231309460899676651e+02
1.982436135949908751e+00 5.231809744336461563e+02
1.982536157954749800e+00 5.232312470569846710e+02
1.982636179959591072e+00 5.232817633883512372e+02
1.982736201964432121e+00 5.233325228496674981e+02
1.982836223969273171e+00 5.233835248564212179e+02
1.982936245974114220e+00 5.234347688176829934e+02
1.983036267978955047e+00 5.234862541361187596e+02
1.983136289983796097e+00 5.235379802080058198e+02
1.983236311988637368e+00 5.235899464232480796e+02
1.983336333993478418e+00 5.236421521653886657e+02
1.983436355998319467e+00 5.236945968116281165e+02
1.983536378003160738e+00 5.237472797328382512e+02
1.983636400008001788e+00 5.238002002935786550e+02
1.983736422012842615e+00 5.238533578521116851e+02
1.983836444017683664e+00 5.239067517604189561e+02
1.983936466022524714e+00 5.239603813642182786e+02
1.984036488027365763e+00 5.240142460029800304e+02
1.984136510032207035e+00 5.240683450099419360e+02
1.984236532037048084e+00 5.241226777121289615e+02
1.984336554041889134e+00 5.241772434303676391e+02
1.984436576046729961e+00 5.242320414793057353e+02
1.984536598051571232e+00 5.242870711674280528e+02
1.984636620056412282e+00 5.243423317970739390e+02
1.984736642061253331e+00 5.243978226644580900e+02
1.984836664066094380e+00 5.244535430596830565e+02
1.984936686070935430e+00 5.245094922667631181e+02
1.985036708075776701e+00 5.245656695636400855e+02
1.985136730080617529e+00 5.246220742222020590e+02
1.985236752085458578e+00 5.246787055083018458e+02
1.985336774090299627e+00 5.247355626817765142e+02
1.985436796095140899e+00 5.247926449964684252e+02
1.985536818099981948e+00 5.248499517002403536e+02
1.985636840104822998e+00 5.249074820349995889e+02
1.985736862109664047e+00 5.249652352367146477e+02
1.985836884114504874e+00 5.250232105354360783e+02
1.985936906119345924e+00 5.250814071553166968e+02
1.986036928124187195e+00 5.251398243146340974e+02
1.986136950129028245e+00 5.251984612258057723e+02
1.986236972133869294e+00 5.252573170954153738e+02
1.986336994138710565e+00 5.253163911242309041e+02
1.986437016143551615e+00 5.253756825072255197e+02
1.986537038148392442e+00 5.254351904335999279e+02
1.986637060153233492e+00 5.254949140868038739e+02
1.986737082158074541e+00 5.255548526445571724e+02
1.986837104162915590e+00 5.256150052788705125e+02
1.986937126167756862e+00 5.256753711560692182e+02
1.987037148172597911e+00 5.257359494368149626e+02
1.987137170177438961e+00 5.257967392761279370e+02
1.987237192182279788e+00 5.258577398234083375e+02
1.987337214187121059e+00 5.259189502224605803e+02
1.987437236191962109e+00 5.259803696115159255e+02
1.987537258196803158e+00 5.260419971232541911e+02
1.987637280201644208e+00 5.261038318848291055e+02
1.987737302206485257e+00 5.261658730178899077e+02
1.987837324211326528e+00 5.262281196386054489e+02
1.987937346216167356e+00 5.262905708576877259e+02
1.988037368221008405e+00 5.263532257804178016e+02
1.988137390225849455e+00 5.264160835066654727e+02
1.988237412230690726e+00 5.264791431309186009e+02
1.988337434235531775e+00 5.265424037423039181e+02
1.988437456240372825e+00 5.266058644246128324e+02
1.988537478245213874e+00 5.266695242563268948e+02
1.988637500250054702e+00 5.267333823106419004e+02
1.988737522254895751e+00 5.267974376554926721e+02
1.988837544259737022e+00 5.268616893535792087e+02
1.988937566264578072e+00 5.269261364623911277e+02
1.989037588269419121e+00 5.269907780342342676e+02
1.989137610274260393e+00 5.270556131162559268e+02
1.989237632279101442e+00 5.271206407504708977e+02
1.989337654283942269e+00 5.271858599737872737e+02
1.989437676288783319e+00 5.272512698180328243e+02
1.989537698293624368e+00 5.273168693099808024e+02
1.989637720298465418e+00 5.273826574713798436e+02
1.989737742303306689e+00 5.274486333189738616e+02
1.989837764308147738e+00 5.275147958645358131e+02
1.989937786312988788e+00 5.275811441148919130e+02
1.990037808317829615e+00 5.276476770719478964e+02
1.990137830322670887e+00 5.277143937327166441e+02
1.990237852327511936e+00 5.277812930893492194e+02
1.990337874332352985e+00 5.278483741291561273e+02
1.990437896337194035e+00 5.279156358346407387e+02
1.990537918342035084e+00 5.279830771835244150e+02
1.990637940346876356e+00 5.280506971487754981e+02
1.990737962351717183e+00 5.281184946986372779e+02
1.990837984356558232e+00 5.281864687966565270e+02
1.990938006361399282e+00 5.282546184017114683e+02
1.991038028366240553e+00 5.283229424680422426e+02
1.991138050371081603e+00 5.283914399452766020e+02
1.991238072375922652e+00 5.284601097784626518e+02
1.991338094380763701e+00 5.285289509080940888e+02
1.991438116385604529e+00 5.285979622701441940e+02
1.991538138390445578e+00 5.286671427960892515e+02
1.991638160395286850e+00 5.287364914129433373e+02
1.991738182400127899e+00 5.288060070432861721e+02
1.991838204404968948e+00 5.288756886052915434e+02
1.991938226409810220e+00 5.289455350127593647e+02
1.992038248414651269e+00 5.290155451751446662e+02
1.992138270419492097e+00 5.290857179975885174e+02
1.992238292424333146e+00 5.291560523809470169e+02
1.992338314429174195e+00 5.292265472218232389e+02
1.992438336434015245e+00 5.292972014125974738e+02
1.992538358438856516e+00 5.293680138414580369e+02
1.992638380443697566e+00 5.294389833924318509e+02
1.992738402448538615e+00 5.295101089454151406e+02
1.992838424453379442e+00 5.295813893762060616e+02
1.992938446458220714e+00 5.296528235565340310e+02
1.993038468463061763e+00 5.297244103540932656e+02
1.993138490467902812e+00 5.297961486325714304e+02
1.993238512472743862e+00 5.298680372516852231e+02
1.993338534477584911e+00 5.299400750672089089e+02
1.993438556482426183e+00 5.300122609310067219e+02
1.993538578487267010e+00 5.300845936910666296e+02
1.993638600492108059e+00 5.301570721915308013e+02
1.993738622496949109e+00 5.302296952727283497e+02
1.993838644501790380e+00 5.303024617712080726e+02
1.993938666506631430e+00 5.303753705197705131e+02
1.994038688511472479e+00 5.304484203475009281e+02
1.994138710516313528e+00 5.305216100798012349e+02
1.994238732521154356e+00 5.305949385384255947e+02
1.994338754525995405e+00 5.306684045415081528e+02
1.994438776530836677e+00 5.307420069036008954e+02
1.994538798535677726e+00 5.308157444357053691e+02
1.994638820540518775e+00 5.308896159453066730e+02
1.994738842545360047e+00 5.309636202364033579e+02
1.994838864550201096e+00 5.310377561095455121e+02
1.994938886555041924e+00 5.311120223618660248e+02
1.995038908559882973e+00 5.311864177871146921e+02
1.995138930564724022e+00 5.312609411756924374e+02
1.995238952569565072e+00 5.313355913146841658e+02
1.995338974574406343e+00 5.314103669878944629e+02
1.995438996579247393e+00 5.314852669758801085e+02
1.995539018584088442e+00 5.315602900559853197e+02
1.995639040588929269e+00 5.316354350023756297e+02
1.995739062593770541e+00 5.317107005860727895e+02
1.995839084598611590e+00 5.317860855749884195e+02
1.995939106603452640e+00 5.318615887339601613e+02
1.996039128608293689e+00 5.319372088247841930e+02
1.996139150613134738e+00 5.320129446062529723e+02
1.996239172617975566e+00 5.320887948341862739e+02
1.996339194622816837e+00 5.321647582614706380e+02
1.996439216627657887e+00 5.322408336380910896e+02
1.996539238632498936e+00 5.323170197111667221e+02
1.996639260637340207e+00 5.323933152249887826e+02
1.996739282642181257e+00 5.324697189210511397e+02
1.996839304647022306e+00 5.325462295380915521e+02
1.996939326651863134e+00 5.326228458121209997e+02
1.997039348656704183e+00 5.326995664764648382e+02
1.997139370661545232e+00 5.327763902617946314e+02
1.997239392666386504e+00 5.328533158961668050e+02
1.997339414671227553e+00 5.329303421050550469e+02
1.997439436676068603e+00 5.330074676113897567e+02
1.997539458680909874e+00 5.330846911355918110e+02
1.997639480685750701e+00 5.331620113956095111e+02
1.997739502690591751e+00 5.332394271069542810e+02
1.997839524695432800e+00 5.333169369827373885e+02
1.997939546700273850e+00 5.333945397337063241e+02
1.998039568705114899e+00 5.334722340682795902e+02
1.998139590709956170e+00 5.335500186925858088e+02
1.998239612714797220e+00 5.336278923104979413e+02
1.998339634719638047e+00 5.337058536236711461e+02
1.998439656724479097e+00 5.337839013315791590e+02
1.998539678729320368e+00 5.338620341315498763e+02
1.998639700734161417e+00 5.339402507188027585e+02
1.998739722739002467e+00 5.340185497864879380e+02
1.998839744743843516e+00 5.340969300257195300e+02
1.998939766748684566e+00 5.341753901256141717e+02
1.999039788753525393e+00 5.342539287733296760e+02
1.999139810758366664e+00 5.343325446540975463e+02
1.999239832763207714e+00 5.344112364512656086e+02
1.999339854768048763e+00 5.344900028463307535e+02
1.999439876772890035e+00 5.345688425189794089e+02
1.999539898777731084e+00 5.346477541471230097e+02
1.999639920782572133e+00 5.347267364069340374e+02
1.999739942787412961e+00 5.348057879728884245e+02
1.999839964792254010e+00 5.348849075177961367e+02
1.999939986797095060e+00 5.349640937128446012e+02
2.000040008801936331e+00 5.172664317511861327e+02
2.000140030806777602e+00 5.171423764780253123e+02
2.000240052811618430e+00 5.170186109042182352e+02
2.000340074816459701e+00 5.168951397299784958e+02
2.000440096821300529e+00 5.167719676549364749e+02
2.000540118826141356e+00 5.166490993779860901e+02
2.000640140830982627e+00 5.165265395971322278e+02
2.000740162835823899e+00 5.164042930093372661e+02
2.000840184840664726e+00 5.162823643103661198e+02
2.000940206845505998e+00 5.161607581946353775e+02
2.001040228850347269e+00 5.160394793550577788e+02
2.001140250855187652e+00 5.159185324828889634e+02
2.001240272860028924e+00 5.157979222675742221e+02
2.001340294864870195e+00 5.156776533965927456e+02
2.001440316869711022e+00 5.155577305553058522e+02
2.001540338874552294e+00 5.154381584268015786e+02
2.001640360879393565e+00 5.153189416917409744e+02
2.001740382884234393e+00 5.152000850282031479e+02
2.001840404889075220e+00 5.150815931115315607e+02
2.001940426893916491e+00 5.149634706141800962e+02
2.002040448898757319e+00 5.148457222055561715e+02
2.002140470903598590e+00 5.147283525518699889e+02
2.002240492908439862e+00 5.146113663159766247e+02
2.002340514913280689e+00 5.144947681572234615e+02
2.002440536918121960e+00 5.143785627312943234e+02
2.002540558922962788e+00 5.142627546900549760e+02
2.002640580927804059e+00 5.141473486813990803e+02
2.002740602932644887e+00 5.140323493490934652e+02
2.002840624937486158e+00 5.139177613326219216e+02
2.002940646942326985e+00 5.138035892670318390e+02
2.003040668947168257e+00 5.136898377827794775e+02
2.003140690952009528e+00 5.135765115055735350e+02
2.003240712956850356e+00 5.134636150562218972e+02
2.003340734961691183e+00 5.133511530504767961e+02
2.003440756966532454e+00 5.132391300988795138e+02
2.003540778971373726e+00 5.131275508066055409e+02
2.003640800976214553e+00 5.130164197733095079e+02
2.003740822981055825e+00 5.129057415929717081e+02
2.003840844985896652e+00 5.127955208537421186e+02
2.003940866990737923e+00 5.126857621377870373e+02
2.004040888995578751e+00 5.125764700211327636e+02
2.004140911000420022e+00 5.124676490735122343e+02
2.004240933005260850e+00 5.123593038582107511e+02
2.004340955010102121e+00 5.122514389319096608e+02
2.004440977014943392e+00 5.121440588445345838e+02
2.004540999019784220e+00 5.120371681390990943e+02
2.004641021024625047e+00 5.119307713515512432e+02
2.004741043029466319e+00 5.118248730106192852e+02
2.004841065034307590e+00 5.117194776376571212e+02
2.004941087039148417e+00 5.116145897464913332e+02
2.005041109043989689e+00 5.115102138432654897e+02
2.005141131048830516e+00 5.114063544262889991e+02
2.005241153053671788e+00 5.113030159858803358e+02
2.005341175058512615e+00 5.112002030042147567e+02
2.005441197063353886e+00 5.110979199551721877e+02
2.005541219068194714e+00 5.109961713041809617e+02
2.005641241073035985e+00 5.108949615080671265e+02
2.005741263077877257e+00 5.107942950148996033e+02
2.005841285082718084e+00 5.106941762638385853e+02
2.005941307087559355e+00 5.105946096849799005e+02
2.006041329092400183e+00 5.104955996992069345e+02
2.006141351097241010e+00 5.103971507180331741e+02
2.006241373102082282e+00 5.102992671434528233e+02
2.006341395106923553e+00 5.102019533677872118e+02
2.006441417111764380e+00 5.101052137735334213e+02
2.006541439116605652e+00 5.100090527332112629e+02
2.006641461121446923e+00 5.099134746092130399e+02
2.006741483126287307e+00 5.098184837536506393e+02
2.006841505131128578e+00 5.097240845082040437e+02
2.006941527135969849e+00 5.096302812039712649e+02
2.007041549140810677e+00 5.095370781613163444e+02
2.007141571145651948e+00 5.094444796897182641e+02
2.007241593150493220e+00 5.093524900876221295e+02
2.007341615155334047e+00 5.092611136422855793e+02
2.007441637160174874e+00 5.091703546296315608e+02
2.007541659165016146e+00 5.090802173140965579e+02
2.007641681169856973e+00 5.089907059484812635e+02
2.007741703174698245e+00 5.089018247738021046e+02
2.007841725179539516e+00 5.088135780191391859e+02
2.007941747184380343e+00 5.087259699014904299e+02
2.008041769189221615e+00 5.086390046256195205e+02
2.008141791194062442e+00 5.085526863839106113e+02
2.008241813198903714e+00 5.084670193562171221e+02
2.008341835203744541e+00 5.083820077097154240e+02
2.008441857208585812e+00 5.082976555987559095e+02
2.008541879213426640e+00 5.082139671647164505e+02
2.008641901218267911e+00 5.081309465358530133e+02
2.008741923223109183e+00 5.080485978271567546e+02
2.008841945227950010e+00 5.079669251402016812e+02
2.008941967232790837e+00 5.078859325630032799e+02
2.009041989237632109e+00 5.078056241698693611e+02
2.009142011242473380e+00 5.077260040212552212e+02
2.009242033247314208e+00 5.076470761636172710e+02
2.009342055252155479e+00 5.075688446292687104e+02
2.009442077256996306e+00 5.074913134362350888e+02
2.009542099261837578e+00 5.074144865881068540e+02
2.009642121266678405e+00 5.073383680738986641e+02
2.009742143271519677e+00 5.072629618679028454e+02
2.009842165276360504e+00 5.071882719295466586e+02
2.009942187281201775e+00 5.071143022032488830e+02
2.010042209286043047e+00 5.070410566182762864e+02
2.010142231290883874e+00 5.069685390886019150e+02
2.010242253295724701e+00 5.068967535127621886e+02
2.010342275300565973e+00 5.068257037737146220e+02
2.010442297305407244e+00 5.067553937386969096e+02
2.010542319310248072e+00 5.066858272590859542e+02
2.010642341315089343e+00 5.066170081702555308e+02
2.010742363319930170e+00 5.065489402914362245e+02
2.010842385324771442e+00 5.064816274255776989e+02
2.010942407329612269e+00 5.064150733592050528e+02
2.011042429334453541e+00 5.063492818622823961e+02
2.011142451339294368e+00 5.062842566880726167e+02
2.011242473344135639e+00 5.062200015729989673e+02
2.011342495348976911e+00 5.061565202365074470e+02
2.011442517353817738e+00 5.060938163809275352e+02
2.011542539358659010e+00 5.060318936913373591e+02
2.011642561363499837e+00 5.059707558354241428e+02
2.011742583368340664e+00 5.059104064633487496e+02
2.011842605373181936e+00 5.058508492076102812e+02
2.011942627378023207e+00 5.057920876829090275e+02
2.012042649382864035e+00 5.057341254860123172e+02
2.012142671387705306e+00 5.056769661956196842e+02
2.012242693392546578e+00 5.056206133722262166e+02
2.012342715397386961e+00 5.055650705579924988e+02
2.012442737402228232e+00 5.055103412766087558e+02
2.012542759407069504e+00 5.054564290331607594e+02
2.012642781411910331e+00 5.054033373140002823e+02
2.012742803416751602e+00 5.053510695866108335e+02
2.012842825421592874e+00 5.052996292994763508e+02
2.012942847426433701e+00 5.052490198819506304e+02
2.013042869431274529e+00 5.051992447441256786e+02
2.013142891436115800e+00 5.051503072767020512e+02
2.013242913440956627e+00 5.051022108508598762e+02
2.013342935445797899e+00 5.050549588181282843e+02
2.013442957450639170e+00 5.050085545102572837e+02
2.013542979455479998e+00 5.049630012390894080e+02
2.013643001460320825e+00 5.049183022964321026e+02
2.013743023465162096e+00 5.048744609539306225e+02
2.013843045470003368e+00 5.048314804629414425e+02
2.013943067474844195e+00 5.047893640544034497e+02
2.014043089479685467e+00 5.047481149387174355e+02
2.014143111484526294e+00 5.047077363056162653e+02
2.014243133489367565e+00 5.046682313240419830e+02
2.014343155494208393e+00 5.046296031420218924e+02
2.014443177499049664e+00 5.045918548865451498e+02
2.014543199503890492e+00 5.045549896634385050e+02
2.014643221508731763e+00 5.045190105572452239e+02
2.014743243513573034e+00 5.044839206311010003e+02
2.014843265518413862e+00 5.044497229266164595e+02
2.014943287523255133e+00 5.044164204637519333e+02
2.015043309528095961e+00 5.043840162407002481e+02
2.015143331532937232e+00 5.043525132337648529e+02
2.015243353537778059e+00 5.043219143972428355e+02
2.015343375542619331e+00 5.042922226633045284e+02
2.015443397547460158e+00 5.042634409418764108e+02
2.015543419552301430e+00 5.042355721205236705e+02
2.015643441557142701e+00 5.042086190643325381e+02
2.015743463561983528e+00 5.041825846157954061e+02
2.015843485566824356e+00 5.041574715946937886e+02
2.015943507571665627e+00 5.041332827979848616e+02
2.016043529576506899e+00 5.041100209996849344e+02
2.016143551581347726e+00 5.040876889507579790e+02
2.016243573586188997e+00 5.040662893789989312e+02
2.016343595591029825e+00 5.040458249889258582e+02
2.016443617595870652e+00 5.040262984616638278e+02
2.016543639600711924e+00 5.040077124548353709e+02
2.016643661605553195e+00 5.039900696024493527e+02
2.016743683610394022e+00 5.039733725147897303e+02
2.016843705615235294e+00 5.039576237783093688e+02
2.016943727620076565e+00 5.039428259555164686e+02
2.017043749624917393e+00 5.039289815848702574e+02
2.017143771629758220e+00 5.039160931806703729e+02
2.017243793634599491e+00 5.039041632329532376e+02
2.017343815639440319e+00 5.038931942073822370e+02
2.017443837644281590e+00 5.038831885451445487e+02
2.017543859649122862e+00 5.038741486628450730e+02
2.017643881653963689e+00 5.038660769524013858e+02
2.017743903658804960e+00 5.038589757809426715e+02
2.017843925663645788e+00 5.038528474907025156e+02
2.017943947668486615e+00 5.038476943989211918e+02
2.018043969673327886e+00 5.038435187977411829e+02
2.018143991678169158e+00 5.038403229541053747e+02
2.018244013683009985e+00 5.038381091096597970e+02
2.018344035687851257e+00 5.038368794806517030e+02
2.018444057692692528e+00 5.038366362578309463e+02
2.018544079697533355e+00 5.038373816063519826e+02
2.018644101702374183e+00 5.038391176656769517e+02
2.018744123707215454e+00 5.038418465494767133e+02
2.018844145712056282e+00 5.038455703455376806e+02
2.018944167716897553e+00 5.038502911156635946e+02
2.019044189721738825e+00 5.038560108955826990e+02
2.019144211726579652e+00 5.038627316948525277e+02
2.019244233731420479e+00 5.038704554967666809e+02
2.019344255736261751e+00 5.038791842582623417e+02
2.019444277741103022e+00 5.038889199098300082e+02
2.019544299745943849e+00 5.038996643554186790e+02
2.019644321750785121e+00 5.039114194723489959e+02
2.019744343755625948e+00 5.039241871112212721e+02
2.019844365760467220e+00 5.039379690958273841e+02
2.019944387765308047e+00 5.039527672230621533e+02
2.020044409770149318e+00 5.039685832628360913e+02
2.020144431774990146e+00 5.039854189579896797e+02
2.020244453779831417e+00 5.040032760242041832e+02
2.020344475784672689e+00 5.040221561499200789e+02
2.020444497789513516e+00 5.040420609962496883e+02
2.020544519794354787e+00 5.040629921968952090e+02
2.020644541799195615e+00 5.040849513580642451e+02
2.020744563804036886e+00 5.041079400583889765e+02
2.020844585808877714e+00 5.041319598488435076e+02
2.020944607813718985e+00 5.041570122526638329e+02
2.021044629818559812e+00 5.041830987652664930e+02
2.021144651823401084e+00 5.042102208541718937e+02
2.021244673828242355e+00 5.042383799589232467e+02
2.021344695833083183e+00 5.042675774910101723e+02
2.021444717837924010e+00 5.042978148337920175e+02
2.021544739842765281e+00 5.043290933424214018e+02
2.021644761847606553e+00 5.043614143437683879e+02
2.021744783852447380e+00 5.043947791363460169e+02
2.021844805857288652e+00 5.044291889902384014e+02
2.021944827862129479e+00 5.044646451470244983e+02
2.022044849866970306e+00 5.045011488197093286e+02
2.022144871871811578e+00 5.045387011926490004e+02
2.022244893876652849e+00 5.045773034214844301e+02
2.022344915881493677e+00 5.046169566330670477e+02
2.022444937886334948e+00 5.046576619253940521e+02
2.022544959891176219e+00 5.046994203675362769e+02
2.022644981896017047e+00 5.047422329995740142e+02
2.022745003900857874e+00 5.047861008325286321e+02
2.022845025905699146e+00 5.048310248482974316e+02
2.022945047910539973e+00 5.048770059995879933e+02
2.023045069915381244e+00 5.049240452098568994e+02
2.023145091920222516e+00 5.049721433732411242e+02
2.023245113925063343e+00 5.050213013545013609e+02
2.023345135929904615e+00 5.050715199889564815e+02
2.023445157934745442e+00 5.051228000824236233e+02
2.023545179939586269e+00 5.051751424111596407e+02
2.023645201944427541e+00 5.052285477217997141e+02
2.023745223949268812e+00 5.052830167313002221e+02
2.023845245954109640e+00 5.053385501268818416e+02
2.023945267958950911e+00 5.053951485659718514e+02
2.024045289963792182e+00 5.054528126761481985e+02
2.024145311968633010e+00 5.055115430550846440e+02
2.024245333973473837e+00 5.055713402704975579e+02
2.024345355978315109e+00 5.056322048600928838e+02
2.024445377983155936e+00 5.056941373315103192e+02
2.024545399987997207e+00 5.057571381622760782e+02
2.024645421992838479e+00 5.058212077997491747e+02
2.024745443997679306e+00 5.058863466610734463e+02
2.024845466002520133e+00 5.059525551331258839e+02
2.024945488007361405e+00 5.060198335724721233e+02
2.025045510012202676e+00 5.060881823053154562e+02
2.025145532017043504e+00 5.061576016274535732e+02
2.025245554021884775e+00 5.062280918042292797e+02
2.025345576026725603e+00 5.062996530704894553e+02
2.025445598031566874e+00 5.063722856305386131e+02
2.025545620036407701e+00 5.064459896580975169e+02
2.025645642041248973e+00 5.065207652962591851e+02
2.025745664046089800e+00 5.065966126574487589e+02
2.025845686050931072e+00 5.066735318233843373e+02
2.025945708055772343e+00 5.067515228450335485e+02
2.026045730060613170e+00 5.068305857425793306e+02
2.026145752065454442e+00 5.069107205053793450e+02
2.026245774070295269e+00 5.069919270919291421e+02
2.026345796075136541e+00 5.070742054298272024e+02
2.026445818079977368e+00 5.071575554157404326e+02
2.026545840084818639e+00 5.072419769153659672e+02
2.026645862089659467e+00 5.073274697634028030e+02
2.026745884094500738e+00 5.074140337635155902e+02
2.026845906099342010e+00 5.075016686883051307e+02
2.026945928104182837e+00 5.075903742792755224e+02
2.027045950109023664e+00 5.076801502468056242e+02
2.027145972113864936e+00 5.077709962701214295e+02
2.027245994118706207e+00 5.078629119972642343e+02
2.027346016123547034e+00 5.079558970450670472e+02
2.027446038128388306e+00 5.080499509991250875e+02
2.027546060133229133e+00 5.081450734137737300e+02
2.027646082138069961e+00 5.082412638120609358e+02
2.027746104142911232e+00 5.083385216857252544e+02
2.027846126147752503e+00 5.084368464951719488e+02
2.027946148152593331e+00 5.085362376694525324e+02
2.028046170157434602e+00 5.086366946062418037e+02
2.028146192162275874e+00 5.087382166718205099e+02
2.028246214167116701e+00 5.088408032010530633e+02
2.028346236171957528e+00 5.089444534973715690e+02
2.028446258176798800e+00 5.090491668327561001e+02
2.028546280181639627e+00 5.091549424477215666e+02
2.028646302186480899e+00 5.092617795512990142e+02
2.028746324191322170e+00 5.093696773210224933e+02
2.028846346196162997e+00 5.094786349029138819e+02
2.028946368201004269e+00 5.095886514114723695e+02
2.029046390205845096e+00 5.096997259296589959e+02
2.029146412210685924e+00 5.098118575088896591e+02
2.029246434215527195e+00 5.099250451690215868e+02
2.029346456220368466e+00 5.100392878983452647e+02
2.029446478225209294e+00 5.101545846535763076e+02
2.029546500230050565e+00 5.102709343598473879e+02
2.029646522234891837e+00 5.103883359107023239e+02
2.029746544239732664e+00 5.105067881680890309e+02
2.029846566244573491e+00 5.106262899623570775e+02
2.029946588249414763e+00 5.107468400922520573e+02
2.030046610254255590e+00 5.108684373249120654e+02
2.030146632259096862e+00 5.109910803958677548e+02
2.030246654263938133e+00 5.111147680090392100e+02
2.030346676268778960e+00 5.112394988367369706e+02
2.030446698273619788e+00 5.113652715196626559e+02
2.030546720278461059e+00 5.114920846669097045e+02
2.030646742283302331e+00 5.116199368559660456e+02
2.030746764288143158e+00 5.117488266327179645e+02
2.030846786292984429e+00 5.118787525114539676e+02
2.030946808297825257e+00 5.120097129748712632e+02
2.031046830302666528e+00 5.121417064740787737e+02
2.031146852307507356e+00 5.122747314286079927e+02
2.031246874312348627e+00 5.124087862264182149e+02
2.031346896317189454e+00 5.125438692239067677e+02
2.031446918322030726e+00 5.126799787459169693e+02
2.031546940326871997e+00 5.128171130857522257e+02
2.031646962331712825e+00 5.129552705051834209e+02
2.031746984336553652e+00 5.130944492344644914e+02
2.031847006341394923e+00 5.132346474723439087e+02
2.031947028346236195e+00 5.133758633860795726e+02
2.032047050351077022e+00 5.135180951114556365e+02
2.032147072355918294e+00 5.136613407527952404e+02
2.032247094360759121e+00 5.138055983829804063e+02
2.032347116365600392e+00 5.139508660434685225e+02
2.032447138370441220e+00 5.140971417443111022e+02
2.032547160375282491e+00 5.142444234641750427e+02
2.032647182380123319e+00 5.143927091503605880e+02
2.032747204384964590e+00 5.145419967188257715e+02
2.032847226389805861e+00 5.146922840542063113e+02
2.032947248394646689e+00 5.148435690098401665e+02
2.033047270399487960e+00 5.149958494077916384e+02
2.033147292404328788e+00 5.151491230388772919e+02
2.033247314409169615e+00 5.153033876626896017e+02
2.033347336414010886e+00 5.154586410076265111e+02
2.033447358418852158e+00 5.156148807709181483e+02
2.033547380423692985e+00 5.157721046186543390e+02
2.033647402428534257e+00 5.159303101858171203e+02
2.033747424433375528e+00 5.160894950763074576e+02
2.033847446438215911e+00 5.162496568629813964e+02
2.033947468443057183e+00 5.164107930876771206e+02
2.034047490447898454e+00 5.165729012612524684e+02
2.034147512452739281e+00 5.167359788636163103e+02
2.034247534457580553e+00 5.169000233437648149e+02
2.034347556462421824e+00 5.170650321198171468e+02
2.034447578467262652e+00 5.172310025790523014e+02
2.034547600472103479e+00 5.173979320779465070e+02
2.034647622476944751e+00 5.175658179422104013e+02
2.034747644481785578e+00 5.177346574668323456e+02
2.034847666486626849e+00 5.179044479161145773e+02
2.034947688491468121e+00 5.180751865237160700e+02
2.035047710496308948e+00 5.182468704926963028e+02
2.035147732501150220e+00 5.184194969955544821e+02
2.035247754505991047e+00 5.185930631742768355e+02
2.035347776510832318e+00 5.187675661403792446e+02
2.035447798515673146e+00 5.189430029749549931e+02
2.035547820520514417e+00 5.191193707287180814e+02
2.035647842525355244e+00 5.192966664220538178e+02
2.035747864530196516e+00 5.194748870450649747e+02
2.035847886535037787e+00 5.196540295576212429e+02
2.035947908539878615e+00 5.198340908894107315e+02
2.036047930544719442e+00 5.200150679399887395e+02
2.036147952549560713e+00 5.201969575788306202e+02
2.036247974554401985e+00 5.203797566453837362e+02
2.036347996559242812e+00 5.205634619491220292e+02
2.036448018564084084e+00 5.207480702695994523e+02
2.036548040568924911e+00 5.209335783565056772e+02
2.036648062573766182e+00 5.211199829297215729e+02
2.036748084578607010e+00 5.213072806793755944e+02
2.036848106583448281e+00 5.214954682659033551e+02
2.036948128588289109e+00 5.216845423201061749e+02
2.037048150593130380e+00 5.218744994432070143e+02
2.037148172597971651e+00 5.220653362069160721e+02
2.037248194602812479e+00 5.222570491534883104e+02
2.037348216607653306e+00 5.224496347957864373e+02
2.037448238612494578e+00 5.226430896173436622e+02
2.037548260617335849e+00 5.228374100724290656e+02
2.037648282622176676e+00 5.230325925861088763e+02
2.037748304627017948e+00 5.232286335543168434e+02
2.037848326631858775e+00 5.234255293439134675e+02
2.037948348636700047e+00 5.236232762927606927e+02
2.038048370641540874e+00 5.238218707097846618e+02
2.038148392646382145e+00 5.240213088750468842e+02
2.038248414651222973e+00 5.242215870398122206e+02
2.038348436656064244e+00 5.244227014266206197e+02
2.038448458660905516e+00 5.246246482293593090e+02
2.038548480665746343e+00 5.248274236133311206e+02
2.038648502670587614e+00 5.250310237153322532e+02
2.038748524675428442e+00 5.252354446437224169e+02
2.038848546680269269e+00 5.254406824785007757e+02
2.038948568685110541e+00 5.256467332713816631e+02
2.039048590689951812e+00 5.258535930458701841e+02
2.039148612694792639e+00 5.260612577973396355e+02
2.039248634699633911e+00 5.262697234931085859e+02
2.039348656704475182e+00 5.264789860725201152e+02
2.039448678709315566e+00 5.266890414470221913e+02
2.039548700714156837e+00 5.268998855002455457e+02
2.039648722718998108e+00 5.271115140880870058e+02
2.039748744723838936e+00 5.273239230387902126e+02
2.039848766728680207e+00 5.275371081530282709e+02
2.039948788733521479e+00 5.277510652039882189e+02
2.040048810738362306e+00 5.279657899374540193e+02
2.040148832743203133e+00 5.281812780718919385e+02
2.040248854748044405e+00 5.283975252985364932e+02
2.040348876752885232e+00 5.286145272814782174e+02
2.040448898757726504e+00 5.288322796577486997e+02
2.040548920762567775e+00 5.290507780374097138e+02
2.040648942767408602e+00 5.292700180036439406e+02
2.040748964772249874e+00 5.294899951128418252e+02
2.040848986777090701e+00 5.297107048946941177e+02
2.040949008781931973e+00 5.299321428522827091e+02
2.041049030786772800e+00 5.301543044621713534e+02
2.041149052791614071e+00 5.303771851745002550e+02
2.041249074796454899e+00 5.306007804130792920e+02
2.041349096801296170e+00 5.308250855754812392e+02
2.041449118806137442e+00 5.310500960331378337e+02
2.041549140810978269e+00 5.312758071314353856e+02
2.041649162815819096e+00 5.315022141898116388e+02
2.041749184820660368e+00 5.317293125018514957e+02
2.041849206825501639e+00 5.319570973353877434e+02
2.041949228830342467e+00 5.321855639325974607e+02
2.042049250835183738e+00 5.324147075101034261e+02
2.042149272840024565e+00 5.326445232590733667e+02
2.042249294844865837e+00 5.328750063453209123e+02
2.042349316849706664e+00 5.331061519094071173e+02
2.042449338854547936e+00 5.333379550667438025e+02
2.042549360859388763e+00 5.335704109076970099e+02
2.042649382864230034e+00 5.338035144976900028e+02
2.042749404869071306e+00 5.340372608773068350e+02
2.042849426873912133e+00 5.342716450624014897e+02
2.042949448878752960e+00 5.345066620441996292e+02
2.043049470883594232e+00 5.347423067894076212e+02
2.043149492888435503e+00 5.349785742403196309e+02
2.043249514893276331e+00 5.352154593149267612e+02
2.043349536898117602e+00 5.354529569070236903e+02
2.043449558902958429e+00 5.356910618863199716e+02
2.043549580907799701e+00 5.359297690985508780e+02
2.043649602912640528e+00 5.361690733655852910e+02
2.043749624917481800e+00 5.364089694855410926e+02
2.043849646922322627e+00 5.366494522328948733e+02
2.043949668927163899e+00 5.368905163585972105e+02
2.044049690932005170e+00 5.371321565901833992e+02
2.044149712936845997e+00 5.373743676318900953e+02
2.044249734941687269e+00 5.376171441647693428e+02
2.044349756946528096e+00 5.378604808468051033e+02
2.044449778951368923e+00 5.381043723130285343e+02
2.044549800956210195e+00 5.383488131756359962e+02
2.044649822961051466e+00 5.385937980241058085e+02
2.044749844965892294e+00 5.388393214253169390e+02
2.044849866970733565e+00 5.390853779236689434e+02
2.044949888975574837e+00 5.393319620411992901e+02
2.045049910980415220e+00 5.395790682777060283e+02
2.045149932985256491e+00 5.398266911108669319e+02
2.045249954990097763e+00 5.400748249963619401e+02
2.045349976994938590e+00 5.403234643679953706e+02
2.045449998999779861e+00 5.405726036378182471e+02
2.045550021004621133e+00 5.408222371962510806e+02
2.045650043009461960e+00 5.410723594122096074e+02
2.045750065014302788e+00 5.413229646332285938e+02
2.045850087019144059e+00 5.415740471855856413e+02
2.045950109023984886e+00 5.418256013744296524e+02
2.046050131028826158e+00 5.420776214839060003e+02
2.046150153033667429e+00 5.423301017772828345e+02
2.046250175038508257e+00 5.425830364970790924e+02
2.046350197043349528e+00 5.428364198651947845e+02
2.046450219048190355e+00 5.430902460830365044e+02
2.046550241053031627e+00 5.433445093316499879e+02
2.046650263057872454e+00 5.435992037718478969e+02
2.046750285062713726e+00 5.438543235443404456e+02
2.046850307067554553e+00 5.441098627698690962e+02
2.046950329072395824e+00 5.443658155493343429e+02
2.047050351077237096e+00 5.446221759639329321e+02
2.047150373082077923e+00 5.448789380752854186e+02
2.047250395086918751e+00 5.451360959255729313e+02
2.047350417091760022e+00 5.453936435376710961e+02
2.047450439096601293e+00 5.456515749152824810e+02
2.047550461101442121e+00 5.459098840430740438e+02
2.047650483106283392e+00 5.461685648868112821e+02
2.047750505111124220e+00 5.464276113934946579e+02
2.047850527115965491e+00 5.466870174914968175e+02
2.047950549120806318e+00 5.469467770906984470e+02
2.048050571125647590e+00 5.472068840826287897e+02
2.048150593130488417e+00 5.474673323406000236e+02
2.048250615135329689e+00 5.477281157198494839e+02
2.048350637140170960e+00 5.479892280576765415e+02
2.048450659145011787e+00 5.482506631735849396e+02
2.048550681149852615e+00 5.485124148694198993e+02
2.048650703154693886e+00 5.487744769295121614e+02
2.048750725159535158e+00 5.490368431208167976e+02
2.048850747164375985e+00 5.492995071930569111e+02
2.048950769169217256e+00 5.495624628788632435e+02
2.049050791174058084e+00 5.498257038939215136e+02
2.049150813178898911e+00 5.500892239371107735e+02
2.049250835183740183e+00 5.503530166906496106e+02
2.049350857188581454e+00 5.506170758202406432e+02
2.049450879193422281e+00 5.508813949752143344e+02
2.049550901198263553e+00 5.511459677886749660e+02
2.049650923203104824e+00 5.514107878776443386e+02
2.049750945207945652e+00 5.516758488432102467e+02
2.049850967212786479e+00 5.519411442706719981e+02
2.049950989217627750e+00 5.522066677296865009e+02
2.050051011222468578e+00 5.524724127744169664e+02
2.050151033227309849e+00 5.527383729436803605e+02
2.050251055232151121e+00 5.530045417610953109e+02
2.050351077236991948e+00 5.532709127352313772e+02
2.050451099241833219e+00 5.535374793597566168e+02
2.050551121246674047e+00 5.538042351135903800e+02
2.050651143251514874e+00 5.540711734610497388e+02
2.050751165256356146e+00 5.543382878520013719e+02
2.050851187261197417e+00 5.546055717220139059e+02
2.050951209266038244e+00 5.548730184925054800e+02
2.051051231270879516e+00 5.551406215708990430e+02
2.051151253275720787e+00 5.554083743507713962e+02
2.051251275280561615e+00 5.556762702120082622e+02
2.051351297285402442e+00 5.559443025209538973e+02
2.051451319290243713e+00 5.562124646305679789e+02
2.051551341295084541e+00 5.564807498805752175e+02
2.051651363299925812e+00 5.567491515976228129e+02
2.051751385304767084e+00 5.570176630954308621e+02
2.051851407309607911e+00 5.572862776749520890e+02
2.051951429314448738e+00 5.575549886245208882e+02
2.052051451319290010e+00 5.578237892200131682e+02
2.052151473324131281e+00 5.580926727250005115e+02
2.052251495328972108e+00 5.583616323909053563e+02
2.052351517333813380e+00 5.586306614571594764e+02
2.052451539338654207e+00 5.588997531513574586e+02
2.052551561343495479e+00 5.591689006894170006e+02
2.052651583348336306e+00 5.594380972757350037e+02
2.052751605353177577e+00 5.597073361033442325e+02
2.052851627358018405e+00 5.599766103540725908e+02
2.052951649362859676e+00 5.602459131987014871e+02
2.053051671367700948e+00 5.605152377971228361e+02
2.053151693372541775e+00 5.607845772985004942e+02
2.053251715377383047e+00 5.610539248414270332e+02
2.053351737382223874e+00 5.613232735540843805e+02
2.053451759387065145e+00 5.615926165544047990e+02
2.053551781391905973e+00 5.618619469502282300e+02
2.053651803396747244e+00 5.621312578394646380e+02
2.053751825401588071e+00 5.624005423102546501e+02
2.053851847406429343e+00 5.626697934411290589e+02
2.053951869411270614e+00 5.629390043011720763e+02
2.054051891416111442e+00 5.632081679501803819e+02
2.054151913420952269e+00 5.634772774388268317e+02
2.054251935425793540e+00 5.637463258088207567e+02
2.054351957430634812e+00 5.640153060930722404e+02
2.054451979435475639e+00 5.642842113158526445e+02
2.054552001440316911e+00 5.645530344929577495e+02
2.054652023445157738e+00 5.648217686318710093e+02
2.054752045449998565e+00 5.650904067319266915e+02
2.054852067454839837e+00 5.653589417844729041e+02
2.054952089459681108e+00 5.656273667730356465e+02
2.055052111464521936e+00 5.658956746734821763e+02
2.055152133469363207e+00 5.661638584541847194e+02
2.055252155474204478e+00 5.664319110761852016e+02
2.055352177479045306e+00 5.666998254933606631e+02
2.055452199483886133e+00 5.669675946525846939e+02
2.055552221488727405e+00 5.672352114938965997e+02
2.055652243493568232e+00 5.675026689506623825e+02
2.055752265498409503e+00 5.677699599497417466e+02
2.055852287503250775e+00 5.680370774116541952e+02
2.055952309508091602e+00 5.683040142507428527e+02
2.056052331512932874e+00 5.685707633753409027e+02
2.056152353517773701e+00 5.688373176879376842e+02
2.056252375522614528e+00 5.691036700853443335e+02
2.056352397527455800e+00 5.693698134588601079e+02
2.056452419532297071e+00 5.696357406944384820e+02
2.056552441537137899e+00 5.699014446728531311e+02
2.056652463541979170e+00 5.701669182698669829e+02
2.056752485546820441e+00 5.704321543563944488e+02
2.056852507551661269e+00 5.706971457986725227e+02
2.056952529556502096e+00 5.709618854584259680e+02
2.057052551561343368e+00 5.712263661930334138e+02
2.057152573566184195e+00 5.714905808556969760e+02
2.057252595571025466e+00 5.717545222956071029e+02
2.057352617575866738e+00 5.720181833581120827e+02
2.057452639580707565e+00 5.722815568848835710e+02
2.057552661585548393e+00 5.725446357140858709e+02
2.057652683590389664e+00 5.728074126805421429e+02
2.057752705595230935e+00 5.730698806159052765e+02
2.057852727600071763e+00 5.733320323488202348e+02
2.057952749604913034e+00 5.735938607050974269e+02
2.058052771609753862e+00 5.738553585078783499e+02
2.058152793614595133e+00 5.741165185778024806e+02
2.058252815619435960e+00 5.743773337331786024e+02
2.058352837624277232e+00 5.746377967901502188e+02
2.058452859629118059e+00 5.748979005628644927e+02
2.058552881633959331e+00 5.751576378636411846e+02
2.058652903638800602e+00 5.754170015031413641e+02
2.058752925643641429e+00 5.756759842905341884e+02
2.058852947648482701e+00 5.759345790336656137e+02
2.058952969653323528e+00 5.761927785392291526e+02
2.059052991658164800e+00 5.764505756129314022e+02
2.059153013663005627e+00 5.767079630596616653e+02
2.059253035667846898e+00 5.769649336836605471e+02
2.059353057672687726e+00 5.772214802886895768e+02
2.059453079677528997e+00 5.774775956781968489e+02
2.059553101682370269e+00 5.777332726554877809e+02
2.059653123687211096e+00 5.779885040238942793e+02
2.059753145692051923e+00 5.782432825869407225e+02
2.059853167696893195e+00 5.784976011485142635e+02
2.059953189701734466e+00 5.787514525130324046e+02
2.060053211706575294e+00 5.790048294856125040e+02
2.060153233711416565e+00 5.792577248722388958e+02
2.060253255716257392e+00 5.795101314799326246e+02
2.060353277721098220e+00 5.797620421169177689e+02
2.060453299725939491e+00 5.800134495927925400e+02
2.060553321730780763e+00 5.802643467186950375e+02
2.060653343735621590e+00 5.805147263074727562e+02
2.060753365740462861e+00 5.807645811738509565e+02
2.060853387745304133e+00 5.810139041345989881e+02
2.060953409750144960e+00 5.812626880087004793e+02
2.061053431754985787e+00 5.815109256175197743e+02
2.061153453759827059e+00 5.817586097849707585e+02
2.061253475764667886e+00 5.820057333376839779e+02
2.061353497769509158e+00 5.822522891051747820e+02
2.061453519774350429e+00 5.824982699200108982e+02
2.061553541779191256e+00 5.827436686179793242e+02
2.061653563784032528e+00 5.829884780382545841e+02
2.061753585788873355e+00 5.832326910235655077e+02
2.061853607793714183e+00 5.834763004203624632e+02
2.061953629798555454e+00 5.837192990789860687e+02
2.062053651803396725e+00 5.839616798538306739e+02
2.062153673808237553e+00 5.842034356035145493e+02
2.062253695813078824e+00 5.844445591910448456e+02
2.062353717817920096e+00 5.846850434839852824e+02
2.062453739822760923e+00 5.849248813546214478e+02
2.062553761827601750e+00 5.851640656801280329e+02
2.062653783832443022e+00 5.854025893427342453e+02
2.062753805837283849e+00 5.856404452298909291e+02
2.062853827842125121e+00 5.858776262344352972e+02
2.062953849846966392e+00 5.861141252547572549e+02
2.063053871851807219e+00 5.863499351949657239e+02
2.063153893856648047e+00 5.865850489650515556e+02
2.063253915861489318e+00 5.868194594810554463e+02
2.063353937866330590e+00 5.870531596652317603e+02
2.063453959871171417e+00 5.872861424462130344e+02
2.063553981876012688e+00 5.875184007591761883e+02
2.063654003880853516e+00 5.877499275460046420e+02
2.063754025885694787e+00 5.879807157554548667e+02
2.063854047890535615e+00 5.882107583433189575e+02
2.063954069895376886e+00 5.884400482725891379e+02
2.064054091900217713e+00 5.886685785136214690e+02
2.064154113905058985e+00 5.888963420442998995e+02
2.064254135909900256e+00 5.891233318501973599e+02
2.064354157914741084e+00 5.893495409247416319e+02
2.064454179919582355e+00 5.895749622693758738e+02
2.064554201924423182e+00 5.897995888937224436e+02
2.064654223929264454e+00 5.900234138157451298e+02
2.064754245934105281e+00 5.902464300619110418e+02
2.064854267938946553e+00 5.904686306673517038e+02
2.064954289943787380e+00 5.906900086760255135e+02
2.065054311948628651e+00 5.909105571408792912e+02
2.065154333953469923e+00 5.911302691240096010e+02
2.065254355958310750e+00 5.913491376968216855e+02
2.065354377963151578e+00 5.915671559401929471e+02
2.065454399967992849e+00 5.917843169446301772e+02
2.065554421972834120e+00 5.920006138104321280e+02
2.065654443977674948e+00 5.922160396478471966e+02
2.065754465982516219e+00 5.924305875772353147e+02
2.065854487987357047e+00 5.926442507292241544e+02
2.065954509992197874e+00 5.928570222448709046e+02
2.066054531997039145e+00 5.930688952758192727e+02
2.066154554001880417e+00 5.932798629844573952e+02
2.066254576006721244e+00 5.934899185440769998e+02
2.066354598011562516e+00 5.936990551390304063e+02
2.066454620016403787e+00 5.939072659648879835e+02
2.066554642021244170e+00 5.941145442285964009e+02
2.066654664026085442e+00 5.943208831486322197e+02
2.066754686030926713e+00 5.945262759551619638e+02
2.066854708035767541e+00 5.947307158901965067e+02
2.066954730040608812e+00 5.949341962077450034e+02
2.067054752045450083e+00 5.951367101739749614e+02
2.067154774050290911e+00 5.953382510673633305e+02
2.067254796055131738e+00 5.955388121788517992e+02
2.067354818059973010e+00 5.957383868120026591e+02
2.067454840064813837e+00 5.959369682831516002e+02
2.067554862069655108e+00 5.961345499215624386e+02
2.067654884074496380e+00 5.963311250695782064e+02
2.067754906079337207e+00 5.965266870827779258e+02
2.067854928084178479e+00 5.967212293301254249e+02
2.067954950089019306e+00 5.969147451941227018e+02
2.068054972093860577e+00 5.971072280709632878e+02
2.068154994098701405e+00 5.972986713706816317e+02
2.068255016103542676e+00 5.974890685173055545e+02
2.068355038108383503e+00 5.976784129490062014e+02
2.068455060113224775e+00 5.978666981182482232e+02
2.068555082118066046e+00 5.980539174919399557e+02
2.068655104122906874e+00 5.982400645515831457e+02
2.068755126127747701e+00 5.984251327934215396e+02
2.068855148132588972e+00 5.986091157285908366e+02
2.068955170137430244e+00 5.987920068832639799e+02
2.069055192142271071e+00 5.989737997988022471e+02
2.069155214147112343e+00 5.991544880319008826e+02
2.069255236151953170e+00 5.993340651547366633e+02
2.069355258156794442e+00 5.995125247551146686e+02
2.069455280161635269e+00 5.996898604366128893e+02
2.069555302166476540e+00 5.998660658187309309e+02
2.069655324171317368e+00 6.000411345370320078e+02
2.069755346176158639e+00 6.002150602432906226e+02
2.069855368180999911e+00 6.003878366056341065e+02
2.069955390185840738e+00 6.005594573086887067e+02
2.070055412190681565e+00 6.007299160537232865e+02
2.070155434195522837e+00 6.008992065587898423e+02
2.070255456200364108e+00 6.010673225588689093e+02
2.070355478205204935e+00 6.012342578060097367e+02
2.070455500210046207e+00 6.014000060694727381e+02
2.070555522214887034e+00 6.015645611358718270e+02
2.070655544219728306e+00 6.017279168093116368e+02
2.070755566224569133e+00 6.018900669115313349e+02
2.070855588229410404e+00 6.020510052820420697e+02
2.070955610234251232e+00 6.022107257782682836e+02
2.071055632239092503e+00 6.023692222756843648e+02
2.071155654243933775e+00 6.025264886679539131e+02
2.071255676248774602e+00 6.026825188670675288e+02
2.071355698253615873e+00 6.028373068034798052e+02
2.071455720258456701e+00 6.029908464262463212e+02
2.071555742263297528e+00 6.031431317031605204e+02
2.071655764268138800e+00 6.032941566208872928e+02
2.071755786272980071e+00 6.034439151851013321e+02
2.071855808277820898e+00 6.035924014206190122e+02
2.071955830282662170e+00 6.037396093715344705e+02
2.072055852287503441e+00 6.038855331013522800e+02
2.072155874292343825e+00 6.040301666931217142e+02
2.072255896297185096e+00 6.041735042495677135e+02
2.072355918302026367e+00 6.043155398932244680e+02
2.072455940306867195e+00 6.044562677665661568e+02
2.072555962311708466e+00 6.045956820321389387e+02
2.072655984316549738e+00 6.047337768726901004e+02
2.072756006321390565e+00 6.048705464912989100e+02
2.072856028326231392e+00 6.050059851115056517e+02
2.072956050331072664e+00 6.051400869774407738e+02
2.073056072335913491e+00 6.052728463539527866e+02
2.073156094340754763e+00 6.054042575267368420e+02
2.073256116345596034e+00 6.055343148024608126e+02
2.073356138350436861e+00 6.056630125088922796e+02
2.073456160355278133e+00 6.057903449950244976e+02
2.073556182360118960e+00 6.059163066312039518e+02
2.073656204364960232e+00 6.060408918092506383e+02
2.073756226369801059e+00 6.061640949425867575e+02
2.073856248374642330e+00 6.062859104663591552e+02
2.073956270379483158e+00 6.064063328375614219e+02
2.074056292384324429e+00 6.065253565351569023e+02
2.074156314389165701e+00 6.066429760602028409e+02
2.074256336394006528e+00 6.067591859359689579e+02
2.074356358398847355e+00 6.068739807080589799e+02
2.074456380403688627e+00 6.069873549445317167e+02
2.074556402408529898e+00 6.070993032360212283e+02
2.074656424413370726e+00 6.072098201958528989e+02
2.074756446418211997e+00 6.073189004601663328e+02
2.074856468423052824e+00 6.074265386880284723e+02
2.074956490427894096e+00 6.075327295615543335e+02
2.075056512432734923e+00 6.076374677860220572e+02
2.075156534437576195e+00 6.077407480899892107e+02
2.075256556442417022e+00 6.078425652254087481e+02
2.075356578447258293e+00 6.079429139677423564e+02
2.075456600452099565e+00 6.080417891160757335e+02
2.075556622456940392e+00 6.081391854932328442e+02
2.075656644461781219e+00 6.082350979458859683e+02
2.075756666466622491e+00 6.083295213446715479e+02
2.075856688471463762e+00 6.084224505842985309e+02
2.075956710476304590e+00 6.085138805836627398e+02
2.076056732481145861e+00 6.086038062859536240e+02
2.076156754485986689e+00 6.086922226587669229e+02
2.076256776490827960e+00 6.087791246942126691e+02
2.076356798495668787e+00 6.088645074090228491e+02
2.076456820500510059e+00 6.089483658446604295e+02
2.076556842505350886e+00 6.090306950674259951e+02
2.076656864510192158e+00 6.091114901685640461e+02
2.076756886515033429e+00 6.091907462643700910e+02
2.076856908519874256e+00 6.092684584962927374e+02
2.076956930524715528e+00 6.093446220310422632e+02
2.077056952529556355e+00 6.094192320606924795e+02
2.077156974534397182e+00 6.094922838027822536e+02
2.077256996539238454e+00 6.095637725004214644e+02
2.077357018544079725e+00 6.096336934223915023e+02
2.077457040548920553e+00 6.097020418632447445e+02
2.077557062553761824e+00 6.097688131434073284e+02
2.077657084558603096e+00 6.098340026092789685e+02
2.077757106563443479e+00 6.098976056333302722e+02
2.077857128568284750e+00 6.099596176142039212e+02
2.077957150573126022e+00 6.100200339768090316e+02
2.078057172577966849e+00 6.100788501724232447e+02
2.078157194582808120e+00 6.101360616787828803e+02
2.078257216587649392e+00 6.101916640001861651e+02
2.078357238592490219e+00 6.102456526675802024e+02
2.078457260597331047e+00 6.102980232386635180e+02
2.078557282602172318e+00 6.103487712979724620e+02
2.078657304607013145e+00 6.103978924569807987e+02
2.078757326611854417e+00 6.104453823541859947e+02
2.078857348616695688e+00 6.104912366552065350e+02
2.078957370621536516e+00 6.105354510528684386e+02
2.079057392626377787e+00 6.105780212672972311e+02
2.079157414631218614e+00 6.106189430460083258e+02
2.079257436636059886e+00 6.106582121639950174e+02
2.079357458640900713e+00 6.106958244238163616e+02
2.079457480645741985e+00 6.107317756556853965e+02
2.079557502650582812e+00 6.107660617175550897e+02
2.079657524655424083e+00 6.107986784952049675e+02
2.079757546660265355e+00 6.108296219023254707e+02
2.079857568665106182e+00 6.108588878806052662e+02
2.079957590669947010e+00 6.108864723998109412e+02
2.080057612674788281e+00 6.109123714578746558e+02
2.080157634679629552e+00 6.109365810809722461e+02
2.080257656684470380e+00 6.109590973236095124e+02
2.080357678689311651e+00 6.109799162686989575e+02
2.080457700694152479e+00 6.109990340276425513e+02
2.080557722698993750e+00 6.110164467404114248e+02
2.080657744703834577e+00 6.110321505756244278e+02
2.080757766708675849e+00 6.110461417306240719e+02
2.080857788713516676e+00 6.110584164315581575e+02
2.080957810718357948e+00 6.110689709334523059e+02
2.081057832723199219e+00 6.110778015202893130e+02
2.081157854728040046e+00 6.110849045050820223e+02
2.081257876732880874e+00 6.110902762299485858e+02
2.081357898737722145e+00 6.110939130661869285e+02
2.081457920742563417e+00 6.110958114143454623e+02
2.081557942747404244e+00 6.110959677042995963e+02
2.081657964752245515e+00 6.110943783953196089e+02
2.081757986757086343e+00 6.110910399761411327e+02
2.081858008761927614e+00 6.110859489650399610e+02
2.081958030766768442e+00 6.110791019098953711e+02
2.082058052771609713e+00 6.110704953882627706e+02
2.082158074776450540e+00 6.110601260074399761e+02
2.082258096781291812e+00 6.110479904045350850e+02
2.082358118786133083e+00 6.110340852465327544e+02
2.082458140790973911e+00 6.110184072303579796e+02
2.082558162795815182e+00 6.110009530829446476e+02
2.082658184800656009e+00 6.109817195612963587e+02
2.082758206805496837e+00 6.109607034525512290e+02
2.082858228810338108e+00 6.109379015740445311e+02
2.082958250815179380e+00 6.109133107733712222e+02
2.083058272820020207e+00 6.108869279284450613e+02
2.083158294824861478e+00 6.108587499475602272e+02
2.083258316829702750e+00 6.108287737694528232e+02
2.083358338834543133e+00 6.107969963633563566e+02
2.083458360839384405e+00 6.107634147290616511e+02
2.083558382844225676e+00 6.107280258969752822e+02
2.083658404849066503e+00 6.106908269281735784e+02
2.083758426853907775e+00 6.106518149144610561e+02
2.083858448858749046e+00 6.106109869784236253e+02
2.083958470863589874e+00 6.105683402734850915e+02
2.084058492868430701e+00 6.105238719839587702e+02
2.084158514873271972e+00 6.104775793251004643e+02
2.084258536878112800e+00 6.104294595431624657e+02
2.084358558882954071e+00 6.103795099154433501e+02
2.084458580887795343e+00 6.103277277503381129e+02
2.084558602892636170e+00 6.102741103873895554e+02
2.084658624897476997e+00 6.102186551973370570e+02
2.084758646902318269e+00 6.101613595821627314e+02
2.084858668907159540e+00 6.101022209751428136e+02
2.084958690912000367e+00 6.100412368408904058e+02
2.085058712916841639e+00 6.099784046754050451e+02
2.085158734921682466e+00 6.099137220061152220e+02
2.085258756926523738e+00 6.098471863919247653e+02
2.085358778931364565e+00 6.097787954232561560e+02
2.085458800936205837e+00 6.097085467220922510e+02
2.085558822941046664e+00 6.096364379420199384e+02
2.085658844945887935e+00 6.095624667682727704e+02
2.085758866950729207e+00 6.094866309177672292e+02
2.085858888955570034e+00 6.094089281391475197e+02
2.085958910960411306e+00 6.093293562128233134e+02
2.086058932965252133e+00 6.092479129510056737e+02
2.086158954970093404e+00 6.091645961977485513e+02
2.086258976974934232e+00 6.090794038289825494e+02
2.086358998979775503e+00 6.089923337525539182e+02
2.086459020984616330e+00 6.089033839082569557e+02
2.086559042989457602e+00 6.088125522678705011e+02
2.086659064994298873e+00 6.087198368351922682e+02
2.086759086999139701e+00 6.086252356460691999e+02
2.086859109003980528e+00 6.085287467684335070e+02
2.086959131008821799e+00 6.084303683023306348e+02
2.087059153013663071e+00 6.083300983799535970e+02
2.087159175018503898e+00 6.082279351656699191e+02
2.087259197023345170e+00 6.081238768560519929e+02
2.087359219028185997e+00 6.080179216799076585e+02
2.087459241033026824e+00 6.079100678983043053e+02
2.087559263037868096e+00 6.078003138045982041e+02
2.087659285042709367e+00 6.076886577244609953e+02
2.087759307047550195e+00 6.075750980159032224e+02
2.087859329052391466e+00 6.074596330693018444e+02
2.087959351057232738e+00 6.073422613074211540e+02
2.088059373062073565e+00 6.072229811854382433e+02
2.088159395066914392e+00 6.071017911909643772e+02
2.088259417071755664e+00 6.069786898440672758e+02
2.088359439076596491e+00 6.068536756972916919e+02
2.088459461081437762e+00 6.067267473356791925e+02
2.088559483086279034e+00 6.065979033767894180e+02
2.088659505091119861e+00 6.064671424707155438e+02
2.088759527095961133e+00 6.063344633001047441e+02
2.088859549100801960e+00 6.061998645801754719e+02
2.088959571105642787e+00 6.060633450587318976e+02
2.089059593110484059e+00 6.059249035161806205e+02
2.089159615115325330e+00 6.057845387655472678e+02
2.089259637120166158e+00 6.056422496524867256e+02
2.089359659125007429e+00 6.054980350553000790e+02
2.089459681129848700e+00 6.053518938849463211e+02
2.089559703134689528e+00 6.052038250850523582e+02
2.089659725139530355e+00 6.050538276319272200e+02
2.089759747144371627e+00 6.049019005345704727e+02
2.089859769149212454e+00 6.047480428346814278e+02
2.089959791154053725e+00 6.045922536066700559e+02
2.090059813158894997e+00 6.044345319576628981e+02
2.090159835163735824e+00 6.042748770275127299e+02
2.090259857168576652e+00 6.041132879888039042e+02
2.090359879173417923e+00 6.039497640468565578e+02
2.090459901178259194e+00 6.037843044397365020e+02
2.090559923183100022e+00 6.036169084382547680e+02
2.090659945187941293e+00 6.034475753459732914e+02
2.090759967192782121e+00 6.032763044992093455e+02
2.090859989197623392e+00 6.031030952670352008e+02
2.090960011202464219e+00 6.029279470512807393e+02
2.091060033207305491e+00 6.027508592865344781e+02
2.091160055212146318e+00 6.025718314401430007e+02
2.091260077216987590e+00 6.023908630122103887e+02
2.091360099221828861e+00 6.022079535355977669e+02
2.091460121226669688e+00 6.020231025759185286e+02
2.091560143231510960e+00 6.018363097315383357e+02
2.091660165236351787e+00 6.016475746335700023e+02
2.091760187241193059e+00 6.014568969458683796e+02
2.091860209246033886e+00 6.012642763650272855e+02
2.091960231250875157e+00 6.010697126203718881e+02
2.092060253255715985e+00 6.008732054739530213e+02
2.092160275260557256e+00 6.006747547205394540e+02
2.092260297265398528e+00 6.004743601876098182e+02
2.092360319270239355e+00 6.002720217353446515e+02
2.092460341275080182e+00 6.000677392566160506e+02
2.092560363279921454e+00 5.998615126769780090e+02
2.092660385284762725e+00 5.996533419546549339e+02
2.092760407289603553e+00 5.994432270805310736e+02
2.092860429294444824e+00 5.992311680781372161e+02
2.092960451299285651e+00 5.990171650036385245e+02
2.093060473304126479e+00 5.988012179458196442e+02
2.093160495308967750e+00 5.985833270260709469e+02
2.093260517313809022e+00 5.983634923983737508e+02
2.093360539318649849e+00 5.981417142492834955e+02
2.093460561323491120e+00 5.979179927979142803e+02
2.093560583328332392e+00 5.976923282959206745e+02
2.093660605333173219e+00 5.974647210274792997e+02
2.093760627338014046e+00 5.972351713092729142e+02
2.093860649342855318e+00 5.970036794904661974e+02
2.093960671347696145e+00 5.967702459526908569e+02
2.094060693352537417e+00 5.965348711100214132e+02
2.094160715357378688e+00 5.962975554089547359e+02
2.094260737362219515e+00 5.960582993283887845e+02
2.094360759367060787e+00 5.958171033795971425e+02
2.094460781371901614e+00 5.955739681062093496e+02
2.094560803376742442e+00 5.953288940841830481e+02
2.094660825381583713e+00 5.950818819217809050e+02
2.094760847386424985e+00 5.948329322595443500e+02
2.094860869391265812e+00 5.945820457702691328e+02
2.094960891396107083e+00 5.943292231589747416e+02
2.095060913400948355e+00 5.940744651628807560e+02
2.095160935405789182e+00 5.938177725513745600e+02
2.095260957410630009e+00 5.935591461259864445e+02
2.095360979415471281e+00 5.932985867203567523e+02
2.095461001420312108e+00 5.930360952002067734e+02
2.095561023425153380e+00 5.927716724633081640e+02
2.095661045429994651e+00 5.925053194394496359e+02
2.095761067434835478e+00 5.922370370904077390e+02
2.095861089439676306e+00 5.919668264099097996e+02
2.095961111444517577e+00 5.916946884236034521e+02
2.096061133449358849e+00 5.914206241890212823e+02
2.096161155454199676e+00 5.911446347955447891e+02
2.096261177459040947e+00 5.908667213643708465e+02
2.096361199463881775e+00 5.905868850484736186e+02
2.096461221468723046e+00 5.903051270325679525e+02
2.096561243473563874e+00 5.900214485330737944e+02
2.096661265478405145e+00 5.897358507980741251e+02
2.096761287483245972e+00 5.894483351072790356e+02
2.096861309488087244e+00 5.891589027719867318e+02
2.096961331492928515e+00 5.888675551350394244e+02
2.097061353497769343e+00 5.885742935707879724e+02
2.097161375502610614e+00 5.882791194850453849e+02
2.097261397507451441e+00 5.879820343150480539e+02
2.097361419512292713e+00 5.876830395294119853e+02
2.097461441517133540e+00 5.873821366280890288e+02
2.097561463521974812e+00 5.870793271423234501e+02
2.097661485526815639e+00 5.867746126346080473e+02
2.097761507531656910e+00 5.864679946986368577e+02
2.097861529536498182e+00 5.861594749592609332e+02
2.097961551541339009e+00 5.858490550724427521e+02
2.098061573546179837e+00 5.855367367252065378e+02
2.098161595551021108e+00 5.852225216355928978e+02
2.098261617555862379e+00 5.849064115526083469e+02
2.098361639560703207e+00 5.845884082561800597e+02
2.098461661565544478e+00 5.842685135571022101e+02
2.098561683570385306e+00 5.839467292969878827e+02
2.098661705575226133e+00 5.836230573482188220e+02
2.098761727580067404e+00 5.832974996138927963e+02
2.098861749584908676e+00 5.829700580277731206e+02
2.098961771589749503e+00 5.826407345542347684e+02
2.099061793594590775e+00 5.823095311882124179e+02
2.099161815599432046e+00 5.819764499551451991e+02
2.099261837604272873e+00 5.816414929109255354e+02
2.099361859609113701e+00 5.813046621418397990e+02
2.099461881613954972e+00 5.809659597645178337e+02
2.099561903618795800e+00 5.806253879258723600e+02
2.099661925623637071e+00 5.802829488030455423e+02
2.099761947628478342e+00 5.799386446033513494e+02
2.099861969633319170e+00 5.795924775642154145e+02
2.099961991638160441e+00 5.792444499531204656e+02
2.100062013643001269e+00 5.788945640675435698e+02
2.100162035647842096e+00 5.785428222349009957e+02
2.100262057652683367e+00 5.781892268124844350e+02
2.100362079657524639e+00 5.778337801874027946e+02
2.100462101662365466e+00 5.774764847765183049e+02
2.100562123667206738e+00 5.771173430263887667e+02
2.100662145672048009e+00 5.767563574132030908e+02
2.100762167676888836e+00 5.763935304427183155e+02
2.100862189681729664e+00 5.760288646501962830e+02
2.100962211686570935e+00 5.756623626003404297e+02
2.101062233691411762e+00 5.752940268872326897e+02
2.101162255696253034e+00 5.749238601342656239e+02
2.101262277701094305e+00 5.745518649940790965e+02
2.101362299705935133e+00 5.741780441484926314e+02
2.101462321710775960e+00 5.738024003084418609e+02
2.101562343715617232e+00 5.734249362139075856e+02
2.101662365720458503e+00 5.730456546338509725e+02
2.101762387725299330e+00 5.726645583661450019e+02
2.101862409730140602e+00 5.722816502375050050e+02
2.101962431734981429e+00 5.718969331034195420e+02
2.102062453739822701e+00 5.715104098480828725e+02
2.102162475744663528e+00 5.711220833843209448e+02
2.102262497749504799e+00 5.707319566535254580e+02
2.102362519754345627e+00 5.703400326255773507e+02
2.102462541759186898e+00 5.699463142987816582e+02
2.102562563764028170e+00 5.695508046997879319e+02
2.102662585768868997e+00 5.691535068835239599e+02
2.102762607773709824e+00 5.687544239331192557e+02
2.102862629778551096e+00 5.683535589598326396e+02
2.102962651783392367e+00 5.679509151029767509e+02
2.103062673788233194e+00 5.675464955298452878e+02
2.103162695793074466e+00 5.671403034356370654e+02
2.103262717797915293e+00 5.667323420433796173e+02
2.103362739802756565e+00 5.663226146038551860e+02
2.103462761807597392e+00 5.659111243955217105e+02
2.103562783812438663e+00 5.654978747244387023e+02
2.103662805817279491e+00 5.650828689241868688e+02
2.103762827822120762e+00 5.646661103557927390e+02
2.103862849826962034e+00 5.642476024076476051e+02
2.103962871831802861e+00 5.638273484954329433e+02
2.104062893836644133e+00 5.634053520620358313e+02
2.104162915841484960e+00 5.629816165774732326e+02
2.104262937846325787e+00 5.625561455388105969e+02
2.104362959851167059e+00 5.621289424700801192e+02
2.104462981856008330e+00 5.617000109222018409e+02
2.104563003860849157e+00 5.612693544729010000e+02
2.104663025865690429e+00 5.608369767266246981e+02
2.104763047870531700e+00 5.604028813144623200e+02
2.104863069875372084e+00 5.599670718940612915e+02
2.104963091880213355e+00 5.595295521495437470e+02
2.105063113885054626e+00 5.590903257914226288e+02
2.105163135889895454e+00 5.586493965565186954e+02
2.105263157894736725e+00 5.582067682078754842e+02
2.105363179899577997e+00 5.577624445346738185e+02
2.105463201904418824e+00 5.573164293521481341e+02
2.105563223909259651e+00 5.568687265014980312e+02
2.105663245914100923e+00 5.564193398498057377e+02
2.105763267918941750e+00 5.559682732899465236e+02
2.105863289923783022e+00 5.555155307405033227e+02
2.105963311928624293e+00 5.550611161456786249e+02
2.106063333933465120e+00 5.546050334752076196e+02
2.106163355938306392e+00 5.541472867242699749e+02
2.106263377943147219e+00 5.536878799134007068e+02
2.106363399947988491e+00 5.532268170884020719e+02
2.106463421952829318e+00 5.527641023202519364e+02
2.106563443957670589e+00 5.522997397050202153e+02
2.106663465962511417e+00 5.518337333637709889e+02
2.106763487967352688e+00 5.513660874424779195e+02
2.106863509972193960e+00 5.508968061119317099e+02
2.106963531977034787e+00 5.504258935676476767e+02
2.107063553981875614e+00 5.499533540297761647e+02
2.107163575986716886e+00 5.494791917430113699e+02
2.107263597991558157e+00 5.490034109764953882e+02
2.107363619996398985e+00 5.485260160237307900e+02
2.107463642001240256e+00 5.480470112024836453e+02
2.107563664006081083e+00 5.475664008546921195e+02
2.107663686010922355e+00 5.470841893463724546e+02
2.107763708015763182e+00 5.466003810675265413e+02
2.107863730020604454e+00 5.461149804320455132e+02
2.107963752025445281e+00 5.456279918776160685e+02
2.108063774030286552e+00 5.451394198656258823e+02
2.108163796035127824e+00 5.446492688810685650e+02
2.108263818039968651e+00 5.441575434324473690e+02
2.108363840044809479e+00 5.436642480516798059e+02
2.108463862049650750e+00 5.431693872940013534e+02
2.108563884054492021e+00 5.426729657378692764e+02
2.108663906059332849e+00 5.421749879848654246e+02
2.108763928064174120e+00 5.416754586595998262e+02
2.108863950069014948e+00 5.411743824096115532e+02
2.108963972073856219e+00 5.406717639052744744e+02
2.109063994078697046e+00 5.401676078396949379e+02
2.109164016083538318e+00 5.396619189286167284e+02
2.109264038088379145e+00 5.391547019103210232e+02
2.109364060093220417e+00 5.386459615455283938e+02
2.109464082098061688e+00 5.381357026172980795e+02
2.109564104102902515e+00 5.376239299309318085e+02
2.109664126107743787e+00 5.371106483138687508e+02
2.109764148112584614e+00 5.365958626155927504e+02
2.109864170117425441e+00 5.360795777075243222e+02
2.109964192122266713e+00 5.355617984829262923e+02
2.110064214127107984e+00 5.350425298568004564e+02
2.110164236131948812e+00 5.345217767657853756e+02
2.110264258136790083e+00 5.339995441680580370e+02
2.110364280141631355e+00 5.334758370432291485e+02
2.110464302146471738e+00 5.329506603922449131e+02
2.110564324151313009e+00 5.324240192372810725e+02
2.110664346156154281e+00 5.318959186216441140e+02
2.110764368160995108e+00 5.313663636096658820e+02
2.110864390165836380e+00 5.308353592866029658e+02
2.110964412170677651e+00 5.303029107585326756e+02
2.111064434175518478e+00 5.297690231522489057e+02
2.111164456180359306e+00 5.292337016151620901e+02
2.111264478185200577e+00 5.286969513151913134e+02
2.111364500190041404e+00 5.281587774406626750e+02
2.111464522194882676e+00 5.276191852002045835e+02
2.111564544199723947e+00 5.270781798226440742e+02
2.111664566204564775e+00 5.265357665569017627e+02
2.111764588209406046e+00 5.259919506718858884e+02
2.111864610214246873e+00 5.254467374563910198e+02
2.111964632219088145e+00 5.249001322189880057e+02
2.112064654223928972e+00 5.243521402879218840e+02
2.112164676228770244e+00 5.238027670110061536e+02
2.112264698233611071e+00 5.232520177555147711e+02
2.112364720238452342e+00 5.226998979080796062e+02
2.112464742243293614e+00 5.221464128745807329e+02
2.112564764248134441e+00 5.215915680800427481e+02
2.112664786252975269e+00 5.210353689685277914e+02
2.112764808257816540e+00 5.204778210030276568e+02
2.112864830262657811e+00 5.199189296653574957e+02
2.112964852267498639e+00 5.193587004560500873e+02
2.113064874272339910e+00 5.187971388942465865e+02
2.113164896277180738e+00 5.182342505175910219e+02
2.113264918282022009e+00 5.176700408821219526e+02
2.113364940286862836e+00 5.171045155621638969e+02
2.113464962291704108e+00 5.165376801502214903e+02
2.113564984296544935e+00 5.159695402568700047e+02
2.113665006301386207e+00 5.154001015106474597e+02
2.113765028306227478e+00 5.148293695579473024e+02
2.113865050311068305e+00 5.142573500629090404e+02
2.113965072315909133e+00 5.136840487073096710e+02
2.114065094320750404e+00 5.131094711904548831e+02
2.114165116325591676e+00 5.125336232290727594e+02
2.114265138330432503e+00 5.119565105572001471e+02
2.114365160335273774e+00 5.113781389260777814e+02
2.114465182340114602e+00 5.107985141040385884e+02
2.114565204344955873e+00 5.102176418764009895e+02
2.114665226349796701e+00 5.096355280453557270e+02
2.114765248354637972e+00 5.090521784298590546e+02
2.114865270359478799e+00 5.084675988655234846e+02
2.114965292364320071e+00 5.078817952045063748e+02
2.115065314369161342e+00 5.072947733154002776e+02
2.115165336374002170e+00 5.067065390831239142e+02
2.115265358378843441e+00 5.061170984088109321e+02
2.115365380383684268e+00 5.055264572097015048e+02
2.115465402388525096e+00 5.049346214190308046e+02
2.115565424393366367e+00 5.043415969859175334e+02
2.115665446398207639e+00 5.037473898752575678e+02
2.115765468403048466e+00 5.031520060676079993e+02
2.115865490407889737e+00 5.025554515590808933e+02
2.115965512412731009e+00 5.019577323612314785e+02
2.116065534417571392e+00 5.013588545009455402e+02
2.116165556422412664e+00 5.007588240203314172e+02
2.116265578427253935e+00 5.001576469766070545e+02
2.116365600432094762e+00 4.995553294419907502e+02
2.116465622436936034e+00 4.989518775035882641e+02
2.116565644441777305e+00 4.983472972632839628e+02
2.116665666446618133e+00 4.977415948376280994e+02
2.116765688451458960e+00 4.971347763577256273e+02
2.116865710456300231e+00 4.965268479691258676e+02
2.116965732461141059e+00 4.959178158317120051e+02
2.117065754465982330e+00 4.953076861195877427e+02
2.117165776470823602e+00 4.946964650209655474e+02
2.117265798475664429e+00 4.940841587380597275e+02
2.117365820480505700e+00 4.934707734869703017e+02
2.117465842485346528e+00 4.928563154975727798e+02
2.117565864490187799e+00 4.922407910134090798e+02
2.117665886495028627e+00 4.916242062915721363e+02
2.117765908499869898e+00 4.910065676025978973e+02
2.117865930504710725e+00 4.903878812303514678e+02
2.117965952509551997e+00 4.897681534719174010e+02
2.118065974514393268e+00 4.891473906374868648e+02
2.118165996519234096e+00 4.885255990502456598e+02
2.118266018524074923e+00 4.879027850462642846e+02
2.118366040528916194e+00 4.872789549743854991e+02
2.118466062533757466e+00 4.866541151961121727e+02
2.118566084538598293e+00 4.860282720854970648e+02
2.118666106543439565e+00 4.854014320290301612e+02
2.118766128548280392e+00 4.847736014255266355e+02
2.118866150553121663e+00 4.841447866860177101e+02
2.118966172557962491e+00 4.835149942336361164e+02
2.119066194562803762e+00 4.828842305035063873e+02
2.119166216567644589e+00 4.822525019426340691e+02
2.119266238572485861e+00 4.816198150097905000e+02
2.119366260577327132e+00 4.809861761754061718e+02
2.119466282582167960e+00 4.803515919214564747e+02
2.119566304587008787e+00 4.797160687413505684e+02
2.119666326591850058e+00 4.790796131398204807e+02
2.119766348596691330e+00 4.784422316328094098e+02
2.119866370601532157e+00 4.778039307473611075e+02
2.119966392606373429e+00 4.771647170215074993e+02
2.120066414611214256e+00 4.765245970041582950e+02
2.120166436616055083e+00 4.758835772549891772e+02
2.120266458620896355e+00 4.752416643443324347e+02
2.120366480625737626e+00 4.745988648530630485e+02
2.120466502630578454e+00 4.739551853724897228e+02
2.120566524635419725e+00 4.733106325042431308e+02
2.120666546640260997e+00 4.726652128601662071e+02
2.120766568645101824e+00 4.720189330622005173e+02
2.120866590649942651e+00 4.713717997422785970e+02
2.120966612654783923e+00 4.707238195422117428e+02
2.121066634659624750e+00 4.700749991135792811e+02
2.121166656664466021e+00 4.694253451176183489e+02
2.121266678669307293e+00 4.687748642251129354e+02
2.121366700674148120e+00 4.681235631162842878e+02
2.121466722678989392e+00 4.674714484806800670e+02
2.121566744683830219e+00 4.668185270170634453e+02
2.121666766688671046e+00 4.661648054333047639e+02
2.121766788693512318e+00 4.655102904462688684e+02
2.121866810698353589e+00 4.648549887817072204e+02
2.121966832703194417e+00 4.641989071741476209e+02
2.122066854708035688e+00 4.635420523667837642e+02
2.122166876712876959e+00 4.628844311113646199e+02
2.122266898717717787e+00 4.622260501680887046e+02
2.122366920722558614e+00 4.615669163054885757e+02
2.122466942727399886e+00 4.609070363003273769e+02
2.122566964732240713e+00 4.602464169374851508e+02
2.122666986737081984e+00 4.595850650098525421e+02
2.122767008741923256e+00 4.589229873182195547e+02
2.122867030746764083e+00 4.582601906711684023e+02
2.122967052751604911e+00 4.575966818849630044e+02
2.123067074756446182e+00 4.569324677834421777e+02
2.123167096761287453e+00 4.562675551979078818e+02
2.123267118766128281e+00 4.556019509670209686e+02
2.123367140770969552e+00 4.549356619366894847e+02
2.123467162775810380e+00 4.542686949599619197e+02
2.123567184780651651e+00 4.536010568969181804e+02
2.123667206785492478e+00 4.529327546145629526e+02
2.123767228790333750e+00 4.522637949867164480e+02
2.123867250795174577e+00 4.515941848939079364e+02
2.123967272800015849e+00 4.509239312232664361e+02
2.124067294804857120e+00 4.502530408684172016e+02
2.124167316809697947e+00 4.495815207293680373e+02
2.124267338814539219e+00 4.489093777124083999e+02
2.124367360819380046e+00 4.482366187299992930e+02
2.124467382824221318e+00 4.475632507006667424e+02
2.124567404829062145e+00 4.468892805488957265e+02
2.124667426833903416e+00 4.462147152050230829e+02
2.124767448838744244e+00 4.455395616051313255e+02
2.124867470843585515e+00 4.448638266909432559e+02
2.124967492848426787e+00 4.441875174097140189e+02
2.125067514853267614e+00 4.435106407141271347e+02
2.125167536858108441e+00 4.428332035621888849e+02
2.125267558862949713e+00 4.421552129171203092e+02
2.125367580867790984e+00 4.414766757472539780e+02
2.125467602872631812e+00 4.407975990259295145e+02
2.125567624877473083e+00 4.401179897313855349e+02
2.125667646882313910e+00 4.394378548466574443e+02
2.125767668887154738e+00 4.387572013594727309e+02
2.125867690891996009e+00 4.380760362621441573e+02
2.125967712896837281e+00 4.373943665514678401e+02
2.126067734901678108e+00 4.367121992286180330e+02
2.126167756906519379e+00 4.360295412990440127e+02
2.126267778911360651e+00 4.353463997723648617e+02
2.126367800916201478e+00 4.346627816622668092e+02
2.126467822921042305e+00 4.339786939864004012e+02
2.126567844925883577e+00 4.332941437662761359e+02
2.126667866930724404e+00 4.326091380271629987e+02
2.126767888935565676e+00 4.319236837979843813e+02
2.126867910940406947e+00 4.312377881112151954e+02
2.126967932945247775e+00 4.305514580027805778e+02
2.127067954950089046e+00 4.298647005119536288e+02
2.127167976954929873e+00 4.291775226812534356e+02
2.127267998959770701e+00 4.284899315563416735e+02
2.127368020964611972e+00 4.278019341859239830e+02
2.127468042969453244e+00 4.271135376216458326e+02
2.127568064974294071e+00 4.264247489179934973e+02
2.127668086979135342e+00 4.257355751321906610e+02
2.127768108983976614e+00 4.250460233241012702e+02
2.127868130988817441e+00 4.243561005561255115e+02
2.127968152993658268e+00 4.236658138931011308e+02
2.128068174998499540e+00 4.229751704022045260e+02
2.128168197003340367e+00 4.222841771528484287e+02
2.128268219008181639e+00 4.215928412165840200e+02
2.128368241013022910e+00 4.209011696670012839e+02
2.128468263017863737e+00 4.202091695796285080e+02
2.128568285022704565e+00 4.195168480318367870e+02
2.128668307027545836e+00 4.188242121027361691e+02
2.128768329032387108e+00 4.181312688730825471e+02
2.128868351037227935e+00 4.174380254251752262e+02
2.128968373042069206e+00 4.167444888427619389e+02
2.129068395046910034e+00 4.160506662109387435e+02
2.129168417051751305e+00 4.153565646160545271e+02
2.129268439056592133e+00 4.146621911456114162e+02
2.129368461061433404e+00 4.139675528881701894e+02
2.129468483066274231e+00 4.132726569332523354e+02
2.129568505071115503e+00 4.125775103712433634e+02
2.129668527075956774e+00 4.118821202932957704e+02
2.129768549080797602e+00 4.111864937912349660e+02
2.129868571085638873e+00 4.104906379574620132e+02
2.129968593090479700e+00 4.097945598848584723e+02
2.130068615095320972e+00 4.090982666666902219e+02
2.130168637100161799e+00 4.084017653965146906e+02
2.130268659105003071e+00 4.077050631680832566e+02
2.130368681109843898e+00 4.070081670752485934e+02
2.130468703114685169e+00 4.063110842118692290e+02
2.130568725119526441e+00 4.056138216717170053e+02
2.130668747124367268e+00 4.049163865483814106e+02
2.130768769129208096e+00 4.042187859351772659e+02
2.130868791134049367e+00 4.035210269250510464e+02
2.130968813138890638e+00 4.028231166104888530e+02
2.131068835143731466e+00 4.021250620834211986e+02
2.131168857148572737e+00 4.014268704351335941e+02
2.131268879153413565e+00 4.007285487561723585e+02
2.131368901158254392e+00 4.000301041362534988e+02
2.131468923163095663e+00 3.993315436641704537e+02
2.131568945167936935e+00 3.986328744277034275e+02
2.131668967172777762e+00 3.979341035135277593e+02
2.131768989177619034e+00 3.972352380071229163e+02
2.131869011182460305e+00 3.965362849926825106e+02
2.131969033187301132e+00 3.958372515530240889e+02
2.132069055192141960e+00 3.951381447694971598e+02
2.132169077196983231e+00 3.944389717218962232e+02
2.132269099201824059e+00 3.937397394883703328e+02
2.132369121206665330e+00 3.930404551453323165e+02
2.132469143211506601e+00 3.923411257673722048e+02
2.132569165216347429e+00 3.916417584271669625e+02
2.132669187221188700e+00 3.909423601953932916e+02
2.132769209226029528e+00 3.902429381406379889e+02
2.132869231230870355e+00 3.895434993293117714e+02
2.132969253235711626e+00 3.888440508255607142e+02
2.133069275240552898e+00 3.881445996911802467e+02
2.133169297245393725e+00 3.874451529855264766e+02
2.133269319250234997e+00 3.867457177654301859e+02
2.133369341255076268e+00 3.860463010851125318e+02
2.133469363259917095e+00 3.853469099960948938e+02
2.133569385264757923e+00 3.846475515471168478e+02
2.133669407269599194e+00 3.839482327840483435e+02
2.133769429274440022e+00 3.832489607498060877e+02
2.133869451279281293e+00 3.825497424842674263e+02
2.133969473284122564e+00 3.818505850241861026e+02
2.134069495288963392e+00 3.811514954031081288e+02
2.134169517293804219e+00 3.804524806512881128e+02
2.134269539298645491e+00 3.797535477956043337e+02
2.134369561303486762e+00 3.790547038594754667e+02
2.134469583308327589e+00 3.783559558627794104e+02
2.134569605313168861e+00 3.776573108217687604e+02
2.134669627318009688e+00 3.769587757489877617e+02
2.134769649322850960e+00 3.762603576531901126e+02
2.134869671327691787e+00 3.755620635392596682e+02
2.134969693332533058e+00 3.748639004081252324e+02
2.135069715337373886e+00 3.741658752566816588e+02
2.135169737342215157e+00 3.734679950777075419e+02
2.135269759347056429e+00 3.727702668597842148e+02
2.135369781351897256e+00 3.720726975872170215e+02
2.135469803356738527e+00 3.713752942399536323e+02
2.135569825361579355e+00 3.706780637935039522e+02
2.135669847366420626e+00 3.699810132188623584e+02
2.135769869371261453e+00 3.692841494824264146e+02
2.135869891376102725e+00 3.685874795459192228e+02
2.135969913380943552e+00 3.678910103663106952e+02
2.136069935385784824e+00 3.671947488957387122e+02
2.136169957390625651e+00 3.664987020814310199e+02
2.136269979395466923e+00 3.658028768656282637e+02
2.136370001400307750e+00 3.651072801855063972e+02
2.136470023405149021e+00 3.644119189730988637e+02
2.136570045409990293e+00 3.637168001552202554e+02
2.136670067414831120e+00 3.630219306533900863e+02
2.136770089419672392e+00 3.623273173837570198e+02
2.136870111424513219e+00 3.616329672570212779e+02
2.136970133429354046e+00 3.609388871783604600e+02
2.137070155434195318e+00 3.602450840473546236e+02
2.137170177439036589e+00 3.595515647579107963e+02
2.137270199443877416e+00 3.588583361981865778e+02
2.137370221448718688e+00 3.581654052505201662e+02
2.137470243453559959e+00 3.574727787913510610e+02
2.137570265458400343e+00 3.567804636911512262e+02
2.137670287463241614e+00 3.560884668143474983e+02
2.137770309468082885e+00 3.553967950192533749e+02
2.137870331472923713e+00 3.547054551579893200e+02
2.137970353477764984e+00 3.540144540764177918e+02
2.138070375482606256e+00 3.533237986140665612e+02
2.138170397487447083e+00 3.526334956040565771e+02
2.138270419492287910e+00 3.519435518730344938e+02
2.138370441497129182e+00 3.512539742410964436e+02
2.138470463501970009e+00 3.505647695217209048e+02
2.138570485506811281e+00 3.498759445216955442e+02
2.138670507511652552e+00 3.491875060410494598e+02
2.138770529516493379e+00 3.484994608729811034e+02
2.138870551521334651e+00 3.478118158037883063e+02
2.138970573526175478e+00 3.471245776128029092e+02
2.139070595531016750e+00 3.464377530723159566e+02
2.139170617535857577e+00 3.457513489475134065e+02
2.139270639540698848e+00 3.450653719964055881e+02
2.139370661545539676e+00 3.443798289697598420e+02
2.139470683550380947e+00 3.436947266110331043e+02
2.139570705555222219e+00 3.430100716563030119e+02
2.139670727560063046e+00 3.423258708342025329e+02
2.139770749564903873e+00 3.416421308658516978e+02
2.139870771569745145e+00 3.409588584647925131e+02
2.139970793574586416e+00 3.402760603369202386e+02
