2.500050011002420192e+00 4.735554529313778858e+02
2.500150033007261463e+00 4.736191024055111143e+02
2.500250055012102735e+00 4.736827392145950171e+02
2.500350077016943562e+00 4.737463630693501386e+02
2.500450099021784833e+00 4.738099736792023577e+02
2.500550121026625661e+00 4.738735707522787379e+02
2.500650143031466488e+00 4.739371539954025820e+02
2.500750165036307759e+00 4.740007231140874069e+02
2.500850187041148587e+00 4.740642778125326799e+02
2.500950209045989858e+00 4.741278177936197267e+02
2.501050231050831130e+00 4.741913427589057051e+02
2.501150253055672401e+00 4.742548524086194561e+02
2.501250275060513228e+00 4.743183464416575816e+02
2.501350297065354056e+00 4.743818245555773956e+02
2.501450319070195327e+00 4.744452864465966968e+02
2.501550341075036155e+00 4.745087318095855267e+02
2.501650363079877426e+00 4.745721603380628721e+02
2.501750385084718253e+00 4.746355717241938805e+02
2.501850407089559525e+00 4.746989656587840045e+02
2.501950429094400796e+00 4.747623418312759327e+02
2.502050451099241180e+00 4.748256999297445304e+02
2.502150473104082895e+00 4.748890396408936567e+02
2.502250495108923722e+00 4.749523606500524693e+02
2.502350517113764994e+00 4.750156626411713887e+02
2.502450539118605821e+00 4.750789452968176079e+02
2.502550561123447093e+00 4.751422082981730455e+02
2.502650583128287920e+00 4.752054513250289460e+02
2.502750605133128747e+00 4.752686740557844018e+02
2.502850627137970463e+00 4.753318761674412372e+02
2.502950649142810846e+00 4.753950573356016207e+02
2.503050671147652562e+00 4.754582172344643141e+02
2.503150693152493389e+00 4.755213555368227958e+02
2.503250715157334660e+00 4.755844719140595771e+02
2.503350737162175488e+00 4.756475660361464861e+02
2.503450759167016315e+00 4.757106375716392677e+02
2.503550781171857587e+00 4.757736861876761623e+02
2.503650803176698414e+00 4.758367115499741544e+02
2.503750825181540129e+00 4.758997133228272105e+02
2.503850847186380513e+00 4.759626911691035502e+02
2.503950869191222228e+00 4.760256447502432025e+02
2.504050891196063056e+00 4.760885737262545376e+02
2.504150913200903883e+00 4.761514777557140405e+02
2.504250935205745154e+00 4.762143564957620470e+02
2.504350957210585982e+00 4.762772096021024026e+02
2.504450979215427253e+00 4.763400367289987116e+02
2.504551001220268081e+00 4.764028375292745068e+02
2.504651023225109796e+00 4.764656116543089865e+02
2.504751045229950179e+00 4.765283587540367876e+02
2.504851067234791451e+00 4.765910784769469615e+02
2.504951089239632722e+00 4.766537704700797349e+02
2.505051111244473550e+00 4.767164343790248608e+02
2.505151133249314821e+00 4.767790698479236653e+02
2.505251155254155648e+00 4.768416765194631353e+02
2.505351177258996920e+00 4.769042540348772263e+02
2.505451199263837747e+00 4.769668020339458394e+02
2.505551221268678574e+00 4.770293201549935702e+02
2.505651243273519846e+00 4.770918080348882881e+02
2.505751265278361117e+00 4.771542653090403405e+02
2.505851287283202389e+00 4.772166916114033484e+02
2.505951309288043216e+00 4.772790865744702842e+02
2.506051331292884488e+00 4.773414498292774510e+02
2.506151353297725315e+00 4.774037810054005035e+02
2.506251375302566142e+00 4.774660797309550730e+02
2.506351397307407414e+00 4.775283456325975067e+02
2.506451419312248241e+00 4.775905783355236736e+02
2.506551441317089512e+00 4.776527774634693060e+02
2.506651463321930784e+00 4.777149426387100561e+02
2.506751485326772055e+00 4.777770734820613256e+02
2.506851507331612883e+00 4.778391696128800845e+02
2.506951529336453710e+00 4.779012306490624269e+02
2.507051551341294982e+00 4.779632562070467543e+02
2.507151573346135809e+00 4.780252459018138325e+02
2.507251595350977080e+00 4.780871993468853134e+02
2.507351617355817908e+00 4.781491161543267481e+02
2.507451639360659179e+00 4.782109959347492349e+02
2.507551661365500451e+00 4.782728382973068619e+02
2.507651683370340834e+00 4.783346428497013676e+02
2.507751705375182549e+00 4.783964091981822548e+02
2.507851727380023377e+00 4.784581369475463362e+02
2.507951749384864648e+00 4.785198257011422811e+02
2.508051771389705475e+00 4.785814750608690247e+02
2.508151793394546747e+00 4.786430846271802579e+02
2.508251815399387574e+00 4.787046539990834049e+02
2.508351837404228402e+00 4.787661827741435445e+02
2.508451859409070117e+00 4.788276705484848321e+02
2.508551881413910500e+00 4.788891169167920339e+02
2.508651903418752216e+00 4.789505214723120616e+02
2.508751925423593043e+00 4.790118838068590321e+02
2.508851947428434315e+00 4.790732035108129026e+02
2.508951969433275142e+00 4.791344801731250982e+02
2.509051991438115969e+00 4.791957133813187966e+02
2.509152013442957241e+00 4.792569027214944413e+02
2.509252035447798068e+00 4.793180477783283777e+02
2.509352057452639784e+00 4.793791481350792765e+02
2.509452079457480167e+00 4.794402033735910322e+02
2.509552101462321883e+00 4.795012130742928775e+02
2.509652123467162710e+00 4.795621768162063745e+02
2.509752145472003537e+00 4.796230941769459832e+02
2.509852167476844809e+00 4.796839647327244052e+02
2.509952189481685636e+00 4.797447880583551409e+02
2.510052211486526907e+00 4.798055637272559011e+02
2.510152233491367735e+00 4.798662913114533239e+02
2.510252255496209450e+00 4.799269703815868411e+02
2.510352277501049834e+00 4.799876005069116900e+02
2.510452299505891105e+00 4.800481812553042005e+02
2.510552321510732376e+00 4.801087121932662285e+02
2.510652343515573204e+00 4.801691928859269183e+02
2.510752365520414475e+00 4.802296228970510583e+02
2.510852387525255303e+00 4.802900017890414119e+02
2.510952409530096574e+00 4.803503291229432079e+02
2.511052431534937401e+00 4.804106044584493702e+02
2.511152453539778229e+00 4.804708273539068273e+02
2.511252475544619500e+00 4.805309973663196388e+02
2.511352497549460772e+00 4.805911140513544524e+02
2.511452519554302043e+00 4.806511769633471545e+02
2.511552541559142870e+00 4.807111856553068492e+02
2.511652563563984142e+00 4.807711396789223954e+02
2.511752585568824969e+00 4.808310385845660448e+02
2.511852607573665797e+00 4.808908819213028210e+02
2.511952629578507068e+00 4.809506692368923950e+02
2.512052651583347895e+00 4.810104000777977831e+02
2.512152673588189167e+00 4.810700739891909166e+02
2.512252695593030438e+00 4.811296905149568488e+02
2.512352717597871710e+00 4.811892491977033046e+02
2.512452739602712537e+00 4.812487495787652279e+02
2.512552761607553364e+00 4.813081911982111478e+02
2.512652783612394636e+00 4.813675735948503416e+02
2.512752805617235463e+00 4.814268963062405078e+02
2.512852827622076735e+00 4.814861588686925415e+02
2.512952849626917562e+00 4.815453608172796862e+02
2.513052871631758833e+00 4.816045016858435019e+02
2.513152893636600105e+00 4.816635810070010848e+02
2.513252915641440488e+00 4.817225983121531954e+02
2.513352937646282204e+00 4.817815531314913642e+02
2.513452959651123031e+00 4.818404449940058498e+02
2.513552981655964302e+00 4.818992734274917211e+02
2.513653003660805130e+00 4.819580379585590890e+02
2.513753025665646401e+00 4.820167381126394730e+02
2.513853047670487229e+00 4.820753734139950666e+02
2.513953069675328056e+00 4.821339433857244217e+02
2.514053091680169771e+00 4.821924475497752951e+02
2.514153113685010155e+00 4.822508854269475478e+02
2.514253135689851870e+00 4.823092565369066165e+02
2.514353157694692698e+00 4.823675603981891982e+02
2.514453179699533969e+00 4.824257965282126293e+02
2.514553201704374796e+00 4.824839644432851173e+02
2.514653223709215624e+00 4.825420636586130740e+02
2.514753245714056895e+00 4.826000936883101531e+02
2.514853267718897722e+00 4.826580540454087327e+02
2.514953289723739438e+00 4.827159442418674189e+02
2.515053311728579821e+00 4.827737637885806521e+02
2.515153333733421537e+00 4.828315121953874041e+02
2.515253355738262364e+00 4.828891889710854457e+02
2.515353377743103191e+00 4.829467936234344165e+02
2.515453399747944463e+00 4.830043256591713998e+02
2.515553421752785290e+00 4.830617845840185964e+02
2.515653443757626562e+00 4.831191699026922493e+02
2.515753465762467389e+00 4.831764811189165130e+02
2.515853487767309105e+00 4.832337177354312416e+02
2.515953509772149488e+00 4.832908792540022773e+02
2.516053531776990759e+00 4.833479651754347515e+02
2.516153553781832031e+00 4.834049749995809862e+02
2.516253575786672858e+00 4.834619082253525448e+02
2.516353597791514130e+00 4.835187643507312600e+02
2.516453619796354957e+00 4.835755428727820231e+02
2.516553641801196228e+00 4.836322432876604580e+02
2.516653663806037056e+00 4.836888650906275302e+02
2.516753685810877883e+00 4.837454077760583573e+02
2.516853707815719154e+00 4.838018708374573862e+02
2.516953729820560426e+00 4.838582537674660671e+02
2.517053751825401697e+00 4.839145560578780874e+02
2.517153773830242525e+00 4.839707771996484098e+02
2.517253795835083796e+00 4.840269166829083360e+02
2.517353817839924623e+00 4.840829739969744878e+02
2.517453839844765451e+00 4.841389486303649505e+02
2.517553861849606722e+00 4.841948400708079703e+02
2.517653883854447550e+00 4.842506478052558236e+02
2.517753905859288821e+00 4.843063713198988580e+02
2.517853927864130092e+00 4.843620101001766898e+02
2.517953949868971364e+00 4.844175636307908803e+02
2.518053971873812191e+00 4.844730313957203975e+02
2.518153993878653019e+00 4.845284128782304265e+02
2.518254015883494290e+00 4.845837075608895930e+02
2.518354037888335117e+00 4.846389149255819575e+02
2.518454059893176389e+00 4.846940344535198051e+02
2.518554081898017216e+00 4.847490656252572307e+02
2.518654103902858488e+00 4.848040079207059421e+02
2.518754125907699759e+00 4.848588608191454910e+02
2.518854147912540142e+00 4.849136237992403267e+02
2.518954169917381858e+00 4.849682963390523014e+02
2.519054191922222685e+00 4.850228779160557337e+02
2.519154213927063957e+00 4.850773680071495164e+02
2.519254235931904784e+00 4.851317660886747376e+02
2.519354257936746055e+00 4.851860716364254813e+02
2.519454279941586883e+00 4.852402841256682677e+02
2.519554301946427710e+00 4.852944030311504662e+02
2.519654323951269426e+00 4.853484278271215544e+02
2.519754345956109809e+00 4.854023579873426684e+02
2.519854367960951524e+00 4.854561929851047921e+02
2.519954389965792352e+00 4.855099322932425139e+02
2.520054411970633623e+00 4.855635753841510791e+02
2.520154433975474451e+00 4.856171217297989529e+02
2.520254455980315278e+00 4.856705708017460665e+02
2.520354477985156549e+00 4.857239220711571761e+02
2.520454499989997377e+00 4.857771750088181761e+02
2.520554521994839092e+00 4.858303290851534371e+02
2.520654543999679476e+00 4.858833837702400160e+02
2.520754566004521191e+00 4.859363385338225498e+02
2.520854588009362018e+00 4.859891928453334913e+02
2.520954610014202846e+00 4.860419461739052167e+02
2.521054632019044117e+00 4.860945979883874202e+02
2.521154654023884945e+00 4.861471477573653601e+02
2.521254676028726216e+00 4.861995949491742977e+02
2.521354698033567043e+00 4.862519390319166064e+02
2.521454720038408759e+00 4.863041794734801897e+02
2.521554742043249142e+00 4.863563157415520664e+02
2.521654764048090414e+00 4.864083473036380383e+02
2.521754786052931685e+00 4.864602736270793457e+02
2.521854808057772512e+00 4.865120941790690949e+02
2.521954830062613784e+00 4.865638084266690839e+02
2.522054852067454611e+00 4.866154158368296976e+02
2.522154874072295883e+00 4.866669158764032090e+02
2.522254896077136710e+00 4.867183080121657213e+02
2.522354918081977537e+00 4.867695917108319463e+02
2.522454940086818809e+00 4.868207664390739069e+02
2.522554962091660080e+00 4.868718316635388987e+02
2.522654984096501352e+00 4.869227868508672827e+02
2.522755006101342179e+00 4.869736314677112432e+02
2.522855028106183450e+00 4.870243649807509314e+02
2.522955050111024278e+00 4.870749868567153840e+02
2.523055072115865105e+00 4.871254965623992348e+02
2.523155094120706377e+00 4.871758935646813029e+02
2.523255116125547204e+00 4.872261773305435781e+02
2.523355138130388475e+00 4.872763473270900363e+02
2.523455160135229747e+00 4.873264030215646017e+02
2.523555182140071018e+00 4.873763438813705875e+02
2.523655204144911846e+00 4.874261693740897954e+02
2.523755226149752673e+00 4.874758789675008757e+02
2.523855248154593944e+00 4.875254721295992795e+02
2.523955270159434772e+00 4.875749483286156192e+02
2.524055292164276043e+00 4.876243070330351657e+02
2.524155314169116870e+00 4.876735477116180277e+02
2.524255336173958142e+00 4.877226698334182515e+02
2.524355358178799413e+00 4.877716728678026357e+02
2.524455380183639797e+00 4.878205562844715359e+02
2.524555402188481512e+00 4.878693195534780216e+02
2.524655424193322339e+00 4.879179621452471451e+02
2.524755446198163611e+00 4.879664835305978841e+02
2.524855468203004438e+00 4.880148831807609895e+02
2.524955490207845710e+00 4.880631605674001321e+02
2.525055512212686537e+00 4.881113151626320246e+02
2.525155534217527364e+00 4.881593464390459189e+02
2.525255556222369080e+00 4.882072538697267987e+02
2.525355578227209463e+00 4.882550369282712381e+02
2.525455600232051179e+00 4.883026950888122428e+02
2.525555622236892006e+00 4.883502278260369849e+02
2.525655644241733278e+00 4.883976346152094266e+02
2.525755666246574105e+00 4.884449149321901587e+02
2.525855688251414932e+00 4.884920682534570346e+02
2.525955710256256204e+00 4.885390940561264870e+02
2.526055732261097031e+00 4.885859918179750707e+02
2.526155754265938747e+00 4.886327610174611777e+02
2.526255776270779130e+00 4.886794011337424308e+02
2.526355798275620845e+00 4.887259116467017179e+02
2.526455820280461673e+00 4.887722920369667463e+02
2.526555842285302500e+00 4.888185417859298241e+02
2.526655864290143771e+00 4.888646603757719618e+02
2.526755886294984599e+00 4.889106472894833360e+02
2.526855908299825870e+00 4.889565020108836961e+02
2.526955930304666698e+00 4.890022240246468641e+02
2.527055952309508413e+00 4.890478128163196629e+02
2.527155974314348796e+00 4.890932678723465301e+02
2.527255996319190068e+00 4.891385886800885032e+02
2.527356018324031339e+00 4.891837747278482311e+02
2.527456040328872167e+00 4.892288255048896417e+02
2.527556062333713438e+00 4.892737405014614183e+02
2.527656084338554265e+00 4.893185192088192252e+02
2.527756106343395537e+00 4.893631611192473656e+02
2.527856128348236364e+00 4.894076657260812908e+02
2.527956150353077192e+00 4.894520325237304519e+02
2.528056172357918463e+00 4.894962610077010368e+02
2.528156194362759734e+00 4.895403506746176276e+02
2.528256216367601006e+00 4.895843010222460521e+02
2.528356238372441833e+00 4.896281115495162908e+02
2.528456260377282661e+00 4.896717817565461246e+02
2.528556282382123932e+00 4.897153111446621097e+02
2.528656304386964759e+00 4.897586992164243611e+02
2.528756326391806031e+00 4.898019454756477558e+02
2.528856348396646858e+00 4.898450494274256357e+02
2.528956370401488130e+00 4.898880105781544216e+02
2.529056392406329401e+00 4.899308284355530532e+02
2.529156414411169784e+00 4.899735025086909559e+02
2.529256436416011500e+00 4.900160323080064586e+02
2.529356458420852327e+00 4.900584173453341919e+02
2.529456480425693599e+00 4.901006571339256084e+02
2.529556502430534426e+00 4.901427511884735395e+02
2.529656524435375697e+00 4.901846990251356715e+02
2.529756546440216525e+00 4.902265001615576239e+02
2.529856568445057352e+00 4.902681541168976196e+02
2.529956590449899068e+00 4.903096604118482560e+02
2.530056612454739451e+00 4.903510185686611180e+02
2.530156634459581166e+00 4.903922281111716757e+02
2.530256656464421994e+00 4.904332885648209412e+02
2.530356678469263265e+00 4.904741994566801395e+02
2.530456700474104093e+00 4.905149603154754914e+02
2.530556722478944920e+00 4.905555706716111786e+02
2.530656744483786191e+00 4.905960300571927064e+02
2.530756766488627019e+00 4.906363380060521990e+02
2.530856788493468734e+00 4.906764940537713073e+02
2.530956810498309117e+00 4.907164977377070159e+02
2.531056832503150833e+00 4.907563485970122201e+02
2.531156854507991660e+00 4.907960461726645462e+02
2.531256876512832488e+00 4.908355900074874398e+02
2.531356898517673759e+00 4.908749796461752908e+02
2.531456920522514586e+00 4.909142146353165117e+02
2.531556942527355858e+00 4.909532945234204817e+02
2.531656964532196685e+00 4.909922188609398290e+02
2.531756986537038401e+00 4.910309872002949305e+02
2.531857008541878784e+00 4.910695990958998323e+02
2.531957030546720055e+00 4.911080541041833385e+02
2.532057052551561327e+00 4.911463517836189112e+02
2.532157074556402154e+00 4.911844916947433717e+02
2.532257096561243426e+00 4.912224734001855495e+02
2.532357118566084253e+00 4.912602964646886221e+02
2.532457140570925525e+00 4.912979604551371153e+02
2.532557162575766352e+00 4.913354649405771397e+02
2.532657184580607179e+00 4.913728094922469722e+02
2.532757206585448451e+00 4.914099936835968379e+02
2.532857228590289722e+00 4.914470170903150574e+02
2.532957250595130994e+00 4.914838792903547073e+02
2.533057272599971821e+00 4.915205798639556178e+02
2.533157294604813092e+00 4.915571183936706348e+02
2.533257316609653920e+00 4.915934944643904032e+02
2.533357338614494747e+00 4.916297076633676397e+02
2.533457360619336018e+00 4.916657575802428255e+02
2.533557382624176846e+00 4.917016438070671711e+02
2.533657404629018117e+00 4.917373659383306972e+02
2.533757426633859389e+00 4.917729235709828117e+02
2.533857448638700660e+00 4.918083163044628350e+02
2.533957470643541487e+00 4.918435437407185873e+02
2.534057492648382315e+00 4.918786054842370277e+02
2.534157514653223586e+00 4.919135011420651153e+02
2.534257536658064414e+00 4.919482303238361851e+02
2.534357558662905685e+00 4.919827926417961521e+02
2.534457580667746512e+00 4.920171877108271019e+02
2.534557602672587784e+00 4.920514151484725289e+02
2.534657624677429055e+00 4.920854745749609833e+02
2.534757646682269439e+00 4.921193656132352316e+02
2.534857668687111154e+00 4.921530878889720952e+02
2.534957690691951981e+00 4.921866410306102466e+02
2.535057712696793253e+00 4.922200246693767554e+02
2.535157734701634080e+00 4.922532384393074949e+02
2.535257756706475352e+00 4.922862819772768717e+02
2.535357778711316179e+00 4.923191549230193687e+02
2.535457800716157006e+00 4.923518569191580809e+02
2.535557822720998722e+00 4.923843876112248381e+02
2.535657844725839105e+00 4.924167466476909567e+02
2.535757866730680821e+00 4.924489336799872490e+02
2.535857888735521648e+00 4.924809483625321036e+02
2.535957910740362919e+00 4.925127903527555873e+02
2.536057932745203747e+00 4.925444593111238873e+02
2.536157954750044574e+00 4.925759549011648346e+02
2.536257976754885846e+00 4.926072767894938806e+02
2.536357998759726673e+00 4.926384246458358120e+02
2.536458020764568388e+00 4.926693981430541385e+02
2.536558042769408772e+00 4.927001969571732616e+02
2.536658064774250487e+00 4.927308207674035998e+02
2.536758086779091315e+00 4.927612692561656331e+02
2.536858108783932142e+00 4.927915421091187795e+02
2.536958130788773413e+00 4.928216390151817450e+02
2.537058152793614241e+00 4.928515596665585008e+02
2.537158174798455512e+00 4.928813037587659664e+02
2.537258196803296340e+00 4.929108709906549848e+02
2.537358218808138055e+00 4.929402610644373226e+02
2.537458240812978438e+00 4.929694736857095450e+02
2.537558262817819710e+00 4.929985085634797315e+02
2.537658284822660981e+00 4.930273654101883949e+02
2.537758306827501809e+00 4.930560439417375278e+02
2.537858328832343080e+00 4.930845438775114644e+02
2.537958350837183907e+00 4.931128649404049042e+02
2.538058372842025179e+00 4.931410068568449674e+02
2.538158394846866006e+00 4.931689693568173993e+02
2.538258416851706833e+00 4.931967521738898768e+02
2.538358438856548105e+00 4.932243550452375302e+02
2.538458460861389376e+00 4.932517777116678985e+02
2.538558482866230648e+00 4.932790199176434953e+02
2.538658504871071475e+00 4.933060814113073320e+02
2.538758526875912747e+00 4.933329619445090088e+02
2.538858548880753574e+00 4.933596612728248374e+02
2.538958570885594401e+00 4.933861791555885929e+02
2.539058592890435673e+00 4.934125153559079990e+02
2.539158614895276500e+00 4.934386696406959913e+02
2.539258636900117772e+00 4.934646417806902718e+02
2.539358658904959043e+00 4.934904315504794567e+02
2.539458680909800314e+00 4.935160387285282582e+02
2.539558702914641142e+00 4.935414630971978340e+02
2.539658724919481969e+00 4.935667044427745509e+02
2.539758746924323241e+00 4.935917625554900496e+02
2.539858768929164068e+00 4.936166372295473366e+02
2.539958790934005339e+00 4.936413282631447714e+02
2.540058812938846167e+00 4.936658354584982362e+02
2.540158834943687438e+00 4.936901586218662032e+02
2.540258856948528710e+00 4.937142975635736093e+02
2.540358878953369093e+00 4.937382520980351046e+02
2.540458900958210808e+00 4.937620220437784724e+02
2.540558922963051636e+00 4.937856072234686735e+02
2.540658944967892907e+00 4.938090074639313229e+02
2.540758966972733734e+00 4.938322225961762797e+02
2.540858988977575006e+00 4.938552524554196452e+02
2.540959010982415833e+00 4.938780968811096841e+02
2.541059032987256661e+00 4.939007557169480265e+02
2.541159054992098376e+00 4.939232288109130877e+02
2.541259076996938759e+00 4.939455160152849089e+02
2.541359099001780475e+00 4.939676171866668710e+02
2.541459121006621302e+00 4.939895321860076365e+02
2.541559143011462574e+00 4.940112608786265582e+02
2.541659165016303401e+00 4.940328031342352233e+02
2.541759187021144228e+00 4.940541588269608155e+02
2.541859209025985500e+00 4.940753278353680003e+02
2.541959231030826327e+00 4.940963100424814911e+02
2.542059253035668043e+00 4.941171053358118570e+02
2.542159275040508426e+00 4.941377136073733141e+02
2.542259297045350142e+00 4.941581347537089641e+02
2.542359319050190969e+00 4.941783686759131911e+02
2.542459341055031796e+00 4.941984152796528065e+02
2.542559363059873068e+00 4.942182744751908103e+02
2.542659385064713895e+00 4.942379461774075935e+02
2.542759407069555166e+00 4.942574303058216856e+02
2.542859429074395994e+00 4.942767267846159029e+02
2.542959451079237709e+00 4.942958355426547996e+02
2.543059473084078093e+00 4.943147565135080299e+02
2.543159495088919364e+00 4.943334896354739953e+02
2.543259517093760635e+00 4.943520348515992282e+02
2.543359539098601463e+00 4.943703921097001057e+02
2.543459561103442734e+00 4.943885613623855306e+02
2.543559583108283562e+00 4.944065425670781906e+02
2.543659605113124833e+00 4.944243356860348513e+02
2.543759627117965660e+00 4.944419406863682980e+02
2.543859649122806488e+00 4.944593575400684813e+02
2.543959671127647759e+00 4.944765862240242313e+02
2.544059693132489031e+00 4.944936267200419024e+02
2.544159715137330302e+00 4.945104790148697589e+02
2.544259737142171129e+00 4.945271431002151985e+02
2.544359759147012401e+00 4.945436189727678311e+02
2.544459781151853228e+00 4.945599066342192600e+02
2.544559803156694056e+00 4.945760060912840572e+02
2.544659825161535327e+00 4.945919173557185786e+02
2.544759847166376154e+00 4.946076404443428487e+02
2.544859869171217426e+00 4.946231753790611947e+02
2.544959891176058697e+00 4.946385221868791859e+02
2.545059913180899969e+00 4.946536808999283039e+02
2.545159935185740796e+00 4.946686515554820289e+02
2.545259957190581623e+00 4.946834341959764174e+02
2.545359979195422895e+00 4.946980288690309067e+02
2.545460001200263722e+00 4.947124356274674710e+02
2.545560023205104994e+00 4.947266545293288118e+02
2.545660045209945821e+00 4.947406856378993893e+02
2.545760067214787092e+00 4.947545290217240108e+02
2.545860089219628364e+00 4.947681847546253380e+02
2.545960111224468747e+00 4.947816529157265109e+02
2.546060133229310463e+00 4.947949335894669503e+02
2.546160155234151290e+00 4.948080268656210592e+02
2.546260177238992561e+00 4.948209328393188002e+02
2.546360199243833389e+00 4.948336516110636012e+02
2.546460221248674660e+00 4.948461832867497492e+02
2.546560243253515488e+00 4.948585279776813195e+02
2.546660265258356315e+00 4.948706858005916160e+02
2.546760287263198030e+00 4.948826568776576096e+02
2.546860309268038414e+00 4.948944413365227319e+02
2.546960331272880129e+00 4.949060393103101774e+02
2.547060353277720957e+00 4.949174509376443893e+02
2.547160375282562228e+00 4.949286763626657262e+02
2.547260397287403055e+00 4.949397157350488214e+02
2.547360419292243883e+00 4.949505692100209444e+02
2.547460441297085154e+00 4.949612369483771772e+02
2.547560463301925981e+00 4.949717191164999122e+02
2.547660485306767697e+00 4.949820158863727215e+02
2.547760507311608080e+00 4.949921274356003096e+02
2.547860529316449796e+00 4.950020539474223824e+02
2.547960551321290623e+00 4.950117956107325199e+02
2.548060573326131451e+00 4.950213526200931256e+02
2.548160595330972722e+00 4.950307251757516269e+02
2.548260617335813549e+00 4.950399134836573580e+02
2.548360639340654821e+00 4.950489177554763955e+02
2.548460661345495648e+00 4.950577382086096918e+02
2.548560683350337364e+00 4.950663750662050688e+02
2.548660705355177747e+00 4.950748285571771135e+02
2.548760727360019018e+00 4.950830989162189439e+02
2.548860749364860290e+00 4.950911863838197746e+02
2.548960771369701117e+00 4.950990912062771372e+02
2.549060793374542389e+00 4.951068136357174581e+02
2.549160815379383216e+00 4.951143539301037890e+02
2.549260837384224487e+00 4.951217123532563846e+02
2.549360859389065315e+00 4.951288891748629908e+02
2.549460881393906142e+00 4.951358846704974894e+02
2.549560903398747413e+00 4.951426991216298461e+02
2.549660925403588685e+00 4.951493328156427083e+02
2.549760947408429956e+00 4.951557860458449341e+02
2.549860969413270784e+00 4.951620591114859735e+02
2.549960991418112055e+00 4.951681523177669533e+02
2.550061013422952882e+00 4.951740659758575021e+02
2.550161035427793710e+00 4.951798004029072899e+02
2.550261057432634981e+00 4.951853559220592729e+02
2.550361079437475809e+00 4.951907328624633919e+02
2.550461101442317080e+00 4.951959315592872599e+02
2.550561123447158351e+00 4.952009523537333280e+02
2.550661145451999623e+00 4.952057955930467301e+02
2.550761167456840450e+00 4.952104616305298919e+02
2.550861189461681278e+00 4.952149508255555475e+02
2.550961211466522549e+00 4.952192635435764032e+02
2.551061233471363376e+00 4.952234001561391779e+02
2.551161255476204648e+00 4.952273610408955165e+02
2.551261277481045475e+00 4.952311465816136433e+02
2.551361299485886747e+00 4.952347571681888212e+02
2.551461321490728018e+00 4.952381931966571642e+02
2.551561343495568401e+00 4.952414550692039370e+02
2.551661365500410117e+00 4.952445431941761171e+02
2.551761387505250944e+00 4.952474579860916037e+02
2.551861409510092216e+00 4.952501998656529167e+02
2.551961431514933043e+00 4.952527692597532791e+02
2.552061453519774314e+00 4.952551666014898046e+02
2.552161475524615142e+00 4.952573923301737295e+02
2.552261497529455969e+00 4.952594468913384276e+02
2.552361519534297685e+00 4.952613307367506650e+02
2.552461541539138068e+00 4.952630443244194112e+02
2.552561563543979783e+00 4.952645881186047632e+02
2.552661585548820611e+00 4.952659625898286322e+02
2.552761607553661882e+00 4.952671682148830996e+02
2.552861629558502710e+00 4.952682054768380340e+02
2.552961651563343537e+00 4.952690748650516070e+02
2.553061673568184808e+00 4.952697768751768308e+02
2.553161695573025636e+00 4.952703120091730966e+02
2.553261717577867351e+00 4.952706807753099838e+02
2.553361739582707735e+00 4.952708836881785714e+02
2.553461761587549450e+00 4.952709212686978049e+02
2.553561783592390277e+00 4.952707940441221695e+02
2.553661805597231105e+00 4.952705025480489667e+02
2.553761827602072376e+00 4.952700473204270111e+02
2.553861849606913204e+00 4.952694289075604956e+02
2.553961871611754475e+00 4.952686478621200195e+02
2.554061893616595302e+00 4.952677047431449182e+02
2.554161915621437018e+00 4.952666001160528708e+02
2.554261937626277401e+00 4.952653345526447310e+02
2.554361959631118673e+00 4.952639086311121446e+02
2.554461981635959944e+00 4.952623229360398227e+02
2.554562003640800771e+00 4.952605780584173090e+02
2.554662025645642043e+00 4.952586745956374443e+02
2.554762047650482870e+00 4.952566131515076222e+02
2.554862069655324142e+00 4.952543943362511527e+02
2.554962091660164969e+00 4.952520187665144249e+02
2.555062113665005796e+00 4.952494870653707721e+02
2.555162135669847068e+00 4.952467998623242806e+02
2.555262157674688339e+00 4.952439577933158716e+02
2.555362179679529611e+00 4.952409615007264279e+02
2.555462201684370438e+00 4.952378116333804314e+02
2.555562223689211709e+00 4.952345088465507388e+02
2.555662245694052537e+00 4.952310538019615365e+02
2.555762267698893364e+00 4.952274471677915813e+02
2.555862289703734636e+00 4.952236896186786907e+02
2.555962311708575463e+00 4.952197818357203687e+02
2.556062333713416734e+00 4.952157245064787503e+02
2.556162355718258006e+00 4.952115183249822508e+02
2.556262377723099277e+00 4.952071639917282937e+02
2.556362399727940105e+00 4.952026622136846754e+02
2.556462421732780932e+00 4.951980137042935439e+02
2.556562443737622203e+00 4.951932191834702621e+02
2.556662465742463031e+00 4.951882793776081257e+02
2.556762487747304302e+00 4.951831950195769423e+02
2.556862509752145129e+00 4.951779668487262711e+02
2.556962531756986401e+00 4.951725956108850824e+02
2.557062553761827672e+00 4.951670820583638033e+02
2.557162575766668056e+00 4.951614269499532384e+02
2.557262597771509771e+00 4.951556310509269565e+02
2.557362619776350598e+00 4.951496951330392449e+02
2.557462641781191870e+00 4.951436199745262456e+02
2.557562663786032697e+00 4.951374063601068656e+02
2.557662685790873969e+00 4.951310550809794222e+02
2.557762707795714796e+00 4.951245669348236333e+02
2.557862729800555623e+00 4.951179427257983434e+02
2.557962751805397339e+00 4.951111832645404434e+02
2.558062773810237722e+00 4.951042893681652117e+02
2.558162795815079438e+00 4.950972618602612556e+02
2.558262817819920265e+00 4.950901015708936939e+02
2.558362839824761537e+00 4.950828093365967675e+02
2.558462861829602364e+00 4.950753860003771933e+02
2.558562883834443191e+00 4.950678324117065472e+02
2.558662905839284463e+00 4.950601494265239353e+02
2.558762927844125290e+00 4.950523379072277521e+02
2.558862949848967006e+00 4.950443987226776130e+02
2.558962971853807389e+00 4.950363327481875899e+02
2.559062993858649104e+00 4.950281408655251880e+02
2.559163015863489932e+00 4.950198239629060595e+02
2.559263037868330759e+00 4.950113829349909338e+02
2.559363059873172030e+00 4.950028186828817525e+02
2.559463081878012858e+00 4.949941321141164394e+02
2.559563103882854129e+00 4.949853241426651493e+02
2.559663125887694957e+00 4.949763956889260044e+02
2.559763147892536672e+00 4.949673476797186140e+02
2.559863169897377055e+00 4.949581810482812330e+02
2.559963191902218327e+00 4.949488967342621208e+02
2.560063213907059598e+00 4.949394956837179507e+02
2.560163235911900426e+00 4.949299788491044865e+02
2.560263257916741697e+00 4.949203471892726043e+02
2.560363279921582524e+00 4.949106016694612435e+02
2.560463301926423796e+00 4.949007432612905859e+02
2.560563323931264623e+00 4.948907729427580193e+02
2.560663345936105451e+00 4.948806916982266557e+02
2.560763367940946722e+00 4.948705005184224319e+02
2.560863389945787993e+00 4.948602004004246169e+02
2.560963411950629265e+00 4.948497923476584219e+02
2.561063433955470092e+00 4.948392773698878955e+02
2.561163455960311364e+00 4.948286564832068279e+02
2.561263477965152191e+00 4.948179307100330107e+02
2.561363499969993018e+00 4.948071010790960145e+02
2.561463521974834290e+00 4.947961686254322444e+02
2.561563543979675117e+00 4.947851343903735710e+02
2.561663565984516389e+00 4.947739994215381785e+02
2.561763587989357660e+00 4.947627647728247666e+02
2.561863609994198931e+00 4.947514315043965212e+02
2.561963631999039759e+00 4.947400006826792378e+02
2.562063654003880586e+00 4.947284733803448944e+02
2.562163676008721858e+00 4.947168506763035793e+02
2.562263698013562685e+00 4.947051336556946239e+02
2.562363720018403956e+00 4.946933234098738694e+02
2.562463742023244784e+00 4.946814210364037763e+02
2.562563764028086055e+00 4.946694276390413165e+02
2.562663786032927327e+00 4.946573443277287083e+02
2.562763808037767710e+00 4.946451722185797735e+02
2.562863830042609425e+00 4.946329124338687393e+02
2.562963852047450253e+00 4.946205661020187563e+02
2.563063874052291524e+00 4.946081343575898472e+02
2.563163896057132352e+00 4.945956183412649239e+02
2.563263918061973179e+00 4.945830191998393275e+02
2.563363940066814450e+00 4.945703380862057088e+02
2.563463962071655278e+00 4.945575761593423181e+02
2.563563984076496993e+00 4.945447345843002722e+02
2.563664006081337376e+00 4.945318145321879229e+02
2.563764028086179092e+00 4.945188171801579529e+02
2.563864050091019919e+00 4.945057437113947572e+02
2.563964072095860747e+00 4.944925953150988107e+02
2.564064094100702018e+00 4.944793731864712640e+02
2.564164116105542846e+00 4.944660785267016081e+02
2.564264138110384117e+00 4.944527125429511329e+02
2.564364160115224944e+00 4.944392764483384326e+02
2.564464182120066660e+00 4.944257714619237163e+02
2.564564204124907043e+00 4.944121988086939155e+02
2.564664226129748315e+00 4.943985597195450055e+02
2.564764248134589586e+00 4.943848554312691022e+02
2.564864270139430413e+00 4.943710871865347372e+02
2.564964292144271685e+00 4.943572562338728176e+02
2.565064314149112512e+00 4.943433638276595730e+02
2.565164336153953784e+00 4.943294112280985928e+02
2.565264358158794611e+00 4.943153997012038872e+02
2.565364380163635438e+00 4.943013305187840842e+02
2.565464402168476710e+00 4.942872049584229899e+02
2.565564424173317981e+00 4.942730243034623072e+02
2.565664446178159253e+00 4.942587898429836173e+02
2.565764468183000080e+00 4.942445028717912692e+02
2.565864490187841351e+00 4.942301646903914047e+02
2.565964512192682179e+00 4.942157766049759857e+02
2.566064534197523006e+00 4.942013399274014773e+02
2.566164556202364277e+00 4.941868559751715679e+02
2.566264578207205105e+00 4.941723260714163644e+02
2.566364600212046376e+00 4.941577515448739177e+02
2.566464622216887648e+00 4.941431337298693052e+02
2.566564644221728919e+00 4.941284739662965535e+02
2.566664666226569746e+00 4.941137735995948219e+02
2.566764688231410574e+00 4.940990339807315763e+02
2.566864710236251845e+00 4.940842564661805909e+02
2.566964732241092673e+00 4.940694424178992676e+02
2.567064754245933944e+00 4.940545932033107306e+02
2.567164776250774771e+00 4.940397101952799517e+02
2.567264798255616043e+00 4.940247947720934008e+02
2.567364820260457314e+00 4.940098483174353987e+02
2.567464842265297698e+00 4.939948722203688476e+02
2.567564864270139413e+00 4.939798678753121521e+02
2.567664886274980240e+00 4.939648366820132992e+02
2.567764908279821512e+00 4.939497800455338847e+02
2.567864930284662339e+00 4.939346993762201805e+02
2.567964952289503611e+00 4.939195960896814768e+02
2.568064974294344438e+00 4.939044716067695617e+02
2.568164996299185265e+00 4.938893273535515505e+02
2.568265018304026981e+00 4.938741647612880001e+02
2.568365040308867364e+00 4.938589852664090927e+02
2.568465062313709080e+00 4.938437903104891120e+02
2.568565084318549907e+00 4.938285813402227973e+02
2.568665106323391178e+00 4.938133598074012411e+02
2.568765128328232006e+00 4.937981271688855713e+02
2.568865150333072833e+00 4.937828848865839291e+02
2.568965172337914105e+00 4.937676344274237863e+02
2.569065194342754932e+00 4.937523772633288672e+02
2.569165216347596647e+00 4.937371148711906130e+02
2.569265238352437031e+00 4.937218487328456149e+02
2.569365260357278746e+00 4.937065803350462261e+02
2.569465282362119574e+00 4.936913111694362328e+02
2.569565304366960401e+00 4.936760427325244791e+02
2.569665326371801672e+00 4.936607765256557627e+02
2.569765348376642500e+00 4.936455140549873022e+02
2.569865370381483771e+00 4.936302568314577002e+02
2.569965392386324599e+00 4.936150063707627851e+02
2.570065414391166314e+00 4.935997641933263367e+02
2.570165436396006697e+00 4.935845318242720055e+02
2.570265458400847969e+00 4.935693107933974488e+02
2.570365480405689240e+00 4.935541026351422715e+02
2.570465502410530068e+00 4.935389088885631281e+02
2.570565524415371339e+00 4.935237310973039371e+02
2.570665546420212166e+00 4.935085708095655264e+02
2.570765568425053438e+00 4.934934295780794855e+02
2.570865590429894265e+00 4.934783089600752533e+02
2.570965612434735093e+00 4.934632105172541401e+02
2.571065634439576364e+00 4.934481358157576665e+02
2.571165656444417635e+00 4.934330864261369243e+02
2.571265678449258907e+00 4.934180639233255192e+02
2.571365700454099734e+00 4.934030698866056923e+02
2.571465722458941006e+00 4.933881058995800686e+02
2.571565744463781833e+00 4.933731735501414164e+02
2.571665766468622660e+00 4.933582744304389962e+02
2.571765788473463932e+00 4.933434101368493998e+02
2.571865810478304759e+00 4.933285822699456276e+02
2.571965832483146031e+00 4.933137924344645171e+02
2.572065854487987302e+00 4.932990422392753089e+02
2.572165876492828573e+00 4.932843332973487804e+02
2.572265898497669401e+00 4.932696672257227419e+02
2.572365920502510228e+00 4.932550456454721939e+02
2.572465942507351500e+00 4.932404701816753345e+02
2.572565964512192327e+00 4.932259424633821254e+02
2.572665986517033598e+00 4.932114641235799581e+02
2.572766008521874426e+00 4.931970367991614239e+02
2.572866030526715697e+00 4.931826621308907761e+02
2.572966052531556969e+00 4.931683417633711315e+02
2.573066074536397352e+00 4.931540773450095685e+02
2.573166096541239067e+00 4.931398705279841010e+02
2.573266118546079895e+00 4.931257229682102547e+02
2.573366140550921166e+00 4.931116363253051986e+02
2.573466162555761994e+00 4.930976122625541507e+02
2.573566184560603265e+00 4.930836524468772950e+02
2.573666206565444092e+00 4.930697585487912420e+02
2.573766228570284920e+00 4.930559322423782760e+02
2.573866250575126635e+00 4.930421752052486681e+02
2.573966272579967018e+00 4.930284891185056608e+02
2.574066294584808734e+00 4.930148756667102248e+02
2.574166316589649561e+00 4.930013365378458161e+02
2.574266338594490833e+00 4.929878734232813713e+02
2.574366360599331660e+00 4.929744880177360642e+02
2.574466382604172487e+00 4.929611820192428127e+02
2.574566404609013759e+00 4.929479571291124103e+02
2.574666426613854586e+00 4.929348150518953844e+02
2.574766448618696302e+00 4.929217574953467533e+02
2.574866470623536685e+00 4.929087861703878275e+02
2.574966492628378401e+00 4.928959027910711939e+02
2.575066514633219228e+00 4.928831090745396182e+02
2.575166536638060055e+00 4.928704067409922800e+02
2.575266558642901327e+00 4.928577975136466307e+02
2.575366580647742154e+00 4.928452831186965000e+02
2.575466602652583425e+00 4.928328652852800360e+02
2.575566624657424253e+00 4.928205457454371299e+02
2.575666646662265968e+00 4.928083262340729220e+02
2.575766668667106352e+00 4.927962084889186372e+02
2.575866690671947623e+00 4.927841942504933854e+02
2.575966712676788894e+00 4.927722852620644858e+02
2.576066734681629722e+00 4.927604832696101766e+02
2.576166756686470993e+00 4.927487900217774950e+02
2.576266778691311821e+00 4.927372072698464649e+02
2.576366800696153092e+00 4.927257367676874082e+02
2.576466822700993919e+00 4.927143802717226890e+02
2.576566844705834747e+00 4.927031395408876620e+02
2.576666866710676018e+00 4.926920163365890630e+02
2.576766888715517290e+00 4.926810124226652761e+02
2.576866910720358561e+00 4.926701295653474517e+02
2.576966932725199388e+00 4.926593695332158518e+02
2.577066954730040660e+00 4.926487340971635831e+02
2.577166976734881487e+00 4.926382250303514638e+02
2.577266998739722315e+00 4.926278441081699384e+02
2.577367020744563586e+00 4.926175931081971271e+02
2.577467042749404413e+00 4.926074738101566481e+02
2.577567064754245685e+00 4.925974879958779411e+02
2.577667086759086956e+00 4.925876374492538048e+02
2.577767108763928228e+00 4.925779239561979921e+02
2.577867130768769055e+00 4.925683493046048511e+02
2.577967152773609882e+00 4.925589152843046463e+02
2.578067174778451154e+00 4.925496236870266102e+02
2.578167196783291981e+00 4.925404763063505129e+02
2.578267218788133253e+00 4.925314749376688042e+02
2.578367240792974080e+00 4.925226213781398314e+02
2.578467262797815351e+00 4.925139174266506643e+02
2.578567284802656623e+00 4.925053648837684932e+02
2.578667306807497006e+00 4.924969655517024876e+02
2.578767328812338722e+00 4.924887212342562179e+02
2.578867350817179549e+00 4.924806337367883771e+02
2.578967372822020820e+00 4.924727048661667368e+02
2.579067394826861648e+00 4.924649364307247197e+02
2.579167416831702919e+00 4.924573302402200170e+02
2.579267438836543747e+00 4.924498881057880908e+02
2.579367460841384574e+00 4.924426118398990297e+02
2.579467482846226289e+00 4.924355032563154850e+02
2.579567504851066673e+00 4.924285641700449219e+02
2.579667526855908388e+00 4.924217963972976122e+02
2.579767548860749216e+00 4.924152017554414442e+02
2.579867570865590487e+00 4.924087820629590055e+02
2.579967592870431314e+00 4.924025391393992095e+02
2.580067614875272142e+00 4.923964748053363110e+02
2.580167636880113413e+00 4.923905908823228970e+02
2.580267658884954241e+00 4.923848891928450939e+02
2.580367680889795956e+00 4.923793715602774910e+02
2.580467702894636339e+00 4.923740398088382335e+02
2.580567724899478055e+00 4.923688957635422412e+02
2.580667746904318882e+00 4.923639412501583479e+02
2.580767768909159710e+00 4.923591780951602459e+02
2.580867790914000981e+00 4.923546081256832281e+02
2.580967812918841808e+00 4.923502331694778036e+02
2.581067834923683080e+00 4.923460550548624042e+02
2.581167856928523907e+00 4.923420756106793306e+02
2.581267878933365623e+00 4.923382966662467766e+02
2.581367900938206006e+00 4.923347200513142070e+02
2.581467922943047277e+00 4.923313475960123924e+02
2.581567944947888549e+00 4.923281811308125953e+02
2.581667966952729376e+00 4.923252224864758091e+02
2.581767988957570648e+00 4.923224734940055214e+02
2.581868010962411475e+00 4.923199359846045695e+02
2.581968032967252746e+00 4.923176117896242658e+02
2.582068054972093574e+00 4.923155027405207420e+02
2.582168076976934401e+00 4.923136106688043014e+02
2.582268098981775672e+00 4.923119374059955362e+02
2.582368120986616944e+00 4.923104847835763280e+02
2.582468142991458215e+00 4.923092546329423840e+02
2.582568164996299043e+00 4.923082487853562839e+02
2.582668187001140314e+00 4.923074690719001296e+02
2.582768209005981142e+00 4.923069173234263189e+02
2.582868231010821969e+00 4.923065953705123547e+02
2.582968253015663240e+00 4.923065050434099703e+02
2.583068275020504068e+00 4.923066481720009619e+02
2.583168297025345339e+00 4.923070265857442109e+02
2.583268319030186611e+00 4.923076421136324825e+02
2.583368341035027882e+00 4.923084965841420058e+02
2.583468363039868709e+00 4.923095918251833609e+02
2.583568385044709537e+00 4.923109296640551520e+02
2.583668407049550808e+00 4.923125119273942119e+02
2.583768429054391635e+00 4.923143404411271149e+02
2.583868451059232907e+00 4.923164170304233380e+02
2.583968473064073734e+00 4.923187435196443289e+02
2.584068495068915006e+00 4.923213217322964965e+02
2.584168517073756277e+00 4.923241534909809616e+02
2.584268539078596660e+00 4.923272406173465470e+02
2.584368561083438376e+00 4.923305849320400398e+02
2.584468583088279203e+00 4.923341882546557144e+02
2.584568605093120475e+00 4.923380524036893462e+02
2.584668627097961302e+00 4.923421791964866543e+02
2.584768649102802573e+00 4.923465704491953261e+02
2.584868671107643401e+00 4.923512279767161317e+02
2.584968693112484228e+00 4.923561535926517649e+02
2.585068715117325944e+00 4.923613491092597769e+02
2.585168737122166327e+00 4.923668163374022129e+02
2.585268759127008042e+00 4.923725570864958172e+02
2.585368781131848870e+00 4.923785731644641146e+02
2.585468803136690141e+00 4.923848663776855119e+02
2.585568825141530969e+00 4.923914385309457771e+02
2.585668847146371796e+00 4.923982914273875622e+02
2.585768869151213067e+00 4.924054268684608928e+02
2.585868891156053895e+00 4.924128466538728048e+02
2.585968913160895610e+00 4.924205525815401643e+02
2.586068935165735994e+00 4.924285464475352114e+02
2.586168957170577709e+00 4.924368300460404271e+02
2.586268979175418536e+00 4.924454051692967482e+02
2.586369001180259364e+00 4.924542736075532048e+02
2.586469023185100635e+00 4.924634371490169542e+02
2.586569045189941463e+00 4.924728975798043393e+02
2.586669067194782734e+00 4.924826566838906956e+02
2.586769089199623561e+00 4.924927162430596468e+02
2.586869111204465277e+00 4.925030780368538217e+02
2.586969133209305660e+00 4.925137438425231267e+02
2.587069155214146932e+00 4.925247154349772245e+02
2.587169177218988203e+00 4.925359945867340912e+02
2.587269199223829030e+00 4.925475830678685725e+02
2.587369221228670302e+00 4.925594826459648630e+02
2.587469243233511129e+00 4.925716950860645511e+02
2.587569265238352401e+00 4.925842221506159149e+02
2.587669287243193228e+00 4.925970655994259459e+02
2.587769309248034055e+00 4.926102271896070874e+02
2.587869331252875327e+00 4.926237086755306791e+02
2.587969353257716598e+00 4.926375118087727856e+02
2.588069375262557870e+00 4.926516383380670163e+02
2.588169397267398697e+00 4.926660900092520023e+02
2.588269419272239968e+00 4.926808685652225677e+02
2.588369441277080796e+00 4.926959757458793661e+02
2.588469463281921623e+00 4.927114132880777788e+02
2.588569485286762895e+00 4.927271829255776652e+02
2.588669507291603722e+00 4.927432863889940222e+02
2.588769529296444993e+00 4.927597254057453711e+02
2.588869551301286265e+00 4.927765017000050420e+02
2.588969573306127536e+00 4.927936169926487082e+02
2.589069595310968364e+00 4.928110730012064664e+02
2.589169617315809191e+00 4.928288714398115644e+02
2.589269639320650462e+00 4.928470140191487872e+02
2.589369661325491290e+00 4.928655024464062535e+02
2.589469683330332561e+00 4.928843384252247120e+02
2.589569705335173389e+00 4.929035236556460404e+02
2.589669727340014660e+00 4.929230598340635083e+02
2.589769749344855931e+00 4.929429486531741418e+02
2.589869771349696315e+00 4.929631918019231307e+02
2.589969793354538030e+00 4.929837909654597752e+02
2.590069815359378858e+00 4.930047478250818926e+02
2.590169837364220129e+00 4.930260640581905704e+02
2.590269859369060956e+00 4.930477413382365057e+02
2.590369881373902228e+00 4.930697813346700968e+02
2.590469903378743055e+00 4.930921857128947181e+02
2.590569925383583882e+00 4.931149561342123206e+02
2.590669947388425598e+00 4.931380942557771618e+02
2.590769969393265981e+00 4.931616017305419177e+02
2.590869991398107697e+00 4.931854802072131747e+02
2.590970013402948524e+00 4.932097313301956660e+02
2.591070035407789796e+00 4.932343567395463992e+02
2.591170057412630623e+00 4.932593580709230423e+02
2.591270079417471450e+00 4.932847369555354931e+02
2.591370101422312722e+00 4.933104950200948906e+02
2.591470123427153549e+00 4.933366338867643321e+02
2.591570145431995265e+00 4.933631551731092486e+02
2.591670167436835648e+00 4.933900604920481214e+02
2.591770189441677363e+00 4.934173514518018919e+02
2.591870211446518191e+00 4.934450296558469518e+02
2.591970233451359018e+00 4.934730967028613122e+02
2.592070255456200290e+00 4.935015541866812327e+02
2.592170277461041117e+00 4.935304036962453438e+02
2.592270299465882388e+00 4.935596468155504795e+02
2.592370321470723216e+00 4.935892851235999501e+02
2.592470343475564931e+00 4.936193201943551117e+02
2.592570365480405314e+00 4.936497535966855139e+02
2.592670387485246586e+00 4.936805868943209816e+02
2.592770409490087857e+00 4.937118216458023880e+02
2.592870431494928685e+00 4.937434594044318601e+02
2.592970453499769956e+00 4.937755017182246320e+02
2.593070475504610783e+00 4.938079501298602736e+02
2.593170497509452055e+00 4.938408061766342598e+02
2.593270519514292882e+00 4.938740713904077211e+02
2.593370541519133710e+00 4.939077472975620822e+02
2.593470563523974981e+00 4.939418354189471643e+02
2.593570585528816252e+00 4.939763372698341755e+02
2.593670607533657524e+00 4.940112543598679054e+02
2.593770629538498351e+00 4.940465881930184651e+02
2.593870651543339623e+00 4.940823402675316629e+02
2.593970673548180450e+00 4.941185120758831317e+02
2.594070695553021277e+00 4.941551051047279088e+02
2.594170717557862549e+00 4.941921208348542791e+02
2.594270739562703376e+00 4.942295607411358560e+02
2.594370761567544648e+00 4.942674262924825825e+02
2.594470783572385919e+00 4.943057189517947450e+02
2.594570805577227190e+00 4.943444401759145421e+02
2.594670827582068018e+00 4.943835914155778255e+02
2.594770849586908845e+00 4.944231741153679422e+02
2.594870871591750117e+00 4.944631897136691805e+02
2.594970893596590944e+00 4.945036396426174861e+02
2.595070915601432215e+00 4.945445253280548172e+02
2.595170937606273043e+00 4.945858481894817942e+02
2.595270959611114314e+00 4.946276096400110873e+02
2.595370981615955586e+00 4.946698110863208058e+02
2.595471003620795969e+00 4.947124539286065783e+02
2.595571025625637684e+00 4.947555395605368176e+02
2.595671047630478512e+00 4.947990693692047444e+02
2.595771069635319783e+00 4.948430447350839358e+02
2.595871091640160611e+00 4.948874670319804068e+02
2.595971113645001882e+00 4.949323376269867367e+02
2.596071135649842709e+00 4.949776578804373912e+02
2.596171157654683537e+00 4.950234291458606322e+02
2.596271179659525252e+00 4.950696527699356579e+02
2.596371201664365636e+00 4.951163300924440591e+02
2.596471223669207351e+00 4.951634624462270722e+02
2.596571245674048178e+00 4.952110511571385132e+02
2.596671267678889450e+00 4.952590975439990757e+02
2.596771289683730277e+00 4.953076029185528455e+02
2.596871311688571105e+00 4.953565685854221101e+02
2.596971333693412376e+00 4.954059958420602356e+02
2.597071355698253203e+00 4.954558859787102847e+02
2.597171377703094919e+00 4.955062402783584616e+02
2.597271399707935302e+00 4.955570600166892063e+02
2.597371421712777018e+00 4.956083464620433006e+02
2.597471443717617845e+00 4.956601008753704036e+02
2.597571465722458672e+00 4.957123245101870452e+02
2.597671487727299944e+00 4.957650186125342771e+02
2.597771509732140771e+00 4.958181844209296401e+02
2.597871531736982043e+00 4.958718231663262941e+02
2.597971553741822870e+00 4.959259360720711243e+02
2.598071575746663697e+00 4.959805243538581863e+02
2.598171597751504969e+00 4.960355892196863579e+02
2.598271619756346240e+00 4.960911318698179002e+02
2.598371641761187512e+00 4.961471534967341768e+02
2.598471663766028339e+00 4.962036552850941007e+02
2.598571685770869610e+00 4.962606384116883191e+02
2.598671707775710438e+00 4.963181040454027197e+02
2.598771729780551265e+00 4.963760533471701137e+02
2.598871751785392537e+00 4.964344874699326056e+02
2.598971773790233364e+00 4.964934075585970277e+02
2.599071795795074635e+00 4.965528147499936154e+02
2.599171817799915907e+00 4.966127101728355342e+02
2.599271839804757178e+00 4.966730949476765886e+02
2.599371861809598006e+00 4.967339701868698967e+02
2.599471883814438833e+00 4.967953369945281565e+02
2.599571905819280104e+00 4.968571964664790812e+02
2.599671927824120932e+00 4.969195496902300420e+02
2.599771949828962203e+00 4.969823977449226504e+02
2.599871971833803030e+00 4.970457417012950145e+02
2.599971993838644302e+00 4.971095826216397882e+02
2.600072015843485573e+00 4.971739215597668817e+02
2.600172037848325957e+00 4.972387595609605455e+02
2.600272059853167672e+00 4.973040976619410571e+02
2.600372081858008499e+00 4.973699368908253291e+02
2.600472103862849771e+00 4.974362782670866636e+02
2.600572125867690598e+00 4.975031228015166107e+02
2.600672147872531870e+00 4.975704714961859736e+02
2.600772169877372697e+00 4.976383253444057004e+02
2.600872191882213524e+00 4.977066853306868097e+02
2.600972213887055240e+00 4.977755524307046926e+02
2.601072235891895623e+00 4.978449276112597772e+02
2.601172257896737339e+00 4.979148118302388184e+02
2.601272279901578166e+00 4.979852060365776651e+02
2.601372301906419438e+00 4.980561111702223798e+02
2.601472323911260265e+00 4.981275281620962687e+02
2.601572345916101092e+00 4.981994579340554878e+02
2.601672367920942364e+00 4.982719013988576648e+02
2.601772389925783191e+00 4.983448594601233026e+02
2.601872411930624907e+00 4.984183330122987172e+02
2.601972433935465290e+00 4.984923229406197152e+02
2.602072455940307005e+00 4.985668301210757818e+02
2.602172477945147833e+00 4.986418554203737585e+02
2.602272499949988660e+00 4.987173996959024294e+02
2.602372521954829931e+00 4.987934637956957431e+02
2.602472543959670759e+00 4.988700485583993895e+02
2.602572565964512030e+00 4.989471548132323164e+02
2.602672587969352858e+00 4.990247833799561477e+02
2.602772609974194573e+00 4.991029350688370982e+02
2.602872631979034956e+00 4.991816106806122662e+02
2.602972653983876228e+00 4.992608110064556968e+02
2.603072675988717499e+00 4.993405368279433674e+02
2.603172697993558327e+00 4.994207889170210137e+02
2.603272719998399598e+00 4.995015680359680914e+02
2.603372742003240425e+00 4.995828749373669666e+02
2.603472764008081697e+00 4.996647103640661953e+02
2.603572786012922524e+00 4.997470750491516469e+02
2.603672808017763352e+00 4.998299697159101243e+02
2.603772830022604623e+00 4.999133950777994073e+02
2.603872852027445894e+00 4.999973518384127829e+02
2.603972874032287166e+00 5.000818406914515322e+02
2.604072896037127993e+00 5.001668623206879829e+02
2.604172918041969265e+00 5.002524173999379400e+02
2.604272940046810092e+00 5.003385065930267501e+02
2.604372962051650919e+00 5.004251305537590611e+02
2.604472984056492191e+00 5.005122899258876146e+02
2.604573006061333018e+00 5.005999853430836879e+02
2.604673028066174290e+00 5.006882174289028171e+02
2.604773050071015561e+00 5.007769867967604114e+02
2.604873072075856832e+00 5.008662940498968510e+02
2.604973094080697660e+00 5.009561397813502026e+02
2.605073116085538487e+00 5.010465245739250690e+02
2.605173138090379759e+00 5.011374490001647928e+02
2.605273160095220586e+00 5.012289136223215564e+02
2.605373182100061857e+00 5.013209189923281883e+02
2.605473204104902685e+00 5.014134656517688882e+02
2.605573226109743956e+00 5.015065541318504643e+02
2.605673248114585228e+00 5.016001849533770383e+02
2.605773270119425611e+00 5.016943586267181558e+02
2.605873292124267326e+00 5.017890756517848558e+02
2.605973314129108154e+00 5.018843365179998273e+02
2.606073336133949425e+00 5.019801417042712046e+02
2.606173358138790253e+00 5.020764916789667609e+02
2.606273380143631524e+00 5.021733868998859975e+02
2.606373402148472351e+00 5.022708278142343943e+02
2.606473424153313179e+00 5.023688148585968065e+02
2.606573446158154894e+00 5.024673484589131363e+02
2.606673468162995277e+00 5.025664290304508768e+02
2.606773490167836993e+00 5.026660569777806700e+02
2.606873512172677820e+00 5.027662326947531710e+02
2.606973534177519092e+00 5.028669565644702857e+02
2.607073556182359919e+00 5.029682289592641951e+02
2.607173578187200746e+00 5.030700502406721171e+02
2.607273600192042018e+00 5.031724207594109544e+02
2.607373622196882845e+00 5.032753408553560917e+02
2.607473644201724561e+00 5.033788108575158731e+02
2.607573666206564944e+00 5.034828310840093764e+02
2.607673688211406660e+00 5.035874018420430502e+02
2.607773710216247487e+00 5.036925234278892844e+02
2.607873732221088314e+00 5.037981961268625923e+02
2.607973754225929586e+00 5.039044202132982946e+02
2.608073776230770413e+00 5.040111959505307482e+02
2.608173798235611685e+00 5.041185235908702680e+02
2.608273820240452512e+00 5.042264033755857326e+02
2.608373842245294227e+00 5.043348355348787209e+02
2.608473864250134611e+00 5.044438202878660604e+02
2.608573886254975882e+00 5.045533578425589667e+02
2.608673908259817154e+00 5.046634483958422948e+02
2.608773930264657981e+00 5.047740921334535642e+02
2.608873952269499252e+00 5.048852892299659629e+02
2.608973974274340080e+00 5.049970398487676562e+02
2.609073996279181351e+00 5.051093441420420618e+02
2.609174018284022178e+00 5.052222022507494330e+02
2.609274040288863006e+00 5.053356143046094644e+02
2.609374062293704277e+00 5.054495804220825335e+02
2.609474084298545549e+00 5.055641007103510560e+02
2.609574106303386820e+00 5.056791752653028311e+02
2.609674128308227647e+00 5.057948041715127374e+02
2.609774150313068919e+00 5.059109875022272718e+02
2.609874172317909746e+00 5.060277253193453362e+02
2.609974194322750574e+00 5.061450176734051638e+02
2.610074216327591845e+00 5.062628646035637416e+02
2.610174238332432672e+00 5.063812661375851008e+02
2.610274260337273944e+00 5.065002222918229222e+02
2.610374282342115215e+00 5.066197330712038820e+02
2.610474304346956487e+00 5.067397984692154864e+02
2.610574326351797314e+00 5.068604184678891329e+02
2.610674348356638141e+00 5.069815930377862401e+02
2.610774370361479413e+00 5.071033221379850033e+02
2.610874392366320240e+00 5.072256057160647060e+02
2.610974414371161512e+00 5.073484437080946350e+02
2.611074436376002339e+00 5.074718360386177096e+02
2.611174458380843610e+00 5.075957826206404775e+02
2.611274480385684882e+00 5.077202833556191308e+02
2.611374502390525265e+00 5.078453381334469441e+02
2.611474524395366981e+00 5.079709468324423369e+02
2.611574546400207808e+00 5.080971093193376191e+02
2.611674568405049079e+00 5.082238254492668830e+02
2.611774590409889907e+00 5.083510950657542935e+02
2.611874612414731178e+00 5.084789180007069831e+02
2.611974634419572006e+00 5.086072940743978847e+02
2.612074656424412833e+00 5.087362230954609004e+02
2.612174678429254548e+00 5.088657048608795321e+02
2.612274700434094932e+00 5.089957391559751159e+02
2.612374722438936647e+00 5.091263257544007956e+02
2.612474744443777475e+00 5.092574644181303256e+02
2.612574766448618746e+00 5.093891548974498846e+02
2.612674788453459573e+00 5.095213969309494360e+02
2.612774810458300401e+00 5.096541902455145987e+02
2.612874832463141672e+00 5.097875345563192582e+02
2.612974854467982500e+00 5.099214295668178352e+02
2.613074876472824215e+00 5.100558749687373847e+02
2.613174898477664598e+00 5.101908704420716845e+02
2.613274920482506314e+00 5.103264156550742427e+02
2.613374942487347141e+00 5.104625102642519323e+02
2.613474964492187969e+00 5.105991539143589648e+02
2.613574986497029240e+00 5.107363462383911497e+02
2.613675008501870067e+00 5.108740868575810623e+02
2.613775030506711339e+00 5.110123753813919620e+02
2.613875052511552166e+00 5.111512114075146087e+02
2.613975074516393882e+00 5.112905945218612374e+02
2.614075096521234265e+00 5.114305242985618065e+02
2.614175118526075536e+00 5.115710002999608719e+02
2.614275140530916808e+00 5.117120220766137209e+02
2.614375162535757635e+00 5.118535891672835305e+02
2.614475184540598907e+00 5.119957010989369905e+02
2.614575206545439734e+00 5.121383573867440191e+02
2.614675228550281005e+00 5.122815575340739542e+02
2.614775250555121833e+00 5.124253010324930528e+02
2.614875272559962660e+00 5.125695873617653433e+02
2.614975294564803932e+00 5.127144159898491580e+02
2.615075316569645203e+00 5.128597863728963375e+02
2.615175338574486474e+00 5.130056979552526855e+02
2.615275360579327302e+00 5.131521501694563767e+02
2.615375382584168573e+00 5.132991424362393218e+02
2.615475404589009401e+00 5.134466741645255752e+02
2.615575426593850228e+00 5.135947447514325859e+02
2.615675448598691499e+00 5.137433535822742670e+02
2.615775470603532327e+00 5.138925000305588355e+02
2.615875492608373598e+00 5.140421834579919960e+02
2.615975514613214870e+00 5.141924032144792136e+02
2.616075536618056141e+00 5.143431586381268517e+02
2.616175558622896968e+00 5.144944490552456955e+02
2.616275580627737796e+00 5.146462737803524305e+02
2.616375602632579067e+00 5.147986321161737351e+02
2.616475624637419894e+00 5.149515233536502592e+02
2.616575646642261166e+00 5.151049467719386712e+02
2.616675668647101993e+00 5.152589016384176830e+02
2.616775690651943265e+00 5.154133872086903239e+02
2.616875712656784536e+00 5.155684027265899658e+02
2.616975734661624919e+00 5.157239474241863491e+02
2.617075756666466635e+00 5.158800205217879693e+02
2.617175778671307462e+00 5.160366212279502633e+02
2.617275800676148734e+00 5.161937487394816344e+02
2.617375822680989561e+00 5.163514022414475448e+02
2.617475844685830833e+00 5.165095809071789290e+02
2.617575866690671660e+00 5.166682838982796966e+02
2.617675888695512487e+00 5.168275103646317348e+02
2.617775910700354203e+00 5.169872594444041169e+02
2.617875932705194586e+00 5.171475302640603786e+02
2.617975954710036302e+00 5.173083219383678397e+02
2.618075976714877129e+00 5.174696335704049943e+02
2.618175998719718400e+00 5.176314642515694686e+02
2.618276020724559228e+00 5.177938130615902992e+02
2.618376042729400055e+00 5.179566790685328215e+02
2.618476064734241326e+00 5.181200613288136765e+02
2.618576086739082154e+00 5.182839588872068362e+02
2.618676108743923869e+00 5.184483707768561089e+02
2.618776130748764253e+00 5.186132960192850305e+02
2.618876152753605968e+00 5.187787336244086873e+02
2.618976174758446795e+00 5.189446825905439482e+02
2.619076196763287623e+00 5.191111419044225386e+02
2.619176218768128894e+00 5.192781105412020679e+02
2.619276240772969722e+00 5.194455874644784217e+02
2.619376262777810993e+00 5.196135716262988353e+02
2.619476284782651820e+00 5.197820619671759914e+02
2.619576306787493536e+00 5.199510574160976830e+02
2.619676328792333919e+00 5.201205568905450036e+02
2.619776350797175191e+00 5.202905592965023516e+02
2.619876372802016462e+00 5.204610635284749378e+02
2.619976394806857289e+00 5.206320684695004957e+02
2.620076416811698561e+00 5.208035729911656517e+02
2.620176438816539388e+00 5.209755759536213873e+02
2.620276460821380660e+00 5.211480762055980449e+02
2.620376482826221487e+00 5.213210725844204489e+02
2.620476504831062314e+00 5.214945639160256405e+02
2.620576526835903586e+00 5.216685490149776570e+02
2.620676548840744857e+00 5.218430266844861762e+02
2.620776570845586129e+00 5.220179957164203870e+02
2.620876592850426956e+00 5.221934548913309300e+02
2.620976614855268227e+00 5.223694029784636541e+02
2.621076636860109055e+00 5.225458387357791707e+02
2.621176658864949882e+00 5.227227609099720667e+02
2.621276680869791154e+00 5.229001682364872750e+02
2.621376702874631981e+00 5.230780594395412209e+02
2.621476724879473252e+00 5.232564332321404663e+02
2.621576746884314524e+00 5.234352883161000136e+02
2.621676768889155795e+00 5.236146233820657017e+02
2.621776790893996623e+00 5.237944371095313727e+02
2.621876812898837450e+00 5.239747281668610412e+02
2.621976834903678721e+00 5.241554952113110630e+02
2.622076856908519549e+00 5.243367368890488933e+02
2.622176878913360820e+00 5.245184518351748011e+02
2.622276900918201648e+00 5.247006386737455159e+02
2.622376922923042919e+00 5.248832960177933273e+02
2.622476944927884190e+00 5.250664224693518918e+02
2.622576966932724574e+00 5.252500166194756730e+02
2.622676988937566289e+00 5.254340770482654079e+02
2.622777010942407117e+00 5.256186023248892525e+02
2.622877032947248388e+00 5.258035910076085884e+02
2.622977054952089215e+00 5.259890416437993963e+02
2.623077076956930487e+00 5.261749527699794271e+02
2.623177098961771314e+00 5.263613229118291201e+02
2.623277120966612141e+00 5.265481505842199113e+02
2.623377142971453857e+00 5.267354342912369702e+02
2.623477164976294240e+00 5.269231725262060309e+02
2.623577186981135956e+00 5.271113637717173788e+02
2.623677208985976783e+00 5.273000064996541596e+02
2.623777230990818055e+00 5.274890991712159121e+02
2.623877252995658882e+00 5.276786402369485813e+02
2.623977275000499709e+00 5.278686281367679385e+02
2.624077297005340981e+00 5.280590612999893665e+02
2.624177319010181808e+00 5.282499381453535534e+02
2.624277341015023524e+00 5.284412570810560510e+02
2.624377363019863907e+00 5.286330165047729679e+02
2.624477385024705622e+00 5.288252148036926883e+02
2.624577407029546450e+00 5.290178503545412241e+02
2.624677429034387277e+00 5.292109215236127966e+02
2.624777451039228549e+00 5.294044266667997363e+02
2.624877473044069376e+00 5.295983641296204496e+02
2.624977495048910647e+00 5.297927322472503420e+02
2.625077517053751475e+00 5.299875293445514899e+02
2.625177539058593190e+00 5.301827537361036775e+02
2.625277561063433573e+00 5.303784037262341826e+02
2.625377583068274845e+00 5.305744776090499499e+02
2.625477605073116116e+00 5.307709736684681729e+02
2.625577627077956944e+00 5.309678901782471030e+02
2.625677649082798215e+00 5.311652254020197006e+02
2.625777671087639042e+00 5.313629775933244446e+02
2.625877693092480314e+00 5.315611449956389833e+02
2.625977715097321141e+00 5.317597258424109441e+02
2.626077737102161969e+00 5.319587183570927209e+02
2.626177759107003240e+00 5.321581207531747850e+02
2.626277781111844511e+00 5.323579312342175172e+02
2.626377803116685783e+00 5.325581479938865641e+02
2.626477825121526610e+00 5.327587692159873995e+02
2.626577847126367882e+00 5.329597930744974974e+02
2.626677869131208709e+00 5.331612177336045306e+02
2.626777891136049536e+00 5.333630413477383172e+02
2.626877913140890808e+00 5.335652620616054946e+02
2.626977935145731635e+00 5.337678780102290830e+02
2.627077957150572907e+00 5.339708873189802034e+02
2.627177979155414178e+00 5.341742881036170729e+02
2.627278001160255450e+00 5.343780784703186555e+02
2.627378023165096277e+00 5.345822565157243389e+02
2.627478045169937104e+00 5.347868203269681544e+02
2.627578067174778376e+00 5.349917679817167482e+02
2.627678089179619203e+00 5.351970975482078074e+02
2.627778111184460474e+00 5.354028070852864403e+02
2.627878133189301302e+00 5.356088946424438291e+02
2.627978155194142573e+00 5.358153582598555431e+02
2.628078177198983845e+00 5.360221959684196236e+02
2.628178199203824228e+00 5.362294057897958055e+02
2.628278221208665943e+00 5.364369857364442851e+02
2.628378243213506771e+00 5.366449338116647141e+02
2.628478265218348042e+00 5.368532480096357631e+02
2.628578287223188870e+00 5.370619263154566170e+02
2.628678309228030141e+00 5.372709667051838096e+02
2.628778331232870968e+00 5.374803671458746521e+02
2.628878353237711796e+00 5.376901255956261139e+02
2.628978375242553511e+00 5.379002400036164317e+02
2.629078397247393895e+00 5.381107083101450144e+02
2.629178419252235610e+00 5.383215284466755293e+02
2.629278441257076437e+00 5.385326983358762618e+02
2.629378463261917709e+00 5.387442158916624066e+02
2.629478485266758536e+00 5.389560790192380182e+02
2.629578507271599364e+00 5.391682856151385295e+02
2.629678529276440635e+00 5.393808335672723615e+02
2.629778551281281462e+00 5.395937207549661707e+02
2.629878573286123178e+00 5.398069450490052077e+02
2.629978595290963561e+00 5.400205043116783372e+02
2.630078617295805277e+00 5.402343963968208982e+02
2.630178639300646104e+00 5.404486191498588141e+02
2.630278661305486931e+00 5.406631704078524763e+02
2.630378683310328203e+00 5.408780479995417636e+02
2.630478705315169030e+00 5.410932497453886754e+02
2.630578727320010302e+00 5.413087734576247385e+02
2.630678749324851129e+00 5.415246169402937539e+02
2.630778771329692844e+00 5.417407779892978397e+02
2.630878793334533228e+00 5.419572543924439287e+02
2.630978815339374499e+00 5.421740439294876523e+02
2.631078837344215771e+00 5.423911443721804062e+02
2.631178859349056598e+00 5.426085534843150526e+02
2.631278881353897869e+00 5.428262690217734416e+02
2.631378903358738697e+00 5.430442887325709762e+02
2.631478925363579968e+00 5.432626103569052702e+02
2.631578947368420796e+00 5.434812316272021917e+02
2.631678969373261623e+00 5.437001502681644070e+02
2.631778991378102894e+00 5.439193639968166281e+02
2.631879013382944166e+00 5.441388705225552940e+02
2.631979035387785437e+00 5.443586675471972285e+02
2.632079057392626265e+00 5.445787527650243192e+02
2.632179079397467536e+00 5.447991238628350175e+02
2.632279101402308363e+00 5.450197785199932241e+02
2.632379123407149191e+00 5.452407144084737638e+02
2.632479145411990462e+00 5.454619291929155906e+02
2.632579167416831289e+00 5.456834205306683998e+02
2.632679189421672561e+00 5.459051860718418538e+02
2.632779211426513832e+00 5.461272234593570829e+02
2.632879233431354216e+00 5.463495303289947742e+02
2.632979255436195931e+00 5.465721043094465585e+02
2.633079277441036758e+00 5.467949430223645777e+02
2.633179299445878030e+00 5.470180440824121888e+02
2.633279321450718857e+00 5.472414050973144413e+02
2.633379343455560129e+00 5.474650236679091222e+02
2.633479365460400956e+00 5.476888973881976881e+02
2.633579387465241783e+00 5.479130238453967650e+02
2.633679409470083499e+00 5.481374006199889664e+02
2.633779431474923882e+00 5.483620252857762125e+02
2.633879453479765598e+00 5.485868954099292978e+02
2.633979475484606425e+00 5.488120085530412098e+02
2.634079497489447697e+00 5.490373622691798801e+02
2.634179519494288524e+00 5.492629541059388885e+02
2.634279541499129351e+00 5.494887816044923738e+02
2.634379563503970623e+00 5.497148422996453974e+02
2.634479585508811450e+00 5.499411337198886258e+02
2.634579607513653166e+00 5.501676533874513098e+02
2.634679629518493549e+00 5.503943988183533520e+02
2.634779651523335264e+00 5.506213675224595363e+02
2.634879673528176092e+00 5.508485570035348928e+02
2.634979695533016919e+00 5.510759647592950614e+02
2.635079717537858190e+00 5.513035882814648403e+02
2.635179739542699018e+00 5.515314250558268441e+02
2.635279761547540289e+00 5.517594725622813030e+02
2.635379783552381117e+00 5.519877282748971083e+02
2.635479805557222832e+00 5.522161896619678600e+02
2.635579827562063215e+00 5.524448541860667774e+02
2.635679849566904487e+00 5.526737193041008140e+02
2.635779871571745758e+00 5.529027824673677287e+02
2.635879893576586586e+00 5.531320411216089497e+02
2.635979915581427857e+00 5.533614927070676686e+02
2.636079937586268684e+00 5.535911346585423871e+02
2.636179959591109956e+00 5.538209644054443288e+02
2.636279981595950783e+00 5.540509793718520086e+02
2.636380003600791611e+00 5.542811769765693271e+02
2.636480025605632882e+00 5.545115546331797987e+02
2.636580047610474153e+00 5.547421097501043050e+02
2.636680069615315425e+00 5.549728397306571424e+02
2.636780091620156252e+00 5.552037419731035470e+02
2.636880113624997524e+00 5.554348138707152884e+02
2.636980135629838351e+00 5.556660528118281945e+02
2.637080157634679178e+00 5.558974561799012690e+02
2.637180179639520450e+00 5.561290213535706926e+02
2.637280201644361277e+00 5.563607457067095083e+02
2.637380223649202549e+00 5.565926266084844656e+02
2.637480245654043820e+00 5.568246614234138860e+02
2.637580267658885091e+00 5.570568475114259854e+02
2.637680289663725919e+00 5.572891822279161715e+02
2.637780311668566746e+00 5.575216629238057067e+02
2.637880333673408018e+00 5.577542869455984373e+02
2.637980355678248845e+00 5.579870516354425263e+02
2.638080377683090116e+00 5.582199543311859316e+02
2.638180399687930944e+00 5.584529923664351827e+02
2.638280421692772215e+00 5.586861630706164306e+02
2.638380443697613487e+00 5.589194637690313812e+02
2.638480465702453870e+00 5.591528917829195962e+02
2.638580487707295585e+00 5.593864444295136309e+02
2.638680509712136413e+00 5.596201190221017896e+02
2.638780531716977684e+00 5.598539128700861056e+02
2.638880553721818512e+00 5.600878232790403217e+02
2.638980575726659783e+00 5.603218475507727590e+02
2.639080597731500610e+00 5.605559829833830463e+02
2.639180619736341438e+00 5.607902268713224885e+02
2.639280641741183153e+00 5.610245765054555704e+02
2.639380663746023536e+00 5.612590291731180514e+02
2.639480685750865252e+00 5.614935821581774462e+02
2.639580707755706079e+00 5.617282327410944163e+02
2.639680729760547351e+00 5.619629781989812045e+02
2.639780751765388178e+00 5.621978158056633674e+02
2.639880773770229005e+00 5.624327428317401427e+02
2.639980795775070277e+00 5.626677565446433391e+02
2.640080817779911104e+00 5.629028542087006599e+02
2.640180839784752820e+00 5.631380330851944791e+02
2.640280861789593203e+00 5.633732904324235733e+02
2.640380883794434919e+00 5.636086235057636031e+02
2.640480905799275746e+00 5.638440295577271399e+02
2.640580927804116573e+00 5.640795058380276714e+02
2.640680949808957845e+00 5.643150495936372408e+02
2.640780971813798672e+00 5.645506580688507938e+02
2.640880993818639944e+00 5.647863285053439313e+02
2.640981015823480771e+00 5.650220581422381656e+02
2.641081037828322486e+00 5.652578442161600378e+02
2.641181059833162870e+00 5.654936839613018265e+02
2.641281081838004141e+00 5.657295746094874858e+02
2.641381103842845413e+00 5.659655133902275566e+02
2.641481125847686240e+00 5.662014975307877194e+02
2.641581147852527511e+00 5.664375242562443873e+02
2.641681169857368339e+00 5.666735907895525770e+02
2.641781191862209610e+00 5.669096943516028659e+02
2.641881213867050437e+00 5.671458321612853979e+02
2.641981235871891265e+00 5.673820014355524108e+02
2.642081257876732536e+00 5.676181993894799689e+02
2.642181279881573808e+00 5.678544232363285573e+02
2.642281301886415079e+00 5.680906701876072020e+02
2.642381323891255906e+00 5.683269374531350877e+02
2.642481345896097178e+00 5.685632222411035173e+02
2.642581367900938005e+00 5.687995217581377574e+02
2.642681389905778833e+00 5.690358332093613853e+02
2.642781411910620104e+00 5.692721537984550650e+02
2.642881433915460931e+00 5.695084807277243044e+02
2.642981455920302203e+00 5.697448111981561851e+02
2.643081477925143474e+00 5.699811424094854146e+02
2.643181499929984746e+00 5.702174715602557171e+02
2.643281521934825573e+00 5.704537958478834980e+02
2.643381543939666400e+00 5.706901124687179845e+02
2.643481565944507672e+00 5.709264186181069363e+02
2.643581587949348499e+00 5.711627114904566724e+02
2.643681609954189771e+00 5.713989882792969865e+02
2.643781631959030598e+00 5.716352461773414007e+02
2.643881653963871869e+00 5.718714823765513984e+02
2.643981675968713141e+00 5.721076940682007717e+02
2.644081697973553524e+00 5.723438784429333737e+02
2.644181719978395240e+00 5.725800326908315583e+02
2.644281741983236067e+00 5.728161540014754110e+02
2.644381763988077338e+00 5.730522395640069817e+02
2.644481785992918166e+00 5.732882865671920172e+02
2.644581807997759437e+00 5.735242921994840799e+02
2.644681830002600265e+00 5.737602536490860530e+02
2.644781852007441092e+00 5.739961681040146004e+02
2.644881874012282807e+00 5.742320327521603076e+02
2.644981896017123191e+00 5.744678447813532784e+02
2.645081918021964906e+00 5.747036013794246401e+02
2.645181940026805734e+00 5.749392997342700937e+02
2.645281962031647005e+00 5.751749370339111920e+02
2.645381984036487832e+00 5.754105104665591170e+02
2.645482006041328660e+00 5.756460172206778907e+02
2.645582028046169931e+00 5.758814544850464472e+02
2.645682050051010759e+00 5.761168194488215022e+02
2.645782072055852474e+00 5.763521093016012173e+02
2.645882094060692857e+00 5.765873212334857953e+02
2.645982116065534573e+00 5.768224524351419404e+02
2.646082138070375400e+00 5.770575000978665230e+02
2.646182160075216228e+00 5.772924614136454693e+02
2.646282182080057499e+00 5.775273335752208368e+02
2.646382204084898326e+00 5.777621137761495902e+02
2.646482226089739598e+00 5.779967992108698809e+02
2.646582248094580425e+00 5.782313870747599367e+02
2.646682270099422141e+00 5.784658745642028634e+02
2.646782292104262524e+00 5.787002588766491726e+02
2.646882314109103795e+00 5.789345372106782861e+02
2.646982336113945067e+00 5.791687067660604953e+02
2.647082358118785894e+00 5.794027647438213080e+02
2.647182380123627166e+00 5.796367083463019299e+02
2.647282402128467993e+00 5.798705347772224741e+02
2.647382424133309264e+00 5.801042412417439209e+02
2.647482446138150092e+00 5.803378249465300769e+02
2.647582468142990919e+00 5.805712830998106710e+02
2.647682490147832191e+00 5.808046129114419500e+02
2.647782512152673462e+00 5.810378115929702290e+02
2.647882534157514733e+00 5.812708763576926003e+02
2.647982556162355561e+00 5.815038044207199164e+02
2.648082578167196832e+00 5.817365929990376117e+02
2.648182600172037660e+00 5.819692393115701634e+02
2.648282622176878487e+00 5.822017405792372529e+02
2.648382644181719758e+00 5.824340940250218637e+02
2.648482666186560586e+00 5.826662968740281485e+02
2.648582688191401857e+00 5.828983463535435021e+02
2.648682710196243129e+00 5.831302396931008616e+02
2.648782732201084400e+00 5.833619741245397563e+02
2.648882754205925227e+00 5.835935468820672440e+02
2.648982776210766055e+00 5.838249552023202114e+02
2.649082798215607326e+00 5.840561963244241497e+02
2.649182820220448153e+00 5.842872674900579568e+02
2.649282842225289425e+00 5.845181659435113488e+02
2.649382864230130252e+00 5.847488889317484109e+02
2.649482886234971524e+00 5.849794337044680788e+02
2.649582908239812795e+00 5.852097975141632560e+02
2.649682930244653178e+00 5.854399776161818636e+02
2.649782952249494894e+00 5.856699712687901638e+02
2.649882974254335721e+00 5.858997757332302854e+02
2.649982996259176993e+00 5.861293882737815011e+02
2.650083018264017820e+00 5.863588061578201405e+02
2.650183040268859092e+00 5.865880266558818903e+02
2.650283062273699919e+00 5.868170470417190927e+02
2.650383084278540746e+00 5.870458645923622498e+02
2.650483106283382462e+00 5.872744765881801641e+02
2.650583128288222845e+00 5.875028803129399648e+02
2.650683150293064561e+00 5.877310730538642929e+02
2.650783172297905388e+00 5.879590521016946241e+02
2.650883194302746659e+00 5.881868147507476579e+02
2.650983216307587487e+00 5.884143582989776178e+02
2.651083238312428314e+00 5.886416800480321854e+02
2.651183260317269585e+00 5.888687773033151416e+02
2.651283282322110413e+00 5.890956473740418460e+02
2.651383304326952128e+00 5.893222875733015371e+02
2.651483326331792512e+00 5.895486952181140623e+02
2.651583348336634227e+00 5.897748676294886536e+02
2.651683370341475054e+00 5.900008021324836136e+02
2.651783392346315882e+00 5.902264960562642955e+02
2.651883414351157153e+00 5.904519467341601739e+02
2.651983436355997981e+00 5.906771515037248719e+02
2.652083458360839252e+00 5.909021077067930037e+02
2.652183480365680079e+00 5.911268126895388377e+02
2.652283502370521795e+00 5.913512638025332535e+02
2.652383524375362178e+00 5.915754584008025176e+02
2.652483546380203450e+00 5.917993938438844452e+02
2.652583568385044721e+00 5.920230674958868349e+02
2.652683590389885548e+00 5.922464767255448805e+02
2.652783612394726820e+00 5.924696189062767644e+02
2.652883634399567647e+00 5.926924914162419782e+02
2.652983656404408919e+00 5.929150916383982803e+02
2.653083678409249746e+00 5.931374169605566067e+02
2.653183700414090573e+00 5.933594647754397329e+02
2.653283722418931845e+00 5.935812324807371851e+02
2.653383744423773116e+00 5.938027174791627658e+02
2.653483766428614388e+00 5.940239171785082135e+02
2.653583788433455215e+00 5.942448289917017519e+02
2.653683810438296486e+00 5.944654503368630003e+02
2.653783832443137314e+00 5.946857786373566341e+02
2.653883854447978141e+00 5.949058113218515018e+02
2.653983876452819413e+00 5.951255458243729208e+02
2.654083898457660240e+00 5.953449795843575885e+02
2.654183920462501511e+00 5.955641100467108799e+02
2.654283942467342783e+00 5.957829346618605086e+02
2.654383964472184054e+00 5.960014508858096178e+02
2.654483986477024882e+00 5.962196561801933967e+02
2.654584008481865709e+00 5.964375480123320585e+02
2.654684030486706980e+00 5.966551238552856375e+02
2.654784052491547808e+00 5.968723811879071945e+02
2.654884074496389079e+00 5.970893174948964770e+02
2.654984096501229907e+00 5.973059302668553983e+02
2.655084118506071178e+00 5.975222170003370366e+02
2.655184140510912449e+00 5.977381751979044111e+02
2.655284162515752833e+00 5.979538023681787990e+02
2.655384184520594548e+00 5.981690960258955556e+02
2.655484206525435376e+00 5.983840536919550459e+02
2.655584228530276647e+00 5.985986728934755092e+02
2.655684250535117474e+00 5.988129511638463782e+02
2.655784272539958746e+00 5.990268860427776190e+02
2.655884294544799573e+00 5.992404750763555512e+02
2.655984316549640400e+00 5.994537158170903695e+02
2.656084338554482116e+00 5.996666058239701442e+02
2.656184360559322499e+00 5.998791426625125496e+02
2.656284382564164215e+00 6.000913239048140895e+02
2.656384404569005042e+00 6.003031471296013706e+02
2.656484426573846314e+00 6.005146099222829434e+02
2.656584448578687141e+00 6.007257098749987563e+02
2.656684470583527968e+00 6.009364445866709730e+02
2.656784492588369240e+00 6.011468116630530858e+02
2.656884514593210067e+00 6.013568087167811882e+02
2.656984536598051783e+00 6.015664333674226327e+02
2.657084558602892166e+00 6.017756832415259396e+02
2.657184580607733881e+00 6.019845559726688862e+02
2.657284602612574709e+00 6.021930492015098935e+02
2.657384624617415536e+00 6.024011605758340693e+02
2.657484646622256808e+00 6.026088877506033441e+02
2.657584668627097635e+00 6.028162283880056975e+02
2.657684690631938906e+00 6.030231801574999508e+02
2.657784712636779734e+00 6.032297407358685177e+02
2.657884734641621449e+00 6.034359078072591274e+02
2.657984756646461832e+00 6.036416790632399625e+02
2.658084778651303104e+00 6.038470522028389951e+02
2.658184800656144375e+00 6.040520249325963960e+02
2.658284822660985203e+00 6.042565949666091001e+02
2.658384844665826474e+00 6.044607600265769634e+02
2.658484866670667301e+00 6.046645178418525575e+02
2.658584888675508573e+00 6.048678661494811877e+02
2.658684910680349400e+00 6.050708026942534161e+02
2.658784932685190228e+00 6.052733252287443975e+02
2.658884954690031499e+00 6.054754315133659475e+02
2.658984976694872771e+00 6.056771193164054239e+02
2.659084998699714042e+00 6.058783864140750666e+02
2.659185020704554869e+00 6.060792305905541753e+02
2.659285042709396141e+00 6.062796496380344706e+02
2.659385064714236968e+00 6.064796413567640911e+02
2.659485086719077795e+00 6.066792035550936362e+02
2.659585108723919067e+00 6.068783340495147058e+02
2.659685130728759894e+00 6.070770306647096959e+02
2.659785152733601166e+00 6.072752912335898827e+02
2.659885174738442437e+00 6.074731135973416940e+02
2.659985196743283709e+00 6.076704956054675222e+02
2.660085218748124536e+00 6.078674351158293803e+02
2.660185240752965363e+00 6.080639299946906249e+02
2.660285262757806635e+00 6.082599781167579067e+02
2.660385284762647462e+00 6.084555773652226662e+02
2.660485306767488733e+00 6.086507256318027430e+02
2.660585328772329561e+00 6.088454208167846673e+02
2.660685350777170832e+00 6.090396608290628819e+02
2.660785372782012104e+00 6.092334435861810107e+02
2.660885394786852487e+00 6.094267670143740361e+02
2.660985416791694202e+00 6.096196290486042244e+02
2.661085438796535030e+00 6.098120276326056910e+02
2.661185460801376301e+00 6.100039607189221442e+02
2.661285482806217129e+00 6.101954262689449706e+02
2.661385504811058400e+00 6.103864222529549579e+02
2.661485526815899227e+00 6.105769466501584475e+02
2.661585548820740055e+00 6.107669974487275795e+02
2.661685570825581770e+00 6.109565726458386052e+02
2.661785592830422154e+00 6.111456702477097451e+02
2.661885614835263869e+00 6.113342882696367724e+02
2.661985636840104696e+00 6.115224247360357595e+02
2.662085658844945968e+00 6.117100776804742281e+02
2.662185680849786795e+00 6.118972451457118495e+02
2.662285702854627623e+00 6.120839251837370512e+02
2.662385724859468894e+00 6.122701158557999861e+02
2.662485746864309721e+00 6.124558152324542561e+02
2.662585768869151437e+00 6.126410213935871525e+02
2.662685790873991820e+00 6.128257324284587639e+02
2.662785812878833536e+00 6.130099464357364241e+02
2.662885834883674363e+00 6.131936615235283625e+02
2.662985856888515190e+00 6.133768758094208806e+02
2.663085878893356462e+00 6.135595874205101836e+02
2.663185900898197289e+00 6.137417944934381921e+02
2.663285922903038561e+00 6.139234951744271029e+02
2.663385944907879388e+00 6.141046876193095159e+02
2.663485966912721103e+00 6.142853699935651548e+02
2.663585988917561487e+00 6.144655404723537231e+02
2.663686010922402758e+00 6.146451972405444621e+02
2.663786032927244030e+00 6.148243384927523039e+02
2.663886054932084857e+00 6.150029624333681113e+02
2.663986076936926128e+00 6.151810672765905110e+02
2.664086098941766956e+00 6.153586512464571570e+02
2.664186120946608227e+00 6.155357125768775859e+02
2.664286142951449055e+00 6.157122495116623213e+02
2.664386164956289882e+00 6.158882603045545920e+02
2.664486186961131153e+00 6.160637432192601182e+02
2.664586208965972425e+00 6.162386965294787160e+02
2.664686230970813696e+00 6.164131185189309008e+02
2.664786252975654524e+00 6.165870074813902875e+02
2.664886274980495795e+00 6.167603617207113302e+02
2.664986296985336622e+00 6.169331795508593359e+02
2.665086318990177450e+00 6.171054592959374077e+02
2.665186340995018721e+00 6.172771992902160036e+02
2.665286362999859548e+00 6.174483978781603355e+02
2.665386385004700820e+00 6.176190534144585627e+02
2.665486407009542091e+00 6.177891642640475993e+02
2.665586429014383363e+00 6.179587288021433551e+02
2.665686451019224190e+00 6.181277454142629040e+02
2.665786473024065018e+00 6.182962124962552934e+02
2.665886495028906289e+00 6.184641284543257598e+02
2.665986517033747116e+00 6.186314917050599433e+02
2.666086539038588388e+00 6.187983006754539019e+02
2.666186561043429215e+00 6.189645538029333238e+02
2.666286583048270487e+00 6.191302495353838822e+02
2.666386605053111758e+00 6.192953863311727218e+02
2.666486627057952141e+00 6.194599626591739252e+02
2.666586649062793857e+00 6.196239769987919317e+02
2.666686671067634684e+00 6.197874278399851846e+02
2.666786693072475956e+00 6.199503136832900054e+02
2.666886715077316783e+00 6.201126330398424216e+02
2.666986737082158054e+00 6.202743844314031776e+02
2.667086759086998882e+00 6.204355663903783125e+02
2.667186781091839709e+00 6.205961774598406464e+02
2.667286803096681425e+00 6.207562161935538825e+02
2.667386825101521808e+00 6.209156811559915923e+02
2.667486847106363523e+00 6.210745709223601807e+02
2.667586869111204351e+00 6.212328840786190085e+02
2.667686891116045178e+00 6.213906192215004012e+02
2.667786913120886449e+00 6.215477749585313632e+02
2.667886935125727277e+00 6.217043499080513129e+02
2.667986957130568548e+00 6.218603426992340246e+02
2.668086979135409376e+00 6.220157519721042263e+02
2.668187001140251091e+00 6.221705763775585183e+02
2.668287023145091474e+00 6.223248145773841316e+02
2.668387045149932746e+00 6.224784652442751849e+02
2.668487067154774017e+00 6.226315270618522391e+02
2.668587089159614845e+00 6.227839987246799183e+02
2.668687111164456116e+00 6.229358789382836221e+02
2.668787133169296943e+00 6.230871664191666923e+02
2.668887155174138215e+00 6.232378598948268973e+02
2.668987177178979042e+00 6.233879581037733715e+02
2.669087199183819870e+00 6.235374597955428726e+02
2.669187221188661141e+00 6.236863637307135377e+02
2.669287243193502412e+00 6.238346686809222774e+02
2.669387265198343684e+00 6.239823734288796686e+02
2.669487287203184511e+00 6.241294767683826876e+02
2.669587309208025783e+00 6.242759775043325590e+02
2.669687331212866610e+00 6.244218744527448735e+02
2.669787353217707437e+00 6.245671664407668686e+02
2.669887375222548709e+00 6.247118523066884563e+02
2.669987397227389536e+00 6.248559308999565474e+02
2.670087419232230808e+00 6.249994010811864200e+02
2.670187441237072079e+00 6.251422617221768405e+02
2.670287463241913350e+00 6.252845117059196127e+02
2.670387485246754178e+00 6.254261499266117426e+02
2.670487507251595005e+00 6.255671752896685121e+02
2.670587529256436277e+00 6.257075867117326879e+02
2.670687551261277104e+00 6.258473831206870273e+02
2.670787573266118375e+00 6.259865634556629175e+02
2.670887595270959203e+00 6.261251266670529958e+02
2.670987617275800474e+00 6.262630717165167198e+02
2.671087639280641746e+00 6.264003975769960562e+02
2.671187661285482129e+00 6.265371032327191188e+02
2.671287683290323844e+00 6.266731876792121056e+02
2.671387705295164672e+00 6.268086499233057793e+02
2.671487727300005943e+00 6.269434889831459259e+02
2.671587749304846771e+00 6.270777038881996077e+02
2.671687771309688042e+00 6.272112936792627806e+02
2.671787793314528869e+00 6.273442574084683656e+02
2.671887815319369697e+00 6.274765941392917057e+02
2.671987837324211412e+00 6.276083029465588652e+02
2.672087859329051795e+00 6.277393829164518593e+02
2.672187881333893511e+00 6.278698331465144520e+02
2.672287903338734338e+00 6.279996527456571584e+02
2.672387925343575610e+00 6.281288408341648619e+02
2.672487947348416437e+00 6.282573965436988601e+02
2.672587969353257265e+00 6.283853190173028906e+02
2.672687991358098536e+00 6.285126074094076785e+02
2.672788013362939363e+00 6.286392608858332096e+02
2.672888035367781079e+00 6.287652786237943019e+02
2.672988057372621462e+00 6.288906598119029923e+02
2.673088079377463178e+00 6.290154036501713790e+02
2.673188101382304005e+00 6.291395093500140092e+02
2.673288123387144832e+00 6.292629761342504935e+02
2.673388145391986104e+00 6.293858032371077798e+02
2.673488167396826931e+00 6.295079899042206080e+02
2.673588189401668203e+00 6.296295353926350344e+02
2.673688211406509030e+00 6.297504389708066128e+02
2.673788233411350745e+00 6.298706999186030089e+02
2.673888255416191129e+00 6.299903175273032048e+02
2.673988277421032400e+00 6.301092910995988632e+02
2.674088299425873672e+00 6.302276199495922810e+02
2.674188321430714499e+00 6.303453034027963895e+02
2.674288343435555770e+00 6.304623407961348676e+02
2.674388365440396598e+00 6.305787314779389590e+02
2.674488387445237869e+00 6.306944748079463352e+02
2.674588409450078696e+00 6.308095701573008682e+02
2.674688431454919524e+00 6.309240169085477419e+02
2.674788453459760795e+00 6.310378144556328834e+02
2.674888475464602067e+00 6.311509622038981888e+02
2.674988497469443338e+00 6.312634595700794762e+02
2.675088519474284166e+00 6.313753059823040985e+02
2.675188541479125437e+00 6.314865008800828718e+02
2.675288563483966264e+00 6.315970437143107574e+02
2.675388585488807092e+00 6.317069339472595857e+02
2.675488607493648363e+00 6.318161710525721446e+02
2.675588629498489190e+00 6.319247545152609291e+02
2.675688651503330462e+00 6.320326838316973408e+02
2.675788673508171733e+00 6.321399585096108922e+02
2.675888695513013005e+00 6.322465780680793159e+02
2.675988717517853832e+00 6.323525420375239037e+02
2.676088739522694659e+00 6.324578499597029122e+02
2.676188761527535931e+00 6.325625013877026959e+02
2.676288783532376758e+00 6.326664958859315675e+02
2.676388805537218030e+00 6.327698330301122951e+02
2.676488827542058857e+00 6.328725124072731205e+02
2.676588849546900128e+00 6.329745336157390057e+02
2.676688871551741400e+00 6.330758962651248112e+02
2.676788893556581783e+00 6.331765999763240416e+02
2.676888915561423499e+00 6.332766443815005459e+02
2.676988937566264326e+00 6.333760291240796505e+02
2.677088959571105597e+00 6.334747538587355393e+02
2.677188981575946425e+00 6.335728182513839783e+02
2.677289003580787696e+00 6.336702219791695825e+02
2.677389025585628524e+00 6.337669647304556975e+02
2.677489047590469351e+00 6.338630462048133722e+02
2.677589069595311067e+00 6.339584661130093082e+02
2.677689091600151450e+00 6.340532241769932398e+02
2.677789113604993165e+00 6.341473201298879303e+02
2.677889135609833993e+00 6.342407537159740514e+02
2.677989157614675264e+00 6.343335246906797238e+02
2.678089179619516091e+00 6.344256328205655109e+02
2.678189201624356919e+00 6.345170778833117993e+02
2.678289223629198190e+00 6.346078596677052701e+02
2.678389245634039018e+00 6.346979779736236651e+02
2.678489267638880733e+00 6.347874326120238493e+02
2.678589289643721116e+00 6.348762234049239623e+02
2.678689311648562832e+00 6.349643501853917087e+02
2.678789333653403659e+00 6.350518127975255993e+02
2.678889355658244487e+00 6.351386110964419913e+02
2.678989377663085758e+00 6.352247449482591719e+02
2.679089399667926585e+00 6.353102142300784863e+02
2.679189421672767857e+00 6.353950188299712636e+02
2.679289443677608684e+00 6.354791586469596041e+02
2.679389465682450400e+00 6.355626335910006901e+02
2.679489487687290783e+00 6.356454435829676868e+02
2.679589509692132054e+00 6.357275885546342806e+02
2.679689531696973326e+00 6.358090684486551254e+02
2.679789553701814153e+00 6.358898832185481069e+02
2.679889575706655425e+00 6.359700328286744480e+02
2.679989597711496252e+00 6.360495172542218825e+02
2.680089619716337523e+00 6.361283364811851015e+02
2.680189641721178351e+00 6.362064905063432434e+02
2.680289663726019178e+00 6.362839793372457962e+02
2.680389685730860450e+00 6.363608029921869047e+02
2.680489707735701721e+00 6.364369615001871807e+02
2.680589729740542992e+00 6.365124549009743760e+02
2.680689751745383820e+00 6.365872832449607586e+02
2.680789773750225091e+00 6.366614465932219673e+02
2.680889795755065919e+00 6.367349450174760932e+02
2.680989817759906746e+00 6.368077786000621927e+02
2.681089839764748017e+00 6.368799474339159588e+02
2.681189861769588845e+00 6.369514516225508487e+02
2.681289883774430116e+00 6.370222912800318227e+02
2.681389905779271388e+00 6.370924665309551074e+02
2.681489927784112659e+00 6.371619775104236396e+02
2.681589949788953486e+00 6.372308243640233059e+02
2.681689971793794314e+00 6.372990072478005459e+02
2.681789993798635585e+00 6.373665263282357500e+02
2.681890015803476413e+00 6.374333817822224546e+02
2.681990037808317684e+00 6.374995737970389200e+02
2.682090059813158511e+00 6.375651025703260757e+02
2.682190081817999783e+00 6.376299683100605762e+02
2.682290103822841054e+00 6.376941712345297901e+02
2.682390125827681437e+00 6.377577115723070165e+02
2.682490147832523153e+00 6.378205895622231765e+02
2.682590169837363980e+00 6.378828054533437353e+02
2.682690191842205252e+00 6.379443595049388023e+02
2.682790213847046079e+00 6.380052519864593705e+02
2.682890235851887351e+00 6.380654831775068487e+02
2.682990257856728178e+00 6.381250533678080501e+02
2.683090279861569005e+00 6.381839628571882486e+02
2.683190301866410721e+00 6.382422119555400286e+02
2.683290323871251104e+00 6.382998009827987289e+02
2.683390345876092820e+00 6.383567302689111784e+02
2.683490367880933647e+00 6.384130001538085253e+02
2.683590389885774918e+00 6.384686109873769055e+02
2.683690411890615746e+00 6.385235631294284531e+02
2.683790433895456573e+00 6.385778569496709451e+02
2.683890455900297844e+00 6.386314928276790397e+02
2.683990477905138672e+00 6.386844711528634662e+02
2.684090499909980387e+00 6.387367923244415806e+02
2.684190521914820771e+00 6.387884567514066703e+02
2.684290543919662486e+00 6.388394648524960076e+02
2.684390565924503314e+00 6.388898170561617462e+02
2.684490587929344141e+00 6.389395138005379522e+02
2.684590609934185412e+00 6.389885555334107039e+02
2.684690631939026240e+00 6.390369427121840999e+02
2.684790653943867511e+00 6.390846758038507005e+02
2.684890675948708338e+00 6.391317552849582171e+02
2.684990697953550054e+00 6.391781816415755202e+02
2.685090719958390437e+00 6.392239553692630807e+02
2.685190741963231709e+00 6.392690769730364764e+02
2.685290763968072980e+00 6.393135469673360376e+02
2.685390785972913807e+00 6.393573658759921727e+02
2.685490807977755079e+00 6.394005342321906937e+02
2.685590829982595906e+00 6.394430525784415522e+02
2.685690851987437178e+00 6.394849214665401860e+02
2.685790873992278005e+00 6.395261414575393246e+02
2.685890895997118832e+00 6.395667131217076076e+02
2.685990918001960104e+00 6.396066370385000255e+02
2.686090940006801375e+00 6.396459137965202899e+02
2.686190962011642647e+00 6.396845439934857040e+02
2.686290984016483474e+00 6.397225282361916925e+02
2.686391006021324745e+00 6.397598671404759898e+02
2.686491028026165573e+00 6.397965613311832840e+02
2.686591050031006400e+00 6.398326114421289503e+02
2.686691072035847672e+00 6.398680181160599432e+02
2.686791094040688499e+00 6.399027820046223951e+02
2.686891116045529770e+00 6.399369037683219403e+02
2.686991138050371042e+00 6.399703840764855158e+02
2.687091160055212313e+00 6.400032236072282785e+02
2.687191182060053141e+00 6.400354230474122232e+02
2.687291204064893968e+00 6.400669830926086661e+02
2.687391226069735239e+00 6.400979044470627741e+02
2.687491248074576067e+00 6.401281878236527518e+02
2.687591270079417338e+00 6.401578339438530065e+02
2.687691292084258166e+00 6.401868435376945854e+02
2.687791314089099437e+00 6.402152173437265219e+02
2.687891336093940708e+00 6.402429561089783192e+02
2.687991358098781092e+00 6.402700605889176586e+02
2.688091380103622807e+00 6.402965315474136787e+02
2.688191402108463635e+00 6.403223697566966166e+02
2.688291424113304906e+00 6.403475759973167669e+02
2.688391446118145733e+00 6.403721510581067378e+02
2.688491468122987005e+00 6.403960957361379087e+02
2.688591490127827832e+00 6.404194108366840510e+02
2.688691512132668660e+00 6.404420971731775580e+02
2.688791534137510375e+00 6.404641555671702235e+02
2.688891556142350758e+00 6.404855868482904953e+02
2.688991578147192474e+00 6.405063918542044803e+02
2.689091600152033301e+00 6.405265714305739948e+02
2.689191622156874573e+00 6.405461264310132492e+02
2.689291644161715400e+00 6.405650577170498536e+02
2.689391666166556227e+00 6.405833661580797980e+02
2.689491688171397499e+00 6.406010526313289120e+02
2.689591710176238326e+00 6.406181180218067084e+02
2.689691732181080042e+00 6.406345632222671611e+02
2.689791754185920425e+00 6.406503891331641398e+02
2.689891776190762140e+00 6.406655966626094596e+02
2.689991798195602968e+00 6.406801867263295662e+02
2.690091820200443795e+00 6.406941602476216531e+02
2.690191842205285067e+00 6.407075181573125064e+02
2.690291864210125894e+00 6.407202613937120077e+02
2.690391886214967165e+00 6.407323909025712965e+02
2.690491908219807993e+00 6.407439076370399107e+02
2.690591930224649708e+00 6.407548125576188340e+02
2.690691952229490091e+00 6.407651066321188864e+02
2.690791974234331363e+00 6.407747908356149082e+02
2.690891996239172634e+00 6.407838661504023321e+02
2.690992018244013462e+00 6.407923335659517079e+02
2.691092040248854733e+00 6.408001940788647062e+02
2.691192062253695561e+00 6.408074486928277338e+02
2.691292084258536832e+00 6.408140984185681646e+02
2.691392106263377659e+00 6.408201442738093192e+02
2.691492128268218487e+00 6.408255872832237401e+02
2.691592150273059758e+00 6.408304284783881712e+02
2.691692172277901030e+00 6.408346688977384247e+02
2.691792194282742301e+00 6.408383095865233372e+02
2.691892216287583128e+00 6.408413515967577041e+02
2.691992238292424400e+00 6.408437959871769181e+02
2.692092260297265227e+00 6.408456438231917218e+02
2.692192282302106054e+00 6.408468961768404597e+02
2.692292304306947326e+00 6.408475541267417839e+02
2.692392326311788153e+00 6.408476187580513397e+02
2.692492348316629425e+00 6.408470911624098107e+02
2.692592370321470696e+00 6.408459724379013096e+02
2.692692392326311968e+00 6.408442636890023323e+02
2.692792414331152795e+00 6.408419660265367384e+02
2.692892436335993622e+00 6.408390805676286845e+02
2.692992458340834894e+00 6.408356084356520341e+02
2.693092480345675721e+00 6.408315507601865875e+02
2.693192502350516992e+00 6.408269086769687419e+02
2.693292524355357820e+00 6.408216833278423792e+02
2.693392546360199091e+00 6.408158758607139589e+02
2.693492568365040363e+00 6.408094874295021555e+02
2.693592590369880746e+00 6.408025191940906780e+02
2.693692612374722462e+00 6.407949723202787027e+02
2.693792634379563289e+00 6.407868479797343753e+02
2.693892656384404560e+00 6.407781473499438789e+02
2.693992678389245388e+00 6.407688716141672103e+02
2.694092700394086659e+00 6.407590219613846330e+02
2.694192722398927486e+00 6.407485995862492700e+02
2.694292744403768314e+00 6.407376056890404925e+02
2.694392766408610029e+00 6.407260414756121918e+02
2.694492788413450413e+00 6.407139081573446902e+02
2.694592810418292128e+00 6.407012069510956280e+02
2.694692832423132955e+00 6.406879390791519882e+02
2.694792854427974227e+00 6.406741057691764354e+02
2.694892876432815054e+00 6.406597082541628652e+02
2.694992898437655882e+00 6.406447477723844486e+02
2.695092920442497153e+00 6.406292255673427007e+02
2.695192942447337980e+00 6.406131428877218923e+02
2.695292964452179696e+00 6.405965009873335703e+02
2.695392986457020079e+00 6.405793011250721065e+02
2.695493008461861795e+00 6.405615445648606965e+02
2.695593030466702622e+00 6.405432325756033833e+02
2.695693052471543449e+00 6.405243664311343537e+02
2.695793074476384721e+00 6.405049474101676878e+02
2.695893096481225548e+00 6.404849767962473379e+02
2.695993118486066820e+00 6.404644558776958547e+02
2.696093140490907647e+00 6.404433859475657300e+02
2.696193162495749363e+00 6.404217683035863047e+02
2.696293184500589746e+00 6.403996042481164750e+02
2.696393206505431017e+00 6.403768950880905777e+02
2.696493228510272289e+00 6.403536421349700731e+02
2.696593250515113116e+00 6.403298467046929545e+02
2.696693272519954387e+00 6.403055101176206563e+02
2.696793294524795215e+00 6.402806336984896234e+02
2.696893316529636486e+00 6.402552187763593565e+02
2.696993338534477314e+00 6.402292666845592066e+02
2.697093360539318141e+00 6.402027787606438096e+02
2.697193382544159412e+00 6.401757563463341967e+02
2.697293404549000684e+00 6.401482007874717510e+02
2.697393426553841955e+00 6.401201134339648888e+02
2.697493448558682783e+00 6.400914956397391506e+02
2.697593470563524054e+00 6.400623487626850192e+02
2.697693492568364881e+00 6.400326741646059645e+02
2.697793514573205709e+00 6.400024732111698995e+02
2.697893536578046980e+00 6.399717472718537010e+02
2.697993558582887808e+00 6.399404977198948927e+02
2.698093580587729079e+00 6.399087259322407135e+02
2.698193602592570350e+00 6.398764332894918425e+02
2.698293624597411622e+00 6.398436211758573791e+02
2.698393646602252449e+00 6.398102909790990225e+02
2.698493668607093277e+00 6.397764440904804815e+02
2.698593690611934548e+00 6.397420819047151781e+02
2.698693712616775375e+00 6.397072058199166804e+02
2.698793734621616647e+00 6.396718172375467475e+02
2.698893756626457474e+00 6.396359175623606461e+02
2.698993778631298746e+00 6.395995082023586065e+02
2.699093800636140017e+00 6.395625905687330714e+02
2.699193822640980400e+00 6.395251660758170829e+02
2.699293844645822116e+00 6.394872361410332360e+02
2.699393866650662943e+00 6.394488021848393373e+02
2.699493888655504215e+00 6.394098656306804287e+02
2.699593910660345042e+00 6.393704279049344450e+02
2.699693932665186313e+00 6.393304904368618509e+02
2.699793954670027141e+00 6.392900546585526627e+02
2.699893976674867968e+00 6.392491220048742662e+02
2.699993998679709684e+00 6.392076939134230997e+02
2.700094020684550067e+00 6.391657718244689477e+02
2.700194042689391782e+00 6.391233571809048044e+02
2.700294064694232610e+00 6.390804514281951469e+02
2.700394086699073881e+00 6.390370560143243210e+02
2.700494108703914709e+00 6.389931723897450411e+02
2.700594130708755536e+00 6.389488020073254120e+02
2.700694152713596807e+00 6.389039463222986797e+02
2.700794174718437635e+00 6.388586067922108214e+02
2.700894196723279350e+00 6.388127848768684771e+02
2.700994218728119733e+00 6.387664820382889275e+02
2.701094240732961449e+00 6.387196997406463197e+02
2.701194262737802276e+00 6.386724394502215318e+02
2.701294284742643104e+00 6.386247026353507863e+02
2.701394306747484375e+00 6.385764907663725580e+02
2.701494328752325202e+00 6.385278053155772113e+02
2.701594350757166474e+00 6.384786477571556134e+02
2.701694372762007301e+00 6.384290195671464971e+02
2.701794394766849017e+00 6.383789222233867804e+02
2.701894416771689400e+00 6.383283572054588149e+02
2.701994438776530671e+00 6.382773259946394546e+02
2.702094460781371943e+00 6.382258300738482149e+02
2.702194482786212770e+00 6.381738709275977044e+02
2.702294504791054042e+00 6.381214500419400792e+02
2.702394526795894869e+00 6.380685689044162245e+02
2.702494548800735696e+00 6.380152290040072103e+02
2.702594570805576968e+00 6.379614318310799490e+02
2.702694592810417795e+00 6.379071788773383105e+02
2.702794614815259067e+00 6.378524716357690068e+02
2.702894636820100338e+00 6.377973116005955490e+02
2.702994658824941610e+00 6.377417002672227682e+02
2.703094680829782437e+00 6.376856391321889532e+02
2.703194702834623264e+00 6.376291296931137822e+02
2.703294724839464536e+00 6.375721734486469359e+02
2.703394746844305363e+00 6.375147718984183030e+02
2.703494768849146634e+00 6.374569265429884126e+02
2.703594790853987462e+00 6.373986388837953427e+02
2.703694812858828733e+00 6.373399104231064030e+02
2.703794834863670005e+00 6.372807426639672030e+02
2.703894856868510388e+00 6.372211371101499253e+02
2.703994878873352103e+00 6.371610952661050078e+02
2.704094900878192931e+00 6.371006186369104398e+02
2.704194922883034202e+00 6.370397087282203756e+02
2.704294944887875030e+00 6.369783670462160217e+02
2.704394966892716301e+00 6.369165950975568649e+02
2.704494988897557128e+00 6.368543943893274673e+02
2.704595010902397956e+00 6.367917664289926734e+02
2.704695032907239671e+00 6.367287127243417899e+02
2.704795054912080055e+00 6.366652347834435659e+02
2.704895076916921770e+00 6.366013341145958293e+02
2.704995098921762597e+00 6.365370122262736459e+02
2.705095120926603869e+00 6.364722706270831623e+02
2.705195142931444696e+00 6.364071108257098786e+02
2.705295164936285524e+00 6.363415343308706724e+02
2.705395186941126795e+00 6.362755426512632084e+02
2.705495208945967622e+00 6.362091372955198949e+02
2.705595230950809338e+00 6.361423197721567249e+02
2.705695252955649721e+00 6.360750915895240496e+02
2.705795274960491437e+00 6.360074542557583754e+02
2.705895296965332264e+00 6.359394092787356385e+02
2.705995318970173091e+00 6.358709581660199319e+02
2.706095340975014363e+00 6.358021024248162121e+02
2.706195362979855190e+00 6.357328435619228912e+02
2.706295384984696462e+00 6.356631830836820427e+02
2.706395406989537289e+00 6.355931224959335850e+02
2.706495428994379004e+00 6.355226633039634407e+02
2.706595450999219388e+00 6.354518070124603355e+02
2.706695473004060659e+00 6.353805551254647526e+02
2.706795495008901931e+00 6.353089091463231171e+02
2.706895517013742758e+00 6.352368705776386832e+02
2.706995539018584029e+00 6.351644409212252640e+02
2.707095561023424857e+00 6.350916216780608465e+02
2.707195583028266128e+00 6.350184143482385934e+02
2.707295605033106956e+00 6.349448204309202310e+02
2.707395627037947783e+00 6.348708414242904610e+02
2.707495649042789054e+00 6.347964788255085296e+02
2.707595671047630326e+00 6.347217341306633216e+02
2.707695693052471597e+00 6.346466088347249297e+02
2.707795715057312425e+00 6.345711044315006575e+02
2.707895737062153696e+00 6.344952224135860206e+02
2.707995759066994523e+00 6.344189642723213183e+02
2.708095781071835351e+00 6.343423314977437713e+02
2.708195803076676622e+00 6.342653255785419333e+02
2.708295825081517449e+00 6.341879480020126039e+02
2.708395847086358721e+00 6.341102002540105786e+02
2.708495869091199992e+00 6.340320838189077222e+02
2.708595891096041264e+00 6.339536001795452194e+02
2.708695913100882091e+00 6.338747508171888967e+02
2.708795935105722918e+00 6.337955372114846568e+02
2.708895957110564190e+00 6.337159608404147093e+02
2.708995979115405017e+00 6.336360231802498220e+02
2.709096001120246289e+00 6.335557257055083937e+02
2.709196023125087116e+00 6.334750698889093883e+02
2.709296045129928387e+00 6.333940572013301562e+02
2.709396067134769659e+00 6.333126891117614150e+02
2.709496089139610042e+00 6.332309670872623428e+02
2.709596111144451758e+00 6.331488925929191964e+02
2.709696133149292585e+00 6.330664670918008596e+02
2.709796155154133857e+00 6.329836920449133686e+02
2.709896177158974684e+00 6.329005689111602351e+02
2.709996199163815955e+00 6.328170991472975402e+02
2.710096221168656783e+00 6.327332842078890280e+02
2.710196243173497610e+00 6.326491255452688165e+02
2.710296265178339326e+00 6.325646246094927392e+02
2.710396287183179709e+00 6.324797828482998057e+02
2.710496309188021424e+00 6.323946017070692278e+02
2.710596331192862252e+00 6.323090826287772188e+02
2.710696353197703523e+00 6.322232270539567480e+02
2.710796375202544350e+00 6.321370364206549084e+02
2.710896397207385178e+00 6.320505121643907387e+02
2.710996419212226449e+00 6.319636557181164562e+02
2.711096441217067277e+00 6.318764685121723232e+02
2.711196463221908992e+00 6.317889519742502671e+02
2.711296485226749375e+00 6.317011075293487465e+02
2.711396507231591091e+00 6.316129365997351215e+02
2.711496529236431918e+00 6.315244406049048393e+02
2.711596551241272746e+00 6.314356209615386888e+02
2.711696573246114017e+00 6.313464790834667610e+02
2.711796595250954844e+00 6.312570163816250215e+02
2.711896617255796116e+00 6.311672342640188162e+02
2.711996639260636943e+00 6.310771341356789890e+02
2.712096661265478659e+00 6.309867173986283433e+02
2.712196683270319042e+00 6.308959854518375323e+02
2.712296705275160313e+00 6.308049396911890199e+02
2.712396727280001585e+00 6.307135815094368354e+02
2.712496749284842412e+00 6.306219122961700805e+02
2.712596771289683684e+00 6.305299334377716605e+02
2.712696793294524511e+00 6.304376463173830416e+02
2.712796815299365782e+00 6.303450523148644606e+02
2.712896837304206610e+00 6.302521528067584313e+02
2.712996859309047437e+00 6.301589491662517730e+02
2.713096881313888709e+00 6.300654427631375256e+02
2.713196903318729980e+00 6.299716349637794792e+02
2.713296925323571251e+00 6.298775271310737480e+02
2.713396947328412079e+00 6.297831206244139821e+02
2.713496969333253350e+00 6.296884167996520318e+02
2.713596991338094178e+00 6.295934170090649786e+02
2.713697013342935005e+00 6.294981226013162541e+02
2.713797035347776276e+00 6.294025349214221023e+02
2.713897057352617104e+00 6.293066553107150867e+02
2.713997079357458375e+00 6.292104851068071412e+02
2.714097101362299647e+00 6.291140256435577385e+02
2.714197123367140918e+00 6.290172782510347815e+02
2.714297145371981745e+00 6.289202442554843628e+02
2.714397167376822573e+00 6.288229249792927931e+02
2.714497189381663844e+00 6.287253217409536319e+02
2.714597211386504672e+00 6.286274358550338093e+02
2.714697233391345943e+00 6.285292686321390647e+02
2.714797255396186770e+00 6.284308213788806370e+02
2.714897277401028042e+00 6.283320953978418402e+02
2.714997299405869313e+00 6.282330919875460040e+02
2.715097321410709696e+00 6.281338124424206626e+02
2.715197343415551412e+00 6.280342580527679957e+02
2.715297365420392239e+00 6.279344301047309500e+02
2.715397387425233511e+00 6.278343298802602703e+02
2.715497409430074338e+00 6.277339586570828942e+02
2.715597431434915610e+00 6.276333177086714841e+02
2.715697453439756437e+00 6.275324083042110033e+02
2.715797475444597264e+00 6.274312317085684754e+02
2.715897497449438980e+00 6.273297891822616066e+02
2.715997519454279363e+00 6.272280819814275219e+02
2.716097541459121079e+00 6.271261113577925244e+02
2.716197563463961906e+00 6.270238785586423091e+02
2.716297585468803177e+00 6.269213848267900175e+02
2.716397607473644005e+00 6.268186314005479289e+02
2.716497629478484832e+00 6.267156195136972201e+02
2.716597651483326104e+00 6.266123503954585203e+02
2.716697673488166931e+00 6.265088252704633760e+02
2.716797695493008646e+00 6.264050453587244647e+02
2.716897717497849030e+00 6.263010118756051270e+02
2.716997739502690745e+00 6.261967260317959472e+02
2.717097761507531573e+00 6.260921890332813291e+02
2.717197783512372400e+00 6.259874020813141442e+02
2.717297805517213671e+00 6.258823663723881054e+02
2.717397827522054499e+00 6.257770830982083226e+02
2.717497849526895770e+00 6.256715534456665182e+02
2.717597871531736597e+00 6.255657785968124927e+02
2.717697893536578313e+00 6.254597597288277484e+02
2.717797915541418696e+00 6.253534980139985464e+02
2.717897937546259968e+00 6.252469946196914634e+02
2.717997959551101239e+00 6.251402507083244018e+02
2.718097981555942066e+00 6.250332674373436248e+02
2.718198003560783338e+00 6.249260459591972676e+02
2.718298025565624165e+00 6.248185874213096440e+02
2.718398047570465437e+00 6.247108929660557806e+02
2.718498069575306264e+00 6.246029637307393614e+02
2.718598091580147091e+00 6.244948008475648749e+02
2.718698113584988363e+00 6.243864054436158995e+02
2.718798135589829634e+00 6.242777786408300926e+02
2.718898157594670906e+00 6.241689215559749755e+02
2.718998179599511733e+00 6.240598353006262187e+02
2.719098201604353005e+00 6.239505209811425175e+02
2.719198223609193832e+00 6.238409796986441052e+02
2.719298245614034659e+00 6.237312125489888786e+02
2.719398267618875931e+00 6.236212206227515935e+02
2.719498289623716758e+00 6.235110050052003317e+02
2.719598311628558029e+00 6.234005667762750136e+02
2.719698333633399301e+00 6.232899070105661394e+02
2.719798355638240572e+00 6.231790267772928473e+02
2.719898377643081400e+00 6.230679271402827908e+02
2.719998399647922227e+00 6.229566091579496288e+02
2.720098421652763498e+00 6.228450738832747220e+02
2.720198443657604326e+00 6.227333223637854189e+02
2.720298465662445597e+00 6.226213556415342509e+02
2.720398487667286425e+00 6.225091747530821067e+02
2.720498509672127696e+00 6.223967807294743579e+02
2.720598531676968967e+00 6.222841745962260802e+02
2.720698553681809351e+00 6.221713573733014755e+02
2.720798575686651066e+00 6.220583300750923854e+02
2.720898597691491894e+00 6.219450937104049899e+02
2.720998619696333165e+00 6.218316492824376382e+02
2.721098641701173992e+00 6.217179977887643645e+02
2.721198663706015264e+00 6.216041402213177207e+02
2.721298685710856091e+00 6.214900775663709283e+02
2.721398707715696919e+00 6.213758108045201425e+02
2.721498729720538634e+00 6.212613409106697873e+02
2.721598751725379017e+00 6.211466688540125460e+02
2.721698773730220733e+00 6.210317955980182205e+02
2.721798795735061560e+00 6.209167221004109933e+02
2.721898817739902832e+00 6.208014493131602194e+02
2.721998839744743659e+00 6.206859781824610991e+02
2.722098861749584486e+00 6.205703096487211496e+02
2.722198883754425758e+00 6.204544446465438341e+02
2.722298905759266585e+00 6.203383841047162832e+02
2.722398927764108301e+00 6.202221289461923561e+02
2.722498949768948684e+00 6.201056800880799074e+02
2.722598971773790399e+00 6.199890384416280540e+02
2.722698993778631227e+00 6.198722049122110320e+02
2.722799015783472054e+00 6.197551803993178510e+02
2.722899037788313326e+00 6.196379657965363776e+02
2.722999059793154153e+00 6.195205619915426496e+02
2.723099081797995424e+00 6.194029698660888243e+02
2.723199103802836252e+00 6.192851902959889685e+02
2.723299125807677967e+00 6.191672241511090533e+02
2.723399147812518351e+00 6.190490722953550176e+02
2.723499169817359622e+00 6.189307355866604894e+02
2.723599191822200893e+00 6.188122148769768955e+02
2.723699213827041721e+00 6.186935110122619790e+02
2.723799235831882992e+00 6.185746248324693397e+02
2.723899257836723820e+00 6.184555571715400220e+02
2.723999279841565091e+00 6.183363088573887580e+02
2.724099301846405918e+00 6.182168807118977156e+02
2.724199323851246746e+00 6.180972735509066069e+02
2.724299345856088017e+00 6.179774881842020022e+02
2.724399367860929289e+00 6.178575254155103949e+02
2.724499389865770560e+00 6.177373860424884242e+02
2.724599411870611387e+00 6.176170708567149177e+02
2.724699433875452659e+00 6.174965806436822504e+02
2.724799455880293486e+00 6.173759161827917978e+02
2.724899477885134313e+00 6.172550782473412028e+02
2.724999499889975585e+00 6.171340676045223290e+02
2.725099521894816412e+00 6.170128850154109159e+02
2.725199543899657684e+00 6.168915312349621445e+02
2.725299565904498955e+00 6.167700070120031342e+02
2.725399587909340227e+00 6.166483130892266900e+02
2.725499609914181054e+00 6.165264502031870961e+02
2.725599631919021881e+00 6.164044190842929538e+02
2.725699653923863153e+00 6.162822204568026336e+02
2.725799675928703980e+00 6.161598550388201829e+02
2.725899697933545252e+00 6.160373235422894140e+02
2.725999719938386079e+00 6.159146266729893568e+02
2.726099741943227350e+00 6.157917651305326672e+02
2.726199763948068622e+00 6.156687396083580097e+02
2.726299785952909005e+00 6.155455507937298307e+02
2.726399807957750721e+00 6.154221993677331284e+02
2.726499829962591548e+00 6.152986860052715201e+02
2.726599851967432819e+00 6.151750113750638320e+02
2.726699873972273647e+00 6.150511761396426209e+02
2.726799895977114918e+00 6.149271809553504227e+02
2.726899917981955745e+00 6.148030264723410028e+02
2.726999939986796573e+00 6.146787133345721941e+02
2.727099961991638288e+00 6.145542421798111263e+02
2.727199983996478672e+00 6.144296136396291104e+02
2.727300006001320387e+00 6.143048283394016380e+02
2.727400028006161214e+00 6.141798868983077000e+02
2.727500050011002486e+00 6.140547899293312639e+02
2.727600072015843313e+00 6.139295380392590005e+02
2.727700094020684141e+00 6.138041318286824435e+02
2.727800116025525412e+00 6.136785718919966257e+02
2.727900138030366239e+00 6.135528588174043989e+02
2.728000160035207955e+00 6.134269931869129096e+02
2.728100182040048338e+00 6.133009755763389421e+02
2.728200204044890054e+00 6.131748065553091465e+02
2.728300226049730881e+00 6.130484866872615157e+02
2.728400248054571708e+00 6.129220165294491380e+02
2.728500270059412980e+00 6.127953966329407649e+02
2.728600292064253807e+00 6.126686275426249040e+02
2.728700314069095079e+00 6.125417097972132296e+02
2.728800336073935906e+00 6.124146439292426294e+02
2.728900358078777622e+00 6.122874304650798649e+02
2.729000380083618005e+00 6.121600699249252102e+02
2.729100402088459276e+00 6.120325628228155210e+02
2.729200424093300548e+00 6.119049096666309424e+02
2.729300446098141375e+00 6.117771109580978646e+02
2.729400468102982646e+00 6.116491671927942662e+02
2.729500490107823474e+00 6.115210788601548302e+02
2.729600512112664745e+00 6.113928464434765147e+02
2.729700534117505573e+00 6.112644704199248054e+02
2.729800556122346400e+00 6.111359512605391728e+02
2.729900578127187671e+00 6.110072894302401210e+02
2.730000600132028943e+00 6.108784853878339618e+02
2.730100622136870214e+00 6.107495395860220242e+02
2.730200644141711042e+00 6.106204524714064519e+02
2.730300666146552313e+00 6.104912244844972520e+02
2.730400688151393140e+00 6.103618560597212763e+02
2.730500710156233968e+00 6.102323476254277921e+02
2.730600732161075239e+00 6.101026996038995094e+02
2.730700754165916067e+00 6.099729124113591752e+02
2.730800776170757338e+00 6.098429864579785544e+02
2.730900798175598609e+00 6.097129221478876389e+02
2.731000820180439881e+00 6.095827198791832870e+02
2.731100842185280708e+00 6.094523800439394563e+02
2.731200864190121536e+00 6.093219030282170934e+02
2.731300886194962807e+00 6.091912892120727747e+02
2.731400908199803634e+00 6.090605389695699614e+02
2.731500930204644906e+00 6.089296526687897995e+02
2.731600952209485733e+00 6.087986306718405558e+02
2.731700974214327005e+00 6.086674733348703512e+02
2.731800996219168276e+00 6.085361810080775058e+02
2.731901018224008659e+00 6.084047540357209982e+02
2.732001040228850375e+00 6.082731927561352450e+02
2.732101062233691202e+00 6.081414975017380584e+02
2.732201084238532474e+00 6.080096685990470178e+02
2.732301106243373301e+00 6.078777063686890187e+02
2.732401128248214572e+00 6.077456111254145981e+02
2.732501150253055400e+00 6.076133831781107801e+02
2.732601172257896227e+00 6.074810228298135826e+02
2.732701194262737943e+00 6.073485303777224544e+02
2.732801216267578326e+00 6.072159061132142597e+02
2.732901238272420041e+00 6.070831503218555554e+02
2.733001260277260869e+00 6.069502632834188489e+02
2.733101282282102140e+00 6.068172452718969225e+02
2.733201304286942968e+00 6.066840965555161347e+02
2.733301326291783795e+00 6.065508173967530183e+02
2.733401348296625066e+00 6.064174080523489465e+02
2.733501370301465894e+00 6.062838687733253664e+02
2.733601392306307609e+00 6.061501998050003976e+02
2.733701414311147992e+00 6.060164013870033841e+02
2.733801436315989708e+00 6.058824737532931977e+02
2.733901458320830535e+00 6.057484171321726762e+02
2.734001480325671363e+00 6.056142317463065865e+02
2.734101502330512634e+00 6.054799178127376535e+02
2.734201524335353461e+00 6.053454755429053193e+02
2.734301546340194733e+00 6.052109051426619999e+02
2.734401568345035560e+00 6.050762068122903656e+02
2.734501590349877276e+00 6.049413807465219861e+02
2.734601612354717659e+00 6.048064271345559746e+02
2.734701634359558930e+00 6.046713461600758137e+02
2.734801656364400202e+00 6.045361380012699328e+02
2.734901678369241029e+00 6.044008028308480789e+02
2.735001700374082301e+00 6.042653408160629169e+02
2.735101722378923128e+00 6.041297521187275379e+02
2.735201744383764400e+00 6.039940368952361496e+02
2.735301766388605227e+00 6.038581952965829487e+02
2.735401788393446054e+00 6.037222274683823571e+02
2.735501810398287326e+00 6.035861335508903949e+02
2.735601832403128597e+00 6.034499136790221883e+02
2.735701854407969869e+00 6.033135679823761848e+02
2.735801876412810696e+00 6.031770965852524569e+02
2.735901898417651967e+00 6.030404996066748708e+02
2.736001920422492795e+00 6.029037771604128011e+02
2.736101942427333622e+00 6.027669293550007978e+02
2.736201964432174893e+00 6.026299562937628025e+02
2.736301986437015721e+00 6.024928580748323839e+02
2.736402008441856992e+00 6.023556347911768398e+02
2.736502030446698264e+00 6.022182865306151598e+02
2.736602052451539535e+00 6.020808133758472422e+02
2.736702074456380362e+00 6.019432154044711751e+02
2.736802096461221190e+00 6.018054926890092702e+02
2.736902118466062461e+00 6.016676452969292086e+02
2.737002140470903289e+00 6.015296732906706438e+02
2.737102162475744560e+00 6.013915767276656652e+02
2.737202184480585387e+00 6.012533556603636953e+02
2.737302206485426215e+00 6.011150101362572968e+02
2.737402228490267930e+00 6.009765401979033186e+02
2.737502250495108314e+00 6.008379458829505211e+02
2.737602272499950029e+00 6.006992272241618593e+02
2.737702294504790856e+00 6.005603842494410856e+02
2.737802316509632128e+00 6.004214169818573055e+02
2.737902338514472955e+00 6.002823254396693073e+02
2.738002360519313783e+00 6.001431096363533015e+02
2.738102382524155054e+00 6.000037695806256579e+02
2.738202404528995881e+00 5.998643052764717822e+02
2.738302426533837597e+00 5.997247167231704452e+02
2.738402448538677980e+00 5.995850039153198168e+02
2.738502470543519696e+00 5.994451668428664561e+02
2.738602492548360523e+00 5.993052054911278219e+02
2.738702514553201350e+00 5.991651198408227401e+02
2.738802536558042622e+00 5.990249098680977795e+02
2.738902558562883449e+00 5.988845755445528312e+02
2.739002580567724721e+00 5.987441168372697575e+02
2.739102602572565548e+00 5.986035337088411552e+02
2.739202624577407263e+00 5.984628261173955934e+02
2.739302646582247647e+00 5.983219940166264905e+02
2.739402668587088918e+00 5.981810373558228093e+02
2.739502690591930190e+00 5.980399560798937273e+02
2.739602712596771017e+00 5.978987501293987634e+02
2.739702734601612288e+00 5.977574194405768822e+02
2.739802756606453116e+00 5.976159639453750287e+02
2.739902778611294387e+00 5.974743835714771194e+02
2.740002800616135215e+00 5.973326782423329178e+02
