1.200064014083098041e+00 5.167338023131409273e+02
1.200164036087939312e+00 5.167309740898735981e+02
1.200264058092780362e+00 5.167282181114228479e+02
1.200364080097621411e+00 5.167255344055722617e+02
1.200464102102462460e+00 5.167229229979461707e+02
1.200564124107303510e+00 5.167203839120101065e+02
1.200664146112144559e+00 5.167179171690708017e+02
1.200764168116985608e+00 5.167155227882775534e+02
1.200864190121826658e+00 5.167132007866209733e+02
1.200964212126667707e+00 5.167109511789365115e+02
1.201064234131508757e+00 5.167087739779027515e+02
1.201164256136349806e+00 5.167066691940439114e+02
1.201264278141191078e+00 5.167046368357299571e+02
1.201364300146032127e+00 5.167026769091778533e+02
1.201464322150873176e+00 5.167007894184525867e+02
1.201564344155714226e+00 5.166989743654683025e+02
1.201664366160555275e+00 5.166972317499901237e+02
1.201764388165396324e+00 5.166955615696354016e+02
1.201864410170237374e+00 5.166939638198743978e+02
1.201964432175078423e+00 5.166924384940325581e+02
1.202064454179919473e+00 5.166909855832914218e+02
1.202164476184760522e+00 5.166896050766918052e+02
1.202264498189601571e+00 5.166882969611338012e+02
1.202364520194442843e+00 5.166870612213800769e+02
1.202464542199283670e+00 5.166858978400562137e+02
1.202564564204124720e+00 5.166848067976544598e+02
1.202664586208965991e+00 5.166837880725348668e+02
1.202764608213807040e+00 5.166828416409274496e+02
1.202864630218647868e+00 5.166819674769351423e+02
1.202964652223489139e+00 5.166811655525345941e+02
1.203064674228330189e+00 5.166804358375815127e+02
1.203164696233171238e+00 5.166797782998096409e+02
1.203264718238012287e+00 5.166791929048357588e+02
1.203364740242853337e+00 5.166786796161618440e+02
1.203464762247694386e+00 5.166782383951766633e+02
1.203564784252535436e+00 5.166778692011610019e+02
1.203664806257376485e+00 5.166775719912878913e+02
1.203764828262217534e+00 5.166773467206276109e+02
1.203864850267058584e+00 5.166771933421496215e+02
1.203964872271899633e+00 5.166771118067258612e+02
1.204064894276740905e+00 5.166771020631346119e+02
1.204164916281581954e+00 5.166771640580633402e+02
1.204264938286423003e+00 5.166772977361118819e+02
1.204364960291264053e+00 5.166775030397961928e+02
1.204464982296105102e+00 5.166777799095519867e+02
1.204565004300946152e+00 5.166781282837389426e+02
1.204665026305787201e+00 5.166785480986422954e+02
1.204765048310628250e+00 5.166790392884781795e+02
1.204865070315469300e+00 5.166796017853987451e+02
1.204965092320310349e+00 5.166802355194929532e+02
1.205065114325151399e+00 5.166809404187936252e+02
1.205165136329992670e+00 5.166817164092792609e+02
1.205265158334833497e+00 5.166825634148799509e+02
1.205365180339674547e+00 5.166834813574793088e+02
1.205465202344515818e+00 5.166844701569217477e+02
1.205565224349356868e+00 5.166855297310157766e+02
1.205665246354197695e+00 5.166866599955367292e+02
1.205765268359038966e+00 5.166878608642326753e+02
1.205865290363880016e+00 5.166891322488303331e+02
1.205965312368721065e+00 5.166904740590374558e+02
1.206065334373562115e+00 5.166918862025493127e+02
1.206165356378403164e+00 5.166933685850518714e+02
1.206265378383244213e+00 5.166949211102289610e+02
1.206365400388085263e+00 5.166965436797650000e+02
1.206465422392926312e+00 5.166982361933514767e+02
1.206565444397767362e+00 5.166999985486914966e+02
1.206665466402608411e+00 5.167018306415059214e+02
1.206765488407449460e+00 5.167037323655367800e+02
1.206865510412290732e+00 5.167057036125545437e+02
1.206965532417131781e+00 5.167077442723627883e+02
1.207065554421972831e+00 5.167098542328034227e+02
1.207165576426813880e+00 5.167120333797627154e+02
1.207265598431654929e+00 5.167142815971768641e+02
1.207365620436495979e+00 5.167165987670373397e+02
1.207465642441337028e+00 5.167189847693978209e+02
1.207565664446178078e+00 5.167214394823779458e+02
1.207665686451019127e+00 5.167239627821713839e+02
1.207765708455860176e+00 5.167265545430515203e+02
1.207865730460701226e+00 5.167292146373758897e+02
1.207965752465542497e+00 5.167319429355942475e+02
1.208065774470383325e+00 5.167347393062535730e+02
1.208165796475224374e+00 5.167376036160047761e+02
1.208265818480065645e+00 5.167405357296097463e+02
1.208365840484906473e+00 5.167435355099465824e+02
1.208465862489747522e+00 5.167466028180164130e+02
1.208565884494588794e+00 5.167497375129505599e+02
1.208665906499429843e+00 5.167529394520165624e+02
1.208765928504270892e+00 5.167562084906248856e+02
1.208865950509111942e+00 5.167595444823366506e+02
1.208965972513952991e+00 5.167629472788694329e+02
1.209065994518794041e+00 5.167664167301038560e+02
1.209166016523635090e+00 5.167699526840920043e+02
1.209266038528476139e+00 5.167735549870624254e+02
1.209366060533317189e+00 5.167772234834302481e+02
1.209466082538158238e+00 5.167809580158001381e+02
1.209566104542999287e+00 5.167847584249783495e+02
1.209666126547840559e+00 5.167886245499761344e+02
1.209766148552681386e+00 5.167925562280182703e+02
1.209866170557522658e+00 5.167965532945520408e+02
1.209966192562363707e+00 5.168006155832529203e+02
1.210066214567204756e+00 5.168047429260311674e+02
1.210166236572045806e+00 5.168089351530441036e+02
1.210266258576886855e+00 5.168131920926974772e+02
1.210366280581727905e+00 5.168175135716579689e+02
1.210466302586568954e+00 5.168218994148591037e+02
1.210566324591410003e+00 5.168263494455092086e+02
1.210666346596251053e+00 5.168308634850998260e+02
1.210766368601092324e+00 5.168354413534125342e+02
1.210866390605933152e+00 5.168400828685287252e+02
1.210966412610774201e+00 5.168447878468373347e+02
1.211066434615615472e+00 5.168495561030410954e+02
1.211166456620456300e+00 5.168543874501669961e+02
1.211266478625297349e+00 5.168592816995733301e+02
1.211366500630138621e+00 5.168642386609590176e+02
1.211466522634979670e+00 5.168692581423707679e+02
1.211566544639820719e+00 5.168743399502134253e+02
1.211666566644661769e+00 5.168794838892556527e+02
1.211766588649502818e+00 5.168846897626410737e+02
1.211866610654343868e+00 5.168899573718967986e+02
1.211966632659184917e+00 5.168952865169387678e+02
1.212066654664025966e+00 5.169006769960863039e+02
1.212166676668867016e+00 5.169061286060650673e+02
1.212266698673708065e+00 5.169116411420195618e+02
1.212366720678549115e+00 5.169172143975205245e+02
1.212466742683390386e+00 5.169228481645748161e+02
1.212566764688231213e+00 5.169285422336336069e+02
1.212666786693072485e+00 5.169342963936023807e+02
1.212766808697913534e+00 5.169401104318485523e+02
1.212866830702754584e+00 5.169459841342123809e+02
1.212966852707595633e+00 5.169519172850150426e+02
1.213066874712436682e+00 5.169579096670686340e+02
1.213166896717277732e+00 5.169639610616843584e+02
1.213266918722118781e+00 5.169700712486835528e+02
1.213366940726959831e+00 5.169762400064058738e+02
1.213466962731800880e+00 5.169824671117196431e+02
1.213566984736642151e+00 5.169887523400299187e+02
1.213667006741482979e+00 5.169950954652906603e+02
1.213767028746324028e+00 5.170014962600114359e+02
1.213867050751165300e+00 5.170079544952692459e+02
1.213967072756006127e+00 5.170144699407175040e+02
1.214067094760847176e+00 5.170210423645954734e+02
1.214167116765688448e+00 5.170276715337384985e+02
1.214267138770529497e+00 5.170343572135877821e+02
1.214367160775370547e+00 5.170410991682012991e+02
1.214467182780211596e+00 5.170478971602616411e+02
1.214567204785052645e+00 5.170547509510879536e+02
1.214667226789893695e+00 5.170616603006450305e+02
1.214767248794734744e+00 5.170686249675534327e+02
1.214867270799575794e+00 5.170756447091004020e+02
1.214967292804416843e+00 5.170827192812490694e+02
1.215067314809257892e+00 5.170898484386491418e+02
1.215167336814098942e+00 5.170970319346479300e+02
1.215267358818940213e+00 5.171042695212994431e+02
1.215367380823781041e+00 5.171115609493749616e+02
1.215467402828622312e+00 5.171189059683746336e+02
1.215567424833463361e+00 5.171263043265360011e+02
1.215667446838304411e+00 5.171337557708454824e+02
1.215767468843145460e+00 5.171412600470504231e+02
1.215867490847986510e+00 5.171488168996670538e+02
1.215967512852827559e+00 5.171564260719924278e+02
1.216067534857668608e+00 5.171640873061147659e+02
1.216167556862509658e+00 5.171718003429249393e+02
1.216267578867350707e+00 5.171795649221254507e+02
1.216367600872191757e+00 5.171873807822433946e+02
1.216467622877032806e+00 5.171952476606390974e+02
1.216567644881873855e+00 5.172031652935187367e+02
1.216667666886715127e+00 5.172111334159449143e+02
1.216767688891555954e+00 5.172191517618458647e+02
1.216867710896397003e+00 5.172272200640287565e+02
1.216967732901238275e+00 5.172353380541887873e+02
1.217067754906079102e+00 5.172435054629218030e+02
1.217167776910920374e+00 5.172517220197339611e+02
1.217267798915761423e+00 5.172599874530538955e+02
1.217367820920602473e+00 5.172683014902427203e+02
1.217467842925443522e+00 5.172766638576065361e+02
1.217567864930284571e+00 5.172850742804065476e+02
1.217667886935125621e+00 5.172935324828699777e+02
1.217767908939966670e+00 5.173020381882033689e+02
1.217867930944807719e+00 5.173105911186009962e+02
1.217967952949648769e+00 5.173191909952586229e+02
1.218067974954490040e+00 5.173278375383835055e+02
1.218167996959330868e+00 5.173365304672055345e+02
1.218268018964172139e+00 5.173452694999898540e+02
1.218368040969013189e+00 5.173540543540473209e+02
1.218468062973854016e+00 5.173628847457467828e+02
1.218568084978695287e+00 5.173717603905248552e+02
1.218668106983536337e+00 5.173806810028991094e+02
1.218768128988377386e+00 5.173896462964793272e+02
1.218868150993218435e+00 5.173986559839785286e+02
1.218968172998059485e+00 5.174077097772249090e+02
1.219068195002900534e+00 5.174168073871727529e+02
1.219168217007741584e+00 5.174259485239165315e+02
1.219268239012582633e+00 5.174351328966974961e+02
1.219368261017423682e+00 5.174443602139211862e+02
1.219468283022264954e+00 5.174536301831657283e+02
1.219568305027105781e+00 5.174629425111936598e+02
1.219668327031946831e+00 5.174722969039651161e+02
1.219768349036788102e+00 5.174816930666477219e+02
1.219868371041628929e+00 5.174911307036310291e+02
1.219968393046470201e+00 5.175006095185352706e+02
1.220068415051311250e+00 5.175101292142253442e+02
1.220168437056152300e+00 5.175196894928217262e+02
1.220268459060993349e+00 5.175292900557120674e+02
1.220368481065834398e+00 5.175389306035650634e+02
1.220468503070675448e+00 5.175486108363382982e+02
1.220568525075516497e+00 5.175583304532954116e+02
1.220668547080357547e+00 5.175680891530141707e+02
1.220768569085198596e+00 5.175778866333988617e+02
1.220868591090039867e+00 5.175877225916939324e+02
1.220968613094880695e+00 5.175975967244944513e+02
1.221068635099721966e+00 5.176075087277589546e+02
1.221168657104563016e+00 5.176174582968210416e+02
1.221268679109403843e+00 5.176274451264016534e+02
1.221368701114245114e+00 5.176374689106201004e+02
1.221468723119086164e+00 5.176475293430087277e+02
1.221568745123927213e+00 5.176576261165205324e+02
1.221668767128768263e+00 5.176677589235473533e+02
1.221768789133609312e+00 5.176779274559249870e+02
1.221868811138450361e+00 5.176881314049510365e+02
1.221968833143291411e+00 5.176983704613938926e+02
1.222068855148132460e+00 5.177086443155066036e+02
1.222168877152973510e+00 5.177189526570364251e+02
1.222268899157814781e+00 5.177292951752408499e+02
1.222368921162655608e+00 5.177396715588959069e+02
1.222468943167496658e+00 5.177500814963099174e+02
1.222568965172337929e+00 5.177605246753364554e+02
1.222668987177178757e+00 5.177710007833866257e+02
1.222769009182020028e+00 5.177815095074371357e+02
1.222869031186861077e+00 5.177920505340487125e+02
1.222969053191702127e+00 5.178026235493742888e+02
1.223069075196543176e+00 5.178132282391718491e+02
1.223169097201384226e+00 5.178238642888167078e+02
1.223269119206225275e+00 5.178345313833143564e+02
1.223369141211066324e+00 5.178452292073117178e+02
1.223469163215907374e+00 5.178559574451109029e+02
1.223569185220748423e+00 5.178667157806785326e+02
1.223669207225589695e+00 5.178775038976609721e+02
1.223769229230430522e+00 5.178883214793946763e+02
1.223869251235271793e+00 5.178991682089200594e+02
1.223969273240112843e+00 5.179100437689909313e+02
1.224069295244953670e+00 5.179209478420893902e+02
1.224169317249794942e+00 5.179318801104367367e+02
1.224269339254635991e+00 5.179428402560057521e+02
1.224369361259477040e+00 5.179538279605339994e+02
1.224469383264318090e+00 5.179648429055340557e+02
1.224569405269159139e+00 5.179758847723065855e+02
1.224669427274000189e+00 5.179869532419536426e+02
1.224769449278841238e+00 5.179980479953893564e+02
1.224869471283682287e+00 5.180091687133527785e+02
1.224969493288523337e+00 5.180203150764195925e+02
1.225069515293364386e+00 5.180314867650149608e+02
1.225169537298205436e+00 5.180426834594248930e+02
1.225269559303046485e+00 5.180539048398101158e+02
1.225369581307887756e+00 5.180651505862143722e+02
1.225469603312728584e+00 5.180764203785820428e+02
1.225569625317569855e+00 5.180877138967650808e+02
1.225669647322410905e+00 5.180990308205384736e+02
1.225769669327251954e+00 5.181103708296119521e+02
1.225869691332093003e+00 5.181217336036393135e+02
1.225969713336934053e+00 5.181331188222349056e+02
1.226069735341775102e+00 5.181445261649823806e+02
1.226169757346616151e+00 5.181559553114474284e+02
1.226269779351457201e+00 5.181674059411916460e+02
1.226369801356298250e+00 5.181788777337812917e+02
1.226469823361139300e+00 5.181903703688024052e+02
1.226569845365980349e+00 5.182018835258718354e+02
1.226669867370821621e+00 5.182134168846479270e+02
1.226769889375662670e+00 5.182249701248441625e+02
1.226869911380503497e+00 5.182365429262422367e+02
1.226969933385344769e+00 5.182481349686993326e+02
1.227069955390185818e+00 5.182597459321649467e+02
1.227169977395026645e+00 5.182713754966922579e+02
1.227269999399867917e+00 5.182830233424454036e+02
1.227370021404708966e+00 5.182946891497178967e+02
1.227470043409550016e+00 5.183063725989399018e+02
1.227570065414391065e+00 5.183180733706922183e+02
1.227670087419232114e+00 5.183297911457168539e+02
1.227770109424073164e+00 5.183415256049293021e+02
1.227870131428914213e+00 5.183532764294328672e+02
1.227970153433755263e+00 5.183650433005248033e+02
1.228070175438596312e+00 5.183768258997134808e+02
1.228170197443437583e+00 5.183886239087280501e+02
1.228270219448278411e+00 5.184004370095283321e+02
1.228370241453119682e+00 5.184122648843222123e+02
1.228470263457960732e+00 5.184241072155689380e+02
1.228570285462801781e+00 5.184359636859984448e+02
1.228670307467642830e+00 5.184478339786192009e+02
1.228770329472483880e+00 5.184597177767292351e+02
1.228870351477324929e+00 5.184716147639310293e+02
1.228970373482165979e+00 5.184835246241395907e+02
1.229070395487007028e+00 5.184954470415960941e+02
1.229170417491848077e+00 5.185073817008784545e+02
1.229270439496689127e+00 5.185193282869134919e+02
1.229370461501530176e+00 5.185312864849877315e+02
1.229470483506371448e+00 5.185432559807591133e+02
1.229570505511212497e+00 5.185552364602683610e+02
1.229670527516053324e+00 5.185672276099508053e+02
1.229770549520894596e+00 5.185792291166468431e+02
1.229870571525735645e+00 5.185912406676142155e+02
1.229970593530576473e+00 5.186032619505390358e+02
1.230070615535417744e+00 5.186152926535456800e+02
1.230170637540258793e+00 5.186273324652109977e+02
1.230270659545099843e+00 5.186393810745722703e+02
1.230370681549940892e+00 5.186514381711406259e+02
1.230470703554781942e+00 5.186635034449105888e+02
1.230570725559622991e+00 5.186755765863734950e+02
1.230670747564464040e+00 5.186876572865252228e+02
1.230770769569305090e+00 5.186997452368805170e+02
1.230870791574146139e+00 5.187118401294821979e+02
1.230970813578987411e+00 5.187239416569120749e+02
1.231070835583828238e+00 5.187360495123029978e+02
1.231170857588669509e+00 5.187481633893484059e+02
1.231270879593510559e+00 5.187602829823148340e+02
1.231370901598351608e+00 5.187724079860504389e+02
1.231470923603192658e+00 5.187845380959984141e+02
1.231570945608033707e+00 5.187966730082063123e+02
1.231670967612874756e+00 5.188088124193360500e+02
1.231770989617715806e+00 5.188209560266770950e+02
1.231871011622556855e+00 5.188331035281543109e+02
1.231971033627397905e+00 5.188452546223405761e+02
1.232071055632238954e+00 5.188574090084654244e+02
1.232171077637080003e+00 5.188695663864282324e+02
1.232271099641921275e+00 5.188817264568067458e+02
1.232371121646762324e+00 5.188938889208675391e+02
1.232471143651603152e+00 5.189060534805776115e+02
1.232571165656444423e+00 5.189182198386137088e+02
1.232671187661285472e+00 5.189303876983734654e+02
1.232771209666126300e+00 5.189425567639846122e+02
1.232871231670967571e+00 5.189547267403172555e+02
1.232971253675808621e+00 5.189668973329905839e+02
1.233071275680649670e+00 5.189790682483870796e+02
1.233171297685490719e+00 5.189912391936607037e+02
1.233271319690331769e+00 5.190034098767458772e+02
1.233371341695172818e+00 5.190155800063694187e+02
1.233471363700013868e+00 5.190277492920599798e+02
1.233571385704854917e+00 5.190399174441580499e+02
1.233671407709695966e+00 5.190520841738250510e+02
1.233771429714537016e+00 5.190642491930532287e+02
1.233871451719378065e+00 5.190764122146780437e+02
1.233971473724219337e+00 5.190885729523841974e+02
1.234071495729060386e+00 5.191007311207180237e+02
1.234171517733901435e+00 5.191128864350951062e+02
1.234271539738742485e+00 5.191250386118134656e+02
1.234371561743583534e+00 5.191371873680578801e+02
1.234471583748424584e+00 5.191493324219137548e+02
1.234571605753265633e+00 5.191614734923758760e+02
1.234671627758106682e+00 5.191736102993552322e+02
1.234771649762947732e+00 5.191857425636919743e+02
1.234871671767788781e+00 5.191978700071618960e+02
1.234971693772629830e+00 5.192099923524874612e+02
1.235071715777471102e+00 5.192221093233462170e+02
1.235171737782311929e+00 5.192342206443811392e+02
1.235271759787152979e+00 5.192463260412077943e+02
1.235371781791994250e+00 5.192584252404245717e+02
1.235471803796835299e+00 5.192705179696225741e+02
1.235571825801676127e+00 5.192826039573926664e+02
1.235671847806517398e+00 5.192946829333358210e+02
1.235771869811358448e+00 5.193067546280722127e+02
1.235871891816199497e+00 5.193188187732480401e+02
1.235971913821040546e+00 5.193308751015475764e+02
1.236071935825881596e+00 5.193429233466982851e+02
1.236171957830722645e+00 5.193549632434821888e+02
1.236271979835563695e+00 5.193669945277432589e+02
1.236372001840404744e+00 5.193790169363963969e+02
1.236472023845245793e+00 5.193910302074353922e+02
1.236572045850086843e+00 5.194030340799419037e+02
1.236672067854927892e+00 5.194150282940937586e+02
1.236772089859769164e+00 5.194270125911731384e+02
1.236872111864610213e+00 5.194389867135753320e+02
1.236972133869451262e+00 5.194509504048162398e+02
1.237072155874292312e+00 5.194629034095405586e+02
1.237172177879133361e+00 5.194748454735304222e+02
1.237272199883974411e+00 5.194867763437143822e+02
1.237372221888815460e+00 5.194986957681719559e+02
1.237472243893656509e+00 5.195106034961455634e+02
1.237572265898497559e+00 5.195224992780464390e+02
1.237672287903338608e+00 5.195343828654624758e+02
1.237772309908179658e+00 5.195462540111664111e+02
1.237872331913020929e+00 5.195581124691229888e+02
1.237972353917861756e+00 5.195699579944973721e+02
1.238072375922702806e+00 5.195817903436615097e+02
1.238172397927544077e+00 5.195936092742042547e+02
1.238272419932385127e+00 5.196054145449351154e+02
1.238372441937225954e+00 5.196172059158942602e+02
1.238472463942067225e+00 5.196289831483595663e+02
1.238572485946908275e+00 5.196407460048527582e+02
1.238672507951749324e+00 5.196524942491480488e+02
1.238772529956590374e+00 5.196642276462781638e+02
1.238872551961431423e+00 5.196759459625419595e+02
1.238972573966272472e+00 5.196876489655119258e+02
1.239072595971113522e+00 5.196993364240394158e+02
1.239172617975954571e+00 5.197110081082645365e+02
1.239272639980795621e+00 5.197226637896186503e+02
1.239372661985636670e+00 5.197343032408361978e+02
1.239472683990477719e+00 5.197459262359581089e+02
1.239572705995318991e+00 5.197575325503385102e+02
1.239672728000160040e+00 5.197691219606527966e+02
1.239772750005001090e+00 5.197806942449037706e+02
1.239872772009842139e+00 5.197922491824268718e+02
1.239972794014683188e+00 5.198037865538973392e+02
1.240072816019524238e+00 5.198153061413380556e+02
1.240172838024365287e+00 5.198268077281229580e+02
1.240272860029206337e+00 5.198382910989854508e+02
1.240372882034047386e+00 5.198497560400242037e+02
1.240472904038888435e+00 5.198612023387076988e+02
1.240572926043729485e+00 5.198726297838820756e+02
1.240672948048570756e+00 5.198840381657760190e+02
1.240772970053411584e+00 5.198954272760075810e+02
1.240872992058252633e+00 5.199067969075878182e+02
1.240973014063093904e+00 5.199181468549309102e+02
1.241073036067934954e+00 5.199294769138532502e+02
1.241173058072775781e+00 5.199407868815859501e+02
1.241273080077617053e+00 5.199520765567754097e+02
1.241373102082458102e+00 5.199633457394918423e+02
1.241473124087299151e+00 5.199745942312322313e+02
1.241573146092140201e+00 5.199858218349266963e+02
1.241673168096981250e+00 5.199970283549458827e+02
1.241773190101822300e+00 5.200082135971015305e+02
1.241873212106663349e+00 5.200193773686563645e+02
1.241973234111504398e+00 5.200305194783255729e+02
1.242073256116345448e+00 5.200416397362847647e+02
1.242173278121186497e+00 5.200527379541717892e+02
1.242273300126027546e+00 5.200638139450940116e+02
1.242373322130868818e+00 5.200748675236319514e+02
1.242473344135709645e+00 5.200858985058449662e+02
1.242573366140550917e+00 5.200969067092743217e+02
1.242673388145391966e+00 5.201078919529496716e+02
1.242773410150233016e+00 5.201188540573909904e+02
1.242873432155074065e+00 5.201297928446161905e+02
1.242973454159915114e+00 5.201407081381432818e+02
1.243073476164756164e+00 5.201515997629952608e+02
1.243173498169597213e+00 5.201624675457037483e+02
1.243273520174438262e+00 5.201733113143147875e+02
1.243373542179279312e+00 5.201841308983905492e+02
1.243473564184120583e+00 5.201949261290163804e+02
1.243573586188961411e+00 5.202056968388013729e+02
1.243673608193802460e+00 5.202164428618845022e+02
1.243773630198643732e+00 5.202271640339379246e+02
1.243873652203484559e+00 5.202378601921698191e+02
1.243973674208325608e+00 5.202485311753299584e+02
1.244073696213166880e+00 5.202591768237109591e+02
1.244173718218007929e+00 5.202697969791539663e+02
1.244273740222848978e+00 5.202803914850495630e+02
1.244373762227690028e+00 5.202909601863450462e+02
1.244473784232531077e+00 5.203015029295422664e+02
1.244573806237372127e+00 5.203120195627062685e+02
1.244673828242213176e+00 5.203225099354644954e+02
1.244773850247054225e+00 5.203329738990129272e+02
1.244873872251895275e+00 5.203434113061161952e+02
1.244973894256736324e+00 5.203538220111129249e+02
1.245073916261577374e+00 5.203642058699169866e+02
1.245173938266418645e+00 5.203745627400203375e+02
1.245273960271259472e+00 5.203848924804977969e+02
1.245373982276100744e+00 5.203951949520067046e+02
1.245474004280941793e+00 5.204054700167914689e+02
1.245574026285782843e+00 5.204157175386852714e+02
1.245674048290623892e+00 5.204259373831131370e+02
1.245774070295464941e+00 5.204361294170937526e+02
1.245874092300305991e+00 5.204462935092411726e+02
1.245974114305147040e+00 5.204564295297693661e+02
1.246074136309988090e+00 5.204665373504913077e+02
1.246174158314829139e+00 5.204766168448223880e+02
1.246274180319670410e+00 5.204866678877826871e+02
1.246374202324511238e+00 5.204966903559989078e+02
1.246474224329352287e+00 5.205066841277059666e+02
1.246574246334193559e+00 5.205166490827484722e+02
1.246674268339034386e+00 5.205265851025822030e+02
1.246774290343875435e+00 5.205364920702770632e+02
1.246874312348716707e+00 5.205463698705170827e+02
1.246974334353557756e+00 5.205562183896026909e+02
1.247074356358398806e+00 5.205660375154523081e+02
1.247174378363239855e+00 5.205758271376033690e+02
1.247274400368080904e+00 5.205855871472119816e+02
1.247374422372921954e+00 5.205953174370581564e+02
1.247474444377763003e+00 5.206050179015421691e+02
1.247574466382604053e+00 5.206146884366896757e+02
1.247674488387445102e+00 5.206243289401484162e+02
1.247774510392286151e+00 5.206339393111943536e+02
1.247874532397127201e+00 5.206435194507267852e+02
1.247974554401968472e+00 5.206530692612747089e+02
1.248074576406809300e+00 5.206625886469921625e+02
1.248174598411650571e+00 5.206720775136626571e+02
1.248274620416491620e+00 5.206815357686979269e+02
1.248374642421332670e+00 5.206909633211398614e+02
1.248474664426173719e+00 5.207003600816576636e+02
1.248574686431014769e+00 5.207097259625522838e+02
1.248674708435855818e+00 5.207190608777532361e+02
1.248774730440696867e+00 5.207283647428215545e+02
1.248874752445537917e+00 5.207376374749469505e+02
1.248974774450378966e+00 5.207468789929506556e+02
1.249074796455220238e+00 5.207560892172834883e+02
1.249174818460061065e+00 5.207652680700253995e+02
1.249274840464902114e+00 5.207744154748878600e+02
1.249374862469743386e+00 5.207835313572096538e+02
1.249474884474584213e+00 5.207926156439605165e+02
1.249574906479425263e+00 5.208016682637385202e+02
1.249674928484266534e+00 5.208106891467687092e+02
1.249774950489107583e+00 5.208196782249053740e+02
1.249874972493948633e+00 5.208286354316277311e+02
1.249974994498789682e+00 5.208375607020429925e+02
1.250075016503630732e+00 5.208464539728832960e+02
1.250175038508471781e+00 5.208553151825044552e+02
1.250275060513312830e+00 5.208641442708865270e+02
1.250375082518153880e+00 5.208729411796327895e+02
1.250475104522994929e+00 5.208817058519663306e+02
1.250575126527836201e+00 5.208904382327317535e+02
1.250675148532677028e+00 5.208991382683925622e+02
1.250775170537518077e+00 5.209078059070296831e+02
1.250875192542359127e+00 5.209164410983406697e+02
1.250975214547200398e+00 5.209250437936375420e+02
1.251075236552041448e+00 5.209336139458478101e+02
1.251175258556882497e+00 5.209421515095071982e+02
1.251275280561723546e+00 5.209506564407646465e+02
1.251375302566564374e+00 5.209591286973762863e+02
1.251475324571405423e+00 5.209675682387050983e+02
1.251575346576246694e+00 5.209759750257187534e+02
1.251675368581087744e+00 5.209843490209874517e+02
1.251775390585928793e+00 5.209926901886831274e+02
1.251875412590770065e+00 5.210009984945751285e+02
1.251975434595611114e+00 5.210092739060304439e+02
1.252075456600451941e+00 5.210175163920105206e+02
1.252175478605292991e+00 5.210257259230671707e+02
1.252275500610134040e+00 5.210339024713439358e+02
1.252375522614975090e+00 5.210420460105701750e+02
1.252475544619816361e+00 5.210501565160607242e+02
1.252575566624657410e+00 5.210582339647121444e+02
1.252675588629498460e+00 5.210662783350004474e+02
1.252775610634339287e+00 5.210742896069788230e+02
1.252875632639180559e+00 5.210822677622750234e+02
1.252975654644021608e+00 5.210902127840859066e+02
1.253075676648862657e+00 5.210981246571788006e+02
1.253175698653703707e+00 5.211060033678849095e+02
1.253275720658544756e+00 5.211138489040985178e+02
1.253375742663386028e+00 5.211216612552721017e+02
1.253475764668226855e+00 5.211294404124149651e+02
1.253575786673067904e+00 5.211371863680875549e+02
1.253675808677908954e+00 5.211448991164018025e+02
1.253775830682750225e+00 5.211525786530129380e+02
1.253875852687591275e+00 5.211602249751211957e+02
1.253975874692432324e+00 5.211678380814639695e+02
1.254075896697273373e+00 5.211754179723145626e+02
1.254175918702114201e+00 5.211829646494777535e+02
1.254275940706955250e+00 5.211904781162863856e+02
1.254375962711796522e+00 5.211979583775971605e+02
1.254475984716637571e+00 5.212054054397872278e+02
1.254576006721478620e+00 5.212128193107505467e+02
1.254676028726319892e+00 5.212201999998928841e+02
1.254776050731160941e+00 5.212275475181276079e+02
1.254876072736001769e+00 5.212348618778737546e+02
1.254976094740842818e+00 5.212421430930495490e+02
1.255076116745683867e+00 5.212493911790684251e+02
1.255176138750524917e+00 5.212566061528361843e+02
1.255276160755366188e+00 5.212637880327455377e+02
1.255376182760207238e+00 5.212709368386712185e+02
1.255476204765048287e+00 5.212780525919660022e+02
1.255576226769889114e+00 5.212851353154571825e+02
1.255676248774730386e+00 5.212921850334396368e+02
1.255776270779571435e+00 5.212992017716730970e+02
1.255876292784412485e+00 5.213061855573768071e+02
1.255976314789253534e+00 5.213131364192247474e+02
1.256076336794094583e+00 5.213200543873401784e+02
1.256176358798935855e+00 5.213269394932908654e+02
1.256276380803776682e+00 5.213337917700852131e+02
1.256376402808617732e+00 5.213406112521660134e+02
1.256476424813458781e+00 5.213473979754048742e+02
1.256576446818300052e+00 5.213541519770989225e+02
1.256676468823141102e+00 5.213608732959637564e+02
1.256776490827982151e+00 5.213675619721288967e+02
1.256876512832823201e+00 5.213742180471323309e+02
1.256976534837664028e+00 5.213808415639151690e+02
1.257076556842505077e+00 5.213874325668159599e+02
1.257176578847346349e+00 5.213939911015644384e+02
1.257276600852187398e+00 5.214005172152791374e+02
1.257376622857028448e+00 5.214070109564561335e+02
1.257476644861869719e+00 5.214134723749681370e+02
1.257576666866710768e+00 5.214199015220576712e+02
1.257676688871551596e+00 5.214262984503299094e+02
1.257776710876392645e+00 5.214326632137466504e+02
1.257876732881233695e+00 5.214389958676221113e+02
1.257976754886074744e+00 5.214452964686161067e+02
1.258076776890916015e+00 5.214515650747281370e+02
1.258176798895757065e+00 5.214578017452894301e+02
1.258276820900598114e+00 5.214640065409596446e+02
1.258376842905438942e+00 5.214701795237195938e+02
1.258476864910280213e+00 5.214763207568637426e+02
1.258576886915121262e+00 5.214824303049954324e+02
1.258676908919962312e+00 5.214885082340192639e+02
1.258776930924803361e+00 5.214945546111357544e+02
1.258876952929644411e+00 5.215005695048346297e+02
1.258976974934485682e+00 5.215065529848868664e+02
1.259076996939326509e+00 5.215125051223399169e+02
1.259177018944167559e+00 5.215184259895102059e+02
1.259277040949008608e+00 5.215243156599760823e+02
1.259377062953849880e+00 5.215301742085712249e+02
1.259477084958690929e+00 5.215360017113797539e+02
1.259577106963531978e+00 5.215417982457253174e+02
1.259677128968373028e+00 5.215475638901682487e+02
1.259777150973213855e+00 5.215532987244951073e+02
1.259877172978054904e+00 5.215590028297156096e+02
1.259977194982896176e+00 5.215646762880505776e+02
1.260077216987737225e+00 5.215703191829300067e+02
1.260177238992578275e+00 5.215759315989818106e+02
1.260277260997419546e+00 5.215815136220271597e+02
1.260377283002260596e+00 5.215870653390716143e+02
1.260477305007101423e+00 5.215925868382986437e+02
1.260577327011942472e+00 5.215980782090616685e+02
1.260677349016783522e+00 5.216035395418773533e+02
1.260777371021624571e+00 5.216089709284177616e+02
1.260877393026465842e+00 5.216143724615034216e+02
1.260977415031306892e+00 5.216197442350933215e+02
1.261077437036147941e+00 5.216250863442816126e+02
1.261177459040988769e+00 5.216303988852857856e+02
1.261277481045830040e+00 5.216356819554407593e+02
1.261377503050671089e+00 5.216409356531926278e+02
1.261477525055512139e+00 5.216461600780880872e+02
1.261577547060353188e+00 5.216513553307672737e+02
1.261677569065194238e+00 5.216565215129572834e+02
1.261777591070035509e+00 5.216616587274635322e+02
1.261877613074876336e+00 5.216667670781620245e+02
1.261977635079717386e+00 5.216718466699893497e+02
1.262077657084558435e+00 5.216768976089374519e+02
1.262177679089399707e+00 5.216819200020447624e+02
1.262277701094240756e+00 5.216869139573866505e+02
1.262377723099081805e+00 5.216918795840690564e+02
1.262477745103922855e+00 5.216968169922184870e+02
1.262577767108763682e+00 5.217017262929763319e+02
1.262677789113604732e+00 5.217066075984873805e+02
1.262777811118446003e+00 5.217114610218932285e+02
1.262877833123287052e+00 5.217162866773248879e+02
1.262977855128128102e+00 5.217210846798926696e+02
1.263077877132969373e+00 5.217258551456783380e+02
1.263177899137810423e+00 5.217305981917252211e+02
1.263277921142651250e+00 5.217353139360336627e+02
1.263377943147492299e+00 5.217400024975474935e+02
1.263477965152333349e+00 5.217446639961493702e+02
1.263577987157174398e+00 5.217492985526492930e+02
1.263678009162015670e+00 5.217539062887782393e+02
1.263778031166856719e+00 5.217584873271773631e+02
1.263878053171697768e+00 5.217630417913907195e+02
1.263978075176538596e+00 5.217675698058567377e+02
1.264078097181379867e+00 5.217720714958975350e+02
1.264178119186220917e+00 5.217765469877119813e+02
1.264278141191061966e+00 5.217809964083647856e+02
1.264378163195903015e+00 5.217854198857812662e+02
1.264478185200744065e+00 5.217898175487334811e+02
1.264578207205584892e+00 5.217941895268354529e+02
1.264678229210426164e+00 5.217985359505318002e+02
1.264778251215267213e+00 5.218028569510889838e+02
1.264878273220108262e+00 5.218071526605876898e+02
1.264978295224949534e+00 5.218114232119111193e+02
1.265078317229790583e+00 5.218156687387388502e+02
1.265178339234631633e+00 5.218198893755351264e+02
1.265278361239472460e+00 5.218240852575414692e+02
1.265378383244313509e+00 5.218282565207663311e+02
1.265478405249154559e+00 5.218324033019757735e+02
1.265578427253995830e+00 5.218365257386859639e+02
1.265678449258836880e+00 5.218406239691502151e+02
1.265778471263677929e+00 5.218446981323550062e+02
1.265878493268519200e+00 5.218487483680053174e+02
1.265978515273360028e+00 5.218527748165182629e+02
1.266078537278201077e+00 5.218567776190130871e+02
1.266178559283042127e+00 5.218607569173009324e+02
1.266278581287883176e+00 5.218647128538766538e+02
1.266378603292724225e+00 5.218686455719090418e+02
1.266478625297565497e+00 5.218725552152294540e+02
1.266578647302406546e+00 5.218764419283255620e+02
1.266678669307247374e+00 5.218803058563289596e+02
1.266778691312088423e+00 5.218841471450065228e+02
1.266878713316929694e+00 5.218879659407517693e+02
1.266978735321770744e+00 5.218917623905739447e+02
1.267078757326611793e+00 5.218955366420884729e+02
1.267178779331452843e+00 5.218992888435085433e+02
1.267278801336293892e+00 5.219030191436339692e+02
1.267378823341134719e+00 5.219067276918409561e+02
1.267478845345975991e+00 5.219104146380761904e+02
1.267578867350817040e+00 5.219140801328422867e+02
1.267678889355658089e+00 5.219177243271896032e+02
1.267778911360499361e+00 5.219213473727098744e+02
1.267878933365340410e+00 5.219249494215199547e+02
1.267978955370181460e+00 5.219285306262577251e+02
1.268078977375022287e+00 5.219320911400701561e+02
1.268178999379863336e+00 5.219356311166020532e+02
1.268279021384704386e+00 5.219391507099891214e+02
1.268379043389545657e+00 5.219426500748453464e+02
1.268479065394386707e+00 5.219461293662545813e+02
1.268579087399227756e+00 5.219495887397608840e+02
1.268679109404069028e+00 5.219530283513576023e+02
1.268779131408909855e+00 5.219564483574772566e+02
1.268879153413750904e+00 5.219598489149833540e+02
1.268979175418591954e+00 5.219632301811584512e+02
1.269079197423433003e+00 5.219665923136960828e+02
1.269179219428274052e+00 5.219699354706876875e+02
1.269279241433115324e+00 5.219732598106177193e+02
1.269379263437956373e+00 5.219765654923477314e+02
1.269479285442797201e+00 5.219798526751101235e+02
1.269579307447638250e+00 5.219831215184985922e+02
1.269679329452479521e+00 5.219863721824542608e+02
1.269779351457320571e+00 5.219896048272602229e+02
1.269879373462161620e+00 5.219928196135281269e+02
1.269979395467002670e+00 5.219960167021902180e+02
1.270079417471843719e+00 5.219991962544875150e+02
1.270179439476684546e+00 5.220023584319606016e+02
1.270279461481525818e+00 5.220055033964415543e+02
1.270379483486366867e+00 5.220086313100391635e+02
1.270479505491207917e+00 5.220117423351330217e+02
1.270579527496049188e+00 5.220148366343623820e+02
1.270679549500890237e+00 5.220179143706142213e+02
1.270779571505731287e+00 5.220209757070157366e+02
1.270879593510572114e+00 5.220240208069233177e+02
1.270979615515413164e+00 5.220270498339107235e+02
1.271079637520254213e+00 5.220300629517626021e+02
1.271179659525095484e+00 5.220330603244607346e+02
1.271279681529936534e+00 5.220360421161751674e+02
1.271379703534777583e+00 5.220390084912551174e+02
1.271479725539618855e+00 5.220419596142182854e+02
1.271579747544459682e+00 5.220448956497403969e+02
1.271679769549300731e+00 5.220478167626442882e+02
1.271779791554141781e+00 5.220507231178918346e+02
1.271879813558982830e+00 5.220536148805730363e+02
1.271979835563823880e+00 5.220564922158946501e+02
1.272079857568665151e+00 5.220593552891715490e+02
1.272179879573506200e+00 5.220622042658154669e+02
1.272279901578347028e+00 5.220650393113268137e+02
1.272379923583188077e+00 5.220678605912827379e+02
1.272479945588029349e+00 5.220706682713267810e+02
1.272579967592870398e+00 5.220734625171605785e+02
1.272679989597711447e+00 5.220762434945330597e+02
1.272780011602552497e+00 5.220790113692294199e+02
1.272880033607393546e+00 5.220817663070621393e+02
1.272980055612234374e+00 5.220845084738598416e+02
1.273080077617075645e+00 5.220872380354593361e+02
1.273180099621916694e+00 5.220899551576924296e+02
1.273280121626757744e+00 5.220926600063788783e+02
1.273380143631599015e+00 5.220953527473144504e+02
1.273480165636440065e+00 5.220980335462620587e+02
1.273580187641281114e+00 5.221007025689415286e+02
1.273680209646121941e+00 5.221033599810174337e+02
1.273780231650962991e+00 5.221060059480927293e+02
1.273880253655804040e+00 5.221086406356965881e+02
1.273980275660645312e+00 5.221112642092748501e+02
1.274080297665486361e+00 5.221138768341795640e+02
1.274180319670327410e+00 5.221164786756594367e+02
1.274280341675168682e+00 5.221190698988505119e+02
1.274380363680009509e+00 5.221216506687653691e+02
1.274480385684850559e+00 5.221242211502839154e+02
1.274580407689691608e+00 5.221267815081430399e+02
1.274680429694532657e+00 5.221293319069254721e+02
1.274780451699373707e+00 5.221318725110531886e+02
1.274880473704214978e+00 5.221344034847741113e+02
1.274980495709056028e+00 5.221369249921549454e+02
1.275080517713896855e+00 5.221394371970689008e+02
1.275180539718737904e+00 5.221419402631884168e+02
1.275280561723579176e+00 5.221444343539728834e+02
1.275380583728420225e+00 5.221469196326612519e+02
1.275480605733261275e+00 5.221493962622598701e+02
1.275580627738102324e+00 5.221518644055360028e+02
1.275680649742943373e+00 5.221543242250031653e+02
1.275780671747784201e+00 5.221567758829166905e+02
1.275880693752625472e+00 5.221592195412613364e+02
1.275980715757466522e+00 5.221616553617420777e+02
1.276080737762307571e+00 5.221640835057730783e+02
1.276180759767148842e+00 5.221665041344712108e+02
1.276280781771989892e+00 5.221689174086434377e+02
1.276380803776830941e+00 5.221713234887796489e+02
1.276480825781671768e+00 5.221737225350408380e+02
1.276580847786512818e+00 5.221761147072505764e+02
1.276680869791353867e+00 5.221785001648876232e+02
1.276780891796195139e+00 5.221808790670709186e+02
1.276880913801036188e+00 5.221832515725575377e+02
1.276980935805877237e+00 5.221856178397271151e+02
1.277080957810718509e+00 5.221879780265749105e+02
1.277180979815559336e+00 5.221903322907022584e+02
1.277281001820400386e+00 5.221926807893077012e+02
1.277381023825241435e+00 5.221950236791768702e+02
1.277481045830082484e+00 5.221973611166735054e+02
1.277581067834923534e+00 5.221996932577303596e+02
1.277681089839764805e+00 5.222020202578391945e+02
1.277781111844605855e+00 5.222043422720421404e+02
1.277881133849446682e+00 5.222066594549230558e+02
1.277981155854287731e+00 5.222089719605976370e+02
1.278081177859129003e+00 5.222112799427044365e+02
1.278181199863970052e+00 5.222135835543951998e+02
1.278281221868811102e+00 5.222158829483274758e+02
1.278381243873652151e+00 5.222181782766531342e+02
1.278481265878493200e+00 5.222204696910122266e+02
1.278581287883334028e+00 5.222227573425215041e+02
1.278681309888175299e+00 5.222250413817665731e+02
1.278781331893016349e+00 5.222273219587932545e+02
1.278881353897857398e+00 5.222295992230975799e+02
1.278981375902698669e+00 5.222318733236193111e+02
1.279081397907539719e+00 5.222341444087293212e+02
1.279181419912380768e+00 5.222364126262248192e+02
1.279281441917221596e+00 5.222386781233180955e+02
1.279381463922062645e+00 5.222409410466279951e+02
1.279481485926903694e+00 5.222432015421738924e+02
1.279581507931744966e+00 5.222454597553620488e+02
1.279681529936586015e+00 5.222477158309818606e+02
1.279781551941427065e+00 5.222499699131952866e+02
1.279881573946268336e+00 5.222522221455270710e+02
1.279981595951109163e+00 5.222544726708592862e+02
1.280081617955950213e+00 5.222567216314199641e+02
1.280181639960791262e+00 5.222589691687758204e+02
1.280281661965632312e+00 5.222612154238258881e+02
1.280381683970473361e+00 5.222634605367884433e+02
1.280481705975314632e+00 5.222657046471975946e+02
1.280581727980155682e+00 5.222679478938919146e+02
1.280681749984996509e+00 5.222701904150077326e+02
1.280781771989837559e+00 5.222724323479701525e+02
1.280881793994678830e+00 5.222746738294852094e+02
1.280981815999519879e+00 5.222769149955336161e+02
1.281081838004360929e+00 5.222791559813571212e+02
1.281181860009201978e+00 5.222813969214585086e+02
1.281281882014043028e+00 5.222836379495862502e+02
1.281381904018883855e+00 5.222858791987312088e+02
1.281481926023725126e+00 5.222881208011176568e+02
1.281581948028566176e+00 5.222903628881933855e+02
1.281681970033407225e+00 5.222926055906259535e+02
1.281781992038248497e+00 5.222948490382907494e+02
1.281882014043089546e+00 5.222970933602650803e+02
1.281982036047930373e+00 5.222993386848222599e+02
1.282082058052771423e+00 5.223015851394212632e+02
1.282182080057612472e+00 5.223038328506989956e+02
1.282282102062453522e+00 5.223060819444660865e+02
1.282382124067294793e+00 5.223083325456957482e+02
1.282482146072135842e+00 5.223105847785191145e+02
1.282582168076976892e+00 5.223128387662159184e+02
1.282682190081817719e+00 5.223150946312069891e+02
1.282782212086658991e+00 5.223173524950498177e+02
1.282882234091500040e+00 5.223196124784269614e+02
1.282982256096341089e+00 5.223218747011441110e+02
1.283082278101182139e+00 5.223241392821173577e+02
1.283182300106023188e+00 5.223264063393708057e+02
1.283282322110864460e+00 5.223286759900256584e+02
1.283382344115705287e+00 5.223309483502960120e+02
1.283482366120546336e+00 5.223332235354820341e+02
1.283582388125387386e+00 5.223355016599601868e+02
1.283682410130228657e+00 5.223377828371794749e+02
1.283782432135069707e+00 5.223400671796525785e+02
1.283882454139910756e+00 5.223423547989510780e+02
1.283982476144751805e+00 5.223446458056956772e+02
1.284082498149592633e+00 5.223469403095534744e+02
1.284182520154433682e+00 5.223492384192280724e+02
1.284282542159274954e+00 5.223515402424552576e+02
1.284382564164116003e+00 5.223538458859947013e+02
1.284482586168957052e+00 5.223561554556252986e+02
1.284582608173798324e+00 5.223584690561381194e+02
1.284682630178639373e+00 5.223607867913286782e+02
1.284782652183480200e+00 5.223631087639928410e+02
1.284882674188321250e+00 5.223654350759198906e+02
1.284982696193162299e+00 5.223677658278853642e+02
1.285082718198003349e+00 5.223701011196462787e+02
1.285182740202844620e+00 5.223724410499353326e+02
1.285282762207685670e+00 5.223747857164513562e+02
1.285382784212526719e+00 5.223771352158596528e+02
1.285482806217367546e+00 5.223794896437805164e+02
1.285582828222208818e+00 5.223818490947861619e+02
1.285682850227049867e+00 5.223842136623942451e+02
1.285782872231890916e+00 5.223865834390612690e+02
1.285882894236731966e+00 5.223889585161797413e+02
1.285982916241573015e+00 5.223913389840688524e+02
1.286082938246414287e+00 5.223937249319726561e+02
1.286182960251255114e+00 5.223961164480509751e+02
1.286282982256096163e+00 5.223985136193770131e+02
1.286383004260937213e+00 5.224009165319293970e+02
1.286483026265778484e+00 5.224033252705900168e+02
1.286583048270619534e+00 5.224057399191354989e+02
1.286683070275460583e+00 5.224081605602333411e+02
1.286783092280301632e+00 5.224105872754380471e+02
1.286883114285142460e+00 5.224130201451847597e+02
1.286983136289983509e+00 5.224154592487827813e+02
1.287083158294824781e+00 5.224179046644150048e+02
1.287183180299665830e+00 5.224203564691276824e+02
1.287283202304506879e+00 5.224228147388298567e+02
1.287383224309348151e+00 5.224252795482860847e+02
1.287483246314189200e+00 5.224277509711134826e+02
1.287583268319030028e+00 5.224302290797750175e+02
1.287683290323871077e+00 5.224327139455773477e+02
1.287783312328712126e+00 5.224352056386642289e+02
1.287883334333553176e+00 5.224377042280128762e+02
1.287983356338394447e+00 5.224402097814300987e+02
1.288083378343235497e+00 5.224427223655475245e+02
1.288183400348076546e+00 5.224452420458164852e+02
1.288283422352917373e+00 5.224477688865050595e+02
1.288383444357758645e+00 5.224503029506937537e+02
1.288483466362599694e+00 5.224528443002700442e+02
1.288583488367440744e+00 5.224553929959272409e+02
1.288683510372281793e+00 5.224579490971573250e+02
1.288783532377122842e+00 5.224605126622482203e+02
1.288883554381964114e+00 5.224630837482816332e+02
1.288983576386804941e+00 5.224656624111265728e+02
1.289083598391645991e+00 5.224682487054380999e+02
1.289183620396487040e+00 5.224708426846506200e+02
1.289283642401328311e+00 5.224734444009789058e+02
1.289383664406169361e+00 5.224760539054096853e+02
1.289483686411010410e+00 5.224786712477012998e+02
1.289583708415851460e+00 5.224812964763798391e+02
1.289683730420692287e+00 5.224839296387353897e+02
1.289783752425533336e+00 5.224865707808180559e+02
1.289883774430374608e+00 5.224892199474363679e+02
1.289983796435215657e+00 5.224918771821529617e+02
1.290083818440056707e+00 5.224945425272827606e+02
1.290183840444897978e+00 5.224972160238880861e+02
1.290283862449739027e+00 5.224998977117785444e+02
1.290383884454579855e+00 5.225025876295042053e+02
1.290483906459420904e+00 5.225052858143568528e+02
1.290583928464261954e+00 5.225079923023657784e+02
1.290683950469103003e+00 5.225107071282940296e+02
1.290783972473944274e+00 5.225134303256357953e+02
1.290883994478785324e+00 5.225161619266173147e+02
1.290984016483626373e+00 5.225189019621899433e+02
1.291084038488467201e+00 5.225216504620315163e+02
1.291184060493308472e+00 5.225244074545398689e+02
1.291284082498149521e+00 5.225271729668352236e+02
1.291384104502990571e+00 5.225299470247547333e+02
1.291484126507831620e+00 5.225327296528515717e+02
1.291584148512672670e+00 5.225355208743933417e+02
1.291684170517513941e+00 5.225383207113588924e+02
1.291784192522354768e+00 5.225411291844375228e+02
1.291884214527195818e+00 5.225439463130265949e+02
1.291984236532036867e+00 5.225467721152297145e+02
1.292084258536878139e+00 5.225496066078557078e+02
1.292184280541719188e+00 5.225524498064156660e+02
1.292284302546560237e+00 5.225553017251230585e+02
1.292384324551401287e+00 5.225581623768905501e+02
1.292484346556242114e+00 5.225610317733302281e+02
1.292584368561083163e+00 5.225639099247512149e+02
1.292684390565924435e+00 5.225667968401583039e+02
1.292784412570765484e+00 5.225696925272515045e+02
1.292884434575606534e+00 5.225725969924243373e+02
1.292984456580447805e+00 5.225755102407626964e+02
1.293084478585288855e+00 5.225784322760446230e+02
1.293184500590129682e+00 5.225813631007373488e+02
1.293284522594970731e+00 5.225843027159991152e+02
1.293384544599811781e+00 5.225872511216782641e+02
1.293484566604652830e+00 5.225902083163078942e+02
1.293584588609494102e+00 5.225931742971121139e+02
1.293684610614335151e+00 5.225961490600000161e+02
1.293784632619176200e+00 5.225991325995673833e+02
1.293884654624017028e+00 5.226021249090966876e+02
1.293984676628858299e+00 5.226051259805565223e+02
1.294084698633699348e+00 5.226081358045985326e+02
1.294184720638540398e+00 5.226111543705626445e+02
1.294284742643381447e+00 5.226141816664703583e+02
1.294384764648222497e+00 5.226172176790302046e+02
1.294484786653063768e+00 5.226202623936349028e+02
1.294584808657904595e+00 5.226233157943623837e+02
1.294684830662745645e+00 5.226263778639741986e+02
1.294784852667586694e+00 5.226294485839182471e+02
1.294884874672427966e+00 5.226325279343278680e+02
1.294984896677269015e+00 5.226356158940204750e+02
1.295084918682110064e+00 5.226387124405017630e+02
1.295184940686951114e+00 5.226418175499621839e+02
1.295284962691791941e+00 5.226449311972800160e+02
1.295384984696632991e+00 5.226480533560212507e+02
1.295485006701474262e+00 5.226511839984393646e+02
1.295585028706315311e+00 5.226543230954780483e+02
1.295685050711156361e+00 5.226574706167704107e+02
1.295785072715997632e+00 5.226606265306393198e+02
1.295885094720838682e+00 5.226637908041008131e+02
1.295985116725679509e+00 5.226669634028623932e+02
1.296085138730520558e+00 5.226701442913264373e+02
1.296185160735361608e+00 5.226733334325890610e+02
1.296285182740202657e+00 5.226765307884436425e+02
1.296385204745043929e+00 5.226797363193800265e+02
1.296485226749884978e+00 5.226829499845875944e+02
1.296585248754726027e+00 5.226861717419552633e+02
1.296685270759566855e+00 5.226894015480750113e+02
1.296785292764408126e+00 5.226926393582400578e+02
1.296885314769249176e+00 5.226958851264507757e+02
1.296985336774090225e+00 5.226991388054119625e+02
1.297085358778931274e+00 5.227024003465394344e+02
1.297185380783772324e+00 5.227056696999571841e+02
1.297285402788613595e+00 5.227089468145015871e+02
1.297385424793454423e+00 5.227122316377246989e+02
1.297485446798295472e+00 5.227155241158934587e+02
1.297585468803136521e+00 5.227188241939943509e+02
1.297685490807977793e+00 5.227221318157321548e+02
1.297785512812818842e+00 5.227254469235373335e+02
1.297885534817659892e+00 5.227287694585633062e+02
1.297985556822500941e+00 5.227320993606923594e+02
1.298085578827341768e+00 5.227354365685365565e+02
1.298185600832182818e+00 5.227387810194394433e+02
1.298285622837024089e+00 5.227421326494816185e+02
1.298385644841865139e+00 5.227454913934795968e+02
1.298485666846706188e+00 5.227488571849920618e+02
1.298585688851547459e+00 5.227522299563198658e+02
1.298685710856388509e+00 5.227556096385103501e+02
1.298785732861229336e+00 5.227589961613607557e+02
1.298885754866070386e+00 5.227623894534200417e+02
1.298985776870911435e+00 5.227657894419922968e+02
1.299085798875752484e+00 5.227691960531404902e+02
1.299185820880593756e+00 5.227726092116884047e+02
1.299285842885434805e+00 5.227760288412256386e+02
1.299385864890275633e+00 5.227794548641095389e+02
1.299485886895116682e+00 5.227828872014694070e+02
1.299585908899957953e+00 5.227863257732091142e+02
1.299685930904799003e+00 5.227897704980119897e+02
1.299785952909640052e+00 5.227932212933434357e+02
1.299885974914481102e+00 5.227966780754545653e+02
1.299985996919322151e+00 5.228001407593858403e+02
1.300086018924162978e+00 5.228036092589727559e+02
1.300186040929004250e+00 5.228070834868467500e+02
1.300286062933845299e+00 5.228105633544410011e+02
1.300386084938686349e+00 5.228140487719942939e+02
1.300486106943527620e+00 5.228175396485542024e+02
1.300586128948368669e+00 5.228210358919836835e+02
1.300686150953209719e+00 5.228245374089610777e+02
1.300786172958050546e+00 5.228280441049879528e+02
1.300886194962891595e+00 5.228315558843919462e+02
1.300986216967732645e+00 5.228350726503310852e+02
1.301086238972573916e+00 5.228385943048003810e+02
1.301186260977414966e+00 5.228421207486326239e+02
1.301286282982256015e+00 5.228456518815060008e+02
1.301386304987097287e+00 5.228491876019460278e+02
1.301486326991938114e+00 5.228527278073347588e+02
1.301586348996779163e+00 5.228562723939097623e+02
1.301686371001620213e+00 5.228598212567741257e+02
1.301786393006461262e+00 5.228633742898972514e+02
1.301886415011302311e+00 5.228669313861237242e+02
1.301986437016143583e+00 5.228704924371741072e+02
1.302086459020984632e+00 5.228740573336547186e+02
1.302186481025825460e+00 5.228776259650576321e+02
1.302286503030666509e+00 5.228811982197706811e+02
1.302386525035507781e+00 5.228847739850797325e+02
1.302486547040348830e+00 5.228883531471744845e+02
1.302586569045189879e+00 5.228919355911551747e+02
1.302686591050030929e+00 5.228955212010367859e+02
1.302786613054871978e+00 5.228991098597547307e+02
1.302886635059712805e+00 5.229027014491704222e+02
1.302986657064554077e+00 5.229062958500771856e+02
1.303086679069395126e+00 5.229098929422071933e+02
1.303186701074236176e+00 5.229134926042340794e+02
1.303286723079077447e+00 5.229170947137811254e+02
1.303386745083918496e+00 5.229206991474270581e+02
1.303486767088759546e+00 5.229243057807103696e+02
1.303586789093600373e+00 5.229279144881382990e+02
1.303686811098441423e+00 5.229315251431897877e+02
1.303786833103282472e+00 5.229351376183220736e+02
1.303886855108123743e+00 5.229387517849794449e+02
1.303986877112964793e+00 5.229423675135968779e+02
1.304086899117805842e+00 5.229459846736060626e+02
1.304186921122647114e+00 5.229496031334443842e+02
1.304286943127487941e+00 5.229532227605586741e+02
1.304386965132328990e+00 5.229568434214127137e+02
1.304486987137170040e+00 5.229604649814936010e+02
1.304587009142011089e+00 5.229640873053197083e+02
1.304687031146852139e+00 5.229677102564440929e+02
1.304787053151693410e+00 5.229713336974646154e+02
1.304887075156534459e+00 5.229749574900274638e+02
1.304987097161375287e+00 5.229785814948377265e+02
1.305087119166216336e+00 5.229822055716622344e+02
1.305187141171057608e+00 5.229858295793394518e+02
1.305287163175898657e+00 5.229894533757852741e+02
1.305387185180739706e+00 5.229930768179988263e+02
1.305487207185580756e+00 5.229966997620718985e+02
1.305587229190421805e+00 5.230003220631950853e+02
1.305687251195262633e+00 5.230039435756639250e+02
1.305787273200103904e+00 5.230075641528875394e+02
1.305887295204944953e+00 5.230111836473940912e+02
1.305987317209786003e+00 5.230148019108407880e+02
1.306087339214627274e+00 5.230184187940201355e+02
1.306187361219468324e+00 5.230220341468645984e+02
1.306287383224309373e+00 5.230256478184581965e+02
1.306387405229150200e+00 5.230292596570420756e+02
1.306487427233991250e+00 5.230328695100222376e+02
1.306587449238832299e+00 5.230364772239770446e+02
1.306687471243673571e+00 5.230400826446643805e+02
1.306787493248514620e+00 5.230436856170313149e+02
1.306887515253355669e+00 5.230472859852192187e+02
1.306987537258196941e+00 5.230508835925741096e+02
1.307087559263037768e+00 5.230544782816530187e+02
1.307187581267878818e+00 5.230580698942310391e+02
1.307287603272719867e+00 5.230616582713118987e+02
1.307387625277560916e+00 5.230652432531336444e+02
1.307487647282401966e+00 5.230688246791780784e+02
1.307587669287243237e+00 5.230724023881775793e+02
1.307687691292084287e+00 5.230759762181249926e+02
1.307787713296925114e+00 5.230795460062799975e+02
1.307887735301766163e+00 5.230831115891783156e+02
1.307987757306607435e+00 5.230866728026396686e+02
1.308087779311448484e+00 5.230902294817771008e+02
1.308187801316289534e+00 5.230937814610032319e+02
1.308287823321130583e+00 5.230973285740408301e+02
1.308387845325971632e+00 5.231008706539297464e+02
1.308487867330812460e+00 5.231044075330363512e+02
1.308587889335653731e+00 5.231079390430620606e+02
1.308687911340494781e+00 5.231114650150507259e+02
1.308787933345335830e+00 5.231149852793982973e+02
1.308887955350177101e+00 5.231184996658620321e+02
1.308987977355018151e+00 5.231220080035675437e+02
1.309087999359859200e+00 5.231255101210194880e+02
1.309188021364700028e+00 5.231290058461080434e+02
1.309288043369541077e+00 5.231324950061206209e+02
1.309388065374382126e+00 5.231359774277468659e+02
1.309488087379223398e+00 5.231394529370917326e+02
1.309588109384064447e+00 5.231429213596824184e+02
1.309688131388905497e+00 5.231463825204759814e+02
1.309788153393746768e+00 5.231498362438717322e+02
1.309888175398587595e+00 5.231532823537152126e+02
1.309988197403428645e+00 5.231567206733147941e+02
1.310088219408269694e+00 5.231601510254437244e+02
1.310188241413110743e+00 5.231635732323520642e+02
1.310288263417951793e+00 5.231669871157756688e+02
1.310388285422793064e+00 5.231703924969468744e+02
1.310488307427634114e+00 5.231737891966013194e+02
1.310588329432474941e+00 5.231771770349895405e+02
1.310688351437315990e+00 5.231805558318834528e+02
1.310788373442157262e+00 5.231839254065891964e+02
1.310888395446998311e+00 5.231872855779535030e+02
1.310988417451839361e+00 5.231906361643755190e+02
1.311088439456680410e+00 5.231939769838145367e+02
1.311188461461521459e+00 5.231973078537995434e+02
1.311288483466362287e+00 5.232006285914405908e+02
1.311388505471203558e+00 5.232039390134369796e+02
1.311488527476044608e+00 5.232072389360855595e+02
1.311588549480885657e+00 5.232105281752939163e+02
1.311688571485726929e+00 5.232138065465860564e+02
1.311788593490567978e+00 5.232170738651151396e+02
1.311888615495409027e+00 5.232203299456714376e+02
1.311988637500249855e+00 5.232235746026926790e+02
1.312088659505090904e+00 5.232268076502747363e+02
1.312188681509931953e+00 5.232300289021785602e+02
1.312288703514773225e+00 5.232332381718434817e+02
1.312388725519614274e+00 5.232364352723955108e+02
1.312488747524455324e+00 5.232396200166557492e+02
1.312588769529296595e+00 5.232427922171536920e+02
1.312688791534137422e+00 5.232459516861341626e+02
1.312788813538978472e+00 5.232490982355690221e+02
1.312888835543819521e+00 5.232522316771646729e+02
1.312988857548660571e+00 5.232553518223760420e+02
1.313088879553501620e+00 5.232584584824141984e+02
1.313188901558342891e+00 5.232615514682551066e+02
1.313288923563183941e+00 5.232646305906524731e+02
1.313388945568024768e+00 5.232676956601467282e+02
1.313488967572865818e+00 5.232707464870734384e+02
1.313588989577707089e+00 5.232737828815778585e+02
1.313689011582548138e+00 5.232768046536199336e+02
1.313789033587389188e+00 5.232798116129868049e+02
1.313889055592230237e+00 5.232828035693048605e+02
1.313989077597071287e+00 5.232857803320472385e+02
1.314089099601912114e+00 5.232887417105440591e+02
1.314189121606753385e+00 5.232916875139949298e+02
1.314289143611594435e+00 5.232946175514767901e+02
1.314389165616435484e+00 5.232975316319564172e+02
1.314489187621276756e+00 5.233004295642988382e+02
1.314589209626117805e+00 5.233033111572791540e+02
1.314689231630958854e+00 5.233061762195911797e+02
1.314789253635799682e+00 5.233090245598599495e+02
1.314889275640640731e+00 5.233118559866499027e+02
1.314989297645481781e+00 5.233146703084771616e+02
1.315089319650323052e+00 5.233174673338187404e+02
1.315189341655164101e+00 5.233202468711243682e+02
1.315289363660005151e+00 5.233230087288234245e+02
1.315389385664846422e+00 5.233257527153409683e+02
1.315489407669687250e+00 5.233284786391027410e+02
1.315589429674528299e+00 5.233311863085497180e+02
1.315689451679369348e+00 5.233338755321448161e+02
1.315789473684210398e+00 5.233365461183879006e+02
1.315889495689051447e+00 5.233391978758220375e+02
1.315989517693892719e+00 5.233418306130472502e+02
1.316089539698733768e+00 5.233444441387283632e+02
1.316189561703574595e+00 5.233470382616068264e+02
1.316289583708415645e+00 5.233496127905125377e+02
1.316389605713256916e+00 5.233521675343716879e+02
1.316489627718097966e+00 5.233547023022194935e+02
1.316589649722939015e+00 5.233572169032103147e+02
1.316689671727780064e+00 5.233597111466270917e+02
1.316789693732620892e+00 5.233621848418927129e+02
1.316889715737461941e+00 5.233646377985816116e+02
1.316989737742303213e+00 5.233670698264287466e+02
1.317089759747144262e+00 5.233694807353413125e+02
1.317189781751985311e+00 5.233718703354078343e+02
1.317289803756826583e+00 5.233742384369109004e+02
1.317389825761667632e+00 5.233765848503363713e+02
1.317489847766508460e+00 5.233789093863840662e+02
1.317589869771349509e+00 5.233812118559786768e+02
1.317689891776190558e+00 5.233834920702811360e+02
1.317789913781031608e+00 5.233857498406972582e+02
1.317889935785872879e+00 5.233879849788904721e+02
1.317989957790713929e+00 5.233901972967904612e+02
1.318089979795554978e+00 5.233923866066057826e+02
1.318190001800395805e+00 5.233945527208337580e+02
1.318290023805237077e+00 5.233966954522699098e+02
1.318390045810078126e+00 5.233988146140202389e+02
1.318490067814919176e+00 5.234009100195104338e+02
1.318590089819760225e+00 5.234029814824983760e+02
1.318690111824601274e+00 5.234050288170820977e+02
1.318790133829442546e+00 5.234070518377131975e+02
1.318890155834283373e+00 5.234090503592052528e+02
1.318990177839124422e+00 5.234110241967455295e+02
1.319090199843965472e+00 5.234129731659057825e+02
1.319190221848806743e+00 5.234148970826515779e+02
1.319290243853647793e+00 5.234167957633536616e+02
1.319390265858488842e+00 5.234186690247995557e+02
1.319490287863329891e+00 5.234205166842021981e+02
1.319590309868170719e+00 5.234223385592122213e+02
1.319690331873011768e+00 5.234241344679264785e+02
1.319790353877853040e+00 5.234259042289007766e+02
1.319890375882694089e+00 5.234276476611596536e+02
1.319990397887535138e+00 5.234293645842057003e+02
1.320090419892376410e+00 5.234310548180325213e+02
1.320190441897217459e+00 5.234327181831322378e+02
1.320290463902058287e+00 5.234343545005084479e+02
1.320390485906899336e+00 5.234359635916865727e+02
1.320490507911740385e+00 5.234375452787213590e+02
1.320590529916581435e+00 5.234390993842113176e+02
1.320690551921422706e+00 5.234406257313078186e+02
1.320790573926263756e+00 5.234421241437237313e+02
1.320890595931104805e+00 5.234435944457453616e+02
1.320990617935945632e+00 5.234450364622442748e+02
1.321090639940786904e+00 5.234464500186838904e+02
1.321190661945627953e+00 5.234478349411340332e+02
1.321290683950469003e+00 5.234491910562787780e+02
1.321390705955310052e+00 5.234505181914264540e+02
1.321490727960151101e+00 5.234518161745227189e+02
1.321590749964992373e+00 5.234530848341571527e+02
1.321690771969833200e+00 5.234543239995774684e+02
1.321790793974674250e+00 5.234555335006957648e+02
1.321890815979515299e+00 5.234567131681019418e+02
1.321990837984356570e+00 5.234578628330730226e+02
1.322090859989197620e+00 5.234589823275825893e+02
1.322190881994038669e+00 5.234600714843110154e+02
1.322290903998879719e+00 5.234611301366578573e+02
1.322390926003720546e+00 5.234621581187489028e+02
1.322490948008561595e+00 5.234631552654484494e+02
1.322590970013402867e+00 5.234641214123680584e+02
1.322690992018243916e+00 5.234650563958775820e+02
1.322791014023084966e+00 5.234659600531150545e+02
1.322891036027926237e+00 5.234668322219968104e+02
1.322991058032767286e+00 5.234676727412273749e+02
1.323091080037608114e+00 5.234684814503079906e+02
1.323191102042449163e+00 5.234692581895504873e+02
1.323291124047290213e+00 5.234700028000821703e+02
1.323391146052131262e+00 5.234707151238599181e+02
1.323491168056972533e+00 5.234713950036785945e+02
1.323591190061813583e+00 5.234720422831792348e+02
1.323691212066654632e+00 5.234726568068625738e+02
1.323791234071495460e+00 5.234732384200946171e+02
1.323891256076336731e+00 5.234737869691197147e+02
1.323991278081177780e+00 5.234743023010696561e+02
1.324091300086018830e+00 5.234747842639712871e+02
1.324191322090859879e+00 5.234752327067595843e+02
1.324291344095700929e+00 5.234756474792840208e+02
1.324391366100542200e+00 5.234760284323203905e+02
1.324491388105383027e+00 5.234763754175791064e+02
1.324591410110224077e+00 5.234766882877174794e+02
1.324691432115065126e+00 5.234769668963443792e+02
1.324791454119906398e+00 5.234772110980343314e+02
1.324891476124747447e+00 5.234774207483351347e+02
1.324991498129588496e+00 5.234775957037765011e+02
1.325091520134429546e+00 5.234777358218810832e+02
1.325191542139270373e+00 5.234778409611728875e+02
1.325291564144111423e+00 5.234779109811870512e+02
1.325391586148952694e+00 5.234779457424784823e+02
1.325491608153793743e+00 5.234779451066322054e+02
1.325591630158634793e+00 5.234779089362715467e+02
1.325691652163476064e+00 5.234778370950680255e+02
1.325791674168317114e+00 5.234777294477504483e+02
1.325891696173157941e+00 5.234775858601129812e+02
1.325991718177998990e+00 5.234774061990256087e+02
1.326091740182840040e+00 5.234771903324437972e+02
1.326191762187681089e+00 5.234769381294142931e+02
1.326291784192522361e+00 5.234766494600880833e+02
1.326391806197363410e+00 5.234763241957258515e+02
1.326491828202204459e+00 5.234759622087093476e+02
1.326591850207045287e+00 5.234755633725494590e+02
1.326691872211886558e+00 5.234751275618949649e+02
1.326791894216727608e+00 5.234746546525402664e+02
1.326891916221568657e+00 5.234741445214361875e+02
1.326991938226409706e+00 5.234735970466967956e+02
1.327091960231250756e+00 5.234730121076095202e+02
1.327191982236092027e+00 5.234723895846425421e+02
1.327292004240932854e+00 5.234717293594542298e+02
1.327392026245773904e+00 5.234710313149001877e+02
1.327492048250614953e+00 5.234702953350446251e+02
1.327592070255456225e+00 5.234695213051653582e+02
1.327692092260297274e+00 5.234687091117652926e+02
1.327792114265138324e+00 5.234678586425769709e+02
1.327892136269979373e+00 5.234669697865757598e+02
1.327992158274820200e+00 5.234660424339842848e+02
1.328092180279661250e+00 5.234650764762810695e+02
1.328192202284502521e+00 5.234640718062104270e+02
1.328292224289343570e+00 5.234630283177895080e+02
1.328392246294184620e+00 5.234619459063169415e+02
1.328492268299025891e+00 5.234608244683782914e+02
1.328592290303866941e+00 5.234596639018578799e+02
1.328692312308707768e+00 5.234584641059442447e+02
1.328792334313548817e+00 5.234572249811390066e+02
1.328892356318389867e+00 5.234559464292633493e+02
1.328992378323230916e+00 5.234546283534670010e+02
1.329092400328072188e+00 5.234532706582365336e+02
1.329192422332913237e+00 5.234518732494003643e+02
1.329292444337754286e+00 5.234504360341404663e+02
1.329392466342595114e+00 5.234489589209947553e+02
1.329492488347436385e+00 5.234474418198697094e+02
1.329592510352277435e+00 5.234458846420436657e+02
1.329692532357118484e+00 5.234442873001783028e+02
1.329792554361959533e+00 5.234426497083205732e+02
1.329892576366800583e+00 5.234409717819157777e+02
1.329992598371641854e+00 5.234392534378107484e+02
1.330092620376482682e+00 5.234374945942635122e+02
1.330192642381323731e+00 5.234356951709478381e+02
1.330292664386164780e+00 5.234338550889626731e+02
1.330392686391006052e+00 5.234319742708388503e+02
1.330492708395847101e+00 5.234300526405438632e+02
1.330592730400688151e+00 5.234280901234911880e+02
1.330692752405529200e+00 5.234260866465467643e+02
1.330792774410370027e+00 5.234240421380345651e+02
1.330892796415211077e+00 5.234219565277437596e+02
1.330992818420052348e+00 5.234198297469366707e+02
1.331092840424893398e+00 5.234176617283536643e+02
1.331192862429734447e+00 5.234154524062208793e+02
1.331292884434575718e+00 5.234132017162551165e+02
1.331392906439416768e+00 5.234109095956729334e+02
1.331492928444257595e+00 5.234085759831948508e+02
1.331592950449098645e+00 5.234062008190516053e+02
1.331692972453939694e+00 5.234037840449924488e+02
1.331792994458780743e+00 5.234013256042887861e+02
1.331893016463622015e+00 5.233988254417419057e+02
1.331993038468463064e+00 5.233962835036893466e+02
1.332093060473304114e+00 5.233936997380089906e+02
1.332193082478144941e+00 5.233910740941271342e+02
1.332293104482986212e+00 5.233884065230233773e+02
1.332393126487827262e+00 5.233856969772361936e+02
1.332493148492668311e+00 5.233829454108683876e+02
1.332593170497509361e+00 5.233801517795955078e+02
1.332693192502350410e+00 5.233773160406673242e+02
1.332793214507191681e+00 5.233744381529161274e+02
1.332893236512032509e+00 5.233715180767627544e+02
1.332993258516873558e+00 5.233685557742182937e+02
1.333093280521714608e+00 5.233655512088948853e+02
1.333193302526555879e+00 5.233625043460061761e+02
1.333293324531396928e+00 5.233594151523752771e+02
1.333393346536237978e+00 5.233562835964394253e+02
1.333493368541079027e+00 5.233531096482543035e+02
1.333593390545919855e+00 5.233498932794999519e+02
1.333693412550760904e+00 5.233466344634855432e+02
1.333793434555602175e+00 5.233433331751541573e+02
1.333893456560443225e+00 5.233399893910883520e+02
1.333993478565284274e+00 5.233366030895130052e+02
1.334093500570125546e+00 5.233331742503020223e+02
1.334193522574966373e+00 5.233297028549824290e+02
1.334293544579807422e+00 5.233261888867385778e+02
1.334393566584648472e+00 5.233226323304162406e+02
1.334493588589489521e+00 5.233190331725287479e+02
1.334593610594330571e+00 5.233153914012598307e+02
1.334693632599171842e+00 5.233117070064680547e+02
1.334793654604012891e+00 5.233079799796917086e+02
1.334893676608853719e+00 5.233042103141527832e+02
1.334993698613694768e+00 5.233003980047600407e+02
1.335093720618536040e+00 5.232965430481150406e+02
1.335193742623377089e+00 5.232926454425141856e+02
1.335293764628218138e+00 5.232887051879532692e+02
1.335393786633059188e+00 5.232847222861317960e+02
1.335493808637900237e+00 5.232806967404563920e+02
1.335593830642741064e+00 5.232766285560439883e+02
1.335693852647582336e+00 5.232725177397259131e+02
1.335793874652423385e+00 5.232683643000516440e+02
1.335893896657264435e+00 5.232641682472908542e+02
1.335993918662105706e+00 5.232599295934395514e+02
1.336093940666946756e+00 5.232556483522199642e+02
1.336193962671787805e+00 5.232513245390863403e+02
1.336293984676628632e+00 5.232469581712268791e+02
1.336394006681469682e+00 5.232425492675685064e+02
1.336494028686310731e+00 5.232380978487771017e+02
1.336594050691152002e+00 5.232336039372618188e+02
1.336694072695993052e+00 5.232290675571796328e+02
1.336794094700834101e+00 5.232244887344345443e+02
1.336894116705675373e+00 5.232198674966838325e+02
1.336994138710516200e+00 5.232152038733380550e+02
1.337094160715357249e+00 5.232104978955662773e+02
1.337194182720198299e+00 5.232057495962955045e+02
1.337294204725039348e+00 5.232009590102144330e+02
1.337394226729880398e+00 5.231961261737785662e+02
1.337494248734721669e+00 5.231912511252055538e+02
1.337594270739562718e+00 5.231863339044866734e+02
1.337694292744403546e+00 5.231813745533794417e+02
1.337794314749244595e+00 5.231763731154180732e+02
1.337894336754085867e+00 5.231713296359080232e+02
1.337994358758926916e+00 5.231662441619345145e+02
1.338094380763767965e+00 5.231611167423592406e+02
1.338194402768609015e+00 5.231559474278255948e+02
1.338294424773450064e+00 5.231507362707579887e+02
1.338394446778290892e+00 5.231454833253642391e+02
1.338494468783132163e+00 5.231401886476373875e+02
1.338594490787973212e+00 5.231348522953571774e+02
1.338694512792814262e+00 5.231294743280908506e+02
1.338794534797655533e+00 5.231240548071942840e+02
1.338894556802496583e+00 5.231185937958146042e+02
1.338994578807337632e+00 5.231130913588901876e+02
1.339094600812178459e+00 5.231075475631504332e+02
1.339194622817019509e+00 5.231019624771203098e+02
1.339294644821860558e+00 5.230963361711160360e+02
1.339394666826701830e+00 5.230906687172522425e+02
1.339494688831542879e+00 5.230849601894375382e+02
1.339594710836383928e+00 5.230792106633772391e+02
1.339694732841225200e+00 5.230734202165734814e+02
1.339794754846066027e+00 5.230675889283263587e+02
1.339894776850907077e+00 5.230617168797342629e+02
1.339994798855748126e+00 5.230558041536927476e+02
1.340094820860589175e+00 5.230498508348964606e+02
1.340194842865430225e+00 5.230438570098394848e+02
1.340294864870271496e+00 5.230378227668136333e+02
1.340394886875112546e+00 5.230317481959100405e+02
1.340494908879953373e+00 5.230256333890187079e+02
1.340594930884794422e+00 5.230194784398286174e+02
1.340694952889635694e+00 5.230132834438262535e+02
1.340794974894476743e+00 5.230070484982969674e+02
1.340894996899317793e+00 5.230007737023240679e+02
1.340995018904158842e+00 5.229944591567870020e+02
1.341095040908999891e+00 5.229881049643634015e+02
1.341195062913840719e+00 5.229817112295268089e+02
1.341295084918681990e+00 5.229752780585450864e+02
1.341395106923523040e+00 5.229688055594828029e+02
1.341495128928364089e+00 5.229622938421968001e+02
1.341595150933205360e+00 5.229557430183371025e+02
1.341695172938046410e+00 5.229491532013463484e+02
1.341795194942887459e+00 5.229425245064564933e+02
1.341895216947728287e+00 5.229358570506916521e+02
1.341995238952569336e+00 5.229291509528620736e+02
1.342095260957410385e+00 5.229224063335664141e+02
1.342195282962251657e+00 5.229156233151879860e+02
1.342295304967092706e+00 5.229088020218952124e+02
1.342395326971933756e+00 5.229019425796388987e+02
1.342495348976775027e+00 5.228950451161504134e+02
1.342595370981615854e+00 5.228881097609407789e+02
1.342695392986456904e+00 5.228811366452979428e+02
1.342795414991297953e+00 5.228741259022858685e+02
1.342895436996139003e+00 5.228670776667416931e+02
1.342995459000980052e+00 5.228599920752745902e+02
1.343095481005821323e+00 5.228528692662630419e+02
1.343195503010662373e+00 5.228457093798524511e+02
1.343295525015503200e+00 5.228385125579526402e+02
1.343395547020344249e+00 5.228312789442368285e+02
1.343495569025185521e+00 5.228240086841375387e+02
1.343595591030026570e+00 5.228167019248454608e+02
1.343695613034867620e+00 5.228093588153059272e+02
1.343795635039708669e+00 5.228019795062162984e+02
1.343895657044549719e+00 5.227945641500239162e+02
1.343995679049390546e+00 5.227871129009223523e+02
1.344095701054231817e+00 5.227796259148487934e+02
1.344195723059072867e+00 5.227721033494809717e+02
1.344295745063913916e+00 5.227645453642352322e+02
1.344395767068755188e+00 5.227569521202608485e+02
1.344495789073596237e+00 5.227493237804389992e+02
1.344595811078437286e+00 5.227416605093789030e+02
1.344695833083278114e+00 5.227339624734139534e+02
1.344795855088119163e+00 5.227262298405980800e+02
1.344895877092960212e+00 5.227184627807038169e+02
1.344995899097801484e+00 5.227106614652162762e+02
1.345095921102642533e+00 5.227028260673307614e+02
1.345195943107483583e+00 5.226949567619491290e+02
1.345295965112324854e+00 5.226870537256752414e+02
1.345395987117165681e+00 5.226791171368115556e+02
1.345496009122006731e+00 5.226711471753544629e+02
1.345596031126847780e+00 5.226631440229921282e+02
1.345696053131688830e+00 5.226551078630958500e+02
1.345796075136529879e+00 5.226470388807206291e+02
1.345896097141371150e+00 5.226389372625992564e+02
1.345996119146212200e+00 5.226308031971359469e+02
1.346096141151053027e+00 5.226226368744046340e+02
1.346196163155894077e+00 5.226144384861420349e+02
1.346296185160735348e+00 5.226062082257445809e+02
1.346396207165576397e+00 5.225979462882635289e+02
1.346496229170417447e+00 5.225896528703991635e+02
1.346596251175258496e+00 5.225813281704964766e+02
1.346696273180099546e+00 5.225729723885401654e+02
1.346796295184940373e+00 5.225645857261504261e+02
1.346896317189781644e+00 5.225561683865755640e+02
1.346996339194622694e+00 5.225477205746896061e+02
1.347096361199463743e+00 5.225392424969845706e+02
1.347196383204305015e+00 5.225307343615671698e+02
1.347296405209146064e+00 5.225221963781509658e+02
1.347396427213987113e+00 5.225136287580540966e+02
1.347496449218827941e+00 5.225050317141898404e+02
1.347596471223668990e+00 5.224964054610645690e+02
1.347696493228510040e+00 5.224877502147691075e+02
1.347796515233351311e+00 5.224790661929753242e+02
1.347896537238192360e+00 5.224703536149279444e+02
1.347996559243033410e+00 5.224616127014406857e+02
1.348096581247874681e+00 5.224528436748889817e+02
1.348196603252715509e+00 5.224440467592038431e+02
1.348296625257556558e+00 5.224352221798659457e+02
1.348396647262397607e+00 5.224263701638999464e+02
1.348496669267238657e+00 5.224174909398659565e+02
1.348596691272079706e+00 5.224085847378570406e+02
1.348696713276920978e+00 5.223996517894883027e+02
1.348796735281762027e+00 5.223906923278939303e+02
1.348896757286602854e+00 5.223817065877177583e+02
1.348996779291443904e+00 5.223726948051091767e+02
1.349096801296285175e+00 5.223636572177124435e+02
1.349196823301126225e+00 5.223545940646661165e+02
1.349296845305967274e+00 5.223455055865896384e+02
1.349396867310808323e+00 5.223363920255789026e+02
1.349496889315649373e+00 5.223272536252004556e+02
1.349596911320490200e+00 5.223180906304834252e+02
1.349696933325331472e+00 5.223089032879109936e+02
1.349796955330172521e+00 5.222996918454142588e+02
1.349896977335013570e+00 5.222904565523658675e+02
1.349996999339854842e+00 5.222811976595702390e+02
1.350097021344695891e+00 5.222719154192573114e+02
1.350197043349536941e+00 5.222626100850768580e+02
1.350297065354377768e+00 5.222532819120859813e+02
1.350397087359218817e+00 5.222439311567459299e+02
1.350497109364059867e+00 5.222345580769132312e+02
1.350597131368901138e+00 5.222251629318300274e+02
1.350697153373742188e+00 5.222157459821180510e+02
1.350797175378583237e+00 5.222063074897699835e+02
1.350897197383424508e+00 5.221968477181404751e+02
1.350997219388265336e+00 5.221873669319396640e+02
1.351097241393106385e+00 5.221778653972254460e+02
1.351197263397947435e+00 5.221683433813914235e+02
1.351297285402788484e+00 5.221588011531623579e+02
1.351397307407629533e+00 5.221492389825846203e+02
1.351497329412470805e+00 5.221396571410170964e+02
1.351597351417311632e+00 5.221300559011234554e+02
1.351697373422152681e+00 5.221204355368624874e+02
1.351797395426993731e+00 5.221107963234817362e+02
1.351897417431835002e+00 5.221011385375045393e+02
1.351997439436676052e+00 5.220914624567260489e+02
1.352097461441517101e+00 5.220817683602011812e+02
1.352197483446358151e+00 5.220720565282365442e+02
1.352297505451198978e+00 5.220623272423820254e+02
1.352397527456040027e+00 5.220525807854201048e+02
1.352497549460881299e+00 5.220428174413590341e+02
1.352597571465722348e+00 5.220330374954204444e+02
1.352697593470563397e+00 5.220232412340345718e+02
1.352797615475404669e+00 5.220134289448262734e+02
1.352897637480245718e+00 5.220036009166085478e+02
1.352997659485086546e+00 5.219937574393720752e+02
1.353097681489927595e+00 5.219838988042760093e+02
1.353197703494768644e+00 5.219740253036376316e+02
1.353297725499609694e+00 5.219641372309241660e+02
1.353397747504450965e+00 5.219542348807417511e+02
1.353497769509292015e+00 5.219443185488255494e+02
1.353597791514133064e+00 5.219343885320316758e+02
1.353697813518973891e+00 5.219244451283257149e+02
1.353797835523815163e+00 5.219144886367724894e+02
1.353897857528656212e+00 5.219045193575271924e+02
1.353997879533497262e+00 5.218945375918256104e+02
1.354097901538338311e+00 5.218845436419724138e+02
1.354197923543179360e+00 5.218745378113318338e+02
1.354297945548020632e+00 5.218645204043166359e+02
1.354397967552861459e+00 5.218544917263810703e+02
1.354497989557702509e+00 5.218444520840054111e+02
1.354598011562543558e+00 5.218344017846898169e+02
1.354698033567384829e+00 5.218243411369410296e+02
1.354798055572225879e+00 5.218142704502633933e+02
1.354898077577066928e+00 5.218041900351480535e+02
1.354998099581907978e+00 5.217941002030622712e+02
1.355098121586748805e+00 5.217840012664380538e+02
1.355198143591589854e+00 5.217738935386623780e+02
1.355298165596431126e+00 5.217637773340652529e+02
1.355398187601272175e+00 5.217536529679109663e+02
1.355498209606113225e+00 5.217435207563835320e+02
1.355598231610954496e+00 5.217333810165802106e+02
1.355698253615795545e+00 5.217232340664967296e+02
1.355798275620636373e+00 5.217130802250183024e+02
1.355898297625477422e+00 5.217029198119073499e+02
1.355998319630318472e+00 5.216927531477933826e+02
1.356098341635159521e+00 5.216825805541614045e+02
1.356198363640000792e+00 5.216724023533391801e+02
1.356298385644841842e+00 5.216622188684882531e+02
1.356398407649682891e+00 5.216520304235922367e+02
1.356498429654523719e+00 5.216418373434426030e+02
1.356598451659364990e+00 5.216316399536303834e+02
1.356698473664206039e+00 5.216214385805345728e+02
1.356798495669047089e+00 5.216112335513066682e+02
1.356898517673888138e+00 5.216010251938645297e+02
1.356998539678729188e+00 5.215908138368769187e+02
1.357098561683570459e+00 5.215805998097526981e+02
1.357198583688411286e+00 5.215703834426290086e+02
1.357298605693252336e+00 5.215601650663610371e+02
1.357398627698093385e+00 5.215499450125073508e+02
1.357498649702934657e+00 5.215397236133195520e+02
1.357598671707775706e+00 5.215295012017315912e+02
1.357698693712616755e+00 5.215192781113448746e+02
1.357798715717457805e+00 5.215090546764184865e+02
1.357898737722298632e+00 5.214988312318558883e+02
1.357998759727139682e+00 5.214886081131943456e+02
1.358098781731980953e+00 5.214783856565902624e+02
1.358198803736822002e+00 5.214681641988088359e+02
1.358298825741663052e+00 5.214579440772122325e+02
1.358398847746504323e+00 5.214477256297454915e+02
1.358498869751345373e+00 5.214375091949249281e+02
1.358598891756186200e+00 5.214272951118272204e+02
1.358698913761027249e+00 5.214170837200741744e+02
1.358798935765868299e+00 5.214068753598235162e+02
1.358898957770709348e+00 5.213966703717525206e+02
1.358998979775550620e+00 5.213864690970494848e+02
1.359099001780391669e+00 5.213762718773987217e+02
1.359199023785232718e+00 5.213660790549691910e+02
1.359299045790073546e+00 5.213558909723989245e+02
1.359399067794914817e+00 5.213457079727878636e+02
1.359499089799755867e+00 5.213355303996794419e+02
1.359599111804596916e+00 5.213253585970519453e+02
1.359699133809437965e+00 5.213151929093032777e+02
1.359799155814279015e+00 5.213050336812385694e+02
1.359899177819120286e+00 5.212948812580585809e+02
1.359999199823961114e+00 5.212847359853453781e+02
1.360099221828802163e+00 5.212745982090507368e+02
1.360199243833643212e+00 5.212644682754810219e+02
1.360299265838484484e+00 5.212543465312867284e+02
1.360399287843325533e+00 5.212442333234478156e+02
1.360499309848166583e+00 5.212341289992618840e+02
1.360599331853007632e+00 5.212240339063295096e+02
1.360699353857848459e+00 5.212139483925416243e+02
1.360799375862689509e+00 5.212038728060689436e+02
1.360899397867530780e+00 5.211938074953436626e+02
1.360999419872371829e+00 5.211837528090513842e+02
1.361099441877212879e+00 5.211737090961148624e+02
1.361199463882054150e+00 5.211636767056819508e+02
1.361299485886895200e+00 5.211536559871104828e+02
1.361399507891736027e+00 5.211436472899588352e+02
1.361499529896577076e+00 5.211336509639684209e+02
1.361599551901418126e+00 5.211236673590528881e+02
1.361699573906259175e+00 5.211136968252837960e+02
1.361799595911100447e+00 5.211037397128766315e+02
1.361899617915941496e+00 5.210937963721793267e+02
1.361999639920782545e+00 5.210838671536567972e+02
1.362099661925623373e+00 5.210739524078786644e+02
1.362199683930464644e+00 5.210640524855047033e+02
1.362299705935305694e+00 5.210541677372725644e+02
1.362399727940146743e+00 5.210442985139831080e+02
1.362499749944987792e+00 5.210344451664876715e+02
1.362599771949828842e+00 5.210246080456745403e+02
1.362699793954670113e+00 5.210147875024542827e+02
1.362799815959510941e+00 5.210049838877459933e+02
1.362899837964351990e+00 5.209951975524666068e+02
1.362999859969193039e+00 5.209854288475130488e+02
1.363099881974034311e+00 5.209756781237524592e+02
1.363199903978875360e+00 5.209659457320038882e+02
1.363299925983716410e+00 5.209562320230304522e+02
1.363399947988557459e+00 5.209465373475203478e+02
1.363499969993398286e+00 5.209368620560758245e+02
1.363599991998239336e+00 5.209272064991993147e+02
1.363700014003080607e+00 5.209175710272779725e+02
1.363800036007921657e+00 5.209079559905723045e+02
1.363900058012762706e+00 5.208983617392001406e+02
1.364000080017603977e+00 5.208887886231244693e+02
1.364100102022445027e+00 5.208792369921389991e+02
1.364200124027285854e+00 5.208697071958541756e+02
1.364300146032126904e+00 5.208601995836829701e+02
1.364400168036967953e+00 5.208507145048272378e+02
1.364500190041809002e+00 5.208412523082658936e+02
1.364600212046650274e+00 5.208318133427374050e+02
1.364700234051491323e+00 5.208223979567280821e+02
1.364800256056332373e+00 5.208130064984582077e+02
1.364900278061173200e+00 5.208036393158680539e+02
1.365000300066014471e+00 5.207942967566028756e+02
1.365100322070855521e+00 5.207849791680005183e+02
1.365200344075696570e+00 5.207756868970760706e+02
1.365300366080537620e+00 5.207664202905093589e+02
1.365400388085378669e+00 5.207571796946295990e+02
1.365500410090219940e+00 5.207479654554025501e+02
1.365600432095060768e+00 5.207387779184164174e+02
1.365700454099901817e+00 5.207296174288669590e+02
1.365800476104742867e+00 5.207204843315440712e+02
1.365900498109584138e+00 5.207113789708198510e+02
1.366000520114425187e+00 5.207023016906305202e+02
1.366100542119266237e+00 5.206932528344658522e+02
1.366200564124107286e+00 5.206842327453546204e+02
1.366300586128948114e+00 5.206752417658481136e+02
1.366400608133789163e+00 5.206662802380105859e+02
1.366500630138630434e+00 5.206573485034018631e+02
1.366600652143471484e+00 5.206484469030638138e+02
1.366700674148312533e+00 5.206395757775085258e+02
1.366800696153153805e+00 5.206307354667017080e+02
1.366900718157994854e+00 5.206219263100504122e+02
1.367000740162835681e+00 5.206131486463879128e+02
1.367100762167676731e+00 5.206044028139618831e+02
1.367200784172517780e+00 5.205956891504175701e+02
1.367300806177358830e+00 5.205870079927864253e+02
1.367400828182200101e+00 5.205783596774700754e+02
1.367500850187041150e+00 5.205697445402284984e+02
1.367600872191882200e+00 5.205611629161644487e+02
1.367700894196723027e+00 5.205526151397101557e+02
1.367800916201564299e+00 5.205441015446142501e+02
1.367900938206405348e+00 5.205356224639257334e+02
1.368000960211246397e+00 5.205271782299832921e+02
1.368100982216087447e+00 5.205187691743976757e+02
1.368201004220928496e+00 5.205103956280416924e+02
1.368301026225769768e+00 5.205020579210327014e+02
1.368401048230610595e+00 5.204937563827221538e+02
1.368501070235451644e+00 5.204854913416793352e+02
1.368601092240292694e+00 5.204772631256788600e+02
1.368701114245133965e+00 5.204690720616864610e+02
1.368801136249975015e+00 5.204609184758451192e+02
1.368901158254816064e+00 5.204528026934609670e+02
1.369001180259656891e+00 5.204447250389908959e+02
1.369101202264497941e+00 5.204366858360277774e+02
1.369201224269338990e+00 5.204286854072861388e+02
1.369301246274180262e+00 5.204207240745907939e+02
1.369401268279021311e+00 5.204128021588599040e+02
1.369501290283862360e+00 5.204049199800945189e+02
1.369601312288703632e+00 5.203970778573628877e+02
1.369701334293544459e+00 5.203892761087878398e+02
1.369801356298385508e+00 5.203815150515322330e+02
1.369901378303226558e+00 5.203737950017862204e+02
1.370001400308067607e+00 5.203661162747533808e+02
1.370101422312908657e+00 5.203584791846375310e+02
1.370201444317749928e+00 5.203508840446293107e+02
1.370301466322590977e+00 5.203433311668910619e+02
1.370401488327431805e+00 5.203358208625460293e+02
1.370501510332272854e+00 5.203283534416624434e+02
1.370601532337114126e+00 5.203209292132419250e+02
1.370701554341955175e+00 5.203135484852048194e+02
1.370801576346796224e+00 5.203062115643780317e+02
1.370901598351637274e+00 5.202989187564805889e+02
1.371001620356478323e+00 5.202916703661096562e+02
1.371101642361319151e+00 5.202844666967320109e+02
1.371201664366160422e+00 5.202773080506626684e+02
1.371301686371001471e+00 5.202701947290588578e+02
1.371401708375842521e+00 5.202631270319035366e+02
1.371501730380683792e+00 5.202561052579924308e+02
1.371601752385524842e+00 5.202491297049213017e+02
1.371701774390365891e+00 5.202422006690737817e+02
1.371801796395206718e+00 5.202353184456059125e+02
1.371901818400047768e+00 5.202284833284352317e+02
1.372001840404888817e+00 5.202216956102270160e+02
1.372101862409730089e+00 5.202149555823807532e+02
1.372201884414571138e+00 5.202082635350187729e+02
1.372301906419412187e+00 5.202016197569716951e+02
1.372401928424253459e+00 5.201950245357658105e+02
1.372501950429094286e+00 5.201884781576111436e+02
1.372601972433935336e+00 5.201819809073874694e+02
1.372701994438776385e+00 5.201755330686337402e+02
1.372802016443617434e+00 5.201691349235327380e+02
1.372902038448458484e+00 5.201627867528981142e+02
1.373002060453299755e+00 5.201564888361649537e+02
1.373102082458140805e+00 5.201502414513748818e+02
1.373202104462981632e+00 5.201440448751633312e+02
1.373302126467822681e+00 5.201378993827470367e+02
1.373402148472663953e+00 5.201318052479134622e+02
1.373502170477505002e+00 5.201257627430055663e+02
1.373602192482346052e+00 5.201197721389119124e+02
1.373702214487187101e+00 5.201138337050515474e+02
1.373802236492028150e+00 5.201079477093643391e+02
1.373902258496868978e+00 5.201021144182967646e+02
1.374002280501710249e+00 5.200963340967908835e+02
1.374102302506551299e+00 5.200906070082720589e+02
1.374202324511392348e+00 5.200849334146349747e+02
1.374302346516233619e+00 5.200793135762348811e+02
1.374402368521074669e+00 5.200737477518707692e+02
1.374502390525915718e+00 5.200682361987794593e+02
1.374602412530756546e+00 5.200627791726182068e+02
1.374702434535597595e+00 5.200573769274549250e+02
1.374802456540438644e+00 5.200520297157569303e+02
1.374902478545279916e+00 5.200467377883777544e+02
1.375002500550120965e+00 5.200415013945464580e+02
1.375102522554962015e+00 5.200363207818548972e+02
1.375202544559803286e+00 5.200311961962473788e+02
1.375302566564644113e+00 5.200261278820074722e+02
1.375402588569485163e+00 5.200211160817470954e+02
1.375502610574326212e+00 5.200161610363949194e+02
1.375602632579167262e+00 5.200112629851861357e+02
1.375702654584008311e+00 5.200064221656480186e+02
1.375802676588849582e+00 5.200016388135915122e+02
1.375902698593690632e+00 5.199969131630984975e+02
1.376002720598531459e+00 5.199922454465105375e+02
1.376102742603372509e+00 5.199876358944180765e+02
1.376202764608213780e+00 5.199830847356487311e+02
1.376302786613054829e+00 5.199785921972566030e+02
1.376402808617895879e+00 5.199741585045115926e+02
1.376502830622736928e+00 5.199697838808866663e+02
1.376602852627577978e+00 5.199654685480498983e+02
1.376702874632418805e+00 5.199612127258500323e+02
1.376802896637260076e+00 5.199570166323082958e+02
1.376902918642101126e+00 5.199528804836063500e+02
1.377002940646942175e+00 5.199488044940763984e+02
1.377102962651783447e+00 5.199447888761899321e+02
1.377202984656624496e+00 5.199408338405469294e+02
1.377303006661465545e+00 5.199369395958658515e+02
1.377403028666306373e+00 5.199331063489732969e+02
1.377503050671147422e+00 5.199293343047922917e+02
1.377603072675988471e+00 5.199256236663345589e+02
1.377703094680829743e+00 5.199219746346865350e+02
1.377803116685670792e+00 5.199183874090025483e+02
1.377903138690511842e+00 5.199148621864915185e+02
1.378003160695353113e+00 5.199113991624110440e+02
1.378103182700193940e+00 5.199079985300530780e+02
1.378203204705034990e+00 5.199046604807366521e+02
1.378303226709876039e+00 5.199013852037953711e+02
1.378403248714717089e+00 5.198981728865715013e+02
1.378503270719558138e+00 5.198950237144017592e+02
1.378603292724399410e+00 5.198919378706111729e+02
1.378703314729240459e+00 5.198889155365009174e+02
1.378803336734081286e+00 5.198859568913408111e+02
1.378903358738922336e+00 5.198830621123579476e+02
1.379003380743763607e+00 5.198802313747281687e+02
1.379103402748604656e+00 5.198774648515665149e+02
1.379203424753445706e+00 5.198747627139185852e+02
1.379303446758286755e+00 5.198721251307490547e+02
1.379403468763127805e+00 5.198695522689355357e+02
1.379503490767968632e+00 5.198670442932570950e+02
1.379603512772809903e+00 5.198646013663872054e+02
1.379703534777650953e+00 5.198622236488821500e+02
1.379803556782492002e+00 5.198599112991737456e+02
1.379903578787333274e+00 5.198576644735621812e+02
1.380003600792174323e+00 5.198554833262036254e+02
1.380103622797015372e+00 5.198533680091040878e+02
1.380203644801856200e+00 5.198513186721096417e+02
1.380303666806697249e+00 5.198493354628991483e+02
1.380403688811538299e+00 5.198474185269737973e+02
1.380503710816379570e+00 5.198455680076509680e+02
1.380603732821220619e+00 5.198437840460544521e+02
1.380703754826061669e+00 5.198420667811061548e+02
1.380803776830902940e+00 5.198404163495188186e+02
1.380903798835743768e+00 5.198388328857876104e+02
1.381003820840584817e+00 5.198373165221811405e+02
1.381103842845425866e+00 5.198358673887345276e+02
1.381203864850266916e+00 5.198344856132423502e+02
1.381303886855107965e+00 5.198331713212485283e+02
1.381403908859949237e+00 5.198319246360406396e+02
1.381503930864790286e+00 5.198307456786407101e+02
1.381603952869631113e+00 5.198296345677996442e+02
1.381703974874472163e+00 5.198285914199882427e+02
1.381803996879313434e+00 5.198276163493887907e+02
1.381904018884154484e+00 5.198267094678910780e+02
1.382004040888995533e+00 5.198258708850814855e+02
1.382104062893836582e+00 5.198251007082395745e+02
1.382204084898677632e+00 5.198243990423263767e+02
1.382304106903518459e+00 5.198237659899815526e+02
1.382404128908359731e+00 5.198232016515149780e+02
1.382504150913200780e+00 5.198227061248985592e+02
1.382604172918041829e+00 5.198222795057620260e+02
1.382704194922883101e+00 5.198219218873840646e+02
1.382804216927724150e+00 5.198216333606872013e+02
1.382904238932565200e+00 5.198214140142296174e+02
1.383004260937406027e+00 5.198212639342006014e+02
1.383104282942247076e+00 5.198211832044138418e+02
1.383204304947088126e+00 5.198211719062999236e+02
1.383304326951929397e+00 5.198212301189006439e+02
1.383404348956770447e+00 5.198213579188636686e+02
1.383504370961611496e+00 5.198215553804368483e+02
1.383604392966452767e+00 5.198218225754603736e+02
1.383704414971293595e+00 5.198221595733617733e+02
1.383804436976134644e+00 5.198225664411514799e+02
1.383904458980975694e+00 5.198230432434161230e+02
1.384004480985816743e+00 5.198235900423112525e+02
1.384104502990657792e+00 5.198242068975603161e+02
1.384204524995499064e+00 5.198248938664437446e+02
1.384304547000340113e+00 5.198256510037980433e+02
1.384404569005180941e+00 5.198264783620086291e+02
1.384504591010021990e+00 5.198273759910041463e+02
1.384604613014863261e+00 5.198283439382529423e+02
1.384704635019704311e+00 5.198293822487569287e+02
1.384804657024545360e+00 5.198304909650478294e+02
1.384904679029386410e+00 5.198316701271802458e+02
1.385004701034227459e+00 5.198329197727297242e+02
1.385104723039068286e+00 5.198342399367862754e+02
1.385204745043909558e+00 5.198356306519505097e+02
1.385304767048750607e+00 5.198370919483284069e+02
1.385404789053591657e+00 5.198386238535284747e+02
1.385504811058432928e+00 5.198402263926554951e+02
1.385604833063273977e+00 5.198418995883093885e+02
1.385704855068115027e+00 5.198436434605765726e+02
1.385804877072955854e+00 5.198454580270312135e+02
1.385904899077796903e+00 5.198473433027272677e+02
1.386004921082637953e+00 5.198492993001959803e+02
1.386104943087479224e+00 5.198513260294438396e+02
1.386204965092320274e+00 5.198534234979455277e+02
1.386304987097161323e+00 5.198555917106441484e+02
1.386405009102002150e+00 5.198578306699444056e+02
1.386505031106843422e+00 5.198601403757120352e+02
1.386605053111684471e+00 5.198625208252684615e+02
1.386705075116525521e+00 5.198649720133894334e+02
1.386805097121366570e+00 5.198674939323004764e+02
1.386905119126207619e+00 5.198700865716739372e+02
1.387005141131048891e+00 5.198727499186279601e+02
1.387105163135889718e+00 5.198754839577218263e+02
1.387205185140730768e+00 5.198782886709539071e+02
1.387305207145571817e+00 5.198811640377580261e+02
1.387405229150413088e+00 5.198841100350039142e+02
1.387505251155254138e+00 5.198871266369911837e+02
1.387605273160095187e+00 5.198902138154497834e+02
1.387705295164936237e+00 5.198933715395356785e+02
1.387805317169777064e+00 5.198965997758301683e+02
1.387905339174618113e+00 5.198998984883376124e+02
1.388005361179459385e+00 5.199032676384824754e+02
1.388105383184300434e+00 5.199067071851108039e+02
1.388205405189141484e+00 5.199102170844822695e+02
1.388305427193982755e+00 5.199137972902746014e+02
1.388405449198823804e+00 5.199174477535797223e+02
1.388505471203664632e+00 5.199211684229012462e+02
1.388605493208505681e+00 5.199249592441551613e+02
1.388705515213346731e+00 5.199288201606666462e+02
1.388805537218187780e+00 5.199327511131705251e+02
1.388905559223029051e+00 5.199367520398088800e+02
1.389005581227870101e+00 5.199408228761312785e+02
1.389105603232711150e+00 5.199449635550931816e+02
1.389205625237551978e+00 5.199491740070549213e+02
1.389305647242393249e+00 5.199534541597816997e+02
1.389405669247234298e+00 5.199578039384425665e+02
1.389505691252075348e+00 5.199622232656101914e+02
1.389605713256916397e+00 5.199667120612609779e+02
1.389705735261757447e+00 5.199712702427729027e+02
1.389805757266598718e+00 5.199758977249274494e+02
1.389905779271439545e+00 5.199805944199084706e+02
1.390005801276280595e+00 5.199853602373028707e+02
1.390105823281121644e+00 5.199901950840989002e+02
1.390205845285962916e+00 5.199950988646892256e+02
1.390305867290803965e+00 5.200000714808686553e+02
1.390405889295645014e+00 5.200051128318362998e+02
1.390505911300486064e+00 5.200102228141943215e+02
1.390605933305326891e+00 5.200154013219511171e+02
1.390705955310167941e+00 5.200206482465184763e+02
1.390805977315009212e+00 5.200259634767160151e+02
1.390905999319850261e+00 5.200313468987695842e+02
1.391006021324691311e+00 5.200367983963128609e+02
1.391106043329532582e+00 5.200423178503900772e+02
1.391206065334373632e+00 5.200479051394539738e+02
1.391306087339214459e+00 5.200535601393695515e+02
1.391406109344055508e+00 5.200592827234152082e+02
1.391506131348896558e+00 5.200650727622834211e+02
1.391606153353737607e+00 5.200709301240824516e+02
1.391706175358578879e+00 5.200768546743395291e+02
1.391806197363419928e+00 5.200828462759991453e+02
1.391906219368260977e+00 5.200889047894295345e+02
1.392006241373101805e+00 5.200950300724205135e+02
1.392106263377943076e+00 5.201012219801889387e+02
1.392206285382784126e+00 5.201074803653780236e+02
1.392306307387625175e+00 5.201138050780615458e+02
1.392406329392466224e+00 5.201201959657452107e+02
1.392506351397307274e+00 5.201266528733691530e+02
1.392606373402148545e+00 5.201331756433116880e+02
1.392706395406989373e+00 5.201397641153910172e+02
1.392806417411830422e+00 5.201464181268672746e+02
1.392906439416671471e+00 5.201531375124470742e+02
1.393006461421512743e+00 5.201599221042852150e+02
1.393106483426353792e+00 5.201667717319879785e+02
1.393206505431194842e+00 5.201736862226174480e+02
1.393306527436035891e+00 5.201806654006920780e+02
1.393406549440876718e+00 5.201877090881939694e+02
1.393506571445717768e+00 5.201948171045681875e+02
1.393606593450559039e+00 5.202019892667298109e+02
1.393706615455400089e+00 5.202092253890642723e+02
1.393806637460241138e+00 5.202165252834350895e+02
1.393906659465082409e+00 5.202238887591839784e+02
1.394006681469923459e+00 5.202313156231373341e+02
1.394106703474764286e+00 5.202388056796081628e+02
1.394206725479605335e+00 5.202463587304025623e+02
1.394306747484446385e+00 5.202539745748219957e+02
1.394406769489287434e+00 5.202616530096692031e+02
1.394506791494128706e+00 5.202693938292513849e+02
1.394606813498969755e+00 5.202771968253857722e+02
1.394706835503810805e+00 5.202850617874030377e+02
1.394806857508651632e+00 5.202929885021528662e+02
1.394906879513492903e+00 5.203009767540095254e+02
1.395006901518333953e+00 5.203090263248748215e+02
1.395106923523175002e+00 5.203171369941853754e+02
1.395206945528016051e+00 5.203253085389164880e+02
1.395306967532857101e+00 5.203335407335862328e+02
1.395406989537698372e+00 5.203418333502633004e+02
1.395507011542539200e+00 5.203501861585718871e+02
1.395607033547380249e+00 5.203585989256944231e+02
1.395707055552221298e+00 5.203670714163821458e+02
1.395807077557062570e+00 5.203756033929545310e+02
1.395907099561903619e+00 5.203841946153117988e+02
1.396007121566744669e+00 5.203928448409358225e+02
1.396107143571585718e+00 5.204015538248979738e+02
1.396207165576426545e+00 5.204103213198657159e+02
1.396307187581267595e+00 5.204191470761085156e+02
1.396407209586108866e+00 5.204280308415022773e+02
1.396507231590949916e+00 5.204369723615385510e+02
1.396607253595790965e+00 5.204459713793303308e+02
1.396707275600632236e+00 5.204550276356166023e+02
1.396807297605473286e+00 5.204641408687708690e+02
1.396907319610314113e+00 5.204733108148088832e+02
1.397007341615155163e+00 5.204825372073921699e+02
1.397107363619996212e+00 5.204918197778376907e+02
1.397207385624837261e+00 5.205011582551255742e+02
1.397307407629678533e+00 5.205105523659034361e+02
1.397407429634519582e+00 5.205200018344946784e+02
1.397507451639360632e+00 5.205295063829073570e+02
1.397607473644201459e+00 5.205390657308400932e+02
1.397707495649042730e+00 5.205486795956899186e+02
1.397807517653883780e+00 5.205583476925598916e+02
1.397907539658724829e+00 5.205680697342667145e+02
1.398007561663565879e+00 5.205778454313489192e+02
1.398107583668406928e+00 5.205876744920752799e+02
1.398207605673248199e+00 5.205975566224503837e+02
1.398307627678089027e+00 5.206074915262255445e+02
1.398407649682930076e+00 5.206174789049053970e+02
1.398507671687771126e+00 5.206275184577573327e+02
1.398607693692612397e+00 5.206376098818182072e+02
1.398707715697453446e+00 5.206477528719042311e+02
1.398807737702294496e+00 5.206579471206181324e+02
1.398907759707135545e+00 5.206681923183600702e+02
1.399007781711976373e+00 5.206784881533337739e+02
1.399107803716817422e+00 5.206888343115565476e+02
1.399207825721658693e+00 5.206992304768685926e+02
1.399307847726499743e+00 5.207096763309416474e+02
1.399407869731340792e+00 5.207201715532867183e+02
1.399507891736182064e+00 5.207307158212661307e+02
1.399607913741023113e+00 5.207413088101002359e+02
1.399707935745863940e+00 5.207519501928777572e+02
1.399807957750704990e+00 5.207626396405649984e+02
1.399907979755546039e+00 5.207733768220160755e+02
1.400008001760387089e+00 5.207841614039805336e+02
1.400108023765228360e+00 5.207949930511167622e+02
1.400208045770069409e+00 5.208058714259974522e+02
1.400308067774910459e+00 5.208167961891225559e+02
1.400408089779751286e+00 5.208277669989277001e+02
1.400508111784592558e+00 5.208387835117948725e+02
1.400608133789433607e+00 5.208498453820627674e+02
1.400708155794274656e+00 5.208609522620363350e+02
1.400808177799115706e+00 5.208721038019975822e+02
1.400908199803956755e+00 5.208832996502150081e+02
1.401008221808798027e+00 5.208945394529566784e+02
1.401108243813638854e+00 5.209058228544962503e+02
1.401208265818479903e+00 5.209171494971294578e+02
1.401308287823320953e+00 5.209285190211799090e+02
1.401408309828162224e+00 5.209399310650115922e+02
1.401508331833003274e+00 5.209513852650403578e+02
1.401608353837844323e+00 5.209628812557443780e+02
1.401708375842685372e+00 5.209744186696757424e+02
1.401808397847526200e+00 5.209859971374701217e+02
1.401908419852367249e+00 5.209976162878600690e+02
1.402008441857208521e+00 5.210092757476838869e+02
1.402108463862049570e+00 5.210209751419004078e+02
1.402208485866890619e+00 5.210327140935966099e+02
1.402308507871731891e+00 5.210444922240020560e+02
1.402408529876572940e+00 5.210563091524982156e+02
1.402508551881413768e+00 5.210681644966331305e+02
1.402608573886254817e+00 5.210800578721309648e+02
1.402708595891095866e+00 5.210919888929032595e+02
1.402808617895936916e+00 5.211039571710635983e+02
1.402908639900778187e+00 5.211159623169365886e+02
1.403008661905619237e+00 5.211280039390730963e+02
1.403108683910460286e+00 5.211400816442592259e+02
1.403208705915301113e+00 5.211521950375314418e+02
1.403308727920142385e+00 5.211643437221858903e+02
1.403408749924983434e+00 5.211765272997947704e+02
1.403508771929824483e+00 5.211887453702139510e+02
1.403608793934665533e+00 5.212009975316004784e+02
1.403708815939506582e+00 5.212132833804217853e+02
1.403808837944347410e+00 5.212256025114693330e+02
1.403908859949188681e+00 5.212379545178720264e+02
1.404008881954029730e+00 5.212503389911076965e+02
1.404108903958870780e+00 5.212627555210178798e+02
1.404208925963712051e+00 5.212752036958206645e+02
1.404308947968553101e+00 5.212876831021203543e+02
1.404408969973394150e+00 5.213001933249250897e+02
1.404508991978234977e+00 5.213127339476583302e+02
1.404609013983076027e+00 5.213253045521712465e+02
1.404709035987917076e+00 5.213379047187573860e+02
1.404809057992758348e+00 5.213505340261658603e+02
1.404909079997599397e+00 5.213631920516127138e+02
1.405009102002440446e+00 5.213758783707992279e+02
1.405109124007281718e+00 5.213885925579203331e+02
1.405209146012122545e+00 5.214013341856820034e+02
1.405309168016963595e+00 5.214141028253134209e+02
1.405409190021804644e+00 5.214268980465806180e+02
1.405509212026645693e+00 5.214397194178012569e+02
1.405609234031486743e+00 5.214525665058586128e+02
1.405709256036328014e+00 5.214654388762147619e+02
1.405809278041169064e+00 5.214783360929249056e+02
1.405909300046009891e+00 5.214912577186521503e+02
1.406009322050850940e+00 5.215042033146819449e+02
1.406109344055692212e+00 5.215171724409351555e+02
1.406209366060533261e+00 5.215301646559831852e+02
1.406309388065374311e+00 5.215431795170628675e+02
1.406409410070215360e+00 5.215562165800893126e+02
1.406509432075056409e+00 5.215692753996723923e+02
1.406609454079897237e+00 5.215823555291317462e+02
1.406709476084738508e+00 5.215954565205081508e+02
1.406809498089579558e+00 5.216085779245812546e+02
1.406909520094420607e+00 5.216217192908837887e+02
1.407009542099261878e+00 5.216348801677157780e+02
1.407109564104102928e+00 5.216480601021605708e+02
1.407209586108943977e+00 5.216612586400977989e+02
1.407309608113784805e+00 5.216744753262209997e+02
1.407409630118625854e+00 5.216877097040500075e+02
1.407509652123466903e+00 5.217009613159501669e+02
1.407609674128308175e+00 5.217142297031408589e+02
1.407709696133149224e+00 5.217275144057186935e+02
1.407809718137990274e+00 5.217408149626662635e+02
1.407909740142831545e+00 5.217541309118719255e+02
1.408009762147672372e+00 5.217674617901425336e+02
1.408109784152513422e+00 5.217808071332207192e+02
1.408209806157354471e+00 5.217941664757983062e+02
1.408309828162195521e+00 5.218075393515340465e+02
1.408409850167036570e+00 5.218209252930683988e+02
1.408509872171877841e+00 5.218343238320394448e+02
1.408609894176718891e+00 5.218477344990981237e+02
1.408709916181559718e+00 5.218611568239248300e+02
1.408809938186400768e+00 5.218745903352430560e+02
1.408909960191242039e+00 5.218880345608395146e+02
1.409009982196083088e+00 5.219014890275759626e+02
1.409110004200924138e+00 5.219149532614068221e+02
1.409210026205765187e+00 5.219284267873963472e+02
1.409310048210606237e+00 5.219419091297330624e+02
1.409410070215447064e+00 5.219553998117455649e+02
1.409510092220288335e+00 5.219688983559207145e+02
1.409610114225129385e+00 5.219824042839181857e+02
1.409710136229970434e+00 5.219959171165878615e+02
1.409810158234811706e+00 5.220094363739842720e+02
1.409910180239652755e+00 5.220229615753856933e+02
1.410010202244493804e+00 5.220364922393088136e+02
1.410110224249334632e+00 5.220500278835247627e+02
1.410210246254175681e+00 5.220635680250768473e+02
1.410310268259016730e+00 5.220771121802974903e+02
1.410410290263858002e+00 5.220906598648218733e+02
1.410510312268699051e+00 5.221042105936087410e+02
1.410610334273540101e+00 5.221177638809529071e+02
1.410710356278381372e+00 5.221313192405059453e+02
1.410810378283222200e+00 5.221448761852896041e+02
1.410910400288063249e+00 5.221584342277142241e+02
1.411010422292904298e+00 5.221719928795948817e+02
1.411110444297745348e+00 5.221855516521698064e+02
1.411210466302586397e+00 5.221991100561149324e+02
1.411310488307427669e+00 5.222126676015619751e+02
1.411410510312268718e+00 5.222262237981161661e+02
1.411510532317109545e+00 5.222397781548709190e+02
1.411610554321950595e+00 5.222533301804292023e+02
1.411710576326791866e+00 5.222668793829141123e+02
1.411810598331632916e+00 5.222804252699925200e+02
1.411910620336473965e+00 5.222939673488879180e+02
1.412010642341315014e+00 5.223075051263996329e+02
1.412110664346156064e+00 5.223210381089181737e+02
1.412210686350996891e+00 5.223345658024456952e+02
1.412310708355838162e+00 5.223480877126091855e+02
1.412410730360679212e+00 5.223616033446803613e+02
1.412510752365520261e+00 5.223751122035928347e+02
1.412610774370361533e+00 5.223886137939584842e+02
1.412710796375202582e+00 5.224021076200851894e+02
1.412810818380043631e+00 5.224155931859944531e+02
1.412910840384884459e+00 5.224290699954392494e+02
1.413010862389725508e+00 5.224425375519199406e+02
1.413110884394566558e+00 5.224559953587033760e+02
1.413210906399407829e+00 5.224694429188389222e+02
1.413310928404248878e+00 5.224828797351777894e+02
1.413410950409089928e+00 5.224963053103887205e+02
1.413510972413931199e+00 5.225097191469760673e+02
1.413610994418772027e+00 5.225231207473000268e+02
1.413711016423613076e+00 5.225365096135883505e+02
1.413811038428454125e+00 5.225498852479597645e+02
1.413911060433295175e+00 5.225632471524388620e+02
1.414011082438136224e+00 5.225765948289736116e+02
1.414111104442977496e+00 5.225899277794560476e+02
1.414211126447818545e+00 5.226032455057328434e+02
1.414311148452659372e+00 5.226165475096327100e+02
1.414411170457500422e+00 5.226298332929764001e+02
1.414511192462341693e+00 5.226431023575976269e+02
1.414611214467182743e+00 5.226563542053613673e+02
1.414711236472023792e+00 5.226695883381795511e+02
1.414811258476864841e+00 5.226828042580309557e+02
1.414911280481705891e+00 5.226960014669772363e+02
1.415011302486546718e+00 5.227091794671815705e+02
1.415111324491387990e+00 5.227223377609279851e+02
1.415211346496229039e+00 5.227354758506349981e+02
1.415311368501070088e+00 5.227485932388782430e+02
1.415411390505911360e+00 5.227616894284061573e+02
1.415511412510752409e+00 5.227747639221568079e+02
1.415611434515593459e+00 5.227878162232780141e+02
1.415711456520434286e+00 5.228008458351430363e+02
1.415811478525275335e+00 5.228138522613701298e+02
1.415911500530116385e+00 5.228268350058408487e+02
1.416011522534957656e+00 5.228397935727149388e+02
1.416111544539798706e+00 5.228527274664514835e+02
1.416211566544639755e+00 5.228656361918257289e+02
1.416311588549481026e+00 5.228785192539464788e+02
1.416411610554321854e+00 5.228913761582748521e+02
1.416511632559162903e+00 5.229042064106412226e+02
1.416611654564003953e+00 5.229170095172645460e+02
1.416711676568845002e+00 5.229297849847682755e+02
1.416811698573686051e+00 5.229425323202007121e+02
1.416911720578527323e+00 5.229552510310514890e+02
1.417011742583368372e+00 5.229679406252683975e+02
1.417111764588209200e+00 5.229806006112785326e+02
1.417211786593050249e+00 5.229932304980034132e+02
1.417311808597891520e+00 5.230058297948776271e+02
1.417411830602732570e+00 5.230183980118681575e+02
1.417511852607573619e+00 5.230309346594896169e+02
1.417611874612414669e+00 5.230434392488242565e+02
1.417711896617255718e+00 5.230559112915395872e+02
1.417811918622096545e+00 5.230683502999063421e+02
1.417911940626937817e+00 5.230807557868141657e+02
1.418011962631778866e+00 5.230931272657940099e+02
1.418111984636619916e+00 5.231054642510312078e+02
1.418212006641461187e+00 5.231177662573867337e+02
1.418312028646302236e+00 5.231300328004136873e+02
1.418412050651143286e+00 5.231422633963746875e+02
1.418512072655984113e+00 5.231544575622606317e+02
1.418612094660825163e+00 5.231666148158093392e+02
1.418712116665666212e+00 5.231787346755206727e+02
1.418812138670507483e+00 5.231908166606766599e+02
1.418912160675348533e+00 5.232028602913591158e+02
1.419012182680189582e+00 5.232148650884657854e+02
1.419112204685030854e+00 5.232268305737306946e+02
1.419212226689871681e+00 5.232387562697396106e+02
1.419312248694712730e+00 5.232506416999478915e+02
1.419412270699553780e+00 5.232624863887009496e+02
1.419512292704394829e+00 5.232742898612483486e+02
1.419612314709235878e+00 5.232860516437638125e+02
1.419712336714077150e+00 5.232977712633620513e+02
1.419812358718918199e+00 5.233094482481158138e+02
1.419912380723759027e+00 5.233210821270757833e+02
1.420012402728600076e+00 5.233326724302862658e+02
1.420112424733441348e+00 5.233442186888019023e+02
1.420212446738282397e+00 5.233557204347084735e+02
1.420312468743123446e+00 5.233671772011366556e+02
1.420412490747964496e+00 5.233785885222828256e+02
1.420512512752805545e+00 5.233899539334249766e+02
1.420612534757646372e+00 5.234012729709394307e+02
1.420712556762487644e+00 5.234125451723203923e+02
1.420812578767328693e+00 5.234237700761955239e+02
1.420912600772169743e+00 5.234349472223439079e+02
1.421012622777011014e+00 5.234460761517144647e+02
1.421112644781852064e+00 5.234571564064415270e+02
1.421212666786692891e+00 5.234681875298629166e+02
1.421312688791533940e+00 5.234791690665388160e+02
1.421412710796374990e+00 5.234901005622659795e+02
1.421512732801216039e+00 5.235009815640968327e+02
1.421612754806057310e+00 5.235118116203561840e+02
1.421712776810898360e+00 5.235225902806607792e+02
1.421812798815739409e+00 5.235333170959307836e+02
1.421912820820580237e+00 5.235439916184133153e+02
1.422012842825421508e+00 5.235546134016941551e+02
1.422112864830262557e+00 5.235651820007199149e+02
1.422212886835103607e+00 5.235756969718099754e+02
1.422312908839944656e+00 5.235861578726766083e+02
1.422412930844785706e+00 5.235965642624419161e+02
1.422512952849626977e+00 5.236069157016520421e+02
1.422612974854467804e+00 5.236172117522978624e+02
1.422712996859308854e+00 5.236274519778288550e+02
1.422813018864149903e+00 5.236376359431710625e+02
1.422913040868991175e+00 5.236477632147431223e+02
1.423013062873832224e+00 5.236578333604747968e+02
1.423113084878673273e+00 5.236678459498206166e+02
1.423213106883514323e+00 5.236778005537797753e+02
1.423313128888355150e+00 5.236876967449102267e+02
1.423413150893196200e+00 5.236975340973464199e+02
1.423513172898037471e+00 5.237073121868156704e+02
1.423613194902878520e+00 5.237170305906540761e+02
1.423713216907719570e+00 5.237266888878234568e+02
1.423813238912560841e+00 5.237362866589278383e+02
1.423913260917401891e+00 5.237458234862288009e+02
1.424013282922242718e+00 5.237552989536642372e+02
1.424113304927083767e+00 5.237647126468600618e+02
1.424213326931924817e+00 5.237740641531514711e+02
1.424313348936765866e+00 5.237833530615951076e+02
1.424413370941607138e+00 5.237925789629879318e+02
1.424513392946448187e+00 5.238017414498813196e+02
1.424613414951289236e+00 5.238108401165978876e+02
1.424713436956130064e+00 5.238198745592474097e+02
1.424813458960971335e+00 5.238288443757433015e+02
1.424913480965812385e+00 5.238377491658164899e+02
1.425013502970653434e+00 5.238465885310334897e+02
1.425113524975494483e+00 5.238553620748101594e+02
1.425213546980335533e+00 5.238640694024292088e+02
1.425313568985176804e+00 5.238727101210549790e+02
1.425413590990017632e+00 5.238812838397473115e+02
1.425513612994858681e+00 5.238897901694807615e+02
1.425613634999699730e+00 5.238982287231568762e+02
1.425713657004541002e+00 5.239065991156209066e+02
1.425813679009382051e+00 5.239149009636767005e+02
1.425913701014223101e+00 5.239231338861017093e+02
1.426013723019064150e+00 5.239312975036647231e+02
1.426113745023904977e+00 5.239393914391368980e+02
1.426213767028746027e+00 5.239474153173092645e+02
1.426313789033587298e+00 5.239553687650083020e+02
1.426413811038428348e+00 5.239632514111088994e+02
1.426513833043269397e+00 5.239710628865520903e+02
1.426613855048110668e+00 5.239788028243565350e+02
1.426713877052951718e+00 5.239864708596367109e+02
1.426813899057792545e+00 5.239940666296145082e+02
1.426913921062633595e+00 5.240015897736359420e+02
1.427013943067474644e+00 5.240090399331851359e+02
1.427113965072315693e+00 5.240164167518992144e+02
1.427213987077156965e+00 5.240237198755822874e+02
1.427314009081998014e+00 5.240309489522201147e+02
1.427414031086839064e+00 5.240381036319938630e+02
1.427514053091679891e+00 5.240451835672957941e+02
1.427614075096521162e+00 5.240521884127419980e+02
1.427714097101362212e+00 5.240591178251869451e+02
1.427814119106203261e+00 5.240659714637382649e+02
1.427914141111044311e+00 5.240727489897693658e+02
1.428014163115885360e+00 5.240794500669356921e+02
1.428114185120726631e+00 5.240860743611860926e+02
1.428214207125567459e+00 5.240926215407768041e+02
1.428314229130408508e+00 5.240990912762878224e+02
1.428414251135249557e+00 5.241054832406330206e+02
1.428514273140090829e+00 5.241117971090761785e+02
1.428614295144931878e+00 5.241180325592449663e+02
1.428714317149772928e+00 5.241241892711407218e+02
1.428814339154613977e+00 5.241302669271555033e+02
1.428914361159454804e+00 5.241362652120841403e+02
1.429014383164295854e+00 5.241421838131371942e+02
1.429114405169137125e+00 5.241480224199535769e+02
1.429214427173978175e+00 5.241537807246162401e+02
1.429314449178819224e+00 5.241594584216608155e+02
1.429414471183660496e+00 5.241650552080925536e+02
1.429514493188501545e+00 5.241705707833972383e+02
1.429614515193342372e+00 5.241760048495526689e+02
1.429714537198183422e+00 5.241813571110457133e+02
1.429814559203024471e+00 5.241866272748787878e+02
1.429914581207865520e+00 5.241918150505885023e+02
1.430014603212706792e+00 5.241969201502531632e+02
1.430114625217547841e+00 5.242019422885078939e+02
1.430214647222388891e+00 5.242068811825558896e+02
1.430314669227229718e+00 5.242117365521810370e+02
1.430414691232070989e+00 5.242165081197606469e+02
1.430514713236912039e+00 5.242211956102742079e+02
1.430614735241753088e+00 5.242257987513202124e+02
1.430714757246594138e+00 5.242303172731246832e+02
1.430814779251435187e+00 5.242347509085535648e+02
1.430914801256276458e+00 5.242390993931243202e+02
1.431014823261117286e+00 5.242433624650193451e+02
1.431114845265958335e+00 5.242475398650941543e+02
1.431214867270799385e+00 5.242516313368913643e+02
1.431314889275640656e+00 5.242556366266511532e+02
1.431414911280481705e+00 5.242595554833242204e+02
1.431514933285322755e+00 5.242633876585778125e+02
1.431614955290163804e+00 5.242671329068139130e+02
1.431714977295004632e+00 5.242707909851746990e+02
1.431814999299845681e+00 5.242743616535558431e+02
1.431915021304686952e+00 5.242778446746169720e+02
1.432015043309528002e+00 5.242812398137924674e+02
1.432115065314369051e+00 5.242845468393018109e+02
1.432215087319210323e+00 5.242877655221597024e+02
1.432315109324051372e+00 5.242908956361876562e+02
1.432415131328892199e+00 5.242939369580232096e+02
1.432515153333733249e+00 5.242968892671314052e+02
1.432615175338574298e+00 5.242997523458133173e+02
1.432715197343415348e+00 5.243025259792181032e+02
1.432815219348256619e+00 5.243052099553508469e+02
1.432915241353097668e+00 5.243078040650844969e+02
1.433015263357938718e+00 5.243103081021681646e+02
1.433115285362779545e+00 5.243127218632373570e+02
1.433215307367620817e+00 5.243150451478238665e+02
1.433315329372461866e+00 5.243172777583648667e+02
1.433415351377302915e+00 5.243194195002128026e+02
1.433515373382143965e+00 5.243214701816433490e+02
1.433615395386985014e+00 5.243234296138668924e+02
1.433715417391826286e+00 5.243252976110356940e+02
1.433815439396667113e+00 5.243270739902540072e+02
1.433915461401508162e+00 5.243287585715863770e+02
1.434015483406349212e+00 5.243303511780665076e+02
1.434115505411190483e+00 5.243318516357068120e+02
1.434215527416031533e+00 5.243332597735069385e+02
1.434315549420872582e+00 5.243345754234594551e+02
1.434415571425713631e+00 5.243357984205637194e+02
1.434515593430554459e+00 5.243369286028292890e+02
1.434615615435395508e+00 5.243379658112863808e+02
1.434715637440236780e+00 5.243389098899939427e+02
1.434815659445077829e+00 5.243397606860471569e+02
1.434915681449918878e+00 5.243405180495853983e+02
1.435015703454760150e+00 5.243411818338011017e+02
1.435115725459601199e+00 5.243417518949459009e+02
1.435215747464442027e+00 5.243422280923390417e+02
1.435315769469283076e+00 5.243426102883755675e+02
1.435415791474124125e+00 5.243428983485317758e+02
1.435515813478965175e+00 5.243430921413757915e+02
1.435615835483806446e+00 5.243431915385707498e+02
1.435715857488647496e+00 5.243431964148855968e+02
1.435815879493488545e+00 5.243431066481991820e+02
1.435915901498329372e+00 5.243429221195099217e+02
1.436015923503170644e+00 5.243426427129396643e+02
1.436115945508011693e+00 5.243422683157423307e+02
1.436215967512852743e+00 5.243417988183106218e+02
1.436315989517693792e+00 5.243412341141811339e+02
1.436416011522534841e+00 5.243405741000418629e+02
1.436516033527376113e+00 5.243398186757381154e+02
1.436616055532216940e+00 5.243389677442785342e+02
1.436716077537057989e+00 5.243380212118412373e+02
1.436816099541899039e+00 5.243369789877798439e+02
1.436916121546740310e+00 5.243358409846294990e+02
1.437016143551581360e+00 5.243346071181125581e+02
1.437116165556422409e+00 5.243332773071426800e+02
1.437216187561263459e+00 5.243318514738336944e+02
1.437316209566104286e+00 5.243303295435017617e+02
1.437416231570945335e+00 5.243287114446720807e+02
1.437516253575786607e+00 5.243269971090836634e+02
1.437616275580627656e+00 5.243251864716963837e+02
1.437716297585468705e+00 5.243232794706909772e+02
1.437816319590309977e+00 5.243212760474807510e+02
1.437916341595151026e+00 5.243191761467103333e+02
1.438016363599991854e+00 5.243169797162635177e+02
1.438116385604832903e+00 5.243146867072670148e+02
1.438216407609673952e+00 5.243122970740952269e+02
1.438316429614515002e+00 5.243098107743730907e+02
1.438416451619356273e+00 5.243072277689825569e+02
1.438516473624197323e+00 5.243045480220642958e+02
1.438616495629038150e+00 5.243017715010249731e+02
1.438716517633879199e+00 5.242988981765361132e+02
1.438816539638720471e+00 5.242959280225427392e+02
1.438916561643561520e+00 5.242928610162647374e+02
1.439016583648402570e+00 5.242896971382006086e+02
1.439116605653243619e+00 5.242864363721299696e+02
1.439216627658084668e+00 5.242830787051194648e+02
1.439316649662925496e+00 5.242796241275225384e+02
1.439416671667766767e+00 5.242760726329860290e+02
1.439516693672607817e+00 5.242724242184498280e+02
1.439616715677448866e+00 5.242686788841526777e+02
1.439716737682290137e+00 5.242648366336325125e+02
1.439816759687131187e+00 5.242608974737295284e+02
1.439916781691972236e+00 5.242568614145918673e+02
1.440016803696813064e+00 5.242527284696717516e+02
