1.800096021124647283e+00 5.177170473257856429e+02
1.800196043129488332e+00 5.177230833323868637e+02
1.800296065134329382e+00 5.177290873394466644e+02
1.800396087139170653e+00 5.177350589879874860e+02
1.800496109144011703e+00 5.177409979203389412e+02
1.800596131148852752e+00 5.177469037801516833e+02
1.800696153153693579e+00 5.177527762124078663e+02
1.800796175158534629e+00 5.177586148634391066e+02
1.800896197163375678e+00 5.177644193809385342e+02
1.800996219168216950e+00 5.177701894139760270e+02
1.801096241173057999e+00 5.177759246130104884e+02
1.801196263177899048e+00 5.177816246299043996e+02
1.801296285182740320e+00 5.177872891179393946e+02
1.801396307187581147e+00 5.177929177318244456e+02
1.801496329192422197e+00 5.177985101277183730e+02
1.801596351197263246e+00 5.178040659632334837e+02
1.801696373202104295e+00 5.178095848974573983e+02
1.801796395206945345e+00 5.178150665909616919e+02
1.801896417211786616e+00 5.178205107058171279e+02
1.801996439216627666e+00 5.178259169056066185e+02
1.802096461221468493e+00 5.178312848554390939e+02
1.802196483226309542e+00 5.178366142219615540e+02
1.802296505231150814e+00 5.178419046733727100e+02
1.802396527235991863e+00 5.178471558794379916e+02
1.802496549240832913e+00 5.178523675114990965e+02
1.802596571245673962e+00 5.178575392424897927e+02
1.802696593250515011e+00 5.178626707469483108e+02
1.802796615255355839e+00 5.178677617010288259e+02
1.802896637260197110e+00 5.178728117825164645e+02
1.802996659265038160e+00 5.178778206708377638e+02
1.803096681269879209e+00 5.178827880470757918e+02
1.803196703274720480e+00 5.178877135939806067e+02
1.803296725279561530e+00 5.178925969959828990e+02
1.803396747284402579e+00 5.178974379392055880e+02
1.803496769289243407e+00 5.179022361114779187e+02
1.803596791294084456e+00 5.179069912023469442e+02
1.803696813298925505e+00 5.179117029030890080e+02
1.803796835303766777e+00 5.179163709067228183e+02
1.803896857308607826e+00 5.179209949080213846e+02
1.803996879313448876e+00 5.179255746035244101e+02
1.804096901318290147e+00 5.179301096915497737e+02
1.804196923323130974e+00 5.179345998722062632e+02
1.804296945327972024e+00 5.179390448474042614e+02
1.804396967332813073e+00 5.179434443208677976e+02
1.804496989337654123e+00 5.179477979981480757e+02
1.804597011342495172e+00 5.179521055866335928e+02
1.804697033347336443e+00 5.179563667955602568e+02
1.804797055352177271e+00 5.179605813360267348e+02
1.804897077357018320e+00 5.179647489210013873e+02
1.804997099361859370e+00 5.179688692653379576e+02
1.805097121366700641e+00 5.179729420857836431e+02
1.805197143371541690e+00 5.179769671009923968e+02
1.805297165376382740e+00 5.179809440315337952e+02
1.805397187381223789e+00 5.179848725999070211e+02
1.805497209386064617e+00 5.179887525305492773e+02
1.805597231390905666e+00 5.179925835498490869e+02
1.805697253395746937e+00 5.179963653861537978e+02
1.805797275400587987e+00 5.180000977697836788e+02
1.805897297405429036e+00 5.180037804330409017e+02
1.805997319410270308e+00 5.180074131102212505e+02
1.806097341415111357e+00 5.180109955376232165e+02
1.806197363419952184e+00 5.180145274535582303e+02
1.806297385424793234e+00 5.180180085983636218e+02
1.806397407429634283e+00 5.180214387144105785e+02
1.806497429434475332e+00 5.180248175461150595e+02
1.806597451439316604e+00 5.180281448399477995e+02
1.806697473444157653e+00 5.180314203444436316e+02
1.806797495448998703e+00 5.180346438102141065e+02
1.806897517453839530e+00 5.180378149899532900e+02
1.806997539458680802e+00 5.180409336384514063e+02
1.807097561463521851e+00 5.180439995126030226e+02
1.807197583468362900e+00 5.180470123714152351e+02
1.807297605473203950e+00 5.180499719760197195e+02
1.807397627478044999e+00 5.180528780896806893e+02
1.807497649482886271e+00 5.180557304778047865e+02
1.807597671487727098e+00 5.180585289079506310e+02
1.807697693492568147e+00 5.180612731498364383e+02
1.807797715497409197e+00 5.180639629753517283e+02
1.807897737502250468e+00 5.180665981585643749e+02
1.807997759507091518e+00 5.180691784757297000e+02
1.808097781511932567e+00 5.180717037053017293e+02
1.808197803516773616e+00 5.180741736279378529e+02
1.808297825521614444e+00 5.180765880265112173e+02
1.808397847526455493e+00 5.180789466861176606e+02
1.808497869531296764e+00 5.180812493940840113e+02
1.808597891536137814e+00 5.180834959399772970e+02
1.808697913540978863e+00 5.180856861156125888e+02
1.808797935545820135e+00 5.180878197150618689e+02
1.808897957550661184e+00 5.180898965346618752e+02
1.808997979555502011e+00 5.180919163730209220e+02
1.809098001560343061e+00 5.180938790310300419e+02
1.809198023565184110e+00 5.180957843118674191e+02
1.809298045570025160e+00 5.180976320210079393e+02
1.809398067574866431e+00 5.180994219662308069e+02
1.809498089579707480e+00 5.181011539576270479e+02
1.809598111584548530e+00 5.181028278076078095e+02
1.809698133589389357e+00 5.181044433309094757e+02
1.809798155594230629e+00 5.181060003446037854e+02
1.809898177599071678e+00 5.181074986681029486e+02
1.809998199603912727e+00 5.181089381231689686e+02
1.810098221608753777e+00 5.181103185339190986e+02
1.810198243613594826e+00 5.181116397268325500e+02
1.810298265618436098e+00 5.181129015307589043e+02
1.810398287623276925e+00 5.181141037769235709e+02
1.810498309628117974e+00 5.181152462989351761e+02
1.810598331632959024e+00 5.181163289327924986e+02
1.810698353637800295e+00 5.181173515168896984e+02
1.810798375642641345e+00 5.181183138920238207e+02
1.810898397647482394e+00 5.181192159014008212e+02
1.810998419652323443e+00 5.181200573906426143e+02
1.811098441657164271e+00 5.181208382077912802e+02
1.811198463662005320e+00 5.181215582033163400e+02
1.811298485666846592e+00 5.181222172301219189e+02
1.811398507671687641e+00 5.181228151435495874e+02
1.811498529676528690e+00 5.181233518013866615e+02
1.811598551681369962e+00 5.181238270638714312e+02
1.811698573686211011e+00 5.181242407936963446e+02
1.811798595691051839e+00 5.181245928560186940e+02
1.811898617695892888e+00 5.181248831184595929e+02
1.811998639700733937e+00 5.181251114511143214e+02
1.812098661705574987e+00 5.181252777265550549e+02
1.812198683710416258e+00 5.181253818198356385e+02
1.812298705715257308e+00 5.181254236084978402e+02
1.812398727720098357e+00 5.181254029725764667e+02
1.812498749724939184e+00 5.181253197946024329e+02
1.812598771729780456e+00 5.181251739596092420e+02
1.812698793734621505e+00 5.181249653551356005e+02
1.812798815739462555e+00 5.181246938712324663e+02
1.812898837744303604e+00 5.181243594004649822e+02
1.812998859749144653e+00 5.181239618379178182e+02
1.813098881753985925e+00 5.181235010812007431e+02
1.813198903758826752e+00 5.181229770304491922e+02
1.813298925763667802e+00 5.181223895883312025e+02
1.813398947768508851e+00 5.181217386600517329e+02
1.813498969773350122e+00 5.181210241533526641e+02
1.813598991778191172e+00 5.181202459785216661e+02
1.813699013783032221e+00 5.181194040483912886e+02
1.813799035787873271e+00 5.181184982783441910e+02
1.813899057792714098e+00 5.181175285863181443e+02
1.813999079797555147e+00 5.181164948928067133e+02
1.814099101802396419e+00 5.181153971208632356e+02
1.814199123807237468e+00 5.181142351961048007e+02
1.814299145812078518e+00 5.181130090467139553e+02
1.814399167816919789e+00 5.181117186034426823e+02
1.814499189821760838e+00 5.181103637996147881e+02
1.814599211826601666e+00 5.181089445711289727e+02
1.814699233831442715e+00 5.181074608564588289e+02
1.814799255836283765e+00 5.181059125966602323e+02
1.814899277841124814e+00 5.181042997353688406e+02
1.814999299845966085e+00 5.181026222188044130e+02
1.815099321850807135e+00 5.181008799957744486e+02
1.815199343855648184e+00 5.180990730176747547e+02
1.815299365860489011e+00 5.180972012384886511e+02
1.815399387865330283e+00 5.180952646147952692e+02
1.815499409870171332e+00 5.180932631057646631e+02
1.815599431875012382e+00 5.180911966731648590e+02
1.815699453879853431e+00 5.180890652813590123e+02
1.815799475884694480e+00 5.180868688973100689e+02
1.815899497889535752e+00 5.180846074905800833e+02
1.815999519894376579e+00 5.180822810333327197e+02
1.816099541899217629e+00 5.180798895003343887e+02
1.816199563904058678e+00 5.180774328689535650e+02
1.816299585908899950e+00 5.180749111191640850e+02
1.816399607913740999e+00 5.180723242335436680e+02
1.816499629918582048e+00 5.180696721972776686e+02
1.816599651923423098e+00 5.180669549981557793e+02
1.816699673928263925e+00 5.180641726265765783e+02
1.816799695933104974e+00 5.180613250755442323e+02
1.816899717937946246e+00 5.180584123406720209e+02
1.816999739942787295e+00 5.180554344201805179e+02
1.817099761947628345e+00 5.180523913148986139e+02
1.817199783952469616e+00 5.180492830282618115e+02
1.817299805957310666e+00 5.180461095663159767e+02
1.817399827962151493e+00 5.180428709377130190e+02
1.817499849966992542e+00 5.180395671537118005e+02
1.817599871971833592e+00 5.180361982281800692e+02
1.817699893976674641e+00 5.180327641775907068e+02
1.817799915981515912e+00 5.180292650210226384e+02
1.817899937986356962e+00 5.180257007801601503e+02
1.817999959991198011e+00 5.180220714792920944e+02
1.818099981996038839e+00 5.180183771453100690e+02
1.818200004000880110e+00 5.180146178077088734e+02
1.818300026005721159e+00 5.180107934985842348e+02
1.818400048010562209e+00 5.180069042526315570e+02
1.818500070015403258e+00 5.180029501071456934e+02
1.818600092020244308e+00 5.179989311020181049e+02
1.818700114025085579e+00 5.179948472797365184e+02
1.818800136029926406e+00 5.179906986853825401e+02
1.818900158034767456e+00 5.179864853666298359e+02
1.819000180039608505e+00 5.179822073737434494e+02
1.819100202044449777e+00 5.179778647595759367e+02
1.819200224049290826e+00 5.179734575795667979e+02
1.819300246054131875e+00 5.179689858917397487e+02
1.819400268058972925e+00 5.179644497567011285e+02
1.819500290063813752e+00 5.179598492376366039e+02
1.819600312068654802e+00 5.179551844003094629e+02
1.819700334073496073e+00 5.179504553130564091e+02
1.819800356078337122e+00 5.179456620467880157e+02
1.819900378083178172e+00 5.179408046749831556e+02
1.820000400088019443e+00 5.179358832736864997e+02
1.820100422092860493e+00 5.179308979215080626e+02
1.820200444097701320e+00 5.179258486996168358e+02
1.820300466102542369e+00 5.179207356917386278e+02
1.820400488107383419e+00 5.179155589841545861e+02
1.820500510112224468e+00 5.179103186656949447e+02
1.820600532117065740e+00 5.179050148277378867e+02
1.820700554121906789e+00 5.178996475642055657e+02
1.820800576126747838e+00 5.178942169715588761e+02
1.820900598131588666e+00 5.178887231487946110e+02
1.821000620136429937e+00 5.178831661974430745e+02
1.821100642141270987e+00 5.178775462215613743e+02
1.821200664146112036e+00 5.178718633277317167e+02
1.821300686150953085e+00 5.178661176250564040e+02
1.821400708155794135e+00 5.178603092251516955e+02
1.821500730160635406e+00 5.178544382421464434e+02
1.821600752165476234e+00 5.178485047926767493e+02
1.821700774170317283e+00 5.178425089958806211e+02
1.821800796175158332e+00 5.178364509733917203e+02
1.821900818179999604e+00 5.178303308493391341e+02
1.822000840184840653e+00 5.178241487503383951e+02
1.822100862189681703e+00 5.178179048054887517e+02
1.822200884194522530e+00 5.178115991463660066e+02
1.822300906199363579e+00 5.178052319070200156e+02
1.822400928204204629e+00 5.177988032239672975e+02
1.822500950209045900e+00 5.177923132361870557e+02
1.822600972213886950e+00 5.177857620851139018e+02
1.822700994218727999e+00 5.177791499146348997e+02
1.822801016223569270e+00 5.177724768710810395e+02
1.822901038228410098e+00 5.177657431032241675e+02
1.823001060233251147e+00 5.177589487622691422e+02
1.823101082238092197e+00 5.177520940018491729e+02
1.823201104242933246e+00 5.177451789780193394e+02
1.823301126247774295e+00 5.177382038492485208e+02
1.823401148252615567e+00 5.177311687764175758e+02
1.823501170257456616e+00 5.177240739228088842e+02
1.823601192262297443e+00 5.177169194541017987e+02
1.823701214267138493e+00 5.177097055383665065e+02
1.823801236271979764e+00 5.177024323460548203e+02
1.823901258276820814e+00 5.176951000499975635e+02
1.824001280281661863e+00 5.176877088253942247e+02
1.824101302286502913e+00 5.176802588498076148e+02
1.824201324291343962e+00 5.176727503031572724e+02
1.824301346296184789e+00 5.176651833677103696e+02
1.824401368301026061e+00 5.176575582280776189e+02
1.824501390305867110e+00 5.176498750712019046e+02
1.824601412310708159e+00 5.176421340863566911e+02
1.824701434315549431e+00 5.176343354651319260e+02
1.824801456320390480e+00 5.176264794014317658e+02
1.824901478325231530e+00 5.176185660914645723e+02
1.825001500330072357e+00 5.176105957337341579e+02
1.825101522334913406e+00 5.176025685290353522e+02
1.825201544339754456e+00 5.175944846804427470e+02
1.825301566344595727e+00 5.175863443933043300e+02
1.825401588349436777e+00 5.175781478752332987e+02
1.825501610354277826e+00 5.175698953360994210e+02
1.825601632359119098e+00 5.175615869880207356e+02
1.825701654363959925e+00 5.175532230453562761e+02
1.825801676368800974e+00 5.175448037246959530e+02
1.825901698373642024e+00 5.175363292448529364e+02
1.826001720378483073e+00 5.175277998268550164e+02
1.826101742383324122e+00 5.175192156939367578e+02
1.826201764388165394e+00 5.175105770715274502e+02
1.826301786393006443e+00 5.175018841872476969e+02
1.826401808397847271e+00 5.174931372708942945e+02
1.826501830402688320e+00 5.174843365544351173e+02
1.826601852407529591e+00 5.174754822720001357e+02
1.826701874412370641e+00 5.174665746598690248e+02
1.826801896417211690e+00 5.174576139564655932e+02
1.826901918422052740e+00 5.174486004023456189e+02
1.827001940426893789e+00 5.174395342401879816e+02
1.827101962431734616e+00 5.174304157147869319e+02
1.827201984436575888e+00 5.174212450730394721e+02
1.827302006441416937e+00 5.174120225639376258e+02
1.827402028446257987e+00 5.174027484385580919e+02
1.827502050451099258e+00 5.173934229500528090e+02
1.827602072455940307e+00 5.173840463536371317e+02
1.827702094460781357e+00 5.173746189065826684e+02
1.827802116465622184e+00 5.173651408682042074e+02
1.827902138470463234e+00 5.173556124998515315e+02
1.828002160475304283e+00 5.173460340648987312e+02
1.828102182480145554e+00 5.173364058287320404e+02
1.828202204484986604e+00 5.173267280587422192e+02
1.828302226489827653e+00 5.173170010243122761e+02
1.828402248494668925e+00 5.173072249968062124e+02
1.828502270499509752e+00 5.172974002495600416e+02
1.828602292504350801e+00 5.172875270578699656e+02
1.828702314509191851e+00 5.172776056989812332e+02
1.828802336514032900e+00 5.172676364520782499e+02
1.828902358518873950e+00 5.172576195982732088e+02
1.829002380523715221e+00 5.172475554205930166e+02
1.829102402528556270e+00 5.172374442039717906e+02
1.829202424533397098e+00 5.172272862352360789e+02
1.829302446538238147e+00 5.172170818030969031e+02
1.829402468543079419e+00 5.172068311981339548e+02
1.829502490547920468e+00 5.171965347127893438e+02
1.829602512552761517e+00 5.171861926413506581e+02
1.829702534557602567e+00 5.171758052799443703e+02
1.829802556562443616e+00 5.171653729265207176e+02
1.829902578567284444e+00 5.171548958808432417e+02
1.830002600572125715e+00 5.171443744444760569e+02
1.830102622576966764e+00 5.171338089207737312e+02
1.830202644581807814e+00 5.171231996148674170e+02
1.830302666586649085e+00 5.171125468336529138e+02
1.830402688591490135e+00 5.171018508857811184e+02
1.830502710596331184e+00 5.170911120816422226e+02
1.830602732601172011e+00 5.170803307333546854e+02
1.830702754606013061e+00 5.170695071547545467e+02
1.830802776610854110e+00 5.170586416613809888e+02
1.830902798615695382e+00 5.170477345704653089e+02
1.831002820620536431e+00 5.170367862009165947e+02
1.831102842625377480e+00 5.170257968733106964e+02
1.831202864630218752e+00 5.170147669098774941e+02
1.831302886635059579e+00 5.170036966344870279e+02
1.831402908639900629e+00 5.169925863726376747e+02
1.831502930644741678e+00 5.169814364514431873e+02
1.831602952649582727e+00 5.169702471996189388e+02
1.831702974654423777e+00 5.169590189474698718e+02
1.831802996659265048e+00 5.169477520268773105e+02
1.831903018664106098e+00 5.169364467712845226e+02
1.832003040668946925e+00 5.169251035156868284e+02
1.832103062673787974e+00 5.169137225966130700e+02
1.832203084678629246e+00 5.169023043521181080e+02
1.832303106683470295e+00 5.168908491217653136e+02
1.832403128688311345e+00 5.168793572466137221e+02
1.832503150693152394e+00 5.168678290692072324e+02
1.832603172697993443e+00 5.168562649335581227e+02
1.832703194702834271e+00 5.168446651851338629e+02
1.832803216707675542e+00 5.168330301708449497e+02
1.832903238712516591e+00 5.168213602390305823e+02
1.833003260717357641e+00 5.168096557394430874e+02
1.833103282722198912e+00 5.167979170232366641e+02
1.833203304727039962e+00 5.167861444429512403e+02
1.833303326731881011e+00 5.167743383525018999e+02
1.833403348736721838e+00 5.167624991071598970e+02
1.833503370741562888e+00 5.167506270635431065e+02
1.833603392746403937e+00 5.167387225795989707e+02
1.833703414751245209e+00 5.167267860145925624e+02
1.833803436756086258e+00 5.167148177290897593e+02
1.833903458760927307e+00 5.167028180849464434e+02
1.834003480765768579e+00 5.166907874452904252e+02
1.834103502770609406e+00 5.166787261745093929e+02
1.834203524775450456e+00 5.166666346382362462e+02
1.834303546780291505e+00 5.166545132033342043e+02
1.834403568785132554e+00 5.166423622378819118e+02
1.834503590789973604e+00 5.166301821111592290e+02
1.834603612794814875e+00 5.166179731936331336e+02
1.834703634799655925e+00 5.166057358569430562e+02
1.834803656804496752e+00 5.165934704738845085e+02
1.834903678809337801e+00 5.165811774183961234e+02
1.835003700814179073e+00 5.165688570655441936e+02
1.835103722819020122e+00 5.165565097915084607e+02
1.835203744823861172e+00 5.165441359735651758e+02
1.835303766828702221e+00 5.165317359900743668e+02
1.835403788833543270e+00 5.165193102204639217e+02
1.835503810838384098e+00 5.165068590452158332e+02
1.835603832843225369e+00 5.164943828458474400e+02
1.835703854848066419e+00 5.164818820049013084e+02
1.835803876852907468e+00 5.164693569059262472e+02
1.835903898857748739e+00 5.164568079334637787e+02
1.836003920862589789e+00 5.164442354730324496e+02
1.836103942867430838e+00 5.164316399111130522e+02
1.836203964872271666e+00 5.164190216351328218e+02
1.836303986877112715e+00 5.164063810334495201e+02
1.836404008881953764e+00 5.163937184953380211e+02
1.836504030886795036e+00 5.163810344109720063e+02
1.836604052891636085e+00 5.163683291714110055e+02
1.836704074896477135e+00 5.163556031685845937e+02
1.836804096901318406e+00 5.163428567952744288e+02
1.836904118906159233e+00 5.163300904451019733e+02
1.837004140911000283e+00 5.163173045125105318e+02
1.837104162915841332e+00 5.163044993927508131e+02
1.837204184920682382e+00 5.162916754818650134e+02
1.837304206925523431e+00 5.162788331766706733e+02
1.837404228930364702e+00 5.162659728747454437e+02
1.837504250935205752e+00 5.162530949744104873e+02
1.837604272940046579e+00 5.162401998747169500e+02
1.837704294944887629e+00 5.162272879754266341e+02
1.837804316949728900e+00 5.162143596769996066e+02
1.837904338954569949e+00 5.162014153805743035e+02
1.838004360959410999e+00 5.161884554879576399e+02
1.838104382964252048e+00 5.161754804016020444e+02
1.838204404969093098e+00 5.161624905245953414e+02
1.838304426973933925e+00 5.161494862606405150e+02
1.838404448978775196e+00 5.161364680140436576e+02
1.838504470983616246e+00 5.161234361896928249e+02
1.838604492988457295e+00 5.161103911930473487e+02
1.838704514993298567e+00 5.160973334301186242e+02
1.838804536998139616e+00 5.160842633074541936e+02
1.838904559002980665e+00 5.160711812321226262e+02
1.839004581007821493e+00 5.160580876116971467e+02
1.839104603012662542e+00 5.160449828542380146e+02
1.839204625017503592e+00 5.160318673682793360e+02
1.839304647022344863e+00 5.160187415628078043e+02
1.839404669027185912e+00 5.160056058472537188e+02
1.839504691032026962e+00 5.159924606314674520e+02
1.839604713036867789e+00 5.159793063257078529e+02
1.839704735041709061e+00 5.159661433406242850e+02
1.839804757046550110e+00 5.159529720872399139e+02
1.839904779051391159e+00 5.159397929769372695e+02
1.840004801056232209e+00 5.159266064214390326e+02
1.840104823061073258e+00 5.159134128327943927e+02
1.840204845065914530e+00 5.159002126233614263e+02
1.840304867070755357e+00 5.158870062057907262e+02
1.840404889075596406e+00 5.158737939930088032e+02
1.840504911080437456e+00 5.158605763982028520e+02
1.840604933085278727e+00 5.158473538348030161e+02
1.840704955090119777e+00 5.158341267164663577e+02
1.840804977094960826e+00 5.158208954570602600e+02
1.840904999099801875e+00 5.158076604706476473e+02
1.841005021104642703e+00 5.157944221714681134e+02
1.841105043109483752e+00 5.157811809739217779e+02
1.841205065114325024e+00 5.157679372925555299e+02
1.841305087119166073e+00 5.157546915420425648e+02
1.841405109124007122e+00 5.157414441371691964e+02
1.841505131128848394e+00 5.157281954928172354e+02
1.841605153133689443e+00 5.157149460239454584e+02
1.841705175138530270e+00 5.157016961455780120e+02
1.841805197143371320e+00 5.156884462727820164e+02
1.841905219148212369e+00 5.156751968206555148e+02
1.842005241153053419e+00 5.156619482043095104e+02
1.842105263157894690e+00 5.156487008388510276e+02
1.842205285162735739e+00 5.156354551393669681e+02
1.842305307167576789e+00 5.156222115209071717e+02
1.842405329172417616e+00 5.156089703984690686e+02
1.842505351177258888e+00 5.155957321869806265e+02
1.842605373182099937e+00 5.155824973012822738e+02
1.842705395186940986e+00 5.155692661561130308e+02
1.842805417191782036e+00 5.155560391660931145e+02
1.842905439196623085e+00 5.155428167457057498e+02
1.843005461201464357e+00 5.155295993092832987e+02
1.843105483206305184e+00 5.155163872709885027e+02
1.843205505211146233e+00 5.155031810448006127e+02
1.843305527215987283e+00 5.154899810444953800e+02
1.843405549220828554e+00 5.154767876836319829e+02
1.843505571225669604e+00 5.154636013755343811e+02
1.843605593230510653e+00 5.154504225332759688e+02
1.843705615235351702e+00 5.154372515696636583e+02
1.843805637240192530e+00 5.154240888972183257e+02
1.843905659245033579e+00 5.154109349281632149e+02
1.844005681249874851e+00 5.153977900744032468e+02
1.844105703254715900e+00 5.153846547475110356e+02
1.844205725259556949e+00 5.153715293587099495e+02
1.844305747264398221e+00 5.153584143188576263e+02
1.844405769269239270e+00 5.153453100384292611e+02
1.844505791274080098e+00 5.153322169275018041e+02
1.844605813278921147e+00 5.153191353957370211e+02
1.844705835283762196e+00 5.153060658523668280e+02
1.844805857288603246e+00 5.152930087061746462e+02
1.844905879293444517e+00 5.152799643654802821e+02
1.845005901298285567e+00 5.152669332381245795e+02
1.845105923303126616e+00 5.152539157314513432e+02
1.845205945307967443e+00 5.152409122522918778e+02
1.845305967312808715e+00 5.152279232069499812e+02
1.845405989317649764e+00 5.152149490011834132e+02
1.845506011322490814e+00 5.152019900401893437e+02
1.845606033327331863e+00 5.151890467285898012e+02
1.845706055332172912e+00 5.151761194704097306e+02
1.845806077337014184e+00 5.151632086690682399e+02
1.845906099341855011e+00 5.151503147273575678e+02
1.846006121346696061e+00 5.151374380474283043e+02
1.846106143351537110e+00 5.151245790307747257e+02
1.846206165356378381e+00 5.151117380782160353e+02
1.846306187361219431e+00 5.150989155898836316e+02
1.846406209366060480e+00 5.150861119652025764e+02
1.846506231370901530e+00 5.150733276028768159e+02
1.846606253375742357e+00 5.150605629008726964e+02
1.846706275380583406e+00 5.150478182564038434e+02
1.846806297385424678e+00 5.150350940659157004e+02
1.846906319390265727e+00 5.150223907250671118e+02
1.847006341395106777e+00 5.150097086287182719e+02
1.847106363399948048e+00 5.149970481709120804e+02
1.847206385404789097e+00 5.149844097448595903e+02
1.847306407409629925e+00 5.149717937429243193e+02
1.847406429414470974e+00 5.149592005566066746e+02
1.847506451419312024e+00 5.149466305765270135e+02
1.847606473424153073e+00 5.149340841924126835e+02
1.847706495428994344e+00 5.149215617930797180e+02
1.847806517433835394e+00 5.149090637664194219e+02
1.847906539438676443e+00 5.148965904993810909e+02
1.848006561443517271e+00 5.148841423779579145e+02
1.848106583448358542e+00 5.148717197871719691e+02
1.848206605453199591e+00 5.148593231110560282e+02
1.848306627458040641e+00 5.148469527326419666e+02
1.848406649462881690e+00 5.148346090339430248e+02
1.848506671467722740e+00 5.148222923959390300e+02
1.848606693472564011e+00 5.148100031985612759e+02
1.848706715477404838e+00 5.147977418206781977e+02
1.848806737482245888e+00 5.147855086400788878e+02
1.848906759487086937e+00 5.147733040334587713e+02
1.849006781491928209e+00 5.147611283764040309e+02
1.849106803496769258e+00 5.147489820433768273e+02
1.849206825501610307e+00 5.147368654077017709e+02
1.849306847506451357e+00 5.147247788415477316e+02
1.849406869511292184e+00 5.147127227159164704e+02
1.849506891516133233e+00 5.147006974006253586e+02
1.849606913520974505e+00 5.146887032642935083e+02
1.849706935525815554e+00 5.146767406743281299e+02
1.849806957530656604e+00 5.146648099969064560e+02
1.849906979535497875e+00 5.146529115969658505e+02
1.850007001540338925e+00 5.146410458381843682e+02
1.850107023545179752e+00 5.146292130829702955e+02
1.850207045550020801e+00 5.146174136924461209e+02
1.850307067554861851e+00 5.146056480264313677e+02
1.850407089559702900e+00 5.145939164434332724e+02
1.850507111564544172e+00 5.145822193006292764e+02
1.850607133569385221e+00 5.145705569538522468e+02
1.850707155574226270e+00 5.145589297575776300e+02
1.850807177579067098e+00 5.145473380649108321e+02
1.850907199583908369e+00 5.145357822275677790e+02
1.851007221588749418e+00 5.145242625958670715e+02
1.851107243593590468e+00 5.145127795187115680e+02
1.851207265598431517e+00 5.145013333435774712e+02
1.851307287603272567e+00 5.144899244164964784e+02
1.851407309608113838e+00 5.144785530820466875e+02
1.851507331612954665e+00 5.144672196833348607e+02
1.851607353617795715e+00 5.144559245619855119e+02
1.851707375622636764e+00 5.144446680581241935e+02
1.851807397627478036e+00 5.144334505103673791e+02
1.851907419632319085e+00 5.144222722558063197e+02
1.852007441637160134e+00 5.144111336299938557e+02
1.852107463642001184e+00 5.144000349669322532e+02
1.852207485646842011e+00 5.143889765990589922e+02
1.852307507651683061e+00 5.143779588572321018e+02
1.852407529656524332e+00 5.143669820707207236e+02
1.852507551661365381e+00 5.143560465671863540e+02
1.852607573666206431e+00 5.143451526726746579e+02
1.852707595671047702e+00 5.143343007116001218e+02
1.852807617675888752e+00 5.143234910067336614e+02
1.852907639680729579e+00 5.143127238791878426e+02
1.853007661685570628e+00 5.143019996484071044e+02
1.853107683690411678e+00 5.142913186321532066e+02
1.853207705695252727e+00 5.142806811464917018e+02
1.853307727700093999e+00 5.142700875057804524e+02
1.853407749704935048e+00 5.142595380226566704e+02
1.853507771709776097e+00 5.142490330080248668e+02
1.853607793714616925e+00 5.142385727710425272e+02
1.853707815719458196e+00 5.142281576191114709e+02
1.853807837724299246e+00 5.142177878578594346e+02
1.853907859729140295e+00 5.142074637911347281e+02
1.854007881733981344e+00 5.141971857209889549e+02
1.854107903738822394e+00 5.141869539476667796e+02
1.854207925743663665e+00 5.141767687695935365e+02
1.854307947748504493e+00 5.141666304833628374e+02
1.854407969753345542e+00 5.141565393837266811e+02
1.854507991758186591e+00 5.141464957635803330e+02
1.854608013763027863e+00 5.141364999139533438e+02
1.854708035767868912e+00 5.141265521239957934e+02
1.854808057772709962e+00 5.141166526809678317e+02
1.854908079777551011e+00 5.141068018702279687e+02
1.855008101782391838e+00 5.140969999752213653e+02
1.855108123787232888e+00 5.140872472774683501e+02
1.855208145792074159e+00 5.140775440565532790e+02
1.855308167796915209e+00 5.140678905901130520e+02
1.855408189801756258e+00 5.140582871538260861e+02
1.855508211806597529e+00 5.140487340214008327e+02
1.855608233811438579e+00 5.140392314645657734e+02
1.855708255816279406e+00 5.140297797530563457e+02
1.855808277821120456e+00 5.140203791546067578e+02
1.855908299825961505e+00 5.140110299349378238e+02
1.856008321830802554e+00 5.140017323577447996e+02
1.856108343835643826e+00 5.139924866846897658e+02
1.856208365840484875e+00 5.139832931753884395e+02
1.856308387845325925e+00 5.139741520874006255e+02
1.856408409850166752e+00 5.139650636762206659e+02
1.856508431855008023e+00 5.139560281952661853e+02
1.856608453859849073e+00 5.139470458958669496e+02
1.856708475864690122e+00 5.139381170272575901e+02
1.856808497869531172e+00 5.139292418365631647e+02
1.856908519874372221e+00 5.139204205687938156e+02
1.857008541879213048e+00 5.139116534668312397e+02
1.857108563884054320e+00 5.139029407714211857e+02
1.857208585888895369e+00 5.138942827211619715e+02
1.857308607893736419e+00 5.138856795524964127e+02
1.857408629898577690e+00 5.138771314997006812e+02
1.857508651903418739e+00 5.138686387948757783e+02
1.857608673908259789e+00 5.138602016679391227e+02
1.857708695913100616e+00 5.138518203466120440e+02
1.857808717917941665e+00 5.138434950564137580e+02
1.857908739922782715e+00 5.138352260206493156e+02
1.858008761927623986e+00 5.138270134604053965e+02
1.858108783932465036e+00 5.138188575945345065e+02
1.858208805937306085e+00 5.138107586396515671e+02
1.858308827942147357e+00 5.138027168101231155e+02
1.858408849946988184e+00 5.137947323180582089e+02
1.858508871951829233e+00 5.137868053733001261e+02
1.858608893956670283e+00 5.137789361834184092e+02
1.858708915961511332e+00 5.137711249536994274e+02
1.858808937966352381e+00 5.137633718871393285e+02
1.858908959971193653e+00 5.137556771844339210e+02
1.859008981976034702e+00 5.137480410439721936e+02
1.859109003980875530e+00 5.137404636618268796e+02
1.859209025985716579e+00 5.137329452317484311e+02
1.859309047990557850e+00 5.137254859451534230e+02
1.859409069995398900e+00 5.137180859911219386e+02
1.859509092000239949e+00 5.137107455563848362e+02
1.859609114005080999e+00 5.137034648253193154e+02
1.859709136009922048e+00 5.136962439799399363e+02
1.859809158014762875e+00 5.136890831998919111e+02
1.859909180019604147e+00 5.136819826624418965e+02
1.860009202024445196e+00 5.136749425424745823e+02
1.860109224029286246e+00 5.136679630124820051e+02
1.860209246034127517e+00 5.136610442425563861e+02
1.860309268038968566e+00 5.136541864003860383e+02
1.860409290043809616e+00 5.136473896512459305e+02
1.860509312048650443e+00 5.136406541579929126e+02
1.860609334053491493e+00 5.136339800810563929e+02
1.860709356058332542e+00 5.136273675784334500e+02
1.860809378063173813e+00 5.136208168056829209e+02
1.860909400068014863e+00 5.136143279159168742e+02
1.861009422072855912e+00 5.136079010597965180e+02
1.861109444077697184e+00 5.136015363855253781e+02
1.861209466082538011e+00 5.135952340388412267e+02
1.861309488087379060e+00 5.135889941630126714e+02
1.861409510092220110e+00 5.135828168988321067e+02
1.861509532097061159e+00 5.135767023846093480e+02
1.861609554101902209e+00 5.135706507561673106e+02
1.861709576106743480e+00 5.135646621468353032e+02
1.861809598111584529e+00 5.135587366874427744e+02
1.861909620116425357e+00 5.135528745063162432e+02
1.862009642121266406e+00 5.135470757292712278e+02
1.862109664126107678e+00 5.135413404796100849e+02
1.862209686130948727e+00 5.135356688781121193e+02
1.862309708135789776e+00 5.135300610430344932e+02
1.862409730140630826e+00 5.135245170901017673e+02
1.862509752145471875e+00 5.135190371325055594e+02
1.862609774150312703e+00 5.135136212808972687e+02
1.862709796155153974e+00 5.135082696433833007e+02
1.862809818159995023e+00 5.135029823255204064e+02
1.862909840164836073e+00 5.134977594303136357e+02
1.863009862169677344e+00 5.134926010582097433e+02
1.863109884174518394e+00 5.134875073070935514e+02
1.863209906179359443e+00 5.134824782722829468e+02
1.863309928184200270e+00 5.134775140465267214e+02
1.863409950189041320e+00 5.134726147199986599e+02
1.863509972193882369e+00 5.134677803802946983e+02
1.863609994198723641e+00 5.134630111124307632e+02
1.863710016203564690e+00 5.134583069988342459e+02
1.863810038208405739e+00 5.134536681193461618e+02
1.863910060213247011e+00 5.134490945512141025e+02
1.864010082218087838e+00 5.134445863690900751e+02
1.864110104222928888e+00 5.134401436450275469e+02
1.864210126227769937e+00 5.134357664484779207e+02
1.864310148232610986e+00 5.134314548462866696e+02
1.864410170237452036e+00 5.134272089026915182e+02
1.864510192242293307e+00 5.134230286793201685e+02
1.864610214247134357e+00 5.134189142351863211e+02
1.864710236251975184e+00 5.134148656266868329e+02
1.864810258256816233e+00 5.134108829076001257e+02
1.864910280261657505e+00 5.134069661290843669e+02
1.865010302266498554e+00 5.134031153396729223e+02
1.865110324271339604e+00 5.133993305852746971e+02
1.865210346276180653e+00 5.133956119091698156e+02
1.865310368281021702e+00 5.133919593520099625e+02
1.865410390285862530e+00 5.133883729518132668e+02
1.865510412290703801e+00 5.133848527439660074e+02
1.865610434295544851e+00 5.133813987612186338e+02
1.865710456300385900e+00 5.133780110336849702e+02
1.865810478305227171e+00 5.133746895888403969e+02
1.865910500310068221e+00 5.133714344515215089e+02
1.866010522314909270e+00 5.133682456439225916e+02
1.866110544319750097e+00 5.133651231855973265e+02
1.866210566324591147e+00 5.133620670934554937e+02
1.866310588329432196e+00 5.133590773817628587e+02
1.866410610334273468e+00 5.133561540621404902e+02
1.866510632339114517e+00 5.133532971435632817e+02
1.866610654343955567e+00 5.133505066323606343e+02
1.866710676348796838e+00 5.133477825322137278e+02
1.866810698353637665e+00 5.133451248441584767e+02
1.866910720358478715e+00 5.133425335665808689e+02
1.867010742363319764e+00 5.133400086952200354e+02
1.867110764368160813e+00 5.133375502231672272e+02
1.867210786373001863e+00 5.133351581408654738e+02
1.867310808377843134e+00 5.133328324361104933e+02
1.867410830382684184e+00 5.133305730940478497e+02
1.867510852387525011e+00 5.133283800971781830e+02
1.867610874392366060e+00 5.133262534253543663e+02
1.867710896397207332e+00 5.133241930557820751e+02
1.867810918402048381e+00 5.133221989630216058e+02
1.867910940406889431e+00 5.133202711189869660e+02
1.868010962411730480e+00 5.133184094929482626e+02
1.868110984416571529e+00 5.133166140515328379e+02
1.868211006421412357e+00 5.133148847587244745e+02
1.868311028426253628e+00 5.133132215758657821e+02
1.868411050431094678e+00 5.133116244616591075e+02
1.868511072435935727e+00 5.133100933721676711e+02
1.868611094440776998e+00 5.133086282608178408e+02
1.868711116445618048e+00 5.133072290784001552e+02
1.868811138450459097e+00 5.133058957730698921e+02
1.868911160455299925e+00 5.133046282903509336e+02
1.869011182460140974e+00 5.133034265731355390e+02
1.869111204464982023e+00 5.133022905616887783e+02
1.869211226469823295e+00 5.133012201936470547e+02
1.869311248474664344e+00 5.133002154040240157e+02
1.869411270479505394e+00 5.132992761252099854e+02
1.869511292484346665e+00 5.132984022869762839e+02
1.869611314489187492e+00 5.132975938164765921e+02
1.869711336494028542e+00 5.132968506382489977e+02
1.869811358498869591e+00 5.132961726742214523e+02
1.869911380503710641e+00 5.132955598437102935e+02
1.870011402508551690e+00 5.132950120634269524e+02
1.870111424513392961e+00 5.132945292474789767e+02
1.870211446518234011e+00 5.132941113073736688e+02
1.870311468523074838e+00 5.132937581520209278e+02
1.870411490527915888e+00 5.132934696877370015e+02
1.870511512532757159e+00 5.132932458182481241e+02
1.870611534537598208e+00 5.132930864446929036e+02
1.870711556542439258e+00 5.132929914656265282e+02
1.870811578547280307e+00 5.132929607770256553e+02
1.870911600552121357e+00 5.132929942722901160e+02
1.871011622556962184e+00 5.132930918422473496e+02
1.871111644561803455e+00 5.132932533751593382e+02
1.871211666566644505e+00 5.132934787567212425e+02
1.871311688571485554e+00 5.132937678700711785e+02
1.871411710576326826e+00 5.132941205957902184e+02
1.871511732581167875e+00 5.132945368119095519e+02
1.871611754586008924e+00 5.132950163939142385e+02
1.871711776590849752e+00 5.132955592147470725e+02
1.871811798595690801e+00 5.132961651448142675e+02
1.871911820600531851e+00 5.132968340519901176e+02
1.872011842605373122e+00 5.132975658016202942e+02
1.872111864610214171e+00 5.132983602565311685e+02
1.872211886615055221e+00 5.132992172770296975e+02
1.872311908619896492e+00 5.133001367209110413e+02
1.872411930624737320e+00 5.133011184434656116e+02
1.872511952629578369e+00 5.133021622974803222e+02
1.872611974634419418e+00 5.133032681332485936e+02
1.872711996639260468e+00 5.133044357985730812e+02
1.872812018644101517e+00 5.133056651387726106e+02
1.872912040648942789e+00 5.133069559966868383e+02
1.873012062653783838e+00 5.133083082126834142e+02
1.873112084658624665e+00 5.133097216246636663e+02
1.873212106663465715e+00 5.133111960680678294e+02
1.873312128668306986e+00 5.133127313758827768e+02
1.873412150673148036e+00 5.133143273786477039e+02
1.873512172677989085e+00 5.133159839044596993e+02
1.873612194682830134e+00 5.133177007789809068e+02
1.873712216687671184e+00 5.133194778254460289e+02
1.873812238692512011e+00 5.133213148646666468e+02
1.873912260697353283e+00 5.133232117150404292e+02
1.874012282702194332e+00 5.133251681925568164e+02
1.874112304707035381e+00 5.133271841108048648e+02
1.874212326711876653e+00 5.133292592809783628e+02
1.874312348716717702e+00 5.133313935118859490e+02
1.874412370721558529e+00 5.133335866099548639e+02
1.874512392726399579e+00 5.133358383792430004e+02
1.874612414731240628e+00 5.133381486214402685e+02
1.874712436736081678e+00 5.133405171358818961e+02
1.874812458740922949e+00 5.133429437195525225e+02
1.874912480745763999e+00 5.133454281670948376e+02
1.875012502750605048e+00 5.133479702708187915e+02
1.875112524755445875e+00 5.133505698207075056e+02
1.875212546760287147e+00 5.133532266044261405e+02
1.875312568765128196e+00 5.133559404073295127e+02
1.875412590769969245e+00 5.133587110124722130e+02
1.875512612774810295e+00 5.133615382006133814e+02
1.875612634779651344e+00 5.133644217502293259e+02
1.875712656784492616e+00 5.133673614375176157e+02
1.875812678789333443e+00 5.133703570364098141e+02
1.875912700794174492e+00 5.133734083185772761e+02
1.876012722799015542e+00 5.133765150534400163e+02
1.876112744803856813e+00 5.133796770081776231e+02
1.876212766808697863e+00 5.133828939477358517e+02
1.876312788813538912e+00 5.133861656348374254e+02
1.876412810818379961e+00 5.133894918299895380e+02
1.876512832823220789e+00 5.133928722914942000e+02
1.876612854828061838e+00 5.133963067754574467e+02
1.876712876832903110e+00 5.133997950357978652e+02
1.876812898837744159e+00 5.134033368242568258e+02
1.876912920842585208e+00 5.134069318904075772e+02
1.877012942847426480e+00 5.134105799816654780e+02
1.877112964852267529e+00 5.134142808432970924e+02
1.877212986857108357e+00 5.134180342184299661e+02
1.877313008861949406e+00 5.134218398480621772e+02
1.877413030866790455e+00 5.134256974710748409e+02
1.877513052871631505e+00 5.134296068242376805e+02
1.877613074876472776e+00 5.134335676422231245e+02
1.877713096881313826e+00 5.134375796576148332e+02
1.877813118886154875e+00 5.134416426009180441e+02
1.877913140890995702e+00 5.134457562005694626e+02
1.878013162895836974e+00 5.134499201829491994e+02
1.878113184900678023e+00 5.134541342723910020e+02
1.878213206905519073e+00 5.134583981911907813e+02
1.878313228910360122e+00 5.134627116596200267e+02
1.878413250915201171e+00 5.134670743959352421e+02
1.878513272920042443e+00 5.134714861163884052e+02
1.878613294924883270e+00 5.134759465352404959e+02
1.878713316929724320e+00 5.134804553647676357e+02
1.878813338934565369e+00 5.134850123152775723e+02
1.878913360939406640e+00 5.134896170951176373e+02
1.879013382944247690e+00 5.134942694106869112e+02
1.879113404949088739e+00 5.134989689664470234e+02
1.879213426953929789e+00 5.135037154649349986e+02
1.879313448958770616e+00 5.135085086067724660e+02
1.879413470963611665e+00 5.135133480906800969e+02
1.879513492968452937e+00 5.135182336134861316e+02
1.879613514973293986e+00 5.135231648701413860e+02
1.879713536978135036e+00 5.135281415537282328e+02
1.879813558982976307e+00 5.135331633554734481e+02
1.879913580987817356e+00 5.135382299647609443e+02
1.880013602992658184e+00 5.135433410691433664e+02
1.880113624997499233e+00 5.135484963543536878e+02
1.880213647002340283e+00 5.135536955043170337e+02
1.880313669007181332e+00 5.135589382011652333e+02
1.880413691012022603e+00 5.135642241252458007e+02
1.880513713016863653e+00 5.135695529551367144e+02
1.880613735021704702e+00 5.135749243676592641e+02
1.880713757026545530e+00 5.135803380378874863e+02
1.880813779031386801e+00 5.135857936391639669e+02
1.880913801036227850e+00 5.135912908431116648e+02
1.881013823041068900e+00 5.135968293196453942e+02
1.881113845045909949e+00 5.136024087369860354e+02
1.881213867050750999e+00 5.136080287616732676e+02
1.881313889055592270e+00 5.136136890585778474e+02
1.881413911060433097e+00 5.136193892909150236e+02
1.881513933065274147e+00 5.136251291202568154e+02
1.881613955070115196e+00 5.136309082065473604e+02
1.881713977074956468e+00 5.136367262081134868e+02
1.881813999079797517e+00 5.136425827816796073e+02
1.881914021084638566e+00 5.136484775823807922e+02
1.882014043089479616e+00 5.136544102637751621e+02
1.882114065094320443e+00 5.136603804778598032e+02
1.882214087099161492e+00 5.136663878750805452e+02
1.882314109104002764e+00 5.136724321043494683e+02
1.882414131108843813e+00 5.136785128130561588e+02
1.882514153113684863e+00 5.136846296470819198e+02
1.882614175118526134e+00 5.136907822508136405e+02
1.882714197123367184e+00 5.136969702671581217e+02
1.882814219128208011e+00 5.137031933375551489e+02
1.882914241133049060e+00 5.137094511019920446e+02
1.883014263137890110e+00 5.137157431990166288e+02
1.883114285142731159e+00 5.137220692657535892e+02
1.883214307147572431e+00 5.137284289379166466e+02
1.883314329152413480e+00 5.137348218498221968e+02
1.883414351157254529e+00 5.137412476344059087e+02
1.883514373162095357e+00 5.137477059232353440e+02
1.883614395166936628e+00 5.137541963465251911e+02
1.883714417171777677e+00 5.137607185331494293e+02
1.883814439176618727e+00 5.137672721106592917e+02
1.883914461181459776e+00 5.137738567052961116e+02
1.884014483186300826e+00 5.137804719420041693e+02
1.884114505191142097e+00 5.137871174444494500e+02
1.884214527195982924e+00 5.137937928350293078e+02
1.884314549200823974e+00 5.138004977348916782e+02
1.884414571205665023e+00 5.138072317639471294e+02
1.884514593210506295e+00 5.138139945408843232e+02
1.884614615215347344e+00 5.138207856831858180e+02
1.884714637220188393e+00 5.138276048071414834e+02
1.884814659225029443e+00 5.138344515278648714e+02
1.884914681229870270e+00 5.138413254593066313e+02
1.885014703234711320e+00 5.138482262142721311e+02
1.885114725239552591e+00 5.138551534044340769e+02
1.885214747244393640e+00 5.138621066403485429e+02
1.885314769249234690e+00 5.138690855314698638e+02
1.885414791254075961e+00 5.138760896861687115e+02
1.885514813258917011e+00 5.138831187117415311e+02
1.885614835263757838e+00 5.138901722144323685e+02
1.885714857268598887e+00 5.138972497994428750e+02
1.885814879273439937e+00 5.139043510709523161e+02
1.885914901278280986e+00 5.139114756321293953e+02
1.886014923283122258e+00 5.139186230851494201e+02
1.886114945287963307e+00 5.139257930312104463e+02
1.886214967292804356e+00 5.139329850705468061e+02
1.886314989297645184e+00 5.139401988024477532e+02
1.886415011302486455e+00 5.139474338252704229e+02
1.886515033307327505e+00 5.139546897364558617e+02
1.886615055312168554e+00 5.139619661325479001e+02
1.886715077317009603e+00 5.139692626092038381e+02
1.886815099321850653e+00 5.139765787612145687e+02
1.886915121326691924e+00 5.139839141825183333e+02
1.887015143331532752e+00 5.139912684662173206e+02
1.887115165336373801e+00 5.139986412045938096e+02
1.887215187341214850e+00 5.140060319891255176e+02
1.887315209346056122e+00 5.140134404105009480e+02
1.887415231350897171e+00 5.140208660586379210e+02
1.887515253355738221e+00 5.140283085226969888e+02
1.887615275360579270e+00 5.140357673910996255e+02
1.887715297365420097e+00 5.140432422515414146e+02
1.887815319370261147e+00 5.140507326910126267e+02
1.887915341375102418e+00 5.140582382958103835e+02
1.888015363379943468e+00 5.140657586515561661e+02
1.888115385384784517e+00 5.140732933432145728e+02
1.888215407389625788e+00 5.140808419551043471e+02
1.888315429394466838e+00 5.140884040709195233e+02
1.888415451399307665e+00 5.140959792737444332e+02
1.888515473404148715e+00 5.141035671460679168e+02
1.888615495408989764e+00 5.141111672698029906e+02
1.888715517413830813e+00 5.141187792263006031e+02
1.888815539418672085e+00 5.141264025963671429e+02
1.888915561423513134e+00 5.141340369602819464e+02
1.889015583428354184e+00 5.141416818978115089e+02
1.889115605433195011e+00 5.141493369882281286e+02
1.889215627438036282e+00 5.141570018103246866e+02
1.889315649442877332e+00 5.141646759424322681e+02
1.889415671447718381e+00 5.141723589624373290e+02
1.889515693452559431e+00 5.141800504477957929e+02
1.889615715457400480e+00 5.141877499755534018e+02
1.889715737462241751e+00 5.141954571223579933e+02
1.889815759467082579e+00 5.142031714644806470e+02
1.889915781471923628e+00 5.142108925778278490e+02
1.890015803476764678e+00 5.142186200379624097e+02
1.890115825481605949e+00 5.142263534201167658e+02
1.890215847486446998e+00 5.142340922992118522e+02
1.890315869491288048e+00 5.142418362498731312e+02
1.890415891496129097e+00 5.142495848464461687e+02
1.890515913500969924e+00 5.142573376630165285e+02
1.890615935505810974e+00 5.142650942734225055e+02
1.890715957510652245e+00 5.142728542512746799e+02
1.890815979515493295e+00 5.142806171699726292e+02
1.890916001520334344e+00 5.142883826027193663e+02
1.891016023525175616e+00 5.142961501225413485e+02
1.891116045530016665e+00 5.143039193023030293e+02
1.891216067534857492e+00 5.143116897147247073e+02
1.891316089539698542e+00 5.143194609323986697e+02
1.891416111544539591e+00 5.143272325278069275e+02
1.891516133549380640e+00 5.143350040733369042e+02
1.891616155554221912e+00 5.143427751413000806e+02
1.891716177559062961e+00 5.143505453039463191e+02
1.891816199563903789e+00 5.143583141334827360e+02
1.891916221568744838e+00 5.143660812020907542e+02
1.892016243573586110e+00 5.143738460819409966e+02
1.892116265578427159e+00 5.143816083452122712e+02
1.892216287583268208e+00 5.143893675641068057e+02
1.892316309588109258e+00 5.143971233108684373e+02
1.892416331592950307e+00 5.144048751577988696e+02
1.892516353597791134e+00 5.144126226772738164e+02
1.892616375602632406e+00 5.144203654417624421e+02
1.892716397607473455e+00 5.144281030238400945e+02
1.892816419612314505e+00 5.144358349962099055e+02
1.892916441617155776e+00 5.144435609317160925e+02
1.893016463621996825e+00 5.144512804033616931e+02
1.893116485626837875e+00 5.144589929843273239e+02
1.893216507631678702e+00 5.144666982479845956e+02
1.893316529636519752e+00 5.144743957679161213e+02
1.893416551641360801e+00 5.144820851179321153e+02
1.893516573646202072e+00 5.144897658720839217e+02
1.893616595651043122e+00 5.144974376046853877e+02
1.893716617655884171e+00 5.145050998903257096e+02
1.893816639660725443e+00 5.145127523038891013e+02
1.893916661665566270e+00 5.145203944205715061e+02
1.894016683670407319e+00 5.145280258158948072e+02
1.894116705675248369e+00 5.145356460657259277e+02
1.894216727680089418e+00 5.145432547462933144e+02
1.894316749684930468e+00 5.145508514342030821e+02
1.894416771689771739e+00 5.145584357064562937e+02
1.894516793694612788e+00 5.145660071404653308e+02
1.894616815699453616e+00 5.145735653140718568e+02
1.894716837704294665e+00 5.145811098055600041e+02
1.894816859709135937e+00 5.145886401936780885e+02
1.894916881713976986e+00 5.145961560576520242e+02
1.895016903718818035e+00 5.146036569772026041e+02
1.895116925723659085e+00 5.146111425325620985e+02
1.895216947728500134e+00 5.146186123044907390e+02
1.895316969733340962e+00 5.146260658742959322e+02
1.895416991738182233e+00 5.146335028238440827e+02
1.895517013743023282e+00 5.146409227355808298e+02
1.895617035747864332e+00 5.146483251925467357e+02
1.895717057752705603e+00 5.146557097783938843e+02
1.895817079757546653e+00 5.146630760774003193e+02
1.895917101762387702e+00 5.146704236744914169e+02
1.896017123767228529e+00 5.146777521552506869e+02
1.896117145772069579e+00 5.146850611059406901e+02
1.896217167776910628e+00 5.146923501135159995e+02
1.896317189781751900e+00 5.146996187656430948e+02
1.896417211786592949e+00 5.147068666507133230e+02
1.896517233791433998e+00 5.147140933578621116e+02
1.896617255796275270e+00 5.147212984769836339e+02
1.896717277801116097e+00 5.147284815987468392e+02
1.896817299805957147e+00 5.147356423146134148e+02
1.896917321810798196e+00 5.147427802168524522e+02
1.897017343815639245e+00 5.147498948985581819e+02
1.897117365820480295e+00 5.147569859536636159e+02
1.897217387825321566e+00 5.147640529769599880e+02
1.897317409830162616e+00 5.147710955641103965e+02
1.897417431835003443e+00 5.147781133116667434e+02
1.897517453839844492e+00 5.147851058170858778e+02
1.897617475844685764e+00 5.147920726787463082e+02
1.897717497849526813e+00 5.147990134959620718e+02
1.897817519854367863e+00 5.148059278690016072e+02
1.897917541859208912e+00 5.148128153991007139e+02
1.898017563864049961e+00 5.148196756884806291e+02
1.898117585868890789e+00 5.148265083403636027e+02
1.898217607873732060e+00 5.148333129589873352e+02
1.898317629878573110e+00 5.148400891496222584e+02
1.898417651883414159e+00 5.148468365185866560e+02
1.898517673888255430e+00 5.148535546732629200e+02
1.898617695893096480e+00 5.148602432221122172e+02
1.898717717897937529e+00 5.148669017746901773e+02
1.898817739902778357e+00 5.148735299416639464e+02
1.898917761907619406e+00 5.148801273348273071e+02
1.899017783912460455e+00 5.148866935671136389e+02
1.899117805917301727e+00 5.148932282526153585e+02
1.899217827922142776e+00 5.148997310065963120e+02
1.899317849926983826e+00 5.149062014455082590e+02
1.899417871931825097e+00 5.149126391870073576e+02
1.899517893936665924e+00 5.149190438499670108e+02
1.899617915941506974e+00 5.149254150544954882e+02
1.899717937946348023e+00 5.149317524219488860e+02
1.899817959951189072e+00 5.149380555749481800e+02
1.899917981956030122e+00 5.149443241373943465e+02
1.900018003960871393e+00 5.149505577344809808e+02
1.900118025965712443e+00 5.149567559927132834e+02
1.900218047970553270e+00 5.149629185399182916e+02
1.900318069975394319e+00 5.149690450052642063e+02
1.900418091980235591e+00 5.149751350192732389e+02
1.900518113985076640e+00 5.149811882138352530e+02
1.900618135989917690e+00 5.149872042222257278e+02
1.900718157994758739e+00 5.149931826791164440e+02
1.900818179999599788e+00 5.149991232205946972e+02
1.900918202004440616e+00 5.150050254841734159e+02
1.901018224009281887e+00 5.150108891088098062e+02
1.901118246014122937e+00 5.150167137349156974e+02
1.901218268018963986e+00 5.150224990043763000e+02
1.901318290023805258e+00 5.150282445605614612e+02
1.901418312028646307e+00 5.150339500483407846e+02
1.901518334033487356e+00 5.150396151140992060e+02
1.901618356038328184e+00 5.150452394057497258e+02
1.901718378043169233e+00 5.150508225727478475e+02
1.901818400048010282e+00 5.150563642661056747e+02
1.901918422052851554e+00 5.150618641384074863e+02
1.902018444057692603e+00 5.150673218438207641e+02
1.902118466062533653e+00 5.150727370381143828e+02
1.902218488067374924e+00 5.150781093786667952e+02
1.902318510072215751e+00 5.150834385244859277e+02
1.902418532077056801e+00 5.150887241362178202e+02
1.902518554081897850e+00 5.150939658761640203e+02
1.902618576086738900e+00 5.150991634082931796e+02
1.902718598091579949e+00 5.151043163982557189e+02
1.902818620096421220e+00 5.151094245133958793e+02
1.902918642101262270e+00 5.151144874227675245e+02
1.903018664106103097e+00 5.151195047971448275e+02
1.903118686110944147e+00 5.151244763090378456e+02
1.903218708115785418e+00 5.151294016327044574e+02
1.903318730120626467e+00 5.151342804441634371e+02
1.903418752125467517e+00 5.151391124212098021e+02
1.903518774130308566e+00 5.151438972434242487e+02
1.903618796135149616e+00 5.151486345921890688e+02
1.903718818139990443e+00 5.151533241507003140e+02
1.903818840144831714e+00 5.151579656039792781e+02
1.903918862149672764e+00 5.151625586388879583e+02
1.904018884154513813e+00 5.151671029441392875e+02
1.904118906159355085e+00 5.151715982103103215e+02
1.904218928164196134e+00 5.151760441298574733e+02
1.904318950169037183e+00 5.151804403971237889e+02
1.904418972173878011e+00 5.151847867083563415e+02
1.904518994178719060e+00 5.151890827617164632e+02
1.904619016183560110e+00 5.151933282572915687e+02
1.904719038188401381e+00 5.151975228971089109e+02
1.904819060193242430e+00 5.152016663851468365e+02
1.904919082198083480e+00 5.152057584273458133e+02
1.905019104202924751e+00 5.152097987316224135e+02
1.905119126207765579e+00 5.152137870078809101e+02
1.905219148212606628e+00 5.152177229680230539e+02
1.905319170217447677e+00 5.152216063259630801e+02
1.905419192222288727e+00 5.152254367976369167e+02
1.905519214227129776e+00 5.152292141010141222e+02
1.905619236231971048e+00 5.152329379561110727e+02
1.905719258236812097e+00 5.152366080850007393e+02
1.905819280241652924e+00 5.152402242118241702e+02
1.905919302246493974e+00 5.152437860628033377e+02
1.906019324251335245e+00 5.152472933662504602e+02
1.906119346256176295e+00 5.152507458525810762e+02
1.906219368261017344e+00 5.152541432543230258e+02
1.906319390265858393e+00 5.152574853061292970e+02
1.906419412270699443e+00 5.152607717447868936e+02
1.906519434275540270e+00 5.152640023092308184e+02
1.906619456280381542e+00 5.152671767405528271e+02
1.906719478285222591e+00 5.152702947820104100e+02
1.906819500290063640e+00 5.152733561790410022e+02
1.906919522294904912e+00 5.152763606792703968e+02
1.907019544299745961e+00 5.152793080325227493e+02
1.907119566304587011e+00 5.152821979908341063e+02
1.907219588309427838e+00 5.152850303084563848e+02
1.907319610314268887e+00 5.152878047418747656e+02
1.907419632319109937e+00 5.152905210498132647e+02
1.907519654323951208e+00 5.152931789932470110e+02
1.907619676328792258e+00 5.152957783354087269e+02
1.907719698333633307e+00 5.152983188418039617e+02
1.907819720338474578e+00 5.153008002802154124e+02
1.907919742343315406e+00 5.153032224207170202e+02
1.908019764348156455e+00 5.153055850356806786e+02
1.908119786352997505e+00 5.153078878997868060e+02
1.908219808357838554e+00 5.153101307900332131e+02
1.908319830362679603e+00 5.153123134857460172e+02
1.908419852367520875e+00 5.153144357685862360e+02
1.908519874372361924e+00 5.153164974225618380e+02
1.908619896377202751e+00 5.153184982340342231e+02
1.908719918382043801e+00 5.153204379917295910e+02
1.908819940386885072e+00 5.153223164867446258e+02
1.908919962391726122e+00 5.153241335125594560e+02
1.909019984396567171e+00 5.153258888650431118e+02
1.909120006401408220e+00 5.153275823424628470e+02
1.909220028406249048e+00 5.153292137454941440e+02
1.909320050411090097e+00 5.153307828772267385e+02
1.909420072415931369e+00 5.153322895431747384e+02
1.909520094420772418e+00 5.153337335512850359e+02
1.909620116425613467e+00 5.153351147119431062e+02
1.909720138430454739e+00 5.153364328379846029e+02
1.909820160435295788e+00 5.153376877447003608e+02
1.909920182440136616e+00 5.153388792498457178e+02
1.910020204444977665e+00 5.153400071736479049e+02
1.910120226449818714e+00 5.153410713388143449e+02
1.910220248454659764e+00 5.153420715705385646e+02
1.910320270459501035e+00 5.153430076965094031e+02
1.910420292464342085e+00 5.153438795469188562e+02
1.910520314469183134e+00 5.153446869544665105e+02
1.910620336474023961e+00 5.153454297543701159e+02
1.910720358478865233e+00 5.153461077843708154e+02
1.910820380483706282e+00 5.153467208847405345e+02
1.910920402488547332e+00 5.153472688982888030e+02
1.911020424493388381e+00 5.153477516703702577e+02
1.911120446498229430e+00 5.153481690488902132e+02
1.911220468503070702e+00 5.153485208843123928e+02
1.911320490507911529e+00 5.153488070296651813e+02
1.911420512512752579e+00 5.153490273405479911e+02
1.911520534517593628e+00 5.153491816751368333e+02
1.911620556522434899e+00 5.153492698941922754e+02
1.911720578527275949e+00 5.153492918610638753e+02
1.911820600532116998e+00 5.153492474416981395e+02
1.911920622536958048e+00 5.153491365046415922e+02
1.912020644541798875e+00 5.153489589210497570e+02
1.912120666546639924e+00 5.153487145646910221e+02
1.912220688551481196e+00 5.153484033119533478e+02
1.912320710556322245e+00 5.153480250418483593e+02
1.912420732561163295e+00 5.153475796360185086e+02
1.912520754566004566e+00 5.153470669787411680e+02
1.912620776570845615e+00 5.153464869569352231e+02
1.912720798575686443e+00 5.153458394601647115e+02
1.912820820580527492e+00 5.153451243806441653e+02
1.912920842585368542e+00 5.153443416132457742e+02
1.913020864590209591e+00 5.153434910555007491e+02
1.913120886595050862e+00 5.153425726076063711e+02
1.913220908599891912e+00 5.153415861724296292e+02
1.913320930604732961e+00 5.153405316555135869e+02
1.913420952609573789e+00 5.153394089650790875e+02
1.913520974614415060e+00 5.153382180120313478e+02
1.913620996619256109e+00 5.153369587099630280e+02
1.913721018624097159e+00 5.153356309751586650e+02
1.913821040628938208e+00 5.153342347265992203e+02
1.913921062633779258e+00 5.153327698859645807e+02
1.914021084638620529e+00 5.153312363776395841e+02
1.914121106643461356e+00 5.153296341287170890e+02
1.914221128648302406e+00 5.153279630689977466e+02
1.914321150653143455e+00 5.153262231310013703e+02
1.914421172657984727e+00 5.153244142499629561e+02
1.914521194662825776e+00 5.153225363638397312e+02
1.914621216667666825e+00 5.153205894133139964e+02
1.914721238672507875e+00 5.153185733417955134e+02
1.914821260677348702e+00 5.153164880954245746e+02
1.914921282682189752e+00 5.153143336230757541e+02
1.915021304687031023e+00 5.153121098763593864e+02
1.915121326691872072e+00 5.153098168096270228e+02
1.915221348696713122e+00 5.153074543799687035e+02
1.915321370701554393e+00 5.153050225472221655e+02
1.915421392706395443e+00 5.153025212739698873e+02
1.915521414711236270e+00 5.152999505255439772e+02
1.915621436716077319e+00 5.152973102700282197e+02
1.915721458720918369e+00 5.152946004782581895e+02
1.915821480725759418e+00 5.152918211238265940e+02
1.915921502730600690e+00 5.152889721830824783e+02
1.916021524735441739e+00 5.152860536351333849e+02
1.916121546740282788e+00 5.152830654618483095e+02
1.916221568745123616e+00 5.152800076478572464e+02
1.916321590749964887e+00 5.152768801805552812e+02
1.916421612754805937e+00 5.152736830501007717e+02
1.916521634759646986e+00 5.152704162494188722e+02
1.916621656764488035e+00 5.152670797742038076e+02
1.916721678769329085e+00 5.152636736229144390e+02
1.916821700774170356e+00 5.152601977967826770e+02
1.916921722779011183e+00 5.152566522998081382e+02
1.917021744783852233e+00 5.152530371387617834e+02
1.917121766788693282e+00 5.152493523231863719e+02
1.917221788793534554e+00 5.152455978653966895e+02
1.917321810798375603e+00 5.152417737804788658e+02
1.917421832803216653e+00 5.152378800862929893e+02
1.917521854808057702e+00 5.152339168034707200e+02
1.917621876812898529e+00 5.152298839554171082e+02
1.917721898817739579e+00 5.152257815683103672e+02
1.917821920822580850e+00 5.152216096711016462e+02
1.917921942827421899e+00 5.152173682955126424e+02
1.918021964832262949e+00 5.152130574760401487e+02
1.918121986837104220e+00 5.152086772499502558e+02
1.918222008841945270e+00 5.152042276572819901e+02
1.918322030846786097e+00 5.151997087408434481e+02
1.918422052851627146e+00 5.151951205462131611e+02
1.918522074856468196e+00 5.151904631217387305e+02
1.918622096861309245e+00 5.151857365185356912e+02
1.918722118866150517e+00 5.151809407904854652e+02
1.918822140870991566e+00 5.151760759942366121e+02
1.918922162875832615e+00 5.151711421892000544e+02
1.919022184880673443e+00 5.151661394375523741e+02
1.919122206885514714e+00 5.151610678042295604e+02
1.919222228890355764e+00 5.151559273569282595e+02
1.919322250895196813e+00 5.151507181661027062e+02
1.919422272900037862e+00 5.151454403049649500e+02
1.919522294904878912e+00 5.151400938494797401e+02
1.919622316909720183e+00 5.151346788783653210e+02
1.919722338914561011e+00 5.151291954730901352e+02
1.919822360919402060e+00 5.151236437178696406e+02
1.919922382924243109e+00 5.151180236996669919e+02
1.920022404929084381e+00 5.151123355081874706e+02
1.920122426933925430e+00 5.151065792358766657e+02
1.920222448938766480e+00 5.151007549779192232e+02
1.920322470943607529e+00 5.150948628322346394e+02
1.920422492948448356e+00 5.150889028994751015e+02
1.920522514953289406e+00 5.150828752830226449e+02
1.920622536958130677e+00 5.150767800889847194e+02
1.920722558962971727e+00 5.150706174261932802e+02
1.920822580967812776e+00 5.150643874062000123e+02
1.920922602972654047e+00 5.150580901432730343e+02
1.921022624977495097e+00 5.150517257543933738e+02
1.921122646982335924e+00 5.150452943592523525e+02
1.921222668987176974e+00 5.150387960802468115e+02
1.921322690992018023e+00 5.150322310424760417e+02
1.921422712996859072e+00 5.150255993737371227e+02
1.921522735001700344e+00 5.150189012045225354e+02
1.921622757006541393e+00 5.150121366680126584e+02
1.921722779011382443e+00 5.150053059000763369e+02
1.921822801016223270e+00 5.149984090392626968e+02
1.921922823021064541e+00 5.149914462267985300e+02
1.922022845025905591e+00 5.149844176065830652e+02
1.922122867030746640e+00 5.149773233251842157e+02
1.922222889035587690e+00 5.149701635318330091e+02
1.922322911040428739e+00 5.149629383784196079e+02
1.922422933045270010e+00 5.149556480194869437e+02
1.922522955050110838e+00 5.149482926122275330e+02
1.922622977054951887e+00 5.149408723164775665e+02
1.922722999059792937e+00 5.149333872947113377e+02
1.922823021064634208e+00 5.149258377120355590e+02
1.922923043069475257e+00 5.149182237361861780e+02
1.923023065074316307e+00 5.149105455375201927e+02
1.923123087079157356e+00 5.149028032890120130e+02
1.923223109083998184e+00 5.148949971662458438e+02
1.923323131088839233e+00 5.148871273474117061e+02
1.923423153093680504e+00 5.148791940132989566e+02
1.923523175098521554e+00 5.148711973472891259e+02
1.923623197103362603e+00 5.148631375353522799e+02
1.923723219108203875e+00 5.148550147660378116e+02
1.923823241113044924e+00 5.148468292304700071e+02
1.923923263117885751e+00 5.148385811223423616e+02
1.924023285122726801e+00 5.148302706379092797e+02
1.924123307127567850e+00 5.148218979759797094e+02
1.924223329132408900e+00 5.148134633379117986e+02
1.924323351137250171e+00 5.148049669276050508e+02
1.924423373142091220e+00 5.147964089514930492e+02
1.924523395146932270e+00 5.147877896185376585e+02
1.924623417151773097e+00 5.147791091402215216e+02
1.924723439156614369e+00 5.147703677305399879e+02
1.924823461161455418e+00 5.147615656059961111e+02
1.924923483166296467e+00 5.147527029855896217e+02
1.925023505171137517e+00 5.147437800908134022e+02
1.925123527175978566e+00 5.147347971456435971e+02
1.925223549180819838e+00 5.147257543765317678e+02
1.925323571185660665e+00 5.147166520123995497e+02
1.925423593190501714e+00 5.147074902846267150e+02
1.925523615195342764e+00 5.146982694270481034e+02
1.925623637200184035e+00 5.146889896759424801e+02
1.925723659205025085e+00 5.146796512700242374e+02
1.925823681209866134e+00 5.146702544504371417e+02
1.925923703214707183e+00 5.146607994607441015e+02
1.926023725219548011e+00 5.146512865469208009e+02
1.926123747224389060e+00 5.146417159573450135e+02
1.926223769229230331e+00 5.146320879427892123e+02
1.926323791234071381e+00 5.146224027564120433e+02
1.926423813238912430e+00 5.146126606537492307e+02
1.926523835243753702e+00 5.146028618927055049e+02
1.926623857248594529e+00 5.145930067335432341e+02
1.926723879253435578e+00 5.145830954388770806e+02
1.926823901258276628e+00 5.145731282736616095e+02
1.926923923263117677e+00 5.145631055051835574e+02
1.927023945267958727e+00 5.145530274030530791e+02
1.927123967272799998e+00 5.145428942391927194e+02
1.927223989277641047e+00 5.145327062878296829e+02
1.927324011282481875e+00 5.145224638254850333e+02
1.927424033287322924e+00 5.145121671309648264e+02
1.927524055292164196e+00 5.145018164853502185e+02
1.927624077297005245e+00 5.144914121719870082e+02
1.927724099301846294e+00 5.144809544764760858e+02
1.927824121306687344e+00 5.144704436866646802e+02
1.927924143311528393e+00 5.144598800926333979e+02
1.928024165316369221e+00 5.144492639866897434e+02
1.928124187321210492e+00 5.144385956633550450e+02
1.928224209326051541e+00 5.144278754193549048e+02
1.928324231330892591e+00 5.144171035536095360e+02
1.928424253335733862e+00 5.144062803672220525e+02
1.928524275340574912e+00 5.143954061634684649e+02
1.928624297345415961e+00 5.143844812477890400e+02
1.928724319350256788e+00 5.143735059277726123e+02
1.928824341355097838e+00 5.143624805131506719e+02
1.928924363359938887e+00 5.143514053157840635e+02
1.929024385364780159e+00 5.143402806496529820e+02
1.929124407369621208e+00 5.143291068308440117e+02
1.929224429374462257e+00 5.143178841775427372e+02
1.929324451379303529e+00 5.143066130100174860e+02
1.929424473384144356e+00 5.142952936506127344e+02
1.929524495388985406e+00 5.142839264237351244e+02
1.929624517393826455e+00 5.142725116558419813e+02
1.929724539398667504e+00 5.142610496754311953e+02
1.929824561403508554e+00 5.142495408130281476e+02
1.929924583408349825e+00 5.142379854011754787e+02
1.930024605413190875e+00 5.142263837744199009e+02
1.930124627418031702e+00 5.142147362693003743e+02
1.930224649422872751e+00 5.142030432243384439e+02
1.930324671427714023e+00 5.141913049800230056e+02
1.930424693432555072e+00 5.141795218788008697e+02
1.930524715437396122e+00 5.141676942650626643e+02
1.930624737442237171e+00 5.141558224851326031e+02
1.930724759447078220e+00 5.141439068872539337e+02
1.930824781451919048e+00 5.141319478215784784e+02
1.930924803456760319e+00 5.141199456401531052e+02
1.931024825461601369e+00 5.141079006969089278e+02
1.931124847466442418e+00 5.140958133476445937e+02
1.931224869471283689e+00 5.140836839500191218e+02
1.931324891476124739e+00 5.140715128635350766e+02
1.931424913480965788e+00 5.140593004495283367e+02
1.931524935485806616e+00 5.140470470711527469e+02
1.931624957490647665e+00 5.140347530933687494e+02
1.931724979495488714e+00 5.140224188829315608e+02
1.931825001500329986e+00 5.140100448083749143e+02
1.931925023505171035e+00 5.139976312400019651e+02
1.932025045510012085e+00 5.139851785498668733e+02
1.932125067514853356e+00 5.139726871117676410e+02
1.932225089519694183e+00 5.139601573012275821e+02
1.932325111524535233e+00 5.139475894954852038e+02
1.932425133529376282e+00 5.139349840734785175e+02
1.932525155534217332e+00 5.139223414158340120e+02
1.932625177539058381e+00 5.139096619048506227e+02
1.932725199543899652e+00 5.138969459244868858e+02
1.932825221548740702e+00 5.138841938603480912e+02
1.932925243553581529e+00 5.138714060996721855e+02
1.933025265558422578e+00 5.138585830313147653e+02
1.933125287563263850e+00 5.138457250457363443e+02
1.933225309568104899e+00 5.138328325349880288e+02
1.933325331572945949e+00 5.138199058926974203e+02
1.933425353577786998e+00 5.138069455140557693e+02
1.933525375582628048e+00 5.137939517958008082e+02
1.933625397587468875e+00 5.137809251362062923e+02
1.933725419592310146e+00 5.137678659350647195e+02
1.933825441597151196e+00 5.137547745936751653e+02
1.933925463601992245e+00 5.137416515148271401e+02
1.934025485606833517e+00 5.137284971027877418e+02
1.934125507611674566e+00 5.137153117632860813e+02
1.934225529616515615e+00 5.137020959034996395e+02
1.934325551621356443e+00 5.136888499320378969e+02
1.934425573626197492e+00 5.136755742589303964e+02
1.934525595631038541e+00 5.136622692956102583e+02
1.934625617635879813e+00 5.136489354548990605e+02
1.934725639640720862e+00 5.136355731509934230e+02
1.934825661645561912e+00 5.136221827994502291e+02
1.934925683650403183e+00 5.136087648171691171e+02
1.935025705655244010e+00 5.135953196223807709e+02
1.935125727660085060e+00 5.135818476346310035e+02
1.935225749664926109e+00 5.135683492747638184e+02
1.935325771669767159e+00 5.135548249649090167e+02
1.935425793674608208e+00 5.135412751284643491e+02
1.935525815679449479e+00 5.135277001900835785e+02
1.935625837684290529e+00 5.135141005756579489e+02
1.935725859689131356e+00 5.135004767123029978e+02
1.935825881693972406e+00 5.134868290283429815e+02
1.935925903698813677e+00 5.134731579532940486e+02
1.936025925703654726e+00 5.134594639178507123e+02
1.936125947708495776e+00 5.134457473538689101e+02
1.936225969713336825e+00 5.134320086943516799e+02
1.936325991718177875e+00 5.134182483734325615e+02
1.936426013723018702e+00 5.134044668263609310e+02
1.936526035727859973e+00 5.133906644894855162e+02
1.936626057732701023e+00 5.133768418002393901e+02
1.936726079737542072e+00 5.133629991971233721e+02
1.936826101742383344e+00 5.133491371196915907e+02
1.936926123747224393e+00 5.133352560085345431e+02
1.937026145752065442e+00 5.133213563052637483e+02
1.937126167756906270e+00 5.133074384524959441e+02
1.937226189761747319e+00 5.132935028938363757e+02
1.937326211766588369e+00 5.132795500738637884e+02
1.937426233771429640e+00 5.132655804381148528e+02
1.937526255776270689e+00 5.132515944330660886e+02
1.937626277781111739e+00 5.132375925061202224e+02
1.937726299785953010e+00 5.132235751055881110e+02
1.937826321790793838e+00 5.132095426806745309e+02
1.937926343795634887e+00 5.131954956814603293e+02
1.938026365800475936e+00 5.131814345588858259e+02
1.938126387805316986e+00 5.131673597647379665e+02
1.938226409810158035e+00 5.131532717516304274e+02
1.938326431814999307e+00 5.131391709729879267e+02
1.938426453819840356e+00 5.131250578830323548e+02
1.938526475824681183e+00 5.131109329367625378e+02
1.938626497829522233e+00 5.130967965899428691e+02
1.938726519834363504e+00 5.130826492990806855e+02
1.938826541839204554e+00 5.130684915214162629e+02
1.938926563844045603e+00 5.130543237149017841e+02
1.939026585848886652e+00 5.130401463381861049e+02
1.939126607853727702e+00 5.130259598505987242e+02
1.939226629858568529e+00 5.130117647121343225e+02
1.939326651863409801e+00 5.129975613834322985e+02
1.939426673868250850e+00 5.129833503257661960e+02
1.939526695873091899e+00 5.129691320010201707e+02
1.939626717877933171e+00 5.129549068716788724e+02
1.939726739882774220e+00 5.129406754008055032e+02
1.939826761887615270e+00 5.129264380520291979e+02
1.939926783892456097e+00 5.129121952895254708e+02
1.940026805897297146e+00 5.128979475780010944e+02
1.940126827902138196e+00 5.128836953826763647e+02
1.940226849906979467e+00 5.128694391692696399e+02
1.940326871911820517e+00 5.128551794039797187e+02
1.940426893916661566e+00 5.128409165534685599e+02
1.940526915921502837e+00 5.128266510848453663e+02
1.940626937926343665e+00 5.128123834656495319e+02
1.940726959931184714e+00 5.127981141638338158e+02
1.940826981936025764e+00 5.127838436477468349e+02
1.940927003940866813e+00 5.127695723861181705e+02
1.941027025945707862e+00 5.127553008480377912e+02
1.941127047950549134e+00 5.127410295029441158e+02
1.941227069955390183e+00 5.127267588206022992e+02
1.941327091960231011e+00 5.127124892710912718e+02
1.941427113965072060e+00 5.126982213247831623e+02
1.941527135969913331e+00 5.126839554523294282e+02
1.941627157974754381e+00 5.126696921246436887e+02
1.941727179979595430e+00 5.126554318128809200e+02
1.941827201984436480e+00 5.126411749884263145e+02
1.941927223989277529e+00 5.126269221228727702e+02
1.942027245994118356e+00 5.126126736880092949e+02
1.942127267998959628e+00 5.125984301557991785e+02
1.942227290003800677e+00 5.125841919983656680e+02
1.942327312008641726e+00 5.125699596879743467e+02
1.942427334013482998e+00 5.125557336970168762e+02
1.942527356018324047e+00 5.125415144979920115e+02
1.942627378023165097e+00 5.125273025634905935e+02
1.942727400028005924e+00 5.125130983661778146e+02
1.942827422032846973e+00 5.124989023787761653e+02
1.942927444037688023e+00 5.124847150740483812e+02
1.943027466042529294e+00 5.124705369247809585e+02
1.943127488047370344e+00 5.124563684037657367e+02
1.943227510052211393e+00 5.124422099837845508e+02
1.943327532057052665e+00 5.124280621375920646e+02
1.943427554061893492e+00 5.124139253378971262e+02
1.943527576066734541e+00 5.123998000573474201e+02
1.943627598071575591e+00 5.123856867685124143e+02
1.943727620076416640e+00 5.123715859438643747e+02
1.943827642081257689e+00 5.123574980557643812e+02
1.943927664086098961e+00 5.123434235764436835e+02
1.944027686090939788e+00 5.123293629779860794e+02
1.944127708095780838e+00 5.123153167323121124e+02
1.944227730100621887e+00 5.123012853111615641e+02
1.944327752105463158e+00 5.122872691860775376e+02
1.944427774110304208e+00 5.122732688283869038e+02
1.944527796115145257e+00 5.122592847091876820e+02
1.944627818119986307e+00 5.122453172993265298e+02
1.944727840124827134e+00 5.122313670693874883e+02
1.944827862129668183e+00 5.122174344896694720e+02
1.944927884134509455e+00 5.122035200301758096e+02
1.945027906139350504e+00 5.121896241605913929e+02
1.945127928144191554e+00 5.121757473502683524e+02
1.945227950149032825e+00 5.121618900682103686e+02
1.945327972153873874e+00 5.121480527830541405e+02
1.945427994158714702e+00 5.121342359630521059e+02
1.945528016163555751e+00 5.121204400760569797e+02
1.945628038168396801e+00 5.121066655895049280e+02
1.945728060173237850e+00 5.120929129703985154e+02
1.945828082178079121e+00 5.120791826852889699e+02
1.945928104182920171e+00 5.120654752002610621e+02
1.946028126187761220e+00 5.120517909809137791e+02
1.946128148192602048e+00 5.120381304923486141e+02
1.946228170197443319e+00 5.120244941991469432e+02
1.946328192202284368e+00 5.120108825653570648e+02
1.946428214207125418e+00 5.119972960544765215e+02
1.946528236211966467e+00 5.119837351294356154e+02
1.946628258216807517e+00 5.119702002525806961e+02
1.946728280221648788e+00 5.119566918856581310e+02
1.946828302226489615e+00 5.119432104897962859e+02
1.946928324231330665e+00 5.119297565254906885e+02
1.947028346236171714e+00 5.119163304525867488e+02
1.947128368241012986e+00 5.119029327302632169e+02
1.947228390245854035e+00 5.118895638170157554e+02
1.947328412250695084e+00 5.118762241706405121e+02
1.947428434255536134e+00 5.118629142482187717e+02
1.947528456260376961e+00 5.118496345060989938e+02
1.947628478265218011e+00 5.118363853998806121e+02
1.947728500270059282e+00 5.118231673843999943e+02
1.947828522274900331e+00 5.118099809137104330e+02
1.947928544279741381e+00 5.117968264410687880e+02
1.948028566284582652e+00 5.117837044189191715e+02
1.948128588289423702e+00 5.117706152988745885e+02
1.948228610294264529e+00 5.117575595317033503e+02
1.948328632299105578e+00 5.117445375673111130e+02
1.948428654303946628e+00 5.117315498547258699e+02
1.948528676308787677e+00 5.117185968420813538e+02
1.948628698313628949e+00 5.117056789766013480e+02
1.948728720318469998e+00 5.116927967045835999e+02
1.948828742323311047e+00 5.116799504713832789e+02
1.948928764328151875e+00 5.116671407213983684e+02
1.949028786332993146e+00 5.116543678980527829e+02
1.949128808337834196e+00 5.116416324437811909e+02
1.949228830342675245e+00 5.116289348000117343e+02
1.949328852347516294e+00 5.116162754071528411e+02
1.949428874352357344e+00 5.116036547045758880e+02
1.949528896357198615e+00 5.115910731305980903e+02
1.949628918362039443e+00 5.115785311224713041e+02
1.949728940366880492e+00 5.115660291163610509e+02
1.949828962371721541e+00 5.115535675473347510e+02
1.949928984376562813e+00 5.115411468493456937e+02
1.950029006381403862e+00 5.115287674552151316e+02
1.950129028386244912e+00 5.115164297966208551e+02
1.950229050391085961e+00 5.115041343040779793e+02
1.950329072395926788e+00 5.114918814069266659e+02
1.950429094400767838e+00 5.114796715333139900e+02
1.950529116405609109e+00 5.114675051101810368e+02
1.950629138410450159e+00 5.114553825632468715e+02
1.950729160415291208e+00 5.114433043169941584e+02
1.950829182420132479e+00 5.114312707946515388e+02
1.950929204424973529e+00 5.114192824181817514e+02
1.951029226429814356e+00 5.114073396082657155e+02
1.951129248434655405e+00 5.113954427842849100e+02
1.951229270439496455e+00 5.113835923643114256e+02
1.951329292444337504e+00 5.113717887650889224e+02
1.951429314449178776e+00 5.113600324020201242e+02
1.951529336454019825e+00 5.113483236891496517e+02
1.951629358458860874e+00 5.113366630391533931e+02
1.951729380463701702e+00 5.113250508633197455e+02
1.951829402468542973e+00 5.113134875715383600e+02
1.951929424473384023e+00 5.113019735722817813e+02
1.952029446478225072e+00 5.112905092725955569e+02
1.952129468483066121e+00 5.112790950780807293e+02
1.952229490487907171e+00 5.112677313928795684e+02
1.952329512492748442e+00 5.112564186196626679e+02
1.952429534497589270e+00 5.112451571596141093e+02
1.952529556502430319e+00 5.112339474124171943e+02
1.952629578507271368e+00 5.112227897762398925e+02
1.952729600512112640e+00 5.112116846477213699e+02
1.952829622516953689e+00 5.112006324219586304e+02
1.952929644521794739e+00 5.111896334924904863e+02
1.953029666526635788e+00 5.111786882512868146e+02
1.953129688531476615e+00 5.111677970887294009e+02
1.953229710536317665e+00 5.111569603936056865e+02
1.953329732541158936e+00 5.111461785530892712e+02
1.953429754545999986e+00 5.111354519527271236e+02
1.953529776550841035e+00 5.111247809764284966e+02
1.953629798555682306e+00 5.111141660064487837e+02
1.953729820560523356e+00 5.111036074233772979e+02
1.953829842565364183e+00 5.110931056061249933e+02
1.953929864570205233e+00 5.110826609319078102e+02
1.954029886575046282e+00 5.110722737762366705e+02
1.954129908579887331e+00 5.110619445129032670e+02
1.954229930584728603e+00 5.110516735139660227e+02
1.954329952589569652e+00 5.110414611497390069e+02
1.954429974594410702e+00 5.110313077887751092e+02
1.954529996599251529e+00 5.110212137978592750e+02
1.954630018604092800e+00 5.110111795419895770e+02
1.954730040608933850e+00 5.110012053843676654e+02
1.954830062613774899e+00 5.109912916863864893e+02
1.954930084618615949e+00 5.109814388076139267e+02
1.955030106623456998e+00 5.109716471057856211e+02
1.955130128628298269e+00 5.109619169367876452e+02
1.955230150633139097e+00 5.109522486546475761e+02
1.955330172637980146e+00 5.109426426115192044e+02
1.955430194642821196e+00 5.109330991576734959e+02
1.955530216647662467e+00 5.109236186414820509e+02
1.955630238652503516e+00 5.109142014094111346e+02
1.955730260657344566e+00 5.109048478060016123e+02
1.955830282662185615e+00 5.108955581738647993e+02
1.955930304667026443e+00 5.108863328536653512e+02
1.956030326671867492e+00 5.108771721841119415e+02
1.956130348676708763e+00 5.108680765019438468e+02
1.956230370681549813e+00 5.108590461419205440e+02
1.956330392686390862e+00 5.108500814368096599e+02
1.956430414691232134e+00 5.108411827173756024e+02
1.956530436696073183e+00 5.108323503123671117e+02
1.956630458700914010e+00 5.108235845485072559e+02
1.956730480705755060e+00 5.108148857504814373e+02
1.956830502710596109e+00 5.108062542409268190e+02
1.956930524715437159e+00 5.107976903404190807e+02
1.957030546720278430e+00 5.107891943674644608e+02
1.957130568725119479e+00 5.107807666384858862e+02
1.957230590729960529e+00 5.107724074678145598e+02
1.957330612734801356e+00 5.107641171676770000e+02
1.957430634739642628e+00 5.107558960481857184e+02
1.957530656744483677e+00 5.107477444173273398e+02
1.957630678749324726e+00 5.107396625809534498e+02
1.957730700754165776e+00 5.107316508427694544e+02
1.957830722759006825e+00 5.107237095043228123e+02
1.957930744763848097e+00 5.107158388649954190e+02
1.958030766768688924e+00 5.107080392219908731e+02
1.958130788773529973e+00 5.107003108703260637e+02
1.958230810778371023e+00 5.106926541028188922e+02
1.958330832783212294e+00 5.106850692100818492e+02
1.958430854788053344e+00 5.106775564805078034e+02
1.958530876792894393e+00 5.106701162002632373e+02
1.958630898797735442e+00 5.106627486532781859e+02
1.958730920802576270e+00 5.106554541212336176e+02
1.958830942807417319e+00 5.106482328835575117e+02
1.958930964812258591e+00 5.106410852174088859e+02
1.959030986817099640e+00 5.106340113976737030e+02
1.959131008821940689e+00 5.106270116969518540e+02
1.959231030826781961e+00 5.106200863855501098e+02
1.959331052831623010e+00 5.106132357314725141e+02
1.959431074836463837e+00 5.106064600004106069e+02
1.959531096841304887e+00 5.105997594557358070e+02
1.959631118846145936e+00 5.105931343584879869e+02
1.959731140850986986e+00 5.105865849673702428e+02
1.959831162855828257e+00 5.105801115387371283e+02
1.959931184860669307e+00 5.105737143265877194e+02
1.960031206865510356e+00 5.105673935825566900e+02
1.960131228870351183e+00 5.105611495559056721e+02
1.960231250875192455e+00 5.105549824935149559e+02
1.960331272880033504e+00 5.105488926398754757e+02
1.960431294884874553e+00 5.105428802370803396e+02
1.960531316889715603e+00 5.105369455248173836e+02
1.960631338894556652e+00 5.105310887403600191e+02
1.960731360899397924e+00 5.105253101185608102e+02
1.960831382904238751e+00 5.105196098918427197e+02
1.960931404909079800e+00 5.105139882901914916e+02
1.961031426913920850e+00 5.105084455411488307e+02
1.961131448918762121e+00 5.105029818698027384e+02
1.961231470923603171e+00 5.104975974987833069e+02
1.961331492928444220e+00 5.104922926482532262e+02
1.961431514933285047e+00 5.104870675359004508e+02
1.961531536938126097e+00 5.104819223769322889e+02
1.961631558942967146e+00 5.104768573840673866e+02
1.961731580947808418e+00 5.104718727675299306e+02
1.961831602952649467e+00 5.104669687350409504e+02
1.961931624957490516e+00 5.104621454918124073e+02
1.962031646962331788e+00 5.104574032405421349e+02
1.962131668967172615e+00 5.104527421814055970e+02
1.962231690972013665e+00 5.104481625120483841e+02
1.962331712976854714e+00 5.104436644275823483e+02
1.962431734981695763e+00 5.104392481205778154e+02
1.962531756986536813e+00 5.104349137810578441e+02
1.962631778991378084e+00 5.104306615964915750e+02
1.962731800996219134e+00 5.104264917517895128e+02
1.962831823001059961e+00 5.104224044292965345e+02
1.962931845005901010e+00 5.104183998087859209e+02
1.963031867010742282e+00 5.104144780674549793e+02
1.963131889015583331e+00 5.104106393799182797e+02
1.963231911020424381e+00 5.104068839182016859e+02
1.963331933025265430e+00 5.104032118517393997e+02
1.963431955030106479e+00 5.103996233473653774e+02
1.963531977034947307e+00 5.103961185693114544e+02
1.963631999039788578e+00 5.103926976791996708e+02
1.963732021044629628e+00 5.103893608360378948e+02
1.963832043049470677e+00 5.103861081962159005e+02
1.963932065054311948e+00 5.103829399134995128e+02
1.964032087059152998e+00 5.103798561390266855e+02
1.964132109063994047e+00 5.103768570213019302e+02
1.964232131068834875e+00 5.103739427061930201e+02
1.964332153073675924e+00 5.103711133369256459e+02
1.964432175078516973e+00 5.103683690540789826e+02
1.964532197083358245e+00 5.103657099955826197e+02
1.964632219088199294e+00 5.103631362967117866e+02
1.964732241093040344e+00 5.103606480900825204e+02
1.964832263097881615e+00 5.103582455056498475e+02
1.964932285102722442e+00 5.103559286707013598e+02
1.965032307107563492e+00 5.103536977098558509e+02
1.965132329112404541e+00 5.103515527450581430e+02
1.965232351117245591e+00 5.103494938955774387e+02
1.965332373122086640e+00 5.103475212780007837e+02
1.965432395126927911e+00 5.103456350062332945e+02
1.965532417131768961e+00 5.103438351914924169e+02
1.965632439136609788e+00 5.103421219423062780e+02
1.965732461141450838e+00 5.103404953645102182e+02
1.965832483146292109e+00 5.103389555612435515e+02
1.965932505151133158e+00 5.103375026329472348e+02
1.966032527155974208e+00 5.103361366773610825e+02
1.966132549160815257e+00 5.103348577895216067e+02
1.966232571165656307e+00 5.103336660617589473e+02
1.966332593170497134e+00 5.103325615836943143e+02
1.966432615175338405e+00 5.103315444422380551e+02
1.966532637180179455e+00 5.103306147215884039e+02
1.966632659185020504e+00 5.103297725032269909e+02
1.966732681189861776e+00 5.103290178659206049e+02
1.966832703194702825e+00 5.103283508857143715e+02
1.966932725199543874e+00 5.103277716359354486e+02
1.967032747204384702e+00 5.103272801871871138e+02
1.967132769209225751e+00 5.103268766073490497e+02
1.967232791214066800e+00 5.103265609615766039e+02
1.967332813218908072e+00 5.103263333122966969e+02
1.967432835223749121e+00 5.103261937192095274e+02
1.967532857228590171e+00 5.103261422392868099e+02
1.967632879233431442e+00 5.103261789267685344e+02
1.967732901238272269e+00 5.103263038331657526e+02
1.967832923243113319e+00 5.103265170072558590e+02
1.967932945247954368e+00 5.103268184950838986e+02
1.968032967252795418e+00 5.103272083399638746e+02
1.968132989257636467e+00 5.103276865824732340e+02
1.968233011262477739e+00 5.103282532604570179e+02
1.968333033267318788e+00 5.103289084090251890e+02
1.968433055272159615e+00 5.103296520605536557e+02
1.968533077277000665e+00 5.103304842446826797e+02
1.968633099281841936e+00 5.103314049883190364e+02
1.968733121286682985e+00 5.103324143156334003e+02
1.968833143291524035e+00 5.103335122480634709e+02
1.968933165296365084e+00 5.103346988043109604e+02
1.969033187301206134e+00 5.103359740003458001e+02
1.969133209306046961e+00 5.103373378494034682e+02
1.969233231310888232e+00 5.103387903619867529e+02
1.969333253315729282e+00 5.103403315458673433e+02
1.969433275320570331e+00 5.103419614060845788e+02
1.969533297325411603e+00 5.103436799449497698e+02
1.969633319330252652e+00 5.103454871620425592e+02
1.969733341335093701e+00 5.103473830542159249e+02
1.969833363339934529e+00 5.103493676155961225e+02
1.969933385344775578e+00 5.103514408375829703e+02
1.970033407349616628e+00 5.103536027088533160e+02
1.970133429354457899e+00 5.103558532153606393e+02
1.970233451359298948e+00 5.103581923403382916e+02
1.970333473364139998e+00 5.103606200642999511e+02
1.970433495368981269e+00 5.103631363650425214e+02
1.970533517373822097e+00 5.103657412176465868e+02
1.970633539378663146e+00 5.103684345944807319e+02
1.970733561383504195e+00 5.103712164652008596e+02
1.970833583388345245e+00 5.103740867967546251e+02
1.970933605393186294e+00 5.103770455533843347e+02
1.971033627398027566e+00 5.103800926966259226e+02
1.971133649402868615e+00 5.103832281853152608e+02
1.971233671407709442e+00 5.103864519755890683e+02
1.971333693412550492e+00 5.103897640208870712e+02
1.971433715417391763e+00 5.103931642719570618e+02
1.971533737422232813e+00 5.103966526768551830e+02
1.971633759427073862e+00 5.104002291809513281e+02
1.971733781431914911e+00 5.104038937269294820e+02
1.971833803436755961e+00 5.104076462547956226e+02
1.971933825441596788e+00 5.104114867018750488e+02
1.972033847446438060e+00 5.104154150028210779e+02
1.972133869451279109e+00 5.104194310896158413e+02
1.972233891456120158e+00 5.104235348915741497e+02
1.972333913460961430e+00 5.104277263353485523e+02
1.972433935465802479e+00 5.104320053449311558e+02
1.972533957470643529e+00 5.104363718416605025e+02
1.972633979475484356e+00 5.104408257442225363e+02
1.972734001480325405e+00 5.104453669686554917e+02
1.972834023485166455e+00 5.104499954283563738e+02
1.972934045490007726e+00 5.104547110340827771e+02
1.973034067494848776e+00 5.104595136939585700e+02
1.973134089499689825e+00 5.104644033134770211e+02
1.973234111504531096e+00 5.104693797955084165e+02
1.973334133509371924e+00 5.104744430403011393e+02
1.973434155514212973e+00 5.104795929454891166e+02
1.973534177519054023e+00 5.104848294060957983e+02
1.973634199523895072e+00 5.104901523145393867e+02
1.973734221528736121e+00 5.104955615606369861e+02
1.973834243533577393e+00 5.105010570316122198e+02
1.973934265538418442e+00 5.105066386120980155e+02
1.974034287543259270e+00 5.105123061841428012e+02
1.974134309548100319e+00 5.105180596272173261e+02
1.974234331552941590e+00 5.105238988182180719e+02
1.974334353557782640e+00 5.105298236314753240e+02
1.974434375562623689e+00 5.105358339387559568e+02
1.974534397567464739e+00 5.105419296092733816e+02
1.974634419572305788e+00 5.105481105096886267e+02
1.974734441577146615e+00 5.105543765041220468e+02
1.974834463581987887e+00 5.105607274541542893e+02
1.974934485586828936e+00 5.105671632188345939e+02
1.975034507591669986e+00 5.105736836546891482e+02
1.975134529596511257e+00 5.105802886157248395e+02
1.975234551601352306e+00 5.105869779534360759e+02
1.975334573606193356e+00 5.105937515168127447e+02
1.975434595611034183e+00 5.106006091523465784e+02
1.975534617615875232e+00 5.106075507040367825e+02
1.975634639620716282e+00 5.106145760133988460e+02
1.975734661625557553e+00 5.106216849194690894e+02
1.975834683630398603e+00 5.106288772588150096e+02
1.975934705635239652e+00 5.106361528655396569e+02
1.976034727640080924e+00 5.106435115712905031e+02
1.976134749644921751e+00 5.106509532052650684e+02
1.976234771649762800e+00 5.106584775942208694e+02
1.976334793654603850e+00 5.106660845624813874e+02
1.976434815659444899e+00 5.106737739319441403e+02
1.976534837664285948e+00 5.106815455220877311e+02
1.976634859669127220e+00 5.106893991499808294e+02
1.976734881673968269e+00 5.106973346302887080e+02
1.976834903678809097e+00 5.107053517752837024e+02
1.976934925683650146e+00 5.107134503948495308e+02
1.977034947688491417e+00 5.107216302964931174e+02
1.977134969693332467e+00 5.107298912853498791e+02
1.977234991698173516e+00 5.107382331641955489e+02
1.977335013703014566e+00 5.107466557334505524e+02
1.977435035707855615e+00 5.107551587911914339e+02
1.977535057712696442e+00 5.107637421331596101e+02
1.977635079717537714e+00 5.107724055527661449e+02
1.977735101722378763e+00 5.107811488411060736e+02
1.977835123727219813e+00 5.107899717869643155e+02
1.977935145732061084e+00 5.107988741768232330e+02
1.978035167736902133e+00 5.108078557948749676e+02
1.978135189741743183e+00 5.108169164230284309e+02
1.978235211746584010e+00 5.108260558409184000e+02
1.978335233751425060e+00 5.108352738259166586e+02
1.978435255756266109e+00 5.108445701531387613e+02
1.978535277761107380e+00 5.108539445954556868e+02
1.978635299765948430e+00 5.108633969235021368e+02
1.978735321770789479e+00 5.108729269056865974e+02
1.978835343775630307e+00 5.108825343082010590e+02
1.978935365780471578e+00 5.108922188950305099e+02
1.979035387785312627e+00 5.109019804279627692e+02
1.979135409790153677e+00 5.109118186665987764e+02
1.979235431794994726e+00 5.109217333683622542e+02
1.979335453799835776e+00 5.109317242885110772e+02
1.979435475804677047e+00 5.109417911801444347e+02
1.979535497809517874e+00 5.109519337942157904e+02
1.979635519814358924e+00 5.109621518795429438e+02
1.979735541819199973e+00 5.109724451828171254e+02
1.979835563824041245e+00 5.109828134486142517e+02
1.979935585828882294e+00 5.109932564194059523e+02
1.980035607833723343e+00 5.110037738355695183e+02
1.980135629838564393e+00 5.110143654353981333e+02
1.980235651843405220e+00 5.110250309551129817e+02
1.980335673848246270e+00 5.110357701288730823e+02
1.980435695853087541e+00 5.110465826887866569e+02
1.980535717857928590e+00 5.110574683649220447e+02
1.980635739862769640e+00 5.110684268853188996e+02
1.980735761867610911e+00 5.110794579759981957e+02
1.980835783872451961e+00 5.110905613609764941e+02
1.980935805877292788e+00 5.111017367622724805e+02
1.981035827882133837e+00 5.111129838999236767e+02
1.981135849886974887e+00 5.111243024919933191e+02
1.981235871891815936e+00 5.111356922545849670e+02
1.981335893896657208e+00 5.111471529018518822e+02
1.981435915901498257e+00 5.111586841460105575e+02
1.981535937906339306e+00 5.111702856973506641e+02
1.981635959911180134e+00 5.111819572642488083e+02
1.981735981916021405e+00 5.111936985531788196e+02
1.981836003920862455e+00 5.112055092687232332e+02
1.981936025925703504e+00 5.112173891135876147e+02
1.982036047930544553e+00 5.112293377886110761e+02
1.982136069935385603e+00 5.112413549927769054e+02
1.982236091940226874e+00 5.112534404232279712e+02
1.982336113945067702e+00 5.112655937752770114e+02
1.982436135949908751e+00 5.112778147424189115e+02
1.982536157954749800e+00 5.112901030163434370e+02
1.982636179959591072e+00 5.113024582869480810e+02
1.982736201964432121e+00 5.113148802423505686e+02
1.982836223969273171e+00 5.113273685689002832e+02
1.982936245974114220e+00 5.113399229511911130e+02
1.983036267978955047e+00 5.113525430720759459e+02
1.983136289983796097e+00 5.113652286126780382e+02
1.983236311988637368e+00 5.113779792524031791e+02
1.983336333993478418e+00 5.113907946689537312e+02
1.983436355998319467e+00 5.114036745383416473e+02
1.983536378003160738e+00 5.114166185348999534e+02
1.983636400008001788e+00 5.114296263312980955e+02
1.983736422012842615e+00 5.114426975985527406e+02
1.983836444017683664e+00 5.114558320060426695e+02
1.983936466022524714e+00 5.114690292215211684e+02
1.984036488027365763e+00 5.114822889111291033e+02
1.984136510032207035e+00 5.114956107394090168e+02
1.984236532037048084e+00 5.115089943693182022e+02
1.984336554041889134e+00 5.115224394622418345e+02
1.984436576046729961e+00 5.115359456780065557e+02
1.984536598051571232e+00 5.115495126748949133e+02
1.984636620056412282e+00 5.115631401096571835e+02
1.984736642061253331e+00 5.115768276375274581e+02
1.984836664066094380e+00 5.115905749122346151e+02
1.984936686070935430e+00 5.116043815860186896e+02
1.985036708075776701e+00 5.116182473096421290e+02
1.985136730080617529e+00 5.116321717324062774e+02
1.985236752085458578e+00 5.116461545021641086e+02
1.985336774090299627e+00 5.116601952653314811e+02
1.985436796095140899e+00 5.116742936669079427e+02
1.985536818099981948e+00 5.116884493504833245e+02
1.985636840104822998e+00 5.117026619582567264e+02
1.985736862109664047e+00 5.117169311310490230e+02
1.985836884114504874e+00 5.117312565083158233e+02
1.985936906119345924e+00 5.117456377281643540e+02
1.986036928124187195e+00 5.117600744273668170e+02
1.986136950129028245e+00 5.117745662413724403e+02
1.986236972133869294e+00 5.117891128043262370e+02
1.986336994138710565e+00 5.118037137490788382e+02
1.986437016143551615e+00 5.118183687072045132e+02
1.986537038148392442e+00 5.118330773090132766e+02
1.986637060153233492e+00 5.118478391835676007e+02
1.986737082158074541e+00 5.118626539586949207e+02
1.986837104162915590e+00 5.118775212610032668e+02
1.986937126167756862e+00 5.118924407158963277e+02
1.987037148172597911e+00 5.119074119475873772e+02
1.987137170177438961e+00 5.119224345791149631e+02
1.987237192182279788e+00 5.119375082323561514e+02
1.987337214187121059e+00 5.119526325280427841e+02
1.987437236191962109e+00 5.119678070857767125e+02
1.987537258196803158e+00 5.119830315240422465e+02
1.987637280201644208e+00 5.119983054602243442e+02
1.987737302206485257e+00 5.120136285106211744e+02
1.987837324211326528e+00 5.120290002904603170e+02
1.987937346216167356e+00 5.120444204139124622e+02
1.988037368221008405e+00 5.120598884941084634e+02
1.988137390225849455e+00 5.120754041431537189e+02
1.988237412230690726e+00 5.120909669721422688e+02
1.988337434235531775e+00 5.121065765911728249e+02
1.988437456240372825e+00 5.121222326093644597e+02
1.988537478245213874e+00 5.121379346348709305e+02
1.988637500250054702e+00 5.121536822748963687e+02
1.988737522254895751e+00 5.121694751357101723e+02
1.988837544259737022e+00 5.121853128226641729e+02
1.988937566264578072e+00 5.122011949402044593e+02
1.989037588269419121e+00 5.122171210918902489e+02
1.989137610274260393e+00 5.122330908804073033e+02
1.989237632279101442e+00 5.122491039075845265e+02
1.989337654283942269e+00 5.122651597744084029e+02
1.989437676288783319e+00 5.122812580810383452e+02
1.989537698293624368e+00 5.122973984268236336e+02
1.989637720298465418e+00 5.123135804103186501e+02
1.989737742303306689e+00 5.123298036292965207e+02
1.989837764308147738e+00 5.123460676807668506e+02
1.989937786312988788e+00 5.123623721609900485e+02
1.990037808317829615e+00 5.123787166654943803e+02
1.990137830322670887e+00 5.123951007890899518e+02
1.990237852327511936e+00 5.124115241258859896e+02
1.990337874332352985e+00 5.124279862693043697e+02
1.990437896337194035e+00 5.124444868120972387e+02
1.990537918342035084e+00 5.124610253463625895e+02
1.990637940346876356e+00 5.124776014635589263e+02
1.990737962351717183e+00 5.124942147545222042e+02
1.990837984356558232e+00 5.125108648094802675e+02
1.990938006361399282e+00 5.125275512180697888e+02
1.991038028366240553e+00 5.125442735693528675e+02
1.991138050371081603e+00 5.125610314518290807e+02
1.991238072375922652e+00 5.125778244534562873e+02
1.991338094380763701e+00 5.125946521616629070e+02
1.991438116385604529e+00 5.126115141633659960e+02
1.991538138390445578e+00 5.126284100449847756e+02
1.991638160395286850e+00 5.126453393924589363e+02
1.991738182400127899e+00 5.126623017912628484e+02
1.991838204404968948e+00 5.126792968264220463e+02
1.991938226409810220e+00 5.126963240825297135e+02
1.992038248414651269e+00 5.127133831437622575e+02
1.992138270419492097e+00 5.127304735938943168e+02
1.992238292424333146e+00 5.127475950163151310e+02
1.992338314429174195e+00 5.127647469940458222e+02
1.992438336434015245e+00 5.127819291097531504e+02
1.992538358438856516e+00 5.127991409457688405e+02
1.992638380443697566e+00 5.128163820841007237e+02
1.992738402448538615e+00 5.128336521064521776e+02
1.992838424453379442e+00 5.128509505942384976e+02
1.992938446458220714e+00 5.128682771286003117e+02
1.993038468463061763e+00 5.128856312904215429e+02
1.993138490467902812e+00 5.129030126603432791e+02
1.993238512472743862e+00 5.129204208187833274e+02
1.993338534477584911e+00 5.129378553459492878e+02
1.993438556482426183e+00 5.129553158218540148e+02
1.993538578487267010e+00 5.129728018263350577e+02
1.993638600492108059e+00 5.129903129390669392e+02
1.993738622496949109e+00 5.130078487395794582e+02
1.993838644501790380e+00 5.130254088072720151e+02
1.993938666506631430e+00 5.130429927214320287e+02
1.994038688511472479e+00 5.130606000612469870e+02
1.994138710516313528e+00 5.130782304058251384e+02
1.994238732521154356e+00 5.130958833342083381e+02
1.994338754525995405e+00 5.131135584253875095e+02
1.994438776530836677e+00 5.131312552583212891e+02
1.994538798535677726e+00 5.131489734119497825e+02
1.994638820540518775e+00 5.131667124652117309e+02
1.994738842545360047e+00 5.131844719970596316e+02
1.994838864550201096e+00 5.132022515864757679e+02
1.994938886555041924e+00 5.132200508124885800e+02
1.995038908559882973e+00 5.132378692541880127e+02
1.995138930564724022e+00 5.132557064907422273e+02
1.995238952569565072e+00 5.132735621014120397e+02
1.995338974574406343e+00 5.132914356655679740e+02
1.995438996579247393e+00 5.133093267627068599e+02
1.995539018584088442e+00 5.133272349724650212e+02
1.995639040588929269e+00 5.133451598746368063e+02
1.995739062593770541e+00 5.133631010491887992e+02
1.995839084598611590e+00 5.133810580762755080e+02
1.995939106603452640e+00 5.133990305362576692e+02
1.996039128608293689e+00 5.134170180097138427e+02
1.996139150613134738e+00 5.134350200774600808e+02
1.996239172617975566e+00 5.134530363205628873e+02
1.996339194622816837e+00 5.134710663203558170e+02
1.996439216627657887e+00 5.134891096584574370e+02
1.996539238632498936e+00 5.135071659167822418e+02
1.996639260637340207e+00 5.135252346775605474e+02
1.996739282642181257e+00 5.135433155233520210e+02
1.996839304647022306e+00 5.135614080370627335e+02
1.996939326651863134e+00 5.135795118019583470e+02
1.997039348656704183e+00 5.135976264016819641e+02
1.997139370661545232e+00 5.136157514202690209e+02
1.997239392666386504e+00 5.136338864421635435e+02
1.997339414671227553e+00 5.136520310522303134e+02
1.997439436676068603e+00 5.136701848357748759e+02
1.997539458680909874e+00 5.136883473785566139e+02
1.997639480685750701e+00 5.137065182668040961e+02
1.997739502690591751e+00 5.137246970872301972e+02
1.997839524695432800e+00 5.137428834270494917e+02
1.997939546700273850e+00 5.137610768739915557e+02
1.998039568705114899e+00 5.137792770163166551e+02
1.998139590709956170e+00 5.137974834428317763e+02
1.998239612714797220e+00 5.138156957429043814e+02
1.998339634719638047e+00 5.138339135064807124e+02
1.998439656724479097e+00 5.138521363240965911e+02
1.998539678729320368e+00 5.138703637868967462e+02
1.998639700734161417e+00 5.138885954866464090e+02
1.998739722739002467e+00 5.139068310157493897e+02
1.998839744743843516e+00 5.139250699672613791e+02
1.998939766748684566e+00 5.139433119349050685e+02
1.999039788753525393e+00 5.139615565130862933e+02
1.999139810758366664e+00 5.139798032969076758e+02
1.999239832763207714e+00 5.139980518821839723e+02
1.999339854768048763e+00 5.140163018654574216e+02
1.999439876772890035e+00 5.140345528440119551e+02
1.999539898777731084e+00 5.140528044158883176e+02
1.999639920782572133e+00 5.140710561798985054e+02
1.999739942787412961e+00 5.140893077356419099e+02
1.999839964792254010e+00 5.141075586835173681e+02
1.999939986797095060e+00 5.141258086247402161e+02
2.000040008801936331e+00 4.880233143358213965e+02
2.000140030806777602e+00 4.878672416731389490e+02
2.000240052811618430e+00 4.877110049392341580e+02
2.000340074816459701e+00 4.875546062780698549e+02
2.000440096821300529e+00 4.873980478373995879e+02
2.000540118826141356e+00 4.872413317687128824e+02
2.000640140830982627e+00 4.870844602271790222e+02
2.000740162835823899e+00 4.869274353715902066e+02
2.000840184840664726e+00 4.867702593643076057e+02
2.000940206845505998e+00 4.866129343712036075e+02
2.001040228850347269e+00 4.864554625616061685e+02
2.001140250855187652e+00 4.862978461082427089e+02
2.001240272860028924e+00 4.861400871871837808e+02
2.001340294864870195e+00 4.859821879777853724e+02
2.001440316869711022e+00 4.858241506626341675e+02
2.001540338874552294e+00 4.856659774274900769e+02
2.001640360879393565e+00 4.855076704612288268e+02
2.001740382884234393e+00 4.853492319557859105e+02
2.001840404889075220e+00 4.851906641060996321e+02
2.001940426893916491e+00 4.850319691100539217e+02
2.002040448898757319e+00 4.848731491684206958e+02
2.002140470903598590e+00 4.847142064848032987e+02
2.002240492908439862e+00 4.845551432655799431e+02
2.002340514913280689e+00 4.843959617198449337e+02
2.002440536918121960e+00 4.842366640593517673e+02
2.002540558922962788e+00 4.840772524984561187e+02
2.002640580927804059e+00 4.839177292540572921e+02
2.002740602932644887e+00 4.837580965455420028e+02
2.002840624937486158e+00 4.835983565947256579e+02
2.002940646942326985e+00 4.834385116257947743e+02
2.003040668947168257e+00 4.832785638652491684e+02
2.003140690952009528e+00 4.831185155418444310e+02
2.003240712956850356e+00 4.829583688865328099e+02
2.003340734961691183e+00 4.827981261324072193e+02
2.003440756966532454e+00 4.826377895146409855e+02
2.003540778971373726e+00 4.824773612704320840e+02
2.003640800976214553e+00 4.823168436389424301e+02
2.003740822981055825e+00 4.821562388612411496e+02
2.003840844985896652e+00 4.819955491802462006e+02
2.003940866990737923e+00 4.818347768406669047e+02
2.004040888995578751e+00 4.816739240889423854e+02
2.004140911000420022e+00 4.815129931731870556e+02
2.004240933005260850e+00 4.813519863431301928e+02
2.004340955010102121e+00 4.811909058500573337e+02
2.004440977014943392e+00 4.810297539467521801e+02
2.004540999019784220e+00 4.808685328874383345e+02
2.004641021024625047e+00 4.807072449277202963e+02
2.004741043029466319e+00 4.805458923245244023e+02
2.004841065034307590e+00 4.803844773360414138e+02
2.004941087039148417e+00 4.802230022216668317e+02
2.005041109043989689e+00 4.800614692419420066e+02
2.005141131048830516e+00 4.798998806584972385e+02
2.005241153053671788e+00 4.797382387339898173e+02
2.005341175058512615e+00 4.795765457320472933e+02
2.005441197063353886e+00 4.794148039172097810e+02
2.005541219068194714e+00 4.792530155548689095e+02
2.005641241073035985e+00 4.790911829112097848e+02
2.005741263077877257e+00 4.789293082531521577e+02
2.005841285082718084e+00 4.787673938482923290e+02
2.005941307087559355e+00 4.786054419648423846e+02
2.006041329092400183e+00 4.784434548715738629e+02
2.006141351097241010e+00 4.782814348377565352e+02
2.006241373102082282e+00 4.781193841331011072e+02
2.006341395106923553e+00 4.779573050276995332e+02
2.006441417111764380e+00 4.777951997919662972e+02
2.006541439116605652e+00 4.776330706965794661e+02
2.006641461121446923e+00 4.774709200124226527e+02
2.006741483126287307e+00 4.773087500105241929e+02
2.006841505131128578e+00 4.771465629620007007e+02
2.006941527135969849e+00 4.769843611379957906e+02
2.007041549140810677e+00 4.768221468096236890e+02
2.007141571145651948e+00 4.766599222479084688e+02
2.007241593150493220e+00 4.764976897237261255e+02
2.007341615155334047e+00 4.763354515077447786e+02
2.007441637160174874e+00 4.761732098703681686e+02
2.007541659165016146e+00 4.760109670816743801e+02
2.007641681169856973e+00 4.758487254113576341e+02
2.007741703174698245e+00 4.756864871286721836e+02
2.007841725179539516e+00 4.755242545023687626e+02
2.007941747184380343e+00 4.753620298006408120e+02
2.008041769189221615e+00 4.751998152910622366e+02
2.008141791194062442e+00 4.750376132405316412e+02
2.008241813198903714e+00 4.748754259152109398e+02
2.008341835203744541e+00 4.747132555804698768e+02
2.008441857208585812e+00 4.745511045008244082e+02
2.008541879213426640e+00 4.743889749398810523e+02
2.008641901218267911e+00 4.742268691602759532e+02
2.008741923223109183e+00 4.740647894236191746e+02
2.008841945227950010e+00 4.739027379904337067e+02
2.008941967232790837e+00 4.737407171200995322e+02
2.009041989237632109e+00 4.735787290707935426e+02
2.009142011242473380e+00 4.734167760994325818e+02
2.009242033247314208e+00 4.732548604616148396e+02
2.009342055252155479e+00 4.730929844115613605e+02
2.009442077256996306e+00 4.729311502020593707e+02
2.009542099261837578e+00 4.727693600844027628e+02
2.009642121266678405e+00 4.726076163083348547e+02
2.009742143271519677e+00 4.724459211219913755e+02
2.009842165276360504e+00 4.722842767718414621e+02
2.009942187281201775e+00 4.721226855026302474e+02
2.010042209286043047e+00 4.719611495573209936e+02
2.010142231290883874e+00 4.717996711770391016e+02
2.010242253295724701e+00 4.716382526010128231e+02
2.010342275300565973e+00 4.714768960665159625e+02
2.010442297305407244e+00 4.713156038088117725e+02
2.010542319310248072e+00 4.711543780610949170e+02
2.010642341315089343e+00 4.709932210544335476e+02
2.010742363319930170e+00 4.708321350177134264e+02
2.010842385324771442e+00 4.706711221775806280e+02
2.010942407329612269e+00 4.705101847583842982e+02
2.011042429334453541e+00 4.703493249821191853e+02
2.011142451339294368e+00 4.701885450683706722e+02
2.011242473344135639e+00 4.700278472342555460e+02
2.011342495348976911e+00 4.698672336943682240e+02
2.011442517353817738e+00 4.697067066607219772e+02
2.011542539358659010e+00 4.695462683426938497e+02
2.011642561363499837e+00 4.693859209469675307e+02
2.011742583368340664e+00 4.692256666774775908e+02
2.011842605373181936e+00 4.690655077353536058e+02
2.011942627378023207e+00 4.689054463188632553e+02
2.012042649382864035e+00 4.687454846233574699e+02
2.012142671387705306e+00 4.685856248412143827e+02
2.012242693392546578e+00 4.684258691617820318e+02
2.012342715397386961e+00 4.682662197713255523e+02
2.012442737402228232e+00 4.681066788529702762e+02
2.012542759407069504e+00 4.679472485866451734e+02
2.012642781411910331e+00 4.677879311490302143e+02
2.012742803416751602e+00 4.676287287134989583e+02
2.012842825421592874e+00 4.674696434500641544e+02
2.012942847426433701e+00 4.673106775253244791e+02
2.013042869431274529e+00 4.671518331024070108e+02
2.013142891436115800e+00 4.669931123409144220e+02
2.013242913440956627e+00 4.668345173968701260e+02
2.013342935445797899e+00 4.666760504226633088e+02
2.013442957450639170e+00 4.665177135669957806e+02
2.013542979455479998e+00 4.663595089748267810e+02
2.013643001460320825e+00 4.662014387873188070e+02
2.013743023465162096e+00 4.660435051417851469e+02
2.013843045470003368e+00 4.658857101716353100e+02
2.013943067474844195e+00 4.657280560063192070e+02
2.014043089479685467e+00 4.655705447712791170e+02
2.014143111484526294e+00 4.654131785878904566e+02
2.014243133489367565e+00 4.652559595734123832e+02
2.014343155494208393e+00 4.650988898409333387e+02
2.014443177499049664e+00 4.649419714993184698e+02
2.014543199503890492e+00 4.647852066531565356e+02
2.014643221508731763e+00 4.646285974027075554e+02
2.014743243513573034e+00 4.644721458438503987e+02
2.014843265518413862e+00 4.643158540680307169e+02
2.014943287523255133e+00 4.641597241622081356e+02
2.015043309528095961e+00 4.640037582088048680e+02
2.015143331532937232e+00 4.638479582856529078e+02
2.015243353537778059e+00 4.636923264659447455e+02
2.015343375542619331e+00 4.635368648181778894e+02
2.015443397547460158e+00 4.633815754061077996e+02
2.015543419552301430e+00 4.632264602886935450e+02
2.015643441557142701e+00 4.630715215200482930e+02
2.015743463561983528e+00 4.629167611493879235e+02
2.015843485566824356e+00 4.627621812209803238e+02
2.015943507571665627e+00 4.626077837740953669e+02
2.016043529576506899e+00 4.624535708429540364e+02
2.016143551581347726e+00 4.622995444566786318e+02
2.016243573586188997e+00 4.621457066392410411e+02
2.016343595591029825e+00 4.619920594094162425e+02
2.016443617595870652e+00 4.618386047807304067e+02
2.016543639600711924e+00 4.616853447614105335e+02
2.016643661605553195e+00 4.615322813543381812e+02
2.016743683610394022e+00 4.613794165569963752e+02
2.016843705615235294e+00 4.612267523614253832e+02
2.016943727620076565e+00 4.610742907541693967e+02
2.017043749624917393e+00 4.609220337162308851e+02
2.017143771629758220e+00 4.607699832230204606e+02
2.017243793634599491e+00 4.606181412443112890e+02
2.017343815639440319e+00 4.604665097441874764e+02
2.017443837644281590e+00 4.603150906809995604e+02
2.017543859649122862e+00 4.601638860073148862e+02
2.017643881653963689e+00 4.600128976698701990e+02
2.017743903658804960e+00 4.598621276095261692e+02
2.017843925663645788e+00 4.597115777612179386e+02
2.017943947668486615e+00 4.595612500539104985e+02
2.018043969673327886e+00 4.594111464105511686e+02
2.018143991678169158e+00 4.592612687480224167e+02
2.018244013683009985e+00 4.591116189770966685e+02
2.018344035687851257e+00 4.589621990023903209e+02
2.018444057692692528e+00 4.588130107223173582e+02
2.018544079697533355e+00 4.586640560290437634e+02
2.018644101702374183e+00 4.585153368084427257e+02
2.018744123707215454e+00 4.583668549400484835e+02
2.018844145712056282e+00 4.582186122970129531e+02
2.018944167716897553e+00 4.580706107460594581e+02
2.019044189721738825e+00 4.579228521474385616e+02
2.019144211726579652e+00 4.577753383548839565e+02
2.019244233731420479e+00 4.576280712155690367e+02
2.019344255736261751e+00 4.574810525700606831e+02
2.019444277741103022e+00 4.573342842522794172e+02
2.019544299745943849e+00 4.571877680894518790e+02
2.019644321750785121e+00 4.570415059020709236e+02
2.019744343755625948e+00 4.568954995038498623e+02
2.019844365760467220e+00 4.567497507016814779e+02
2.019944387765308047e+00 4.566042612955958475e+02
2.020044409770149318e+00 4.564590330787158337e+02
2.020144431774990146e+00 4.563140678372178627e+02
2.020244453779831417e+00 4.561693673502871320e+02
2.020344475784672689e+00 4.560249333900785587e+02
2.020444497789513516e+00 4.558807677216735215e+02
2.020544519794354787e+00 4.557368721030404117e+02
2.020644541799195615e+00 4.555932482849913185e+02
2.020744563804036886e+00 4.554498980111435458e+02
2.020844585808877714e+00 4.553068230178790827e+02
2.020944607813718985e+00 4.551640250343028811e+02
2.021044629818559812e+00 4.550215057822032918e+02
2.021144651823401084e+00 4.548792669760143212e+02
2.021244673828242355e+00 4.547373103227731121e+02
2.021344695833083183e+00 4.545956375220827681e+02
2.021444717837924010e+00 4.544542502660733021e+02
2.021544739842765281e+00 4.543131502393616188e+02
2.021644761847606553e+00 4.541723391190144525e+02
2.021744783852447380e+00 4.540318185745084634e+02
2.021844805857288652e+00 4.538915902676944825e+02
2.021944827862129479e+00 4.537516558527576080e+02
2.022044849866970306e+00 4.536120169761816783e+02
2.022144871871811578e+00 4.534726752767093672e+02
2.022244893876652849e+00 4.533336323853081922e+02
2.022344915881493677e+00 4.531948899251318608e+02
2.022444937886334948e+00 4.530564495114842885e+02
2.022544959891176219e+00 4.529183127517839580e+02
2.022644981896017047e+00 4.527804812455264027e+02
2.022745003900857874e+00 4.526429565842508396e+02
2.022845025905699146e+00 4.525057403515023680e+02
2.022945047910539973e+00 4.523688341227975229e+02
2.023045069915381244e+00 4.522322394655920448e+02
2.023145091920222516e+00 4.520959579392409182e+02
2.023245113925063343e+00 4.519599910949685864e+02
2.023345135929904615e+00 4.518243404758330257e+02
2.023445157934745442e+00 4.516890076166915264e+02
2.023545179939586269e+00 4.515539940441687463e+02
2.023645201944427541e+00 4.514193012766205584e+02
2.023745223949268812e+00 4.512849308241039807e+02
2.023845245954109640e+00 4.511508841883435252e+02
2.023945267958950911e+00 4.510171628626972051e+02
2.024045289963792182e+00 4.508837683321257259e+02
2.024145311968633010e+00 4.507507020731601415e+02
2.024245333973473837e+00 4.506179655538708744e+02
2.024345355978315109e+00 4.504855602338354856e+02
2.024445377983155936e+00 4.503534875641070130e+02
2.024545399987997207e+00 4.502217489871843554e+02
2.024645421992838479e+00 4.500903459369815209e+02
2.024745443997679306e+00 4.499592798387963057e+02
2.024845466002520133e+00 4.498285521092813042e+02
2.024945488007361405e+00 4.496981641564138954e+02
2.025045510012202676e+00 4.495681173794664005e+02
2.025145532017043504e+00 4.494384131689769220e+02
2.025245554021884775e+00 4.493090529067217744e+02
2.025345576026725603e+00 4.491800379656848463e+02
2.025445598031566874e+00 4.490513697100308264e+02
2.025545620036407701e+00 4.489230494950766683e+02
2.025645642041248973e+00 4.487950786672627146e+02
2.025745664046089800e+00 4.486674585641274007e+02
2.025845686050931072e+00 4.485401905142787200e+02
2.025945708055772343e+00 4.484132758373673937e+02
2.026045730060613170e+00 4.482867158440604953e+02
2.026145752065454442e+00 4.481605118360149049e+02
2.026245774070295269e+00 4.480346651058521275e+02
2.026345796075136541e+00 4.479091769371306100e+02
2.026445818079977368e+00 4.477840486043226633e+02
2.026545840084818639e+00 4.476592813727879161e+02
2.026645862089659467e+00 4.475348764987493269e+02
2.026745884094500738e+00 4.474108352292666950e+02
2.026845906099342010e+00 4.472871588022150036e+02
2.026945928104182837e+00 4.471638484462588963e+02
2.027045950109023664e+00 4.470409053808289173e+02
2.027145972113864936e+00 4.469183308160995693e+02
2.027245994118706207e+00 4.467961259529634503e+02
2.027346016123547034e+00 4.466742919830123810e+02
2.027446038128388306e+00 4.465528300885104045e+02
2.027546060133229133e+00 4.464317414423761079e+02
2.027646082138069961e+00 4.463110272081576113e+02
2.027746104142911232e+00 4.461906885400117631e+02
2.027846126147752503e+00 4.460707265826829939e+02
2.027946148152593331e+00 4.459511424714829104e+02
2.028046170157434602e+00 4.458319373322686943e+02
2.028146192162275874e+00 4.457131122814233777e+02
2.028246214167116701e+00 4.455946684258349819e+02
2.028346236171957528e+00 4.454766068628775884e+02
2.028446258176798800e+00 4.453589286803908180e+02
2.028546280181639627e+00 4.452416349566624945e+02
2.028646302186480899e+00 4.451247267604081799e+02
2.028746324191322170e+00 4.450082051507529286e+02
2.028846346196162997e+00 4.448920711772122445e+02
2.028946368201004269e+00 4.447763258796770174e+02
2.029046390205845096e+00 4.446609702883919226e+02
2.029146412210685924e+00 4.445460054239417218e+02
2.029246434215527195e+00 4.444314322972309697e+02
2.029346456220368466e+00 4.443172519094703716e+02
2.029446478225209294e+00 4.442034652521580824e+02
2.029546500230050565e+00 4.440900733070638466e+02
2.029646522234891837e+00 4.439770770462150722e+02
2.029746544239732664e+00 4.438644774318790382e+02
2.029846566244573491e+00 4.437522754165490255e+02
2.029946588249414763e+00 4.436404719429290253e+02
2.030046610254255590e+00 4.435290679439191308e+02
2.030146632259096862e+00 4.434180643426016104e+02
2.030246654263938133e+00 4.433074620522262421e+02
2.030346676268778960e+00 4.431972619761980923e+02
2.030446698273619788e+00 4.430874650080621109e+02
2.030546720278461059e+00 4.429780720314927294e+02
2.030646742283302331e+00 4.428690839202781717e+02
2.030746764288143158e+00 4.427605015383110754e+02
2.030846786292984429e+00 4.426523257395730298e+02
2.030946808297825257e+00 4.425445573681274141e+02
2.031046830302666528e+00 4.424371972581023442e+02
2.031146852307507356e+00 4.423302462336841927e+02
2.031246874312348627e+00 4.422237051091049693e+02
2.031346896317189454e+00 4.421175746886314073e+02
2.031446918322030726e+00 4.420118557665545040e+02
2.031546940326871997e+00 4.419065491271822452e+02
2.031646962331712825e+00 4.418016555448262466e+02
2.031746984336553652e+00 4.416971757837951600e+02
2.031847006341394923e+00 4.415931105983846692e+02
2.031947028346236195e+00 4.414894607328687357e+02
2.032047050351077022e+00 4.413862269214930052e+02
2.032147072355918294e+00 4.412834098884633249e+02
2.032247094360759121e+00 4.411810103479418785e+02
2.032347116365600392e+00 4.410790290040371247e+02
2.032447138370441220e+00 4.409774665507982263e+02
2.032547160375282491e+00 4.408763236722064676e+02
2.032647182380123319e+00 4.407756010421718997e+02
2.032747204384964590e+00 4.406752993245245307e+02
2.032847226389805861e+00 4.405754191730081857e+02
2.032947248394646689e+00 4.404759612312780632e+02
2.033047270399487960e+00 4.403769261328927769e+02
2.033147292404328788e+00 4.402783145013105468e+02
2.033247314409169615e+00 4.401801269498835723e+02
2.033347336414010886e+00 4.400823640818558715e+02
2.033447358418852158e+00 4.399850264903579955e+02
2.033547380423692985e+00 4.398881147584024234e+02
2.033647402428534257e+00 4.397916294588827668e+02
2.033747424433375528e+00 4.396955711545676877e+02
2.033847446438215911e+00 4.395999403981028877e+02
2.033947468443057183e+00 4.395047377320020132e+02
2.034047490447898454e+00 4.394099636886513736e+02
2.034147512452739281e+00 4.393156187903038585e+02
2.034247534457580553e+00 4.392217035490785406e+02
2.034347556462421824e+00 4.391282184669606181e+02
2.034447578467262652e+00 4.390351640357998235e+02
2.034547600472103479e+00 4.389425407373096277e+02
2.034647622476944751e+00 4.388503490430668990e+02
2.034747644481785578e+00 4.387585894145137786e+02
2.034847666486626849e+00 4.386672623029561464e+02
2.034947688491468121e+00 4.385763681495646438e+02
2.035047710496308948e+00 4.384859073853779705e+02
2.035147732501150220e+00 4.383958804312999860e+02
2.035247754505991047e+00 4.383062876981059048e+02
2.035347776510832318e+00 4.382171295864407625e+02
2.035447798515673146e+00 4.381284064868256110e+02
2.035547820520514417e+00 4.380401187796546196e+02
2.035647842525355244e+00 4.379522668352041137e+02
2.035747864530196516e+00 4.378648510136311529e+02
2.035847886535037787e+00 4.377778716649788748e+02
2.035947908539878615e+00 4.376913291291810424e+02
2.036047930544719442e+00 4.376052237360651702e+02
2.036147952549560713e+00 4.375195558053567879e+02
2.036247974554401985e+00 4.374343256466851813e+02
2.036347996559242812e+00 4.373495335595877123e+02
2.036448018564084084e+00 4.372651798335157309e+02
2.036548040568924911e+00 4.371812647478402027e+02
2.036648062573766182e+00 4.370977885718571656e+02
2.036748084578607010e+00 4.370147515647944374e+02
2.036848106583448281e+00 4.369321539758185509e+02
2.036948128588289109e+00 4.368499960440413474e+02
2.037048150593130380e+00 4.367682779985262869e+02
2.037148172597971651e+00 4.366870000582979969e+02
2.037248194602812479e+00 4.366061624323490946e+02
2.037348216607653306e+00 4.365257653196467800e+02
2.037448238612494578e+00 4.364458089091446027e+02
2.037548260617335849e+00 4.363662933797877486e+02
2.037648282622176676e+00 4.362872189005242944e+02
2.037748304627017948e+00 4.362085856303148717e+02
2.037848326631858775e+00 4.361303937181388051e+02
2.037948348636700047e+00 4.360526433030099156e+02
2.038048370641540874e+00 4.359753345139802718e+02
2.038148392646382145e+00 4.358984674701563904e+02
2.038248414651222973e+00 4.358220422807058867e+02
2.038348436656064244e+00 4.357460590448709468e+02
2.038448458660905516e+00 4.356705178519798096e+02
2.038548480665746343e+00 4.355954187814563738e+02
2.038648502670587614e+00 4.355207619028347494e+02
2.038748524675428442e+00 4.354465472757701718e+02
2.038848546680269269e+00 4.353727749500512232e+02
2.038948568685110541e+00 4.352994449656156917e+02
2.039048590689951812e+00 4.352265573525583591e+02
2.039148612694792639e+00 4.351541121311507823e+02
2.039248634699633911e+00 4.350821093118491945e+02
2.039348656704475182e+00 4.350105488953133204e+02
2.039448678709315566e+00 4.349394308724181428e+02
2.039548700714156837e+00 4.348687552242689662e+02
2.039648722718998108e+00 4.347985219222168212e+02
2.039748744723838936e+00 4.347287309278735847e+02
2.039848766728680207e+00 4.346593821931268735e+02
2.039948788733521479e+00 4.345904756601576082e+02
2.040048810738362306e+00 4.345220112614534287e+02
