1.300030994937493523e+00 5.220722560965218690e+02
1.300134311395805486e+00 5.220589123379189687e+02
1.300237627854117228e+00 5.220456167448654696e+02
1.300340944312429192e+00 5.220323696278687748e+02
1.300444260770740934e+00 5.220191712953751448e+02
1.300547577229052454e+00 5.220060220537621944e+02
1.300650893687364640e+00 5.219929222073230903e+02
1.300754210145676160e+00 5.219798720582570013e+02
1.300857526603988124e+00 5.219668719066567064e+02
1.300960843062299865e+00 5.219539220504973400e+02
1.301064159520611829e+00 5.219410227856251367e+02
1.301167475978923571e+00 5.219281744057449259e+02
1.301270792437235535e+00 5.219153772024083082e+02
1.301374108895547277e+00 5.219026314650066070e+02
1.301477425353858797e+00 5.218899374807532467e+02
1.301580741812170761e+00 5.218772955346787512e+02
1.301684058270482502e+00 5.218647059096148269e+02
1.301787374728794466e+00 5.218521688861872008e+02
1.301890691187106208e+00 5.218396847428037972e+02
1.301994007645418172e+00 5.218272537556418911e+02
1.302097324103729914e+00 5.218148761986407180e+02
1.302200640562041434e+00 5.218025523434887418e+02
1.302303957020353398e+00 5.217902824596142182e+02
1.302407273478665140e+00 5.217780668141747356e+02
1.302510589936977103e+00 5.217659056720465287e+02
1.302613906395288845e+00 5.217537992958157247e+02
1.302717222853600809e+00 5.217417479457656100e+02
1.302820539311912551e+00 5.217297518798700366e+02
1.302923855770224293e+00 5.217178113537806894e+02
1.303027172228536035e+00 5.217059266208198096e+02
1.303130488686847777e+00 5.216940979319672351e+02
1.303233805145159740e+00 5.216823255358552842e+02
1.303337121603471482e+00 5.216706096787551132e+02
1.303440438061783446e+00 5.216589506045702365e+02
1.303543754520095188e+00 5.216473485548258395e+02
1.303647070978406930e+00 5.216358037686602529e+02
1.303750387436718672e+00 5.216243164828144927e+02
1.303853703895030636e+00 5.216128869316260079e+02
1.303957020353342378e+00 5.216015153470168570e+02
1.304060336811654119e+00 5.215902019584874552e+02
1.304163653269966083e+00 5.215789469931063422e+02
1.304266969728277825e+00 5.215677506755015429e+02
1.304370286186589567e+00 5.215566132278528357e+02
1.304473602644901309e+00 5.215455348698841362e+02
1.304576919103213273e+00 5.215345158188529240e+02
1.304680235561525015e+00 5.215235562895441035e+02
1.304783552019836979e+00 5.215126564942611367e+02
1.304886868478148720e+00 5.215018166428187669e+02
1.304990184936460462e+00 5.214910369425342651e+02
1.305093501394772204e+00 5.214803175982198127e+02
1.305196817853083946e+00 5.214696588121755667e+02
1.305300134311395910e+00 5.214590607841819292e+02
1.305403450769707652e+00 5.214485237114909069e+02
1.305506767228019616e+00 5.214380477888205405e+02
1.305610083686331357e+00 5.214276332083476291e+02
1.305713400144643321e+00 5.214172801596984073e+02
1.305816716602954841e+00 5.214069888299436570e+02
1.305920033061266583e+00 5.213967594035916591e+02
1.306023349519578547e+00 5.213865920625801209e+02
1.306126665977890289e+00 5.213764869862715159e+02
1.306229982436202253e+00 5.213664443514438744e+02
1.306333298894513995e+00 5.213564643322866914e+02
1.306436615352825958e+00 5.213465471003931953e+02
1.306539931811137478e+00 5.213366928247547776e+02
1.306643248269449220e+00 5.213269016717545128e+02
1.306746564727761184e+00 5.213171738051605644e+02
1.306849881186072926e+00 5.213075093861214100e+02
1.306953197644384890e+00 5.212979085731597024e+02
1.307056514102696632e+00 5.212883715221662442e+02
1.307159830561008595e+00 5.212788983863931662e+02
1.307263147019320115e+00 5.212694893164518817e+02
1.307366463477632301e+00 5.212601444603029677e+02
1.307469779935943821e+00 5.212508639632560516e+02
1.307573096394255563e+00 5.212416479679601480e+02
1.307676412852567527e+00 5.212324966144012706e+02
1.307779729310879269e+00 5.212234100398968621e+02
1.307883045769191233e+00 5.212143883790895416e+02
1.307986362227502752e+00 5.212054317639456258e+02
1.308089678685814938e+00 5.211965403237464898e+02
1.308192995144126458e+00 5.211877141850869748e+02
1.308296311602438422e+00 5.211789534718707273e+02
1.308399628060750164e+00 5.211702583053042872e+02
1.308502944519061906e+00 5.211616288038935636e+02
1.308606260977373870e+00 5.211530650834420157e+02
1.308709577435685389e+00 5.211445672570425813e+02
1.308812893893997575e+00 5.211361354350776764e+02
1.308916210352309095e+00 5.211277697252126018e+02
1.309019526810621059e+00 5.211194702323941783e+02
1.309122843268932801e+00 5.211112370588456315e+02
1.309226159727244765e+00 5.211030703040643175e+02
1.309329476185556507e+00 5.210949700648176304e+02
1.309432792643868027e+00 5.210869364351397053e+02
1.309536109102180212e+00 5.210789695063299405e+02
1.309639425560491732e+00 5.210710693669475404e+02
1.309742742018803696e+00 5.210632361028117430e+02
1.309846058477115438e+00 5.210554697969960216e+02
1.309949374935427402e+00 5.210477705298276305e+02
1.310052691393739144e+00 5.210401383788840803e+02
1.310156007852051108e+00 5.210325734189914328e+02
1.310259324310362850e+00 5.210250757222214588e+02
1.310362640768674369e+00 5.210176453578899327e+02
1.310465957226986333e+00 5.210102823925542452e+02
1.310569273685298075e+00 5.210029868900119254e+02
1.310672590143610039e+00 5.209957589112977985e+02
1.310775906601921781e+00 5.209885985146844405e+02
1.310879223060233745e+00 5.209815057556781994e+02
1.310982539518545487e+00 5.209744806870188540e+02
1.311085855976857228e+00 5.209675233586783634e+02
1.311189172435168970e+00 5.209606338178598435e+02
1.311292488893480712e+00 5.209538121089950664e+02
1.311395805351792676e+00 5.209470582737459381e+02
1.311499121810104418e+00 5.209403723510008604e+02
1.311602438268416382e+00 5.209337543768756404e+02
1.311705754726728124e+00 5.209272043847124678e+02
1.311809071185039866e+00 5.209207224050792320e+02
1.311912387643351607e+00 5.209143084657694089e+02
1.312015704101663349e+00 5.209079625918014926e+02
1.312119020559975313e+00 5.209016848054185402e+02
1.312222337018287055e+00 5.208954751260880585e+02
1.312325653476599019e+00 5.208893335705031404e+02
1.312428969934910761e+00 5.208832601525820110e+02
1.312532286393222503e+00 5.208772548834663212e+02
1.312635602851534244e+00 5.208713177715250140e+02
1.312738919309846208e+00 5.208654488223526187e+02
1.312842235768157950e+00 5.208596480387701604e+02
1.312945552226469692e+00 5.208539154208259561e+02
1.313048868684781656e+00 5.208482509657961828e+02
1.313152185143093398e+00 5.208426546681865830e+02
1.313255501601405140e+00 5.208371265197331468e+02
1.313358818059716882e+00 5.208316665094027940e+02
1.313462134518028845e+00 5.208262746233951930e+02
1.313565450976340587e+00 5.208209508451441252e+02
1.313668767434652551e+00 5.208156951553187355e+02
1.313772083892964293e+00 5.208105075318255786e+02
1.313875400351276035e+00 5.208053879498095284e+02
1.313978716809587777e+00 5.208003363816571891e+02
1.314082033267899519e+00 5.207953527969964398e+02
1.314185349726211482e+00 5.207904371627009823e+02
1.314288666184523224e+00 5.207855894428919328e+02
1.314391982642835188e+00 5.207808095989375943e+02
1.314495299101146930e+00 5.207760975894601643e+02
1.314598615559458894e+00 5.207714533703342568e+02
1.314701932017770414e+00 5.207668768946940645e+02
1.314805248476082156e+00 5.207623681129301758e+02
1.314908564934394120e+00 5.207579269726970779e+02
1.315011881392705861e+00 5.207535534189158852e+02
1.315115197851017825e+00 5.207492473937735440e+02
1.315218514309329567e+00 5.207450088367315857e+02
1.315321830767641531e+00 5.207408376845244220e+02
1.315425147225953051e+00 5.207367338711662796e+02
1.315528463684265237e+00 5.207326973279540425e+02
1.315631780142576757e+00 5.207287279834674791e+02
1.315735096600888498e+00 5.207248257635793607e+02
1.315838413059200462e+00 5.207209905914531873e+02
1.315941729517512204e+00 5.207172223875509189e+02
1.316045045975824168e+00 5.207135210696364993e+02
1.316148362434135688e+00 5.207098865527774478e+02
1.316251678892447874e+00 5.207063187493539544e+02
1.316354995350759394e+00 5.207028175690578564e+02
1.316458311809071358e+00 5.206993829189024154e+02
1.316561628267383099e+00 5.206960147032229997e+02
1.316664944725694841e+00 5.206927128236837916e+02
1.316768261184006805e+00 5.206894771792816528e+02
1.316871577642318325e+00 5.206863076663523771e+02
1.316974894100630511e+00 5.206832041785746696e+02
1.317078210558942031e+00 5.206801666069759449e+02
1.317181527017253995e+00 5.206771948399368739e+02
1.317284843475565737e+00 5.206742887631979784e+02
1.317388159933877478e+00 5.206714482598639506e+02
1.317491476392189442e+00 5.206686732104097928e+02
1.317594792850500962e+00 5.206659634926883200e+02
1.317698109308813148e+00 5.206633189819310701e+02
1.317801425767124668e+00 5.206607395507602405e+02
1.317904742225436632e+00 5.206582250691903937e+02
1.318008058683748374e+00 5.206557754046373248e+02
1.318111375142060337e+00 5.206533904219222677e+02
1.318214691600372079e+00 5.206510699832800810e+02
1.318318008058683599e+00 5.206488139483640225e+02
1.318421324516995785e+00 5.206466221742539346e+02
1.318524640975307305e+00 5.206444945154618154e+02
1.318627957433619269e+00 5.206424308239388665e+02
1.318731273891931011e+00 5.206404309490834521e+02
1.318834590350242975e+00 5.206384947377450771e+02
1.318937906808554716e+00 5.206366220342360975e+02
1.319041223266866680e+00 5.206348126803356990e+02
1.319144539725178422e+00 5.206330665152968322e+02
1.319247856183489942e+00 5.206313833758562168e+02
1.319351172641801906e+00 5.206297630962394578e+02
1.319454489100113648e+00 5.206282055081709359e+02
1.319557805558425612e+00 5.206267104408783553e+02
1.319661122016737353e+00 5.206252777211041121e+02
1.319764438475049317e+00 5.206239071731113199e+02
1.319867754933361059e+00 5.206225986186919954e+02
1.319971071391672801e+00 5.206213518771744475e+02
1.320074387849984543e+00 5.206201667654338507e+02
1.320177704308296285e+00 5.206190430978987251e+02
1.320281020766608249e+00 5.206179806865591218e+02
1.320384337224919991e+00 5.206169793409769682e+02
1.320487653683231954e+00 5.206160388682922076e+02
1.320590970141543696e+00 5.206151590732345085e+02
1.320694286599855438e+00 5.206143397581290628e+02
1.320797603058167180e+00 5.206135807229084094e+02
1.320900919516479144e+00 5.206128817651181180e+02
1.321004235974790886e+00 5.206122426799292953e+02
1.321107552433102628e+00 5.206116632601465426e+02
1.321210868891414592e+00 5.206111432962165964e+02
1.321314185349726333e+00 5.206106825762374228e+02
1.321417501808038075e+00 5.206102808859698143e+02
1.321520818266349817e+00 5.206099380088440967e+02
1.321624134724661781e+00 5.206096537259744537e+02
1.321727451182973523e+00 5.206094278161627926e+02
1.321830767641285487e+00 5.206092600559127277e+02
1.321934084099597229e+00 5.206091502194382201e+02
1.322037400557908970e+00 5.206090980786743785e+02
1.322140717016220712e+00 5.206091034032864400e+02
1.322244033474532454e+00 5.206091659606813664e+02
1.322347349932844418e+00 5.206092855160163708e+02
1.322450666391156160e+00 5.206094618322127872e+02
1.322553982849468124e+00 5.206096946699622094e+02
1.322657299307779866e+00 5.206099837877399068e+02
1.322760615766091608e+00 5.206103289418153963e+02
1.322863932224403349e+00 5.206107298862629023e+02
1.322967248682715091e+00 5.206111863729709057e+02
1.323070565141027055e+00 5.206116981516551050e+02
1.323173881599338797e+00 5.206122649698704663e+02
1.323277198057650761e+00 5.206128865730171356e+02
1.323380514515962503e+00 5.206135627043582872e+02
1.323483830974274467e+00 5.206142931050270590e+02
1.323587147432585986e+00 5.206150775140393989e+02
1.323690463890897728e+00 5.206159156683066840e+02
1.323793780349209692e+00 5.206168073026437924e+02
1.323897096807521434e+00 5.206177521497852467e+02
1.324000413265833398e+00 5.206187499403939682e+02
1.324103729724145140e+00 5.206198004030750326e+02
1.324207046182457104e+00 5.206209032643847650e+02
1.324310362640768624e+00 5.206220582488465425e+02
1.324413679099080809e+00 5.206232650789592071e+02
1.324516995557392329e+00 5.206245234752130955e+02
1.324620312015704071e+00 5.206258331560981105e+02
1.324723628474016035e+00 5.206271938381197515e+02
1.324826944932327777e+00 5.206286052358088909e+02
1.324930261390639741e+00 5.206300670617357582e+02
1.325033577848951261e+00 5.206315790265224450e+02
1.325136894307263447e+00 5.206331408388539330e+02
1.325240210765574966e+00 5.206347522054948058e+02
1.325343527223886930e+00 5.206364128312967523e+02
1.325446843682198672e+00 5.206381224192155059e+02
1.325550160140510414e+00 5.206398806703213040e+02
1.325653476598822378e+00 5.206416872838143490e+02
1.325756793057133898e+00 5.206435419570360636e+02
1.325860109515446084e+00 5.206454443854831879e+02
1.325963425973757603e+00 5.206473942628203986e+02
1.326066742432069567e+00 5.206493912808936102e+02
1.326170058890381309e+00 5.206514351297448684e+02
1.326273375348693273e+00 5.206535254976241731e+02
1.326376691807005015e+00 5.206556620710035759e+02
1.326480008265316535e+00 5.206578445345909358e+02
1.326583324723628721e+00 5.206600725713437896e+02
1.326686641181940240e+00 5.206623458624832210e+02
1.326789957640252204e+00 5.206646640875062531e+02
1.326893274098563946e+00 5.206670269242022187e+02
1.326996590556875910e+00 5.206694340486653800e+02
1.327099907015187652e+00 5.206718851353078890e+02
1.327203223473499172e+00 5.206743798568764987e+02
1.327306539931811358e+00 5.206769178844639328e+02
1.327409856390122878e+00 5.206794988875266199e+02
1.327513172848434841e+00 5.206821225338952672e+02
1.327616489306746583e+00 5.206847884897913445e+02
1.327719805765058547e+00 5.206874964198416365e+02
1.327823122223370289e+00 5.206902459870915436e+02
1.327926438681682253e+00 5.206930368530212263e+02
1.328029755139993995e+00 5.206958686775590195e+02
1.328133071598305515e+00 5.206987411190959847e+02
1.328236388056617479e+00 5.207016538345019399e+02
1.328339704514929220e+00 5.207046064791402387e+02
1.328443020973241184e+00 5.207075987068806171e+02
1.328546337431552926e+00 5.207106301701159055e+02
1.328649653889864890e+00 5.207137005197774897e+02
1.328752970348176632e+00 5.207168094053487266e+02
1.328856286806488374e+00 5.207199564748816556e+02
1.328959603264800116e+00 5.207231413750105276e+02
1.329062919723111857e+00 5.207263637509685168e+02
1.329166236181423821e+00 5.207296232466021593e+02
1.329269552639735563e+00 5.207329195043873824e+02
1.329372869098047527e+00 5.207362521654445118e+02
1.329476185556359269e+00 5.207396208695533915e+02
1.329579502014671011e+00 5.207430252551691865e+02
1.329682818472982753e+00 5.207464649594382990e+02
1.329786134931294717e+00 5.207499396182140572e+02
1.329889451389606458e+00 5.207534488660717216e+02
1.329992767847918200e+00 5.207569923363230373e+02
1.330096084306230164e+00 5.207605696610362429e+02
1.330199400764541906e+00 5.207641804710472115e+02
1.330302717222853648e+00 5.207678243959777546e+02
1.330406033681165390e+00 5.207715010642513107e+02
1.330509350139477354e+00 5.207752101031080656e+02
1.330612666597789095e+00 5.207789511386214372e+02
1.330715983056101059e+00 5.207827237957146735e+02
1.330819299514412801e+00 5.207865276981766556e+02
1.330922615972724543e+00 5.207903624686766761e+02
1.331025932431036285e+00 5.207942277287834258e+02
1.331129248889348027e+00 5.207981230989788628e+02
1.331232565347659991e+00 5.208020481986745835e+02
1.331335881805971733e+00 5.208060026462306951e+02
1.331439198264283696e+00 5.208099860589677519e+02
1.331542514722595438e+00 5.208139980531880155e+02
1.331645831180907402e+00 5.208180382441878464e+02
1.331749147639218922e+00 5.208221062462770306e+02
1.331852464097530664e+00 5.208262016727933315e+02
1.331955780555842628e+00 5.208303241361213622e+02
1.332059097014154370e+00 5.208344732477057732e+02
1.332162413472466334e+00 5.208386486180710335e+02
1.332265729930778075e+00 5.208428498568365512e+02
1.332369046389090039e+00 5.208470765727344087e+02
1.332472362847401559e+00 5.208513283736234598e+02
1.332575679305713301e+00 5.208556048665107028e+02
1.332678995764025265e+00 5.208599056575627628e+02
1.332782312222337007e+00 5.208642303521281747e+02
1.332885628680648971e+00 5.208685785547477280e+02
1.332988945138960712e+00 5.208729498691792514e+02
1.333092261597272676e+00 5.208773438984077302e+02
1.333195578055584196e+00 5.208817602446654291e+02
1.333298894513896382e+00 5.208861985094482634e+02
1.333402210972207902e+00 5.208906582935339884e+02
1.333505527430519644e+00 5.208951391969962970e+02
1.333608843888831608e+00 5.208996408192259651e+02
1.333712160347143350e+00 5.209041627589430163e+02
1.333815476805455313e+00 5.209087046142193458e+02
1.333918793263766833e+00 5.209132659824914526e+02
1.334022109722079019e+00 5.209178464605791987e+02
1.334125426180390539e+00 5.209224456447033162e+02
1.334228742638702503e+00 5.209270631305026882e+02
1.334332059097014245e+00 5.209316985130514013e+02
1.334435375555325987e+00 5.209363513868740938e+02
1.334538692013637950e+00 5.209410213459675560e+02
1.334642008471949470e+00 5.209457079838130085e+02
1.334745324930261656e+00 5.209504108933981570e+02
1.334848641388573176e+00 5.209551296672292438e+02
1.334951957846885140e+00 5.209598638973537845e+02
1.335055274305196882e+00 5.209646131753748932e+02
1.335158590763508846e+00 5.209693770924693581e+02
1.335261907221820588e+00 5.209741552394038990e+02
1.335365223680132107e+00 5.209789472065551763e+02
1.335468540138444293e+00 5.209837525839244563e+02
1.335571856596755813e+00 5.209885709611569382e+02
1.335675173055067777e+00 5.209934019275586934e+02
1.335778489513379519e+00 5.209982450721120131e+02
1.335881805971691483e+00 5.210030999834982595e+02
1.335985122430003225e+00 5.210079662501093480e+02
1.336088438888315189e+00 5.210128434600677565e+02
1.336191755346626930e+00 5.210177312012460789e+02
1.336295071804938450e+00 5.210226290612799858e+02
1.336398388263250414e+00 5.210275366275900524e+02
1.336501704721562156e+00 5.210324534873961966e+02
1.336605021179874120e+00 5.210373792277384837e+02
1.336708337638185862e+00 5.210423134354907688e+02
1.336811654096497826e+00 5.210472556973809333e+02
1.336914970554809567e+00 5.210522056000072553e+02
1.337018287013121309e+00 5.210571627298561452e+02
1.337121603471433051e+00 5.210621266733215862e+02
1.337224919929744793e+00 5.210670970167190035e+02
1.337328236388056757e+00 5.210720733463050465e+02
1.337431552846368499e+00 5.210770552482953235e+02
1.337534869304680463e+00 5.210820423088819098e+02
1.337638185762992205e+00 5.210870341142492634e+02
1.337741502221303946e+00 5.210920302505940072e+02
1.337844818679615688e+00 5.210970303041412990e+02
1.337948135137927430e+00 5.211020338611618854e+02
1.338051451596239394e+00 5.211070405079900638e+02
1.338154768054551136e+00 5.211120498310425546e+02
1.338258084512863100e+00 5.211170614168331667e+02
1.338361400971174842e+00 5.211220748519945118e+02
1.338464717429486583e+00 5.211270897232897141e+02
1.338568033887798325e+00 5.211321056176358297e+02
1.338671350346110289e+00 5.211371221221166934e+02
1.338774666804422031e+00 5.211421388240044053e+02
1.338877983262733773e+00 5.211471553107721775e+02
1.338981299721045737e+00 5.211521711701168442e+02
1.339084616179357479e+00 5.211571859899725041e+02
1.339187932637669221e+00 5.211621993585291648e+02
1.339291249095980962e+00 5.211672108642504782e+02
1.339394565554292926e+00 5.211722200958917028e+02
1.339497882012604668e+00 5.211772266425139151e+02
1.339601198470916632e+00 5.211822300935072008e+02
1.339704514929228374e+00 5.211872300386013421e+02
1.339807831387540116e+00 5.211922260678887824e+02
1.339911147845851858e+00 5.211972177718382682e+02
1.340014464304163599e+00 5.212022047413128121e+02
1.340117780762475563e+00 5.212071865675893605e+02
1.340221097220787305e+00 5.212121628423733455e+02
1.340324413679099269e+00 5.212171331578168747e+02
1.340427730137411011e+00 5.212220971065353297e+02
1.340531046595722975e+00 5.212270542816258967e+02
1.340634363054034495e+00 5.212320042766842789e+02
1.340737679512346237e+00 5.212369466858210671e+02
1.340840995970658200e+00 5.212418811036792476e+02
1.340944312428969942e+00 5.212468071254517099e+02
1.341047628887281906e+00 5.212517243468981860e+02
1.341150945345593648e+00 5.212566323643612805e+02
1.341254261803905612e+00 5.212615307747860243e+02
1.341357578262217132e+00 5.212664191757332901e+02
1.341460894720529318e+00 5.212712971653996874e+02
1.341564211178840837e+00 5.212761643426340470e+02
1.341667527637152579e+00 5.212810203069527688e+02
1.341770844095464543e+00 5.212858646585584665e+02
1.341874160553776285e+00 5.212906969983552017e+02
1.341977477012088249e+00 5.212955169279664460e+02
1.342080793470399769e+00 5.213003240497520210e+02
1.342184109928711955e+00 5.213051179668239001e+02
1.342287426387023475e+00 5.213098982830638306e+02
1.342390742845335438e+00 5.213146646031389082e+02
1.342494059303647180e+00 5.213194165325197673e+02
1.342597375761958922e+00 5.213241536774955875e+02
1.342700692220270886e+00 5.213288756451913741e+02
1.342804008678582406e+00 5.213335820435847836e+02
1.342907325136894592e+00 5.213382724815230631e+02
1.343010641595206112e+00 5.213429465687365791e+02
1.343113958053518076e+00 5.213476039158606454e+02
1.343217274511829817e+00 5.213522441344454137e+02
1.343320590970141559e+00 5.213568668369771331e+02
1.343423907428453523e+00 5.213614716368937252e+02
1.343527223886765043e+00 5.213660581485978582e+02
1.343630540345077229e+00 5.213706259874766147e+02
1.343733856803388749e+00 5.213751747699164980e+02
1.343837173261700713e+00 5.213797041133182120e+02
1.343940489720012454e+00 5.213842136361166695e+02
1.344043806178324418e+00 5.213887029577913381e+02
1.344147122636636160e+00 5.213931716988873859e+02
1.344250439094947680e+00 5.213976194810271636e+02
1.344353755553259866e+00 5.214020459269321464e+02
1.344457072011571386e+00 5.214064506604298685e+02
1.344560388469883350e+00 5.214108333064798444e+02
1.344663704928195092e+00 5.214151934911802755e+02
1.344767021386507055e+00 5.214195308417907881e+02
1.344870337844818797e+00 5.214238449867426652e+02
1.344973654303130761e+00 5.214281355556585140e+02
1.345076970761442503e+00 5.214324021793655675e+02
1.345180287219754023e+00 5.214366444899106909e+02
1.345283603678065987e+00 5.214408621205783447e+02
1.345386920136377729e+00 5.214450547059034307e+02
1.345490236594689692e+00 5.214492218816876630e+02
1.345593553053001434e+00 5.214533632850145750e+02
1.345696869511313398e+00 5.214574785542661175e+02
1.345800185969625140e+00 5.214615673291347093e+02
1.345903502427936882e+00 5.214656292506410864e+02
1.346006818886248624e+00 5.214696639611491946e+02
1.346110135344560366e+00 5.214736711043790365e+02
1.346213451802872330e+00 5.214776503254236104e+02
1.346316768261184071e+00 5.214816012707626669e+02
1.346420084719496035e+00 5.214855235882788520e+02
1.346523401177807777e+00 5.214894169272706677e+02
1.346626717636119519e+00 5.214932809384682741e+02
1.346730034094431261e+00 5.214971152740475873e+02
1.346833350552743225e+00 5.215009195876449439e+02
1.346936667011054967e+00 5.215046935343725636e+02
1.347039983469366708e+00 5.215084367708308264e+02
1.347143299927678672e+00 5.215121489551250988e+02
1.347246616385990414e+00 5.215158297468776709e+02
1.347349932844302156e+00 5.215194788072425354e+02
1.347453249302613898e+00 5.215230957989227818e+02
1.347556565760925862e+00 5.215266803861795779e+02
1.347659882219237604e+00 5.215302322348486541e+02
1.347763198677549346e+00 5.215337510123558786e+02
1.347866515135861309e+00 5.215372363877273756e+02
1.347969831594173051e+00 5.215406880316070328e+02
1.348073148052484793e+00 5.215441056162671885e+02
1.348176464510796535e+00 5.215474888156250017e+02
1.348279780969108499e+00 5.215508373052543902e+02
1.348383097427420241e+00 5.215541507623991038e+02
1.348486413885732205e+00 5.215574288659876174e+02
1.348589730344043947e+00 5.215606712966459781e+02
1.348693046802355688e+00 5.215638777367113335e+02
1.348796363260667430e+00 5.215670478702439823e+02
1.348899679718979172e+00 5.215701813830412448e+02
1.349002996177291136e+00 5.215732779626516731e+02
1.349106312635602878e+00 5.215763372983869886e+02
1.349209629093914842e+00 5.215793590813332230e+02
1.349312945552226584e+00 5.215823430043681128e+02
1.349416262010538548e+00 5.215852887621691707e+02
1.349519578468850067e+00 5.215881960512300566e+02
1.349622894927161809e+00 5.215910645698697863e+02
1.349726211385473773e+00 5.215938940182471697e+02
1.349829527843785515e+00 5.215966840983751354e+02
1.349932844302097479e+00 5.215994345141286885e+02
1.350036160760409221e+00 5.216021449712602589e+02
1.350139477218721185e+00 5.216048151774124335e+02
1.350242793677032704e+00 5.216074448421275065e+02
1.350346110135344890e+00 5.216100336768611214e+02
1.350449426593656410e+00 5.216125813949943222e+02
1.350552743051968152e+00 5.216150877118457174e+02
1.350656059510280116e+00 5.216175523446815987e+02
1.350759375968591858e+00 5.216199750127293555e+02
1.350862692426903822e+00 5.216223554371887303e+02
1.350966008885215341e+00 5.216246933412420503e+02
1.351069325343527527e+00 5.216269884500686658e+02
1.351172641801839047e+00 5.216292404908530216e+02
1.351275958260151011e+00 5.216314491927982999e+02
1.351379274718462753e+00 5.216336142871348329e+02
1.351482591176774495e+00 5.216357355071353368e+02
1.351585907635086459e+00 5.216378125881226424e+02
1.351689224093397979e+00 5.216398452674823147e+02
1.351792540551710164e+00 5.216418332846714065e+02
1.351895857010021684e+00 5.216437763812319872e+02
1.351999173468333648e+00 5.216456743008000103e+02
1.352102489926645390e+00 5.216475267891167960e+02
1.352205806384957354e+00 5.216493335940384668e+02
1.352309122843269096e+00 5.216510944655472031e+02
1.352412439301580616e+00 5.216528091557621565e+02
1.352515755759892802e+00 5.216544774189462714e+02
1.352619072218204321e+00 5.216560990115222012e+02
1.352722388676516285e+00 5.216576736920774238e+02
1.352825705134828027e+00 5.216592012213759517e+02
1.352929021593139991e+00 5.216606813623673133e+02
1.353032338051451733e+00 5.216621138801982624e+02
1.353135654509763253e+00 5.216634985422207365e+02
1.353238970968075439e+00 5.216648351180028840e+02
1.353342287426386958e+00 5.216661233793353176e+02
1.353445603884698922e+00 5.216673631002444154e+02
1.353548920343010664e+00 5.216685540569991417e+02
1.353652236801322628e+00 5.216696960281210522e+02
1.353755553259634370e+00 5.216707887943942978e+02
1.353858869717946334e+00 5.216718321388715367e+02
1.353962186176258076e+00 5.216728258468863260e+02
1.354065502634569595e+00 5.216737697060594883e+02
1.354168819092881559e+00 5.216746635063102531e+02
1.354272135551193301e+00 5.216755070398614862e+02
1.354375452009505265e+00 5.216763001012507175e+02
1.354478768467817007e+00 5.216770424873383263e+02
1.354582084926128971e+00 5.216777339973144763e+02
1.354685401384440713e+00 5.216783744327085515e+02
1.354788717842752455e+00 5.216789635973967734e+02
1.354892034301064196e+00 5.216795012976094768e+02
1.354995350759375938e+00 5.216799873419417963e+02
1.355098667217687902e+00 5.216804215413567363e+02
1.355201983675999644e+00 5.216808037091975621e+02
1.355305300134311608e+00 5.216811336611925753e+02
1.355408616592623350e+00 5.216814112154629584e+02
1.355511933050935092e+00 5.216816361925305046e+02
1.355615249509246834e+00 5.216818084153259178e+02
1.355718565967558797e+00 5.216819277091940421e+02
1.355821882425870539e+00 5.216819939019019330e+02
1.355925198884182281e+00 5.216820068236460202e+02
1.356028515342494245e+00 5.216819663070585875e+02
1.356131831800805987e+00 5.216818721872141396e+02
1.356235148259117729e+00 5.216817243016370185e+02
1.356338464717429471e+00 5.216815224903079979e+02
1.356441781175741434e+00 5.216812665956681485e+02
1.356545097634053176e+00 5.216809564626289557e+02
1.356648414092365140e+00 5.216805919385765264e+02
1.356751730550676882e+00 5.216801728733760228e+02
1.356855047008988624e+00 5.216796991193831445e+02
1.356958363467300366e+00 5.216791705314428782e+02
1.357061679925612108e+00 5.216785869669006388e+02
1.357164996383924072e+00 5.216779482856063623e+02
1.357268312842235813e+00 5.216772543499181438e+02
1.357371629300547777e+00 5.216765050247120143e+02
1.357474945758859519e+00 5.216757001773827369e+02
1.357578262217171483e+00 5.216748396778511960e+02
1.357681578675483003e+00 5.216739233985706505e+02
1.357784895133794745e+00 5.216729512145291210e+02
1.357888211592106709e+00 5.216719230032575751e+02
1.357991528050418450e+00 5.216708386448298143e+02
1.358094844508730414e+00 5.216696980218739554e+02
1.358198160967042156e+00 5.216685010195697032e+02
1.358301477425354120e+00 5.216672475256594907e+02
1.358404793883665640e+00 5.216659374304482526e+02
1.358508110341977382e+00 5.216645706268099048e+02
1.358611426800289346e+00 5.216631470101895047e+02
1.358714743258601088e+00 5.216616664786108686e+02
1.358818059716913051e+00 5.216601289326767983e+02
1.358921376175224793e+00 5.216585342755746524e+02
1.359024692633536757e+00 5.216568824130802113e+02
1.359128009091848277e+00 5.216551732535605197e+02
1.359231325550160463e+00 5.216534067079780925e+02
1.359334642008471983e+00 5.216515826898929618e+02
1.359437958466783725e+00 5.216497011154692700e+02
1.359541274925095689e+00 5.216477619034728832e+02
1.359644591383407430e+00 5.216457649752808265e+02
1.359747907841719394e+00 5.216437102548787834e+02
1.359851224300030914e+00 5.216415976688670071e+02
1.359954540758343100e+00 5.216394271464627082e+02
1.360057857216654620e+00 5.216371986195014188e+02
1.360161173674966584e+00 5.216349120224401759e+02
1.360264490133278326e+00 5.216325672923603634e+02
1.360367806591590067e+00 5.216301643689696448e+02
1.360471123049902031e+00 5.216277031946035549e+02
1.360574439508213551e+00 5.216251837142283421e+02
1.360677755966525737e+00 5.216226058754422183e+02
1.360781072424837257e+00 5.216199696284779748e+02
1.360884388883149221e+00 5.216172749262034358e+02
1.360987705341460963e+00 5.216145217241244154e+02
1.361091021799772927e+00 5.216117099803857400e+02
1.361194338258084668e+00 5.216088396557714759e+02
1.361297654716396188e+00 5.216059107137079991e+02
1.361400971174708374e+00 5.216029231202639949e+02
1.361504287633019894e+00 5.215998768441513675e+02
1.361607604091331858e+00 5.215967718567278553e+02
1.361710920549643600e+00 5.215936081319944151e+02
1.361814237007955564e+00 5.215903856465993158e+02
1.361917553466267305e+00 5.215871043798365463e+02
1.362020869924579269e+00 5.215837643136484303e+02
1.362124186382891011e+00 5.215803654326228980e+02
1.362227502841202531e+00 5.215769077239964417e+02
1.362330819299514495e+00 5.215733911776529794e+02
1.362434135757826237e+00 5.215698157861233994e+02
1.362537452216138201e+00 5.215661815445873799e+02
1.362640768674449943e+00 5.215624884508699779e+02
1.362744085132761906e+00 5.215587365054449265e+02
1.362847401591073648e+00 5.215549257114313377e+02
1.362950718049385168e+00 5.215510560745944986e+02
1.363054034507697132e+00 5.215471276033456434e+02
1.363157350966008874e+00 5.215431403087386570e+02
1.363260667424320838e+00 5.215390942044720077e+02
1.363363983882632580e+00 5.215349893068869278e+02
1.363467300340944544e+00 5.215308256349637759e+02
1.363570616799256285e+00 5.215266032103269254e+02
1.363673933257568027e+00 5.215223220572353284e+02
1.363777249715879769e+00 5.215179822025869498e+02
1.363880566174191511e+00 5.215135836759156973e+02
1.363983882632503475e+00 5.215091265093877837e+02
1.364087199090815217e+00 5.215046107378032048e+02
1.364190515549127181e+00 5.215000363985911918e+02
1.364293832007438922e+00 5.214954035318087335e+02
1.364397148465750664e+00 5.214907121801387575e+02
1.364500464924062406e+00 5.214859623888883107e+02
1.364603781382374370e+00 5.214811542059856038e+02
1.364707097840686112e+00 5.214762876819767143e+02
1.364810414298997854e+00 5.214713628700246772e+02
1.364913730757309818e+00 5.214663798259053920e+02
1.365017047215621560e+00 5.214613386080053488e+02
1.365120363673933301e+00 5.214562392773190140e+02
1.365223680132245043e+00 5.214510818974453059e+02
1.365326996590557007e+00 5.214458665345832742e+02
1.365430313048868749e+00 5.214405932575313045e+02
1.365533629507180713e+00 5.214352621376821162e+02
1.365636945965492455e+00 5.214298732490193515e+02
1.365740262423804197e+00 5.214244266681140516e+02
1.365843578882115938e+00 5.214189224741218140e+02
1.365946895340427680e+00 5.214133607487769950e+02
1.366050211798739644e+00 5.214077415763904355e+02
1.366153528257051386e+00 5.214020650438450275e+02
1.366256844715363350e+00 5.213963312405917350e+02
1.366360161173675092e+00 5.213905402586431137e+02
1.366463477631987056e+00 5.213846921925728566e+02
1.366566794090298576e+00 5.213787871395088587e+02
1.366670110548610317e+00 5.213728251991275329e+02
1.366773427006922281e+00 5.213668064736521046e+02
1.366876743465234023e+00 5.213607310678447675e+02
1.366980059923545987e+00 5.213545990890036137e+02
1.367083376381857729e+00 5.213484106469575181e+02
1.367186692840169693e+00 5.213421658540599992e+02
1.367290009298481213e+00 5.213358648251847853e+02
1.367393325756793399e+00 5.213295076777189934e+02
1.367496642215104918e+00 5.213230945315605140e+02
1.367599958673416660e+00 5.213166255091093717e+02
1.367703275131728624e+00 5.213101007352635179e+02
1.367806591590040366e+00 5.213035203374133744e+02
1.367909908048352330e+00 5.212968844454345572e+02
1.368013224506663850e+00 5.212901931916831018e+02
1.368116540964976036e+00 5.212834467109879597e+02
1.368219857423287555e+00 5.212766451406467922e+02
1.368323173881599297e+00 5.212697886204176712e+02
1.368426490339911261e+00 5.212628772925141902e+02
1.368529806798223003e+00 5.212559113015975072e+02
1.368633123256534967e+00 5.212488907947697498e+02
1.368736439714846487e+00 5.212418159215685591e+02
1.368839756173158673e+00 5.212346868339594721e+02
1.368943072631470192e+00 5.212275036863293280e+02
1.369046389089782156e+00 5.212202666354764915e+02
1.369149705548093898e+00 5.212129758406085784e+02
1.369253022006405640e+00 5.212056314633313150e+02
1.369356338464717604e+00 5.211982336676421710e+02
1.369459654923029124e+00 5.211907826199237661e+02
1.369562971381341310e+00 5.211832784889347749e+02
1.369666287839652830e+00 5.211757214458026510e+02
1.369769604297964793e+00 5.211681116640172604e+02
1.369872920756276535e+00 5.211604493194212182e+02
1.369976237214588499e+00 5.211527345902022716e+02
1.370079553672900241e+00 5.211449676568853420e+02
1.370182870131211761e+00 5.211371487023250211e+02
1.370286186589523947e+00 5.211292779116957945e+02
1.370389503047835467e+00 5.211213554724849928e+02
1.370492819506147431e+00 5.211133815744834692e+02
1.370596135964459172e+00 5.211053564097775279e+02
1.370699452422771136e+00 5.210972801727389196e+02
1.370802768881082878e+00 5.210891530600184751e+02
1.370906085339394842e+00 5.210809752705345090e+02
1.371009401797706584e+00 5.210727470054657715e+02
1.371112718256018104e+00 5.210644684682408752e+02
1.371216034714330068e+00 5.210561398645304507e+02
1.371319351172641809e+00 5.210477614022368016e+02
1.371422667630953773e+00 5.210393332914856046e+02
1.371525984089265515e+00 5.210308557446137456e+02
1.371629300547577479e+00 5.210223289761647720e+02
1.371732617005889221e+00 5.210137532028735450e+02
1.371835933464200963e+00 5.210051286436597593e+02
1.371939249922512705e+00 5.209964555196174842e+02
1.372042566380824447e+00 5.209877340540056139e+02
1.372145882839136410e+00 5.209789644722368394e+02
1.372249199297448152e+00 5.209701470018663940e+02
1.372352515755760116e+00 5.209612818725856869e+02
1.372455832214071858e+00 5.209523693162079780e+02
1.372559148672383600e+00 5.209434095666604208e+02
1.372662465130695342e+00 5.209344028599723515e+02
1.372765781589007306e+00 5.209253494342639215e+02
1.372869098047319047e+00 5.209162495297379110e+02
1.372972414505630789e+00 5.209071033886675650e+02
1.373075730963942753e+00 5.208979112553839741e+02
1.373179047422254495e+00 5.208886733762677750e+02
1.373282363880566237e+00 5.208793899997374410e+02
1.373385680338877979e+00 5.208700613762360945e+02
1.373488996797189943e+00 5.208606877582238894e+02
1.373592313255501685e+00 5.208512694001626642e+02
1.373695629713813426e+00 5.208418065585086651e+02
1.373798946172125390e+00 5.208322994916966309e+02
1.373902262630437132e+00 5.208227484601320612e+02
1.374005579088748874e+00 5.208131537261772337e+02
1.374108895547060616e+00 5.208035155541404038e+02
1.374212212005372580e+00 5.207938342102634124e+02
1.374315528463684322e+00 5.207841099627105450e+02
1.374418844921996286e+00 5.207743430815550028e+02
1.374522161380308027e+00 5.207645338387692391e+02
1.374625477838619769e+00 5.207546825082098394e+02
1.374728794296931511e+00 5.207447893656081988e+02
1.374832110755243253e+00 5.207348546885554015e+02
1.374935427213555217e+00 5.207248787564921031e+02
1.375038743671866959e+00 5.207148618506947741e+02
1.375142060130178923e+00 5.207048042542631947e+02
1.375245376588490664e+00 5.206947062521080625e+02
1.375348693046802628e+00 5.206845681309382599e+02
1.375452009505114148e+00 5.206743901792480074e+02
1.375555325963425890e+00 5.206641726873042444e+02
1.375658642421737854e+00 5.206539159471318499e+02
1.375761958880049596e+00 5.206436202525037515e+02
1.375865275338361560e+00 5.206332858989256920e+02
1.375968591796673302e+00 5.206229131836223587e+02
1.376071908254985265e+00 5.206125024055266977e+02
1.376175224713296785e+00 5.206020538652637697e+02
1.376278541171608971e+00 5.205915678651389271e+02
1.376381857629920491e+00 5.205810447091239439e+02
1.376485174088232233e+00 5.205704847028443965e+02
1.376588490546544197e+00 5.205598881535630653e+02
1.376691807004855939e+00 5.205492553701699308e+02
1.376795123463167903e+00 5.205385866631663703e+02
1.376898439921479422e+00 5.205278823446503793e+02
1.377001756379791608e+00 5.205171427283055436e+02
1.377105072838103128e+00 5.205063681293836453e+02
1.377208389296415092e+00 5.204955588646938622e+02
1.377311705754726834e+00 5.204847152525858291e+02
1.377415022213038576e+00 5.204738376129367907e+02
1.377518338671350540e+00 5.204629262671387551e+02
1.377621655129662059e+00 5.204519815380796217e+02
1.377724971587974245e+00 5.204410037501337456e+02
1.377828288046285765e+00 5.204299932291463620e+02
1.377931604504597729e+00 5.204189503024152827e+02
1.378034920962909471e+00 5.204078752986810059e+02
1.378138237421221435e+00 5.203967685481102308e+02
1.378241553879533177e+00 5.203856303822803966e+02
1.378344870337844696e+00 5.203744611341659265e+02
1.378448186796156882e+00 5.203632611381227662e+02
1.378551503254468402e+00 5.203520307298740590e+02
1.378654819712780366e+00 5.203407702464945714e+02
1.378758136171092108e+00 5.203294800263959132e+02
1.378861452629404072e+00 5.203181604093117585e+02
1.378964769087715814e+00 5.203068117362821567e+02
1.379068085546027334e+00 5.202954343496385263e+02
1.379171402004339519e+00 5.202840285929887614e+02
1.379274718462651039e+00 5.202725948112005199e+02
1.379378034920963003e+00 5.202611333503882634e+02
1.379481351379274745e+00 5.202496445578965449e+02
1.379584667837586709e+00 5.202381287822825016e+02
1.379687984295898451e+00 5.202265863733042579e+02
1.379791300754210415e+00 5.202150176819026228e+02
1.379894617212522157e+00 5.202034230601855143e+02
1.379997933670833676e+00 5.201918028614139757e+02
1.380101250129145640e+00 5.201801574399844412e+02
1.380204566587457382e+00 5.201684871514144106e+02
1.380307883045769346e+00 5.201567923523253967e+02
1.380411199504081088e+00 5.201450734004290553e+02
1.380514515962393052e+00 5.201333306545074038e+02
1.380617832420704794e+00 5.201215644744016799e+02
1.380721148879016535e+00 5.201097752209927876e+02
1.380824465337328277e+00 5.200979632561852668e+02
1.380927781795640019e+00 5.200861289428942200e+02
1.381031098253951983e+00 5.200742726450249620e+02
1.381134414712263725e+00 5.200623947274615375e+02
1.381237731170575689e+00 5.200504955560452345e+02
1.381341047628887431e+00 5.200385754975612826e+02
1.381444364087199173e+00 5.200266349197240743e+02
1.381547680545510914e+00 5.200146741911561321e+02
1.381650997003822878e+00 5.200026936813765133e+02
1.381754313462134620e+00 5.199906937607803457e+02
1.381857629920446362e+00 5.199786748006254129e+02
1.381960946378758326e+00 5.199666371730127139e+02
1.382064262837070068e+00 5.199545812508733889e+02
1.382167579295381810e+00 5.199425074079483693e+02
1.382270895753693551e+00 5.199304160187750767e+02
1.382374212212005515e+00 5.199183074586669591e+02
1.382477528670317257e+00 5.199061821037012123e+02
1.382580845128629221e+00 5.198940403306976350e+02
1.382684161586940963e+00 5.198818825172049856e+02
1.382787478045252705e+00 5.198697090414829063e+02
1.382890794503564447e+00 5.198575202824847565e+02
1.382994110961876189e+00 5.198453166198415829e+02
1.383097427420188152e+00 5.198330984338439293e+02
1.383200743878499894e+00 5.198208661054264894e+02
1.383304060336811858e+00 5.198086200161499164e+02
1.383407376795123600e+00 5.197963605481829745e+02
1.383510693253435342e+00 5.197840880842888964e+02
1.383614009711747084e+00 5.197718030078037827e+02
1.383717326170058826e+00 5.197595057026230734e+02
1.383820642628370789e+00 5.197471965531825617e+02
1.383923959086682531e+00 5.197348759444414554e+02
1.384027275544994495e+00 5.197225442618664601e+02
1.384130592003306237e+00 5.197102018914119981e+02
1.384233908461618201e+00 5.196978492195064518e+02
1.384337224919929721e+00 5.196854866330311324e+02
1.384440541378241463e+00 5.196731145193057273e+02
1.384543857836553427e+00 5.196607332660702241e+02
1.384647174294865168e+00 5.196483432614670619e+02
1.384750490753177132e+00 5.196359448940247603e+02
1.384853807211488874e+00 5.196235385526396158e+02
1.384957123669800838e+00 5.196111246265588761e+02
1.385060440128112358e+00 5.195987035053626641e+02
1.385163756586424544e+00 5.195862755789479479e+02
1.385267073044736064e+00 5.195738412375096686e+02
1.385370389503047805e+00 5.195614008715235741e+02
1.385473705961359769e+00 5.195489548717304160e+02
1.385577022419671511e+00 5.195365036291154865e+02
1.385680338877983475e+00 5.195240475348945210e+02
1.385783655336294995e+00 5.195115869804916429e+02
1.385886971794607181e+00 5.194991223575283357e+02
1.385990288252918701e+00 5.194866540577986598e+02
1.386093604711230665e+00 5.194741824732586792e+02
1.386196921169542406e+00 5.194617079960030424e+02
1.386300237627854148e+00 5.194492310182506571e+02
1.386403554086166112e+00 5.194367519323270699e+02
1.386506870544477632e+00 5.194242711306460478e+02
1.386610187002789818e+00 5.194117890056911619e+02
1.386713503461101338e+00 5.193993059500007803e+02
1.386816819919413302e+00 5.193868223561479454e+02
1.386920136377725044e+00 5.193743386167245717e+02
1.387023452836037007e+00 5.193618551243225738e+02
1.387126769294348749e+00 5.193493722715168133e+02
1.387230085752660269e+00 5.193368904508482728e+02
1.387333402210972455e+00 5.193244100548047300e+02
1.387436718669283975e+00 5.193119314758054088e+02
1.387540035127595939e+00 5.192994551061805169e+02
1.387643351585907681e+00 5.192869813381566928e+02
1.387746668044219645e+00 5.192745105638372252e+02
1.387849984502531386e+00 5.192620431751854539e+02
1.387953300960843350e+00 5.192495795640080587e+02
1.388056617419155092e+00 5.192371201219340264e+02
1.388159933877466612e+00 5.192246652404020324e+02
1.388263250335778576e+00 5.192122153106380438e+02
1.388366566794090318e+00 5.191997707236423594e+02
1.388469883252402282e+00 5.191873318701672133e+02
1.388573199710714023e+00 5.191748991407047242e+02
1.388676516169025987e+00 5.191624729254635895e+02
1.388779832627337729e+00 5.191500536143560112e+02
1.388883149085649249e+00 5.191376415969779146e+02
1.388986465543961213e+00 5.191252372625922362e+02
1.389089782002272955e+00 5.191128410001108477e+02
1.389193098460584919e+00 5.191004531980787533e+02
1.389296414918896660e+00 5.190880742446541944e+02
1.389399731377208624e+00 5.190757045275925066e+02
1.389503047835520366e+00 5.190633444342287248e+02
1.389606364293832108e+00 5.190509943514601900e+02
1.389709680752143850e+00 5.190386546657289273e+02
1.389812997210455592e+00 5.190263257630034559e+02
1.389916313668767556e+00 5.190140080287644651e+02
1.390019630127079298e+00 5.190017018479820763e+02
1.390122946585391261e+00 5.189894076051035654e+02
1.390226263043703003e+00 5.189771256840350588e+02
1.390329579502014745e+00 5.189648564681205016e+02
1.390432895960326487e+00 5.189526003401299477e+02
1.390536212418638451e+00 5.189403576822387549e+02
1.390639528876950193e+00 5.189281288760100779e+02
1.390742845335261935e+00 5.189159143023809975e+02
1.390846161793573899e+00 5.189037143416408071e+02
1.390949478251885640e+00 5.188915293734178249e+02
1.391052794710197382e+00 5.188793597766600669e+02
1.391156111168509124e+00 5.188672059296188763e+02
1.391259427626821088e+00 5.188550682098313018e+02
1.391362744085132830e+00 5.188429469941040679e+02
1.391466060543444794e+00 5.188308426584958397e+02
1.391569377001756536e+00 5.188187555782999425e+02
1.391672693460068277e+00 5.188066861280281046e+02
1.391776009918380019e+00 5.187946346813932905e+02
1.391879326376691761e+00 5.187826016112926482e+02
1.391982642835003725e+00 5.187705872897917061e+02
1.392085959293315467e+00 5.187585920881044785e+02
1.392189275751627431e+00 5.187466163765809597e+02
1.392292592209939173e+00 5.187346605246866602e+02
1.392395908668251137e+00 5.187227249009897605e+02
1.392499225126562656e+00 5.187108098731392829e+02
1.392602541584874398e+00 5.186989158078532682e+02
1.392705858043186362e+00 5.186870430708987669e+02
1.392809174501498104e+00 5.186751920270787650e+02
1.392912490959810068e+00 5.186633630402112658e+02
1.393015807418121810e+00 5.186515564731165568e+02
1.393119123876433774e+00 5.186397726875987928e+02
1.393222440334745293e+00 5.186280120444305339e+02
1.393325756793057479e+00 5.186162749033353521e+02
1.393429073251368999e+00 5.186045616229730513e+02
1.393532389709680741e+00 5.185928725609209096e+02
1.393635706167992705e+00 5.185812080736604912e+02
1.393739022626304447e+00 5.185695685165596842e+02
1.393842339084616411e+00 5.185579542438561020e+02
1.393945655542927931e+00 5.185463656086425317e+02
1.394048972001240116e+00 5.185348029628488575e+02
1.394152288459551636e+00 5.185232666572293283e+02
1.394255604917863378e+00 5.185117570413418662e+02
1.394358921376175342e+00 5.185002744635368117e+02
1.394462237834487084e+00 5.184888192709386203e+02
1.394565554292799048e+00 5.184773918094299461e+02
1.394668870751110568e+00 5.184659924236370898e+02
1.394772187209422754e+00 5.184546214569131735e+02
1.394875503667734273e+00 5.184432792513230197e+02
1.394978820126046237e+00 5.184319661476279180e+02
1.395082136584357979e+00 5.184206824852693671e+02
1.395185453042669721e+00 5.184094286023530458e+02
1.395288769500981685e+00 5.183982048356365340e+02
1.395392085959293205e+00 5.183870115205083948e+02
1.395495402417605391e+00 5.183758489909780565e+02
1.395598718875916910e+00 5.183647175796587590e+02
1.395702035334228874e+00 5.183536176177516381e+02
1.395805351792540616e+00 5.183425494350303779e+02
1.395908668250852580e+00 5.183315133598275679e+02
1.396011984709164322e+00 5.183205097190187871e+02
1.396115301167475842e+00 5.183095388380073700e+02
1.396218617625788028e+00 5.182986010407107642e+02
1.396321934084099547e+00 5.182876966495437046e+02
1.396425250542411511e+00 5.182768259854054804e+02
1.396528567000723253e+00 5.182659893676629963e+02
1.396631883459035217e+00 5.182551871141386073e+02
1.396735199917346959e+00 5.182444195410944303e+02
1.396838516375658923e+00 5.182336869632160870e+02
1.396941832833970665e+00 5.182229896936014484e+02
1.397045149292282185e+00 5.182123280437440371e+02
1.397148465750594148e+00 5.182017023235183615e+02
1.397251782208905890e+00 5.181911128411680920e+02
1.397355098667217854e+00 5.181805599032901455e+02
1.397458415125529596e+00 5.181700438148193371e+02
1.397561731583841560e+00 5.181595648790165569e+02
1.397665048042153302e+00 5.181491233974550141e+02
1.397768364500465044e+00 5.181387196700034110e+02
1.397871680958776786e+00 5.181283539948155976e+02
1.397974997417088527e+00 5.181180266683138598e+02
1.398078313875400491e+00 5.181077379851770957e+02
1.398181630333712233e+00 5.180974882383266049e+02
1.398284946792024197e+00 5.180872777189127873e+02
1.398388263250335939e+00 5.180771067163009320e+02
1.398491579708647681e+00 5.180669755180585980e+02
1.398594896166959423e+00 5.180568844099418584e+02
1.398698212625271164e+00 5.180468336758829082e+02
1.398801529083583128e+00 5.180368235979741485e+02
1.398904845541894870e+00 5.180268544564589774e+02
1.399008162000206834e+00 5.180169265297168977e+02
1.399111478458518576e+00 5.180070400942493052e+02
1.399214794916830318e+00 5.179971954246689165e+02
1.399318111375142060e+00 5.179873927936857854e+02
1.399421427833454024e+00 5.179776324720946832e+02
1.399524744291765765e+00 5.179679147287617980e+02
1.399628060750077507e+00 5.179582398306145024e+02
1.399731377208389471e+00 5.179486080426257786e+02
1.399834693666701213e+00 5.179390196278048961e+02
1.399938010125012955e+00 5.179294748471820640e+02
1.400041326583324697e+00 5.179199739597996768e+02
1.400144643041636661e+00 5.179105172226961713e+02
1.400247959499948402e+00 5.179011048908980683e+02
1.400351275958260366e+00 5.178917372174048523e+02
1.400454592416572108e+00 5.178824144531783986e+02
1.400557908874883850e+00 5.178731368471324004e+02
1.400661225333195592e+00 5.178639046461170210e+02
1.400764541791507334e+00 5.178547180949121866e+02
1.400867858249819298e+00 5.178455774362115562e+02
1.400971174708131040e+00 5.178364829106144498e+02
1.401074491166443003e+00 5.178274347566115239e+02
1.401177807624754745e+00 5.178184332105768135e+02
1.401281124083066709e+00 5.178094785067539760e+02
1.401384440541378229e+00 5.178005708772464004e+02
1.401487756999689971e+00 5.177917105520049290e+02
1.401591073458001935e+00 5.177828977588198995e+02
1.401694389916313677e+00 5.177741327233060247e+02
1.401797706374625641e+00 5.177654156688960256e+02
1.401901022832937382e+00 5.177567468168266487e+02
1.402004339291249346e+00 5.177481263861312755e+02
1.402107655749560866e+00 5.177395545936252574e+02
1.402210972207873052e+00 5.177310316538998904e+02
1.402314288666184572e+00 5.177225577793105913e+02
1.402417605124496314e+00 5.177141331799656427e+02
1.402520921582808278e+00 5.177057580637167575e+02
1.402624238041120019e+00 5.176974326361496423e+02
1.402727554499431983e+00 5.176891571005752439e+02
1.402830870957743503e+00 5.176809316580163340e+02
1.402934187416055689e+00 5.176727565072021662e+02
1.403037503874367209e+00 5.176646318445558563e+02
1.403140820332679173e+00 5.176565578641861975e+02
1.403244136790990915e+00 5.176485347578769733e+02
1.403347453249302657e+00 5.176405627150816144e+02
1.403450769707614620e+00 5.176326419229084195e+02
1.403554086165926140e+00 5.176247725661155528e+02
1.403657402624238326e+00 5.176169548271006988e+02
1.403760719082549846e+00 5.176091888858918537e+02
1.403864035540861810e+00 5.176014749201390259e+02
1.403967351999173552e+00 5.175938131051060509e+02
1.404070668457485294e+00 5.175862036136607003e+02
1.404173984915797258e+00 5.175786466162680881e+02
1.404277301374108777e+00 5.175711422809804390e+02
1.404380617832420963e+00 5.175636907734303804e+02
1.404483934290732483e+00 5.175562922568219619e+02
1.404587250749044447e+00 5.175489468919214460e+02
1.404690567207356189e+00 5.175416548370520786e+02
1.404793883665668153e+00 5.175344162480847672e+02
1.404897200123979895e+00 5.175272312784304631e+02
1.405000516582291414e+00 5.175201000790310673e+02
1.405103833040603600e+00 5.175130227983548821e+02
1.405207149498915120e+00 5.175059995823871759e+02
1.405310465957227084e+00 5.174990305746238164e+02
1.405413782415538826e+00 5.174921159160633124e+02
1.405517098873850790e+00 5.174852557451989696e+02
1.405620415332162532e+00 5.174784501980150253e+02
1.405723731790474496e+00 5.174716994079759615e+02
1.405827048248786237e+00 5.174650035060222990e+02
1.405930364707097757e+00 5.174583626205637756e+02
1.406033681165409721e+00 5.174517768774707065e+02
1.406136997623721463e+00 5.174452464000698910e+02
1.406240314082033427e+00 5.174387713091375645e+02
1.406343630540345169e+00 5.174323517228930314e+02
1.406446946998657133e+00 5.174259877569917307e+02
1.406550263456968874e+00 5.174196795245211433e+02
1.406653579915280616e+00 5.174134271359929471e+02
1.406756896373592358e+00 5.174072306993388111e+02
1.406860212831904100e+00 5.174010903199031191e+02
1.406963529290216064e+00 5.173950061004405825e+02
1.407066845748527806e+00 5.173889781411053264e+02
1.407170162206839770e+00 5.173830065394514577e+02
1.407273478665151512e+00 5.173770913904236295e+02
1.407376795123463253e+00 5.173712327863540850e+02
1.407480111581774995e+00 5.173654308169578826e+02
1.407583428040086959e+00 5.173596855693260750e+02
1.407686744498398701e+00 5.173539971279216161e+02
1.407790060956710443e+00 5.173483655745775422e+02
1.407893377415022407e+00 5.173427909884870814e+02
1.407996693873334149e+00 5.173372734462058133e+02
1.408100010331645890e+00 5.173318130216400732e+02
1.408203326789957632e+00 5.173264097860494530e+02
1.408306643248269596e+00 5.173210638080377066e+02
1.408409959706581338e+00 5.173157751535522948e+02
1.408513276164893302e+00 5.173105438858785874e+02
1.408616592623205044e+00 5.173053700656365663e+02
1.408719909081516786e+00 5.173002537507776424e+02
1.408823225539828528e+00 5.172951949965801077e+02
1.408926541998140269e+00 5.172901938556470895e+02
1.409029858456452233e+00 5.172852503779033668e+02
1.409133174914763975e+00 5.172803646105903681e+02
1.409236491373075939e+00 5.172755365982643525e+02
1.409339807831387681e+00 5.172707663827936813e+02
1.409443124289699423e+00 5.172660540033564303e+02
1.409546440748011165e+00 5.172613994964367521e+02
1.409649757206322906e+00 5.172568028958221475e+02
1.409753073664634870e+00 5.172522642326018740e+02
1.409856390122946612e+00 5.172477835351646718e+02
1.409959706581258576e+00 5.172433608291952396e+02
1.410063023039570318e+00 5.172389961376742349e+02
1.410166339497882282e+00 5.172346894808740672e+02
1.410269655956193802e+00 5.172304408763595802e+02
1.410372972414505544e+00 5.172262503389823678e+02
1.410476288872817507e+00 5.172221178808847526e+02
1.410579605331129249e+00 5.172180435114930788e+02
1.410682921789441213e+00 5.172140272375183940e+02
1.410786238247752955e+00 5.172100690629569044e+02
1.410889554706064919e+00 5.172061689890854268e+02
1.410992871164376439e+00 5.172023270144638900e+02
1.411096187622688625e+00 5.171985431349306737e+02
1.411199504081000144e+00 5.171948173436055640e+02
1.411302820539311886e+00 5.171911496308862297e+02
1.411406136997623850e+00 5.171875399844499270e+02
1.411509453455935592e+00 5.171839883892507714e+02
1.411612769914247556e+00 5.171804948275217839e+02
1.411716086372559076e+00 5.171770592787719352e+02
1.411819402830871262e+00 5.171736817197902383e+02
1.411922719289182782e+00 5.171703621246408602e+02
1.412026035747494745e+00 5.171671004646664187e+02
1.412129352205806487e+00 5.171638967084892329e+02
1.412232668664118229e+00 5.171607508220076852e+02
1.412335985122430193e+00 5.171576627684004279e+02
1.412439301580741713e+00 5.171546325081255873e+02
1.412542618039053899e+00 5.171516599989220140e+02
1.412645934497365419e+00 5.171487451958093970e+02
1.412749250955677383e+00 5.171458880510901963e+02
1.412852567413989124e+00 5.171430885143503247e+02
1.412955883872301088e+00 5.171403465324601711e+02
1.413059200330612830e+00 5.171376620495769885e+02
1.413162516788924350e+00 5.171350350071450066e+02
1.413265833247236536e+00 5.171324653438975929e+02
1.413369149705548056e+00 5.171299529958597532e+02
1.413472466163860020e+00 5.171274978963493822e+02
1.413575782622171761e+00 5.171250999759782871e+02
1.413679099080483725e+00 5.171227591626569620e+02
1.413782415538795467e+00 5.171204753815929962e+02
1.413885731997107431e+00 5.171182485552973276e+02
1.413989048455419173e+00 5.171160786035829915e+02
1.414092364913730693e+00 5.171139654435718285e+02
1.414195681372042657e+00 5.171119089896932337e+02
1.414298997830354399e+00 5.171099091536892729e+02
1.414402314288666362e+00 5.171079658446168423e+02
1.414505630746978104e+00 5.171060789688511932e+02
1.414608947205290068e+00 5.171042484300887736e+02
1.414712263663601810e+00 5.171024741293507532e+02
1.414815580121913330e+00 5.171007559649856375e+02
1.414918896580225294e+00 5.170990938326742707e+02
1.415022213038537036e+00 5.170974876254317678e+02
1.415125529496849000e+00 5.170959372336131992e+02
1.415228845955160741e+00 5.170944425449150685e+02
1.415332162413472705e+00 5.170930034443825889e+02
1.415435478871784447e+00 5.170916198144105920e+02
1.415538795330096189e+00 5.170902915347494400e+02
1.415642111788407931e+00 5.170890184825093456e+02
1.415745428246719673e+00 5.170878005321646924e+02
1.415848744705031637e+00 5.170866375555574450e+02
1.415952061163343378e+00 5.170855294219045390e+02
1.416055377621655342e+00 5.170844759978006095e+02
1.416158694079967084e+00 5.170834771472225384e+02
1.416262010538278826e+00 5.170825327315380946e+02
1.416365326996590568e+00 5.170816426095050247e+02
1.416468643454902532e+00 5.170808066372821941e+02
1.416571959913214274e+00 5.170800246684327703e+02
1.416675276371526015e+00 5.170792965539282022e+02
1.416778592829837979e+00 5.170786221421569735e+02
1.416881909288149721e+00 5.170780012789275588e+02
1.416985225746461463e+00 5.170774338074766092e+02
1.417088542204773205e+00 5.170769195684731585e+02
1.417191858663085169e+00 5.170764584000260129e+02
1.417295175121396911e+00 5.170760501376881848e+02
1.417398491579708875e+00 5.170756946144664425e+02
1.417501808038020616e+00 5.170753916608250620e+02
1.417605124496332358e+00 5.170751411046933299e+02
1.417708440954644100e+00 5.170749427714710009e+02
1.417811757412955842e+00 5.170747964840378472e+02
1.417915073871267806e+00 5.170747020627591155e+02
1.418018390329579548e+00 5.170746593254913250e+02
1.418121706787891512e+00 5.170746680875909078e+02
1.418225023246203254e+00 5.170747281619218256e+02
1.418328339704515217e+00 5.170748393588621639e+02
1.418431656162826737e+00 5.170750014863104980e+02
1.418534972621138479e+00 5.170752143496964663e+02
1.418638289079450443e+00 5.170754777519857726e+02
1.418741605537762185e+00 5.170757914936899624e+02
1.418844921996074149e+00 5.170761553728730178e+02
1.418948238454385891e+00 5.170765691851594283e+02
1.419051554912697855e+00 5.170770327237434003e+02
1.419154871371009374e+00 5.170775457793964733e+02
1.419258187829321116e+00 5.170781081404761608e+02
1.419361504287633080e+00 5.170787195929341351e+02
1.419464820745944822e+00 5.170793799203245271e+02
1.419568137204256786e+00 5.170800889038150672e+02
1.419671453662568528e+00 5.170808463221908369e+02
1.419774770120880492e+00 5.170816519518701853e+02
1.419878086579192011e+00 5.170825055669071162e+02
1.419981403037504197e+00 5.170834069390042487e+02
1.420084719495815717e+00 5.170843558375217981e+02
1.420188035954127459e+00 5.170853520294851933e+02
1.420291352412439423e+00 5.170863952795972409e+02
1.420394668870751165e+00 5.170874853502448332e+02
1.420497985329063129e+00 5.170886220015114532e+02
1.420601301787374648e+00 5.170898049911839962e+02
1.420704618245686834e+00 5.170910340747648206e+02
1.420807934703998354e+00 5.170923090054823206e+02
1.420911251162310318e+00 5.170936295342992253e+02
1.421014567620622060e+00 5.170949954099222623e+02
1.421117884078933802e+00 5.170964063788161411e+02
1.421221200537245766e+00 5.170978621852107153e+02
1.421324516995557286e+00 5.170993625711112145e+02
1.421427833453869471e+00 5.171009072763129097e+02
1.421531149912180991e+00 5.171024960384067981e+02
1.421634466370492955e+00 5.171041285927933586e+02
1.421737782828804697e+00 5.171058046726934663e+02
1.421841099287116661e+00 5.171075240091587375e+02
1.421944415745428403e+00 5.171092863310833536e+02
1.422047732203739923e+00 5.171110913652142926e+02
1.422151048662052109e+00 5.171129388361629253e+02
1.422254365120363628e+00 5.171148284664178618e+02
1.422357681578675592e+00 5.171167599763554108e+02
1.422460998036987334e+00 5.171187330842507208e+02
1.422564314495299298e+00 5.171207475062908543e+02
1.422667630953611040e+00 5.171228029565852466e+02
1.422770947411923004e+00 5.171248991471793488e+02
1.422874263870234746e+00 5.171270357880650863e+02
1.422977580328546265e+00 5.171292125871942744e+02
1.423080896786858229e+00 5.171314292504898731e+02
1.423184213245169971e+00 5.171336854818587199e+02
1.423287529703481935e+00 5.171359809832043766e+02
1.423390846161793677e+00 5.171383154544384979e+02
1.423494162620105641e+00 5.171406885934964066e+02
1.423597479078417383e+00 5.171431000963451652e+02
1.423700795536729125e+00 5.171455496570009700e+02
1.423804111995040866e+00 5.171480369675387010e+02
1.423907428453352608e+00 5.171505617181073831e+02
1.424010744911664572e+00 5.171531235969417821e+02
1.424114061369976314e+00 5.171557222903752518e+02
1.424217377828288278e+00 5.171583574828555356e+02
1.424320694286600020e+00 5.171610288569548857e+02
1.424424010744911762e+00 5.171637360933867740e+02
1.424527327203223503e+00 5.171664788710158973e+02
1.424630643661535245e+00 5.171692568668753438e+02
1.424733960119847209e+00 5.171720697561773932e+02
1.424837276578158951e+00 5.171749172123298877e+02
1.424940593036470915e+00 5.171777989069476007e+02
1.425043909494782657e+00 5.171807145098694036e+02
1.425147225953094399e+00 5.171836636891691796e+02
1.425250542411406141e+00 5.171866461111708304e+02
1.425353858869718104e+00 5.171896614404649881e+02
1.425457175328029846e+00 5.171927093399197020e+02
1.425560491786341588e+00 5.171957894706981733e+02
1.425663808244653552e+00 5.171989014922700107e+02
1.425767124702965294e+00 5.172020450624290788e+02
1.425870441161277036e+00 5.172052198373057763e+02
1.425973757619588778e+00 5.172084254713828386e+02
1.426077074077900742e+00 5.172116616175105719e+02
1.426180390536212483e+00 5.172149279269204953e+02
1.426283706994524447e+00 5.172182240492414849e+02
1.426387023452836189e+00 5.172215496325151207e+02
1.426490339911147931e+00 5.172249043232092163e+02
1.426593656369459673e+00 5.172282877662339615e+02
1.426696972827771415e+00 5.172316996049589761e+02
1.426800289286083379e+00 5.172351394812251328e+02
1.426903605744395120e+00 5.172386070353641117e+02
1.427006922202707084e+00 5.172421019062098821e+02
1.427110238661018826e+00 5.172456237311170071e+02
1.427213555119330790e+00 5.172491721459771270e+02
1.427316871577642310e+00 5.172527467852305563e+02
1.427420188035954052e+00 5.172563472818881110e+02
1.427523504494266016e+00 5.172599732675408859e+02
1.427626820952577757e+00 5.172636243723810594e+02
1.427730137410889721e+00 5.172673002252156493e+02
1.427833453869201463e+00 5.172710004534827704e+02
1.427936770327513427e+00 5.172747246832686869e+02
1.428040086785824947e+00 5.172784725393237295e+02
1.428143403244137133e+00 5.172822436450780970e+02
1.428246719702448653e+00 5.172860376226590233e+02
1.428350036160760395e+00 5.172898540929069213e+02
1.428453352619072358e+00 5.172936926753926627e+02
1.428556669077384100e+00 5.172975529884317893e+02
1.428659985535696064e+00 5.173014346491057722e+02
1.428763301994007584e+00 5.173053372732738353e+02
1.428866618452319770e+00 5.173092604755926232e+02
1.428969934910631290e+00 5.173132038695321171e+02
1.429073251368943254e+00 5.173171670673949620e+02
1.429176567827254996e+00 5.173211496803280625e+02
1.429279884285566737e+00 5.173251513183458883e+02
1.429383200743878701e+00 5.173291715903427530e+02
1.429486517202190221e+00 5.173332101041146416e+02
1.429589833660502407e+00 5.173372664663701244e+02
1.429693150118813927e+00 5.173413402827555956e+02
1.429796466577125891e+00 5.173454311578652778e+02
1.429899783035437633e+00 5.173495386952638455e+02
1.430003099493749374e+00 5.173536624975014320e+02
1.430106415952061338e+00 5.173578021661307957e+02
1.430209732410372858e+00 5.173619573017278981e+02
1.430313048868685044e+00 5.173661275039058864e+02
1.430416365326996564e+00 5.173703123713347622e+02
1.430519681785308528e+00 5.173745115017593434e+02
1.430622998243620270e+00 5.173787244920163175e+02
1.430726314701932234e+00 5.173829509380534546e+02
1.430829631160243975e+00 5.173871904349449551e+02
1.430932947618555495e+00 5.173914425769114587e+02
1.431036264076867681e+00 5.173957069573389163e+02
1.431139580535179201e+00 5.173999831687938240e+02
1.431242896993491165e+00 5.174042708030442554e+02
1.431346213451802907e+00 5.174085694510750955e+02
1.431449529910114871e+00 5.174128787031099819e+02
1.431552846368426613e+00 5.174171981486261984e+02
1.431656162826738576e+00 5.174215273763740015e+02
1.431759479285050318e+00 5.174258659743967428e+02
1.431862795743361838e+00 5.174302135300467853e+02
1.431966112201673802e+00 5.174345696300056261e+02
1.432069428659985544e+00 5.174389338603011765e+02
1.432172745118297508e+00 5.174433058063273165e+02
1.432276061576609250e+00 5.174476850528625391e+02
1.432379378034921213e+00 5.174520711840871172e+02
1.432482694493232955e+00 5.174564637836041356e+02
1.432586010951544697e+00 5.174608624344554073e+02
1.432689327409856439e+00 5.174652667191430737e+02
1.432792643868168181e+00 5.174696762196459758e+02
1.432895960326480145e+00 5.174740905174406862e+02
1.432999276784791887e+00 5.174785091935173114e+02
1.433102593243103851e+00 5.174829318284021156e+02
1.433205909701415592e+00 5.174873580021737780e+02
1.433309226159727334e+00 5.174917872944828332e+02
1.433412542618039076e+00 5.174962192845721347e+02
1.433515859076351040e+00 5.175006535512932260e+02
1.433619175534662782e+00 5.175050896731282819e+02
1.433722491992974524e+00 5.175095272282065935e+02
1.433825808451286488e+00 5.175139657943270777e+02
1.433929124909598229e+00 5.175184049489724885e+02
1.434032441367909971e+00 5.175228442693328361e+02
1.434135757826221713e+00 5.175272833323239183e+02
1.434239074284533677e+00 5.175317217146046005e+02
1.434342390742845419e+00 5.175361589925975068e+02
1.434445707201157383e+00 5.175405947425081195e+02
1.434549023659469125e+00 5.175450285403446742e+02
1.434652340117780867e+00 5.175494599619355540e+02
1.434755656576092608e+00 5.175538885829514584e+02
1.434858973034404350e+00 5.175583139789224560e+02
1.434962289492716314e+00 5.175627357252576530e+02
1.435065605951028056e+00 5.175671533972667930e+02
1.435168922409340020e+00 5.175715665701765147e+02
1.435272238867651762e+00 5.175759748191518383e+02
1.435375555325963504e+00 5.175803777193159476e+02
1.435478871784275245e+00 5.175847748457678108e+02
1.435582188242586987e+00 5.175891657736042362e+02
1.435685504700898951e+00 5.175935500779355607e+02
1.435788821159210693e+00 5.175979273339106612e+02
1.435892137617522657e+00 5.176022971167318474e+02
1.435995454075834399e+00 5.176066590016746432e+02
1.436098770534146363e+00 5.176110125641126842e+02
1.436202086992457883e+00 5.176153573795290868e+02
1.436305403450769624e+00 5.176196930235435048e+02
1.436408719909081588e+00 5.176240190719274779e+02
1.436512036367393330e+00 5.176283351006247813e+02
1.436615352825705294e+00 5.176326406857725715e+02
1.436718669284017036e+00 5.176369354037196899e+02
1.436821985742329000e+00 5.176412188310453075e+02
1.436925302200640520e+00 5.176454905445823442e+02
1.437028618658952706e+00 5.176497501214321346e+02
1.437131935117264225e+00 5.176539971389884158e+02
1.437235251575575967e+00 5.176582311749543805e+02
1.437338568033887931e+00 5.176624518073638228e+02
1.437441884492199673e+00 5.176666586145993278e+02
1.437545200950511637e+00 5.176708511754143274e+02
1.437648517408823157e+00 5.176750290689490157e+02
1.437751833867135343e+00 5.176791918747539967e+02
1.437855150325446862e+00 5.176833391728080187e+02
1.437958466783758826e+00 5.176874705435378701e+02
1.438061783242070568e+00 5.176915855678380467e+02
1.438165099700382310e+00 5.176956838270893968e+02
1.438268416158694274e+00 5.176997649031826541e+02
1.438371732617005794e+00 5.177038283785318526e+02
1.438475049075317980e+00 5.177078738361000205e+02
1.438578365533629499e+00 5.177119008594148681e+02
1.438681681991941463e+00 5.177159090325911848e+02
1.438784998450253205e+00 5.177198979403477779e+02
1.438888314908565169e+00 5.177238671680287325e+02
1.438991631366876911e+00 5.177278163016234203e+02
1.439094947825188431e+00 5.177317449277849164e+02
1.439198264283500617e+00 5.177356526338496678e+02
1.439301580741812137e+00 5.177395390078592072e+02
1.439404897200124100e+00 5.177434036385759555e+02
1.439508213658435842e+00 5.177472461155059591e+02
1.439611530116747806e+00 5.177510660289173074e+02
1.439714846575059548e+00 5.177548629698593459e+02
1.439818163033371068e+00 5.177586365301827982e+02
1.439921479491683254e+00 5.177623863025592073e+02
1.440024795949994774e+00 5.177661118804994658e+02
1.440128112408306738e+00 5.177698128583749622e+02
1.440231428866618479e+00 5.177734888314349746e+02
1.440334745324930443e+00 5.177771393958278168e+02
1.440438061783242185e+00 5.177807641486198236e+02
1.440541378241554149e+00 5.177843626878145642e+02
1.440644694699865891e+00 5.177879346123706910e+02
1.440748011158177411e+00 5.177914795222241082e+02
1.440851327616489375e+00 5.177949970183058213e+02
1.440954644074801116e+00 5.177984867025603535e+02
1.441057960533113080e+00 5.178019481779667785e+02
1.441161276991424822e+00 5.178053810485569102e+02
1.441264593449736786e+00 5.178087849194336059e+02
1.441367909908048528e+00 5.178121593967920262e+02
1.441471226366360270e+00 5.178155040879381659e+02
1.441574542824672012e+00 5.178188186013057930e+02
1.441677859282983754e+00 5.178221025464797549e+02
1.441781175741295717e+00 5.178253555342088248e+02
1.441884492199607459e+00 5.178285771764325318e+02
1.441987808657919423e+00 5.178317670862929845e+02
1.442091125116231165e+00 5.178349248781588585e+02
1.442194441574542907e+00 5.178380501676402901e+02
1.442297758032854649e+00 5.178411425716116128e+02
1.442401074491166613e+00 5.178442017082265920e+02
1.442504390949478355e+00 5.178472271969408212e+02
1.442607707407790096e+00 5.178502186585272966e+02
1.442711023866102060e+00 5.178531757150974499e+02
1.442814340324413802e+00 5.178560979901172914e+02
1.442917656782725544e+00 5.178589851084288966e+02
1.443020973241037286e+00 5.178618366962680284e+02
1.443124289699349250e+00 5.178646523812808482e+02
1.443227606157660992e+00 5.178674317925452897e+02
1.443330922615972955e+00 5.178701745605882252e+02
1.443434239074284697e+00 5.178728803174026325e+02
1.443537555532596439e+00 5.178755486964687407e+02
1.443640871990908181e+00 5.178781793327699461e+02
1.443744188449219923e+00 5.178807718628121393e+02
1.443847504907531887e+00 5.178833259246422358e+02
1.443950821365843629e+00 5.178858411578650021e+02
1.444054137824155593e+00 5.178883172036629503e+02
1.444157454282467334e+00 5.178907537048145286e+02
1.444260770740779298e+00 5.178931503057087866e+02
1.444364087199090818e+00 5.178955066523675441e+02
1.444467403657402560e+00 5.178978223924615349e+02
1.444570720115714524e+00 5.179000971753280282e+02
1.444674036574026266e+00 5.179023306519895868e+02
1.444777353032338230e+00 5.179045224751706655e+02
1.444880669490649971e+00 5.179066722993155736e+02
1.444983985948961935e+00 5.179087797806083699e+02
1.445087302407273455e+00 5.179108445769860509e+02
1.445190618865585197e+00 5.179128663481615149e+02
1.445293935323897161e+00 5.179148447556351584e+02
1.445397251782208903e+00 5.179167794627172725e+02
1.445500568240520867e+00 5.179186701345437314e+02
1.445603884698832609e+00 5.179205164380920223e+02
1.445707201157144572e+00 5.179223180422002315e+02
1.445810517615456092e+00 5.179240746175834147e+02
1.445913834073768278e+00 5.179257858368509915e+02
1.446017150532079798e+00 5.179274513745234572e+02
1.446120466990391540e+00 5.179290709070494358e+02
1.446223783448703504e+00 5.179306441128235292e+02
1.446327099907015246e+00 5.179321706722017780e+02
1.446430416365327210e+00 5.179336502675195106e+02
1.446533732823638729e+00 5.179350825831078282e+02
1.446637049281950915e+00 5.179364673053095203e+02
1.446740365740262435e+00 5.179378041224970275e+02
1.446843682198574399e+00 5.179390927250879031e+02
1.446946998656886141e+00 5.179403328055618658e+02
1.447050315115197883e+00 5.179415240584760340e+02
1.447153631573509847e+00 5.179426661804836840e+02
1.447256948031821366e+00 5.179437588703476649e+02
1.447360264490133552e+00 5.179448018289582478e+02
1.447463580948445072e+00 5.179457947593497238e+02
1.447566897406757036e+00 5.179467373667134780e+02
1.447670213865068778e+00 5.179476293584181121e+02
1.447773530323380742e+00 5.179484704440220639e+02
1.447876846781692484e+00 5.179492603352907736e+02
1.447980163240004003e+00 5.179499987462120316e+02
1.448083479698316189e+00 5.179506853930125772e+02
1.448186796156627709e+00 5.179513199941708308e+02
1.448290112614939673e+00 5.179519022704378131e+02
1.448393429073251415e+00 5.179524319448451024e+02
1.448496745531563379e+00 5.179529087427274590e+02
1.448600061989875121e+00 5.179533323917324878e+02
1.448703378448187085e+00 5.179537026218391702e+02
1.448806694906498826e+00 5.179540191653726424e+02
1.448910011364810346e+00 5.179542817570165880e+02
1.449013327823122310e+00 5.179544901338308591e+02
1.449116644281434052e+00 5.179546440352659147e+02
1.449219960739746016e+00 5.179547432031758945e+02
1.449323277198057758e+00 5.179547873818354446e+02
1.449426593656369722e+00 5.179547763179532467e+02
1.449529910114681464e+00 5.179547097606850912e+02
1.449633226572993205e+00 5.179545874616519541e+02
1.449736543031304947e+00 5.179544091749492054e+02
1.449839859489616689e+00 5.179541746571666181e+02
1.449943175947928653e+00 5.179538836673975766e+02
1.450046492406240395e+00 5.179535359672556751e+02
1.450149808864552359e+00 5.179531313208879055e+02
1.450253125322864101e+00 5.179526694949885268e+02
1.450356441781175842e+00 5.179521502588128214e+02
1.450459758239487584e+00 5.179515733841922156e+02
1.450563074697799326e+00 5.179509386455442836e+02
1.450666391156111290e+00 5.179502458198894601e+02
1.450769707614423032e+00 5.179494946868640000e+02
1.450873024072734996e+00 5.179486850287320294e+02
1.450976340531046738e+00 5.179478166303990747e+02
1.451079656989358480e+00 5.179468892794261592e+02
1.451182973447670221e+00 5.179459027660418542e+02
1.451286289905982185e+00 5.179448568831547846e+02
1.451389606364293927e+00 5.179437514263674984e+02
1.451492922822605669e+00 5.179425861939892002e+02
1.451596239280917633e+00 5.179413609870472328e+02
1.451699555739229375e+00 5.179400756093000382e+02
1.451802872197541117e+00 5.179387298672504585e+02
1.451906188655852858e+00 5.179373235701567637e+02
1.452009505114164822e+00 5.179358565300454984e+02
1.452112821572476564e+00 5.179343285617235324e+02
1.452216138030788528e+00 5.179327394827892022e+02
1.452319454489100270e+00 5.179310891136462942e+02
1.452422770947412012e+00 5.179293772775142770e+02
1.452526087405723754e+00 5.179276038004389875e+02
1.452629403864035496e+00 5.179257685113065008e+02
1.452732720322347459e+00 5.179238712418527939e+02
1.452836036780659201e+00 5.179219118266763644e+02
1.452939353238971165e+00 5.179198901032499407e+02
1.453042669697282907e+00 5.179178059119285535e+02
1.453145986155594871e+00 5.179156590959632922e+02
1.453249302613906391e+00 5.179134495015122184e+02
1.453352619072218133e+00 5.179111769776503706e+02
1.453455935530530097e+00 5.179088413763807921e+02
1.453559251988841838e+00 5.179064425526440800e+02
1.453662568447153802e+00 5.179039803643305504e+02
1.453765884905465544e+00 5.179014546722894465e+02
1.453869201363777508e+00 5.178988653403415583e+02
1.453972517822089028e+00 5.178962122352834285e+02
1.454075834280401214e+00 5.178934952269052019e+02
1.454179150738712734e+00 5.178907141879947176e+02
1.454282467197024475e+00 5.178878689943504696e+02
1.454385783655336439e+00 5.178849595247894513e+02
1.454489100113648181e+00 5.178819856611578416e+02
1.454592416571960145e+00 5.178789472883397593e+02
1.454695733030271665e+00 5.178758442942671536e+02
1.454799049488583851e+00 5.178726765699293537e+02
1.454902365946895371e+00 5.178694440093813682e+02
1.455005682405207112e+00 5.178661465097529799e+02
1.455108998863519076e+00 5.178627839712587502e+02
1.455212315321830818e+00 5.178593562972044992e+02
1.455315631780142782e+00 5.178558633939992433e+02
1.455418948238454302e+00 5.178523051711600829e+02
1.455522264696766488e+00 5.178486815413234581e+02
1.455625581155078008e+00 5.178449924202528791e+02
1.455728897613389972e+00 5.178412377268458613e+02
1.455832214071701713e+00 5.178374173831430198e+02
1.455935530530013455e+00 5.178335313143354597e+02
1.456038846988325419e+00 5.178295794487735293e+02
1.456142163446636939e+00 5.178255617179733008e+02
1.456245479904949125e+00 5.178214780566252102e+02
1.456348796363260645e+00 5.178173284026008787e+02
1.456452112821572609e+00 5.178131126969602747e+02
1.456555429279884351e+00 5.178088308839600131e+02
1.456658745738196314e+00 5.178044829110588125e+02
1.456762062196508056e+00 5.178000687289260213e+02
1.456865378654819576e+00 5.177955882914470749e+02
1.456968695113131762e+00 5.177910415557319084e+02
1.457072011571443282e+00 5.177864284821191632e+02
1.457175328029755246e+00 5.177817490341853954e+02
1.457278644488066988e+00 5.177770031787489415e+02
1.457381960946378952e+00 5.177721908858777624e+02
1.457485277404690693e+00 5.177673121288952416e+02
1.457588593863002657e+00 5.177623668843850737e+02
1.457691910321314399e+00 5.177573551321979721e+02
1.457795226779625919e+00 5.177522768554583763e+02
1.457898543237937883e+00 5.177471320405682036e+02
1.458001859696249625e+00 5.177419206772127609e+02
1.458105176154561589e+00 5.177366427583672248e+02
1.458208492612873330e+00 5.177312982802995975e+02
1.458311809071185294e+00 5.177258872425793470e+02
1.458415125529497036e+00 5.177204096480775206e+02
1.458518441987808778e+00 5.177148655029762949e+02
1.458621758446120520e+00 5.177092548167703399e+02
1.458725074904432262e+00 5.177035776022732989e+02
1.458828391362744226e+00 5.176978338756208586e+02
1.458931707821055968e+00 5.176920236562756372e+02
1.459035024279367931e+00 5.176861469670317319e+02
1.459138340737679673e+00 5.176802038340185845e+02
1.459241657195991415e+00 5.176741942867038233e+02
1.459344973654303157e+00 5.176681183578984928e+02
1.459448290112615121e+00 5.176619760837598960e+02
1.459551606570926863e+00 5.176557675037950048e+02
1.459654923029238605e+00 5.176494926608645528e+02
1.459758239487550568e+00 5.176431516011848544e+02
1.459861555945862310e+00 5.176367443743331478e+02
1.459964872404174052e+00 5.176302710332482775e+02
1.460068188862485794e+00 5.176237316342342183e+02
1.460171505320797758e+00 5.176171262369650776e+02
1.460274821779109500e+00 5.176104549044827081e+02
1.460378138237421242e+00 5.176037177032042109e+02
1.460481454695733206e+00 5.175969147029217083e+02
1.460584771154044947e+00 5.175900459768041628e+02
1.460688087612356689e+00 5.175831116014015834e+02
1.460791404070668431e+00 5.175761116566430928e+02
1.460894720528980395e+00 5.175690462258438629e+02
1.460998036987292137e+00 5.175619153957019307e+02
1.461101353445604101e+00 5.175547192563036560e+02
1.461204669903915843e+00 5.175474579011208789e+02
1.461307986362227584e+00 5.175401314270161492e+02
1.461411302820539326e+00 5.175327399342422723e+02
1.461514619278851068e+00 5.175252835264411715e+02
1.461617935737163032e+00 5.175177623106483225e+02
1.461721252195474774e+00 5.175101763972927529e+02
1.461824568653786738e+00 5.175025259001931772e+02
1.461927885112098480e+00 5.174948109365647042e+02
1.462031201570410444e+00 5.174870316270159947e+02
1.462134518028721963e+00 5.174791880955478973e+02
1.462237834487033705e+00 5.174712804695569730e+02
1.462341150945345669e+00 5.174633088798325389e+02
1.462444467403657411e+00 5.174552734605579190e+02
1.462547783861969375e+00 5.174471743493099893e+02
1.462651100320281117e+00 5.174390116870571319e+02
1.462754416778593081e+00 5.174307856181602574e+02
1.462857733236904600e+00 5.174224962903713276e+02
1.462961049695216786e+00 5.174141438548323322e+02
1.463064366153528306e+00 5.174057284660746063e+02
1.463167682611840048e+00 5.173972502820165573e+02
1.463270999070152012e+00 5.173887094639637780e+02
1.463374315528463754e+00 5.173801061766068869e+02
1.463477631986775718e+00 5.173714405880190270e+02
1.463580948445087238e+00 5.173627128696558657e+02
1.463684264903399423e+00 5.173539231963516158e+02
1.463787581361710943e+00 5.173450717463185811e+02
1.463890897820022907e+00 5.173361587011448819e+02
1.463994214278334649e+00 5.173271842457909315e+02
1.464097530736646391e+00 5.173181485685885264e+02
1.464200847194958355e+00 5.173090518612366395e+02
1.464304163653269875e+00 5.172998943188002841e+02
1.464407480111582061e+00 5.172906761397059654e+02
1.464510796569893580e+00 5.172813975257408856e+02
1.464614113028205544e+00 5.172720586820465769e+02
1.464717429486517286e+00 5.172626598171198111e+02
1.464820745944829250e+00 5.172532011428046417e+02
1.464924062403140992e+00 5.172436828742927446e+02
1.465027378861452512e+00 5.172341052301173931e+02
1.465130695319764698e+00 5.172244684321500472e+02
1.465234011778076217e+00 5.172147727055973974e+02
1.465337328236388181e+00 5.172050182789954533e+02
1.465440644694699923e+00 5.171952053842076111e+02
1.465543961153011887e+00 5.171853342564178320e+02
1.465647277611323629e+00 5.171754051341272316e+02
1.465750594069635149e+00 5.171654182591507833e+02
1.465853910527947335e+00 5.171553738766101560e+02
1.465957226986258854e+00 5.171452722349304167e+02
1.466060543444570818e+00 5.171351135858332100e+02
1.466163859902882560e+00 5.171248981843349384e+02
1.466267176361194524e+00 5.171146262887369858e+02
1.466370492819506266e+00 5.171042981606241256e+02
1.466473809277818230e+00 5.170939140648564489e+02
1.466577125736129972e+00 5.170834742695641353e+02
1.466680442194441492e+00 5.170729790461430184e+02
1.466783758652753455e+00 5.170624286692466285e+02
1.466887075111065197e+00 5.170518234167809624e+02
1.466990391569377161e+00 5.170411635698983446e+02
1.467093708027688903e+00 5.170304494129907198e+02
1.467197024486000867e+00 5.170196812336826042e+02
1.467300340944312609e+00 5.170088593228254013e+02
1.467403657402624351e+00 5.169979839744902392e+02
1.467506973860936093e+00 5.169870554859603544e+02
1.467610290319247834e+00 5.169760741577256340e+02
1.467713606777559798e+00 5.169650402934724980e+02
1.467816923235871540e+00 5.169539542000794654e+02
1.467920239694183504e+00 5.169428161876082868e+02
1.468023556152495246e+00 5.169316265692963270e+02
1.468126872610806988e+00 5.169203856615497443e+02
1.468230189069118730e+00 5.169090937839335993e+02
1.468333505527430694e+00 5.168977512591661707e+02
1.468436821985742435e+00 5.168863584131087237e+02
1.468540138444054177e+00 5.168749155747590294e+02
1.468643454902366141e+00 5.168634230762415882e+02
1.468746771360677883e+00 5.168518812528000126e+02
1.468850087818989625e+00 5.168402904427869089e+02
1.468953404277301367e+00 5.168286509876579657e+02
1.469056720735613331e+00 5.168169632319585389e+02
1.469160037193925072e+00 5.168052275233189903e+02
1.469263353652237036e+00 5.167934442124430916e+02
1.469366670110548778e+00 5.167816136530985887e+02
1.469469986568860520e+00 5.167697362021092431e+02
1.469573303027172262e+00 5.167578122193436911e+02
1.469676619485484004e+00 5.167458420677065760e+02
1.469779935943795968e+00 5.167338261131272930e+02
1.469883252402107710e+00 5.167217647245532817e+02
1.469986568860419673e+00 5.167096582739358155e+02
1.470089885318731415e+00 5.166975071362230665e+02
1.470193201777043379e+00 5.166853116893468041e+02
1.470296518235354899e+00 5.166730723142146644e+02
1.470399834693666641e+00 5.166607893946974173e+02
1.470503151151978605e+00 5.166484633176198713e+02
1.470606467610290347e+00 5.166360944727481410e+02
1.470709784068602310e+00 5.166236832527807792e+02
1.470813100526914052e+00 5.166112300533353618e+02
1.470916416985226016e+00 5.165987352729393933e+02
1.471019733443537536e+00 5.165861993130172323e+02
1.471123049901849278e+00 5.165736225778789503e+02
1.471226366360161242e+00 5.165610054747094182e+02
1.471329682818472984e+00 5.165483484135561412e+02
1.471432999276784948e+00 5.165356518073168672e+02
1.471536315735096689e+00 5.165229160717285595e+02
1.471639632193408653e+00 5.165101416253538673e+02
1.471742948651720173e+00 5.164973288895705537e+02
1.471846265110032359e+00 5.164844782885575114e+02
1.471949581568343879e+00 5.164715902492833948e+02
1.472052898026655621e+00 5.164586652014934316e+02
1.472156214484967585e+00 5.164457035776970315e+02
1.472259530943279326e+00 5.164327058131542572e+02
1.472362847401591290e+00 5.164196723458628639e+02
1.472466163859902810e+00 5.164066036165470450e+02
1.472569480318214996e+00 5.163935000686421972e+02
1.472672796776526516e+00 5.163803621482811650e+02
1.472776113234838480e+00 5.163671903042821896e+02
1.472879429693150222e+00 5.163539849881348118e+02
1.472982746151461964e+00 5.163407466539871393e+02
1.473086062609773927e+00 5.163274757586300439e+02
1.473189379068085447e+00 5.163141727614840875e+02
1.473292695526397633e+00 5.163008381245861074e+02
1.473396011984709153e+00 5.162874723125748915e+02
1.473499328443021117e+00 5.162740757926756032e+02
1.473602644901332859e+00 5.162606490346871624e+02
1.473705961359644823e+00 5.162471925109666699e+02
1.473809277817956565e+00 5.162337066964144014e+02
1.473912594276268084e+00 5.162201920684602783e+02
1.474015910734580270e+00 5.162066491070479515e+02
1.474119227192891790e+00 5.161930782946205909e+02
1.474222543651203754e+00 5.161794801161057649e+02
1.474325860109515496e+00 5.161658550588988419e+02
1.474429176567827460e+00 5.161522036128494619e+02
1.474532493026139202e+00 5.161385262702451655e+02
1.474635809484451165e+00 5.161248235257966144e+02
1.474739125942762907e+00 5.161110958766208796e+02
1.474842442401074427e+00 5.160973438222263212e+02
1.474945758859386391e+00 5.160835678644961035e+02
1.475049075317698133e+00 5.160697685076743255e+02
1.475152391776010097e+00 5.160559462583476034e+02
1.475255708234321839e+00 5.160421016254285860e+02
1.475359024692633803e+00 5.160282351201418578e+02
1.475462341150945544e+00 5.160143472560064311e+02
1.475565657609257064e+00 5.160004385488189200e+02
1.475668974067569028e+00 5.159865095166379660e+02
1.475772290525880770e+00 5.159725606797651380e+02
1.475875606984192734e+00 5.159585925607315176e+02
1.475978923442504476e+00 5.159446056842789403e+02
1.476082239900816440e+00 5.159306005773412380e+02
1.476185556359128181e+00 5.159165777690311643e+02
1.476288872817439923e+00 5.159025377906202721e+02
1.476392189275751665e+00 5.158884811755217470e+02
1.476495505734063407e+00 5.158744084592741501e+02
1.476598822192375371e+00 5.158603201795228870e+02
1.476702138650687113e+00 5.158462168760031545e+02
1.476805455108999077e+00 5.158320990905224335e+02
1.476908771567310819e+00 5.158179673669405929e+02
1.477012088025622560e+00 5.158038222511561344e+02
1.477115404483934302e+00 5.157896642910841365e+02
1.477218720942246266e+00 5.157754940366392020e+02
1.477322037400558008e+00 5.157613120397195416e+02
1.477425353858869750e+00 5.157471188541851461e+02
1.477528670317181714e+00 5.157329150358420975e+02
1.477631986775493456e+00 5.157187011424229013e+02
1.477735303233805197e+00 5.157044777335678418e+02
1.477838619692116939e+00 5.156902453708067924e+02
1.477941936150428903e+00 5.156760046175402294e+02
1.478045252608740645e+00 5.156617560390201334e+02
1.478148569067052609e+00 5.156475002023323668e+02
1.478251885525364351e+00 5.156332376763746197e+02
1.478355201983676093e+00 5.156189690318410612e+02
1.478458518441987835e+00 5.156046948411998301e+02
1.478561834900299576e+00 5.155904156786771182e+02
1.478665151358611540e+00 5.155761321202332965e+02
1.478768467816923282e+00 5.155618447435481357e+02
1.478871784275235246e+00 5.155475541279982963e+02
1.478975100733546988e+00 5.155332608546385700e+02
1.479078417191858952e+00 5.155189655061820986e+02
1.479181733650170472e+00 5.155046686669805922e+02
1.479285050108482213e+00 5.154903709230040931e+02
1.479388366566794177e+00 5.154760728618223311e+02
1.479491683025105919e+00 5.154617750725822134e+02
1.479594999483417883e+00 5.154474781459902033e+02
1.479698315941729625e+00 5.154331826742907197e+02
1.479801632400041589e+00 5.154188892512460143e+02
1.479904948858353109e+00 5.154045984721154809e+02
1.480008265316665295e+00 5.153903109336368971e+02
1.480111581774976814e+00 5.153760272340040274e+02
1.480214898233288556e+00 5.153617479728461603e+02
1.480318214691600520e+00 5.153474737512079855e+02
1.480421531149912262e+00 5.153332051715298121e+02
1.480524847608224226e+00 5.153189428376246042e+02
1.480628164066535746e+00 5.153046873546586539e+02
1.480731480524847932e+00 5.152904393291298675e+02
1.480834796983159452e+00 5.152761993688470739e+02
1.480938113441471193e+00 5.152619680829087656e+02
1.481041429899783157e+00 5.152477460816821804e+02
1.481144746358094899e+00 5.152335339767819278e+02
1.481248062816406863e+00 5.152193323810473657e+02
1.481351379274718383e+00 5.152051419085240695e+02
1.481454695733030569e+00 5.151909631744400713e+02
1.481558012191342089e+00 5.151767967951839182e+02
1.481661328649654052e+00 5.151626433882854599e+02
1.481764645107965794e+00 5.151485035723925421e+02
1.481867961566277536e+00 5.151343779672489518e+02
1.481971278024589500e+00 5.151202671936739534e+02
1.482074594482901020e+00 5.151061718735402337e+02
1.482177910941213206e+00 5.150920926297495726e+02
1.482281227399524726e+00 5.150780300862148806e+02
1.482384543857836690e+00 5.150639848678348471e+02
1.482487860316148431e+00 5.150499576004739311e+02
1.482591176774460395e+00 5.150359489109387141e+02
1.482694493232772137e+00 5.150219594269565278e+02
1.482797809691083657e+00 5.150079897771535116e+02
1.482901126149395843e+00 5.149940405910307391e+02
1.483004442607707363e+00 5.149801124989442087e+02
1.483107759066019327e+00 5.149662061320808562e+02
1.483211075524331068e+00 5.149523221224355893e+02
1.483314391982643032e+00 5.149384611027895744e+02
1.483417708440954774e+00 5.149246237066885215e+02
1.483521024899266738e+00 5.149108105684181282e+02
1.483624341357578480e+00 5.148970223229828207e+02
1.483727657815890000e+00 5.148832596060826745e+02
1.483830974274201964e+00 5.148695230540903367e+02
1.483934290732513706e+00 5.148558133040284019e+02
1.484037607190825669e+00 5.148421309935458794e+02
1.484140923649137411e+00 5.148284767608969332e+02
1.484244240107449375e+00 5.148148512449163263e+02
1.484347556565761117e+00 5.148012550849970239e+02
1.484450873024072859e+00 5.147876889210666604e+02
1.484554189482384601e+00 5.147741533935657117e+02
1.484657505940696343e+00 5.147606491434225973e+02
1.484760822399008307e+00 5.147471768120312845e+02
1.484864138857320048e+00 5.147337370412292330e+02
1.484967455315632012e+00 5.147203304732713605e+02
1.485070771773943754e+00 5.147069577508098064e+02
1.485174088232255496e+00 5.146936195168690347e+02
1.485277404690567238e+00 5.146803164148215046e+02
1.485380721148879202e+00 5.146670490883664115e+02
1.485484037607190944e+00 5.146538181815049029e+02
1.485587354065502685e+00 5.146406243385160906e+02
1.485690670523814649e+00 5.146274682039361323e+02
1.485793986982126391e+00 5.146143504225306060e+02
1.485897303440438133e+00 5.146012716392738184e+02
1.486000619898749875e+00 5.145882324993270913e+02
1.486103936357061839e+00 5.145752336480084068e+02
1.486207252815373581e+00 5.145622757307758093e+02
1.486310569273685323e+00 5.145493593931992109e+02
1.486413885731997286e+00 5.145364852809399281e+02
1.486517202190309028e+00 5.145236540397233966e+02
1.486620518648620770e+00 5.145108663153181396e+02
1.486723835106932512e+00 5.144981227535108701e+02
1.486827151565244476e+00 5.144854240000837535e+02
1.486930468023556218e+00 5.144727707007879189e+02
1.487033784481868182e+00 5.144601635013224268e+02
1.487137100940179923e+00 5.144476030473092578e+02
1.487240417398491665e+00 5.144350899842683020e+02
1.487343733856803407e+00 5.144226249575970087e+02
1.487447050315115149e+00 5.144102086125410551e+02
1.487550366773427113e+00 5.143978415941747926e+02
1.487653683231738855e+00 5.143855245473758941e+02
1.487756999690050819e+00 5.143732581168003435e+02
1.487860316148362561e+00 5.143610429468595839e+02
1.487963632606674524e+00 5.143488796816961894e+02
1.488066949064986044e+00 5.143367689651608998e+02
1.488170265523297786e+00 5.143247114407852223e+02
1.488273581981609750e+00 5.143127077517613088e+02
1.488376898439921492e+00 5.143007585409158082e+02
1.488480214898233456e+00 5.142888644506854234e+02
1.488583531356545198e+00 5.142770261230951974e+02
1.488686847814857162e+00 5.142652441997304322e+02
1.488790164273168681e+00 5.142535193217169081e+02
1.488893480731480867e+00 5.142418521296931431e+02
1.488996797189792387e+00 5.142302432637898164e+02
1.489100113648104129e+00 5.142186933636015738e+02
1.489203430106416093e+00 5.142072030681666774e+02
1.489306746564727835e+00 5.141957730159397215e+02
1.489410063023039799e+00 5.141844038447699177e+02
1.489513379481351318e+00 5.141730961918767662e+02
1.489616695939663504e+00 5.141618506938239079e+02
1.489720012397975024e+00 5.141506679864966145e+02
1.489823328856286988e+00 5.141395487050775728e+02
1.489926645314598730e+00 5.141284934840227834e+02
1.490029961772910472e+00 5.141175029570356401e+02
1.490133278231222436e+00 5.141065777570469209e+02
1.490236594689533955e+00 5.140957185161853431e+02
1.490339911147846141e+00 5.140849258657584642e+02
1.490443227606157661e+00 5.140742004362252828e+02
1.490546544064469625e+00 5.140635428571732746e+02
1.490649860522781367e+00 5.140529537572942900e+02
1.490753176981093109e+00 5.140424337643598847e+02
1.490856493439405073e+00 5.140319835051998325e+02
1.490959809897716593e+00 5.140216036056727944e+02
1.491063126356028778e+00 5.140112946906488105e+02
1.491166442814340298e+00 5.140010573839807648e+02
1.491269759272652262e+00 5.139908923084803973e+02
1.491373075730964004e+00 5.139808000858974992e+02
1.491476392189275968e+00 5.139707813368934239e+02
1.491579708647587710e+00 5.139608366810168718e+02
1.491683025105899230e+00 5.139509667366820622e+02
1.491786341564211416e+00 5.139411721211429267e+02
1.491889658022522935e+00 5.139314534504702578e+02
1.491992974480834899e+00 5.139218113395262435e+02
1.492096290939146641e+00 5.139122464019444578e+02
1.492199607397458605e+00 5.139027592500999617e+02
1.492302923855770347e+00 5.138933504950921360e+02
1.492406240314082311e+00 5.138840207467150094e+02
1.492509556772394053e+00 5.138747706134383861e+02
1.492612873230705572e+00 5.138656007023813572e+02
1.492716189689017536e+00 5.138565116192880851e+02
1.492819506147329278e+00 5.138475039685072261e+02
1.492922822605641242e+00 5.138385783529643049e+02
1.493026139063952984e+00 5.138297353741413644e+02
1.493129455522264948e+00 5.138209756320513861e+02
1.493232771980576690e+00 5.138122997252168034e+02
1.493336088438888432e+00 5.138037082506435809e+02
1.493439404897200173e+00 5.137952018037990456e+02
1.493542721355511915e+00 5.137867809785884674e+02
1.493646037813823879e+00 5.137784463673310711e+02
1.493749354272135621e+00 5.137701985607382085e+02
1.493852670730447585e+00 5.137620381478873242e+02
1.493955987188759327e+00 5.137539657162008098e+02
1.494059303647071069e+00 5.137459818514226981e+02
1.494162620105382810e+00 5.137380871375946754e+02
1.494265936563694774e+00 5.137302821570320930e+02
1.494369253022006516e+00 5.137225674903036179e+02
1.494472569480318258e+00 5.137149437162051981e+02
1.494575885938630222e+00 5.137074114117385761e+02
1.494679202396941964e+00 5.136999711520882101e+02
1.494782518855253706e+00 5.136926235105976275e+02
1.494885835313565448e+00 5.136853690587471419e+02
1.494989151771877411e+00 5.136782083661311162e+02
1.495092468230189153e+00 5.136711420004345428e+02
1.495195784688501117e+00 5.136641705274109881e+02
1.495299101146812859e+00 5.136572945108582644e+02
1.495402417605124601e+00 5.136505145125991021e+02
1.495505734063436343e+00 5.136438310924546613e+02
1.495609050521748085e+00 5.136372448082244091e+02
1.495712366980060049e+00 5.136307562156636095e+02
1.495815683438371790e+00 5.136243658684584261e+02
1.495918999896683754e+00 5.136180743182076185e+02
1.496022316354995496e+00 5.136118821143965079e+02
1.496125632813307238e+00 5.136057898043766272e+02
1.496228949271618980e+00 5.135997979333427566e+02
1.496332265729930722e+00 5.135939070443110950e+02
1.496435582188242686e+00 5.135881176780974329e+02
1.496538898646554427e+00 5.135824303732941871e+02
1.496642215104866391e+00 5.135768456662491417e+02
1.496745531563178133e+00 5.135713640910440745e+02
1.496848848021490097e+00 5.135659861794715653e+02
1.496952164479801617e+00 5.135607124610139635e+02
1.497055480938113359e+00 5.135555434628213334e+02
1.497158797396425323e+00 5.135504797096909897e+02
1.497262113854737065e+00 5.135455217240432830e+02
1.497365430313049028e+00 5.135406700259038644e+02
1.497468746771360770e+00 5.135359251328781056e+02
1.497572063229672734e+00 5.135312875601330234e+02
1.497675379687984254e+00 5.135267578203736321e+02
1.497778696146296440e+00 5.135223364238241857e+02
1.497882012604607960e+00 5.135180238782038487e+02
1.497985329062919702e+00 5.135138206887082788e+02
1.498088645521231665e+00 5.135097273579880266e+02
1.498191961979543407e+00 5.135057443861257980e+02
1.498295278437855371e+00 5.135018722706173548e+02
1.498398594896166891e+00 5.134981115063510515e+02
1.498501911354479077e+00 5.134944625855862341e+02
1.498605227812790597e+00 5.134909259979316403e+02
1.498708544271102561e+00 5.134875022303265268e+02
1.498811860729414303e+00 5.134841917670204339e+02
1.498915177187726044e+00 5.134809950895502197e+02
1.499018493646038008e+00 5.134779126767223261e+02
1.499121810104349528e+00 5.134749450045914045e+02
1.499225126562661714e+00 5.134720925464403081e+02
1.499328443020973234e+00 5.134693557727593998e+02
1.499431759479285198e+00 5.134667351512291589e+02
1.499535075937596940e+00 5.134642311466956244e+02
1.499638392395908904e+00 5.134618442211551610e+02
1.499741708854220645e+00 5.134595748337314944e+02
1.499845025312532165e+00 5.134574234406578626e+02
1.499948341770844351e+00 5.134553904952579160e+02
1.500051658229155871e+00 5.134534764479226396e+02
1.500154974687467835e+00 5.134516817460963694e+02
1.500258291145779577e+00 5.134500068342521217e+02
1.500361607604091541e+00 5.134484521538772697e+02
1.500464924062403282e+00 5.134470181434497817e+02
1.500568240520715246e+00 5.134457052384233293e+02
1.500671556979026988e+00 5.134445138712053449e+02
1.500774873437338508e+00 5.134434444711398555e+02
1.500878189895650472e+00 5.134424974644882695e+02
1.500981506353962214e+00 5.134416732744091405e+02
1.501084822812274178e+00 5.134409723209436152e+02
1.501188139270585920e+00 5.134403950209925824e+02
1.501291455728897883e+00 5.134399417883010983e+02
1.501394772187209625e+00 5.134396130334382633e+02
1.501498088645521145e+00 5.134394091637815336e+02
1.501601405103833109e+00 5.134393305834951207e+02
1.501704721562144851e+00 5.134393776935164624e+02
1.501808038020456815e+00 5.134395508915340542e+02
1.501911354478768557e+00 5.134398505719715331e+02
1.502014670937080520e+00 5.134402771259713063e+02
1.502117987395392262e+00 5.134408309413748839e+02
1.502221303853704004e+00 5.134415124027065076e+02
1.502324620312015746e+00 5.134423218911547337e+02
1.502427936770327488e+00 5.134432597845579949e+02
1.502531253228639452e+00 5.134443264573835677e+02
1.502634569686951194e+00 5.134455222807127939e+02
1.502737886145263158e+00 5.134468476222257323e+02
1.502841202603574899e+00 5.134483028461787626e+02
1.502944519061886641e+00 5.134498883133951495e+02
1.503047835520198383e+00 5.134516043812428734e+02
1.503151151978510347e+00 5.134534514036208748e+02
1.503254468436822089e+00 5.134554297309410913e+02
1.503357784895133831e+00 5.134575397101148155e+02
1.503461101353445795e+00 5.134597816845322313e+02
1.503564417811757536e+00 5.134621559940513862e+02
1.503667734270069278e+00 5.134646629749773865e+02
1.503771050728381020e+00 5.134673029600512564e+02
1.503874367186692984e+00 5.134700762784304970e+02
1.503977683645004726e+00 5.134729832556754445e+02
1.504081000103316690e+00 5.134760242137334671e+02
1.504184316561628432e+00 5.134791994709225946e+02
1.504287633019940174e+00 5.134825093419190125e+02
1.504390949478251915e+00 5.134859541377379628e+02
1.504494265936563657e+00 5.134895341657228300e+02
1.504597582394875621e+00 5.134932497295267240e+02
1.504700898853187363e+00 5.134971011290998604e+02
1.504804215311499327e+00 5.135010886606758049e+02
1.504907531769811069e+00 5.135052126167532833e+02
1.505010848228123033e+00 5.135094732860850399e+02
1.505114164686434552e+00 5.135138709536636270e+02
1.505217481144746294e+00 5.135184059007044652e+02
1.505320797603058258e+00 5.135230784046349299e+02
1.505424114061370000e+00 5.135278887390785485e+02
1.505527430519681964e+00 5.135328371738414717e+02
1.505630746977993706e+00 5.135379239748996270e+02
1.505734063436305670e+00 5.135431494043846214e+02
1.505837379894617190e+00 5.135485137205705541e+02
1.505940696352929375e+00 5.135540171778602598e+02
1.506044012811240895e+00 5.135596600267726899e+02
1.506147329269552637e+00 5.135654425139294972e+02
1.506250645727864601e+00 5.135713648820430990e+02
1.506353962186176343e+00 5.135774273699028072e+02
1.506457278644488307e+00 5.135836302123620953e+02
1.506560595102799827e+00 5.135899736403272300e+02
1.506663911561112013e+00 5.135964578807447651e+02
1.506767228019423532e+00 5.136030831565866492e+02
1.506870544477735274e+00 5.136098496868434040e+02
1.506973860936047238e+00 5.136167576865062756e+02
1.507077177394358980e+00 5.136238073665605270e+02
1.507180493852670944e+00 5.136309989339695221e+02
1.507283810310982464e+00 5.136383325916655167e+02
1.507387126769294650e+00 5.136458085385381764e+02
1.507490443227606169e+00 5.136534269694226396e+02
1.507593759685918133e+00 5.136611880750881483e+02
1.507697076144229875e+00 5.136690920422275894e+02
1.507800392602541617e+00 5.136771390534469219e+02
1.507903709060853581e+00 5.136853292872530119e+02
1.508007025519165101e+00 5.136936629180445379e+02
1.508110341977477287e+00 5.137021401161001677e+02
1.508213658435788806e+00 5.137107610475698038e+02
1.508316974894100770e+00 5.137195258744632156e+02
1.508420291352412512e+00 5.137284347546400340e+02
1.508523607810724476e+00 5.137374878417996342e+02
1.508626924269036218e+00 5.137466852854722674e+02
1.508730240727347738e+00 5.137560272310093978e+02
1.508833557185659924e+00 5.137655138195722202e+02
1.508936873643971444e+00 5.137751451881258618e+02
1.509040190102283407e+00 5.137849214694258535e+02
1.509143506560595149e+00 5.137948427920126733e+02
1.509246823018907113e+00 5.138049092802006044e+02
1.509350139477218855e+00 5.138151210540704596e+02
1.509453455935530819e+00 5.138254782294591223e+02
1.509556772393842561e+00 5.138359809179528384e+02
1.509660088852154081e+00 5.138466292268791449e+02
1.509763405310466045e+00 5.138574232592950466e+02
1.509866721768777786e+00 5.138683631139838326e+02
1.509970038227089750e+00 5.138794488854437077e+02
1.510073354685401492e+00 5.138906806638805165e+02
1.510176671143713456e+00 5.139020585352025137e+02
1.510279987602025198e+00 5.139135825810099050e+02
1.510383304060336940e+00 5.139252528785880259e+02
1.510486620518648682e+00 5.139370695009023393e+02
1.510589936976960423e+00 5.139490325165886588e+02
1.510693253435272387e+00 5.139611419899474640e+02
1.510796569893584129e+00 5.139733979809376478e+02
1.510899886351896093e+00 5.139858005451687859e+02
1.511003202810207835e+00 5.139983497338949974e+02
1.511106519268519577e+00 5.140110455940098291e+02
1.511209835726831319e+00 5.140238881680381837e+02
1.511313152185143061e+00 5.140368774941316588e+02
1.511416468643455024e+00 5.140500136060618388e+02
1.511519785101766766e+00 5.140632965332155209e+02
1.511623101560078730e+00 5.140767263005882342e+02
1.511726418018390472e+00 5.140903029287791242e+02
1.511829734476702214e+00 5.141040264339868600e+02
1.511933050935013956e+00 5.141178968280014487e+02
1.512036367393325920e+00 5.141319141182035537e+02
1.512139683851637662e+00 5.141460783075547170e+02
1.512243000309949403e+00 5.141603893945982691e+02
1.512346316768261367e+00 5.141748473734498930e+02
1.512449633226573109e+00 5.141894522337964872e+02
1.512552949684884851e+00 5.142042039608897994e+02
1.512656266143196593e+00 5.142191025355438114e+02
1.512759582601508557e+00 5.142341479341305330e+02
1.512862899059820299e+00 5.142493401285765913e+02
1.512966215518132262e+00 5.142646790863578872e+02
1.513069531976444004e+00 5.142801647704988000e+02
1.513172848434755746e+00 5.142957971395666164e+02
1.513276164893067488e+00 5.143115761476699390e+02
1.513379481351379230e+00 5.143275017444543664e+02
1.513482797809691194e+00 5.143435738751021518e+02
1.513586114268002936e+00 5.143597924803257229e+02
1.513689430726314900e+00 5.143761574963685916e+02
1.513792747184626641e+00 5.143926688550017161e+02
1.513896063642938605e+00 5.144093264835205446e+02
1.513999380101250125e+00 5.144261303047441061e+02
1.514102696559561867e+00 5.144430802370126230e+02
1.514206013017873831e+00 5.144601761941863742e+02
1.514309329476185573e+00 5.144774180856429666e+02
1.514412645934497537e+00 5.144948058162773350e+02
1.514515962392809278e+00 5.145123392864989000e+02
1.514619278851121242e+00 5.145300183922320230e+02
1.514722595309432762e+00 5.145478430249132771e+02
1.514825911767744948e+00 5.145658130714933804e+02
1.514929228226056468e+00 5.145839284144333305e+02
1.515032544684368210e+00 5.146021889317066780e+02
1.515135861142680174e+00 5.146205944967963433e+02
1.515239177600991916e+00 5.146391449786984822e+02
1.515342494059303879e+00 5.146578402419172562e+02
1.515445810517615399e+00 5.146766801464706305e+02
1.515549126975927585e+00 5.146956645478867358e+02
1.515652443434239105e+00 5.147147932972048920e+02
1.515755759892551069e+00 5.147340662409762899e+02
1.515859076350862811e+00 5.147534832212678566e+02
1.515962392809174553e+00 5.147730440756579355e+02
1.516065709267486517e+00 5.147927486372419708e+02
1.516169025725798036e+00 5.148125967346304606e+02
1.516272342184110222e+00 5.148325881919515723e+02
1.516375658642421742e+00 5.148527228288550077e+02
1.516478975100733706e+00 5.148730004605090471e+02
1.516582291559045448e+00 5.148934208976069158e+02
1.516685608017357190e+00 5.149139839463649650e+02
1.516788924475669154e+00 5.149346894085283566e+02
1.516892240933980673e+00 5.149555370813716308e+02
1.516995557392292859e+00 5.149765267577007535e+02
1.517098873850604379e+00 5.149976582258560711e+02
1.517202190308916343e+00 5.150189312697169726e+02
1.517305506767228085e+00 5.150403456687023436e+02
1.517408823225540049e+00 5.150619011977746595e+02
1.517512139683851791e+00 5.150835976274439645e+02
1.517615456142163310e+00 5.151054347237705997e+02
1.517718772600475496e+00 5.151274122483680458e+02
1.517822089058787016e+00 5.151495299584084933e+02
1.517925405517098980e+00 5.151717876066262534e+02
1.518028721975410722e+00 5.151941849413199179e+02
1.518132038433722686e+00 5.152167217063595217e+02
1.518235354892034428e+00 5.152393976411892709e+02
1.518338671350346392e+00 5.152622124808311810e+02
1.518441987808658133e+00 5.152851659558921256e+02
1.518545304266969653e+00 5.153082577925677015e+02
1.518648620725281617e+00 5.153314877126458668e+02
1.518751937183593359e+00 5.153548554335144445e+02
1.518855253641905323e+00 5.153783606681652145e+02
1.518958570100217065e+00 5.154020031251980072e+02
1.519061886558529029e+00 5.154257825088304799e+02
1.519165203016840771e+00 5.154496985188989129e+02
1.519268519475152512e+00 5.154737508508669634e+02
1.519371835933464254e+00 5.154979391958330552e+02
1.519475152391775996e+00 5.155222632405328795e+02
1.519578468850087960e+00 5.155467226673495134e+02
1.519681785308399702e+00 5.155713171543167164e+02
1.519785101766711666e+00 5.155960463751281395e+02
1.519888418225023408e+00 5.156209099991438052e+02
1.519991734683335149e+00 5.156459076913961326e+02
1.520095051141646891e+00 5.156710391125980095e+02
1.520198367599958855e+00 5.156963039191497273e+02
1.520301684058270597e+00 5.157217017631462568e+02
1.520405000516582339e+00 5.157472322923857746e+02
1.520508316974894303e+00 5.157728951503768258e+02
1.520611633433206045e+00 5.157986899763462816e+02
1.520714949891517787e+00 5.158246164052477525e+02
1.520818266349829528e+00 5.158506740677695461e+02
1.520921582808141492e+00 5.158768625903430802e+02
1.521024899266453234e+00 5.159031815951525459e+02
1.521128215724765198e+00 5.159296307001415016e+02
1.521231532183076940e+00 5.159562095190232185e+02
1.521334848641388682e+00 5.159829176612901165e+02
1.521438165099700424e+00 5.160097547322218361e+02
1.521541481558012165e+00 5.160367203328952428e+02
1.521644798016324129e+00 5.160638140601927262e+02
1.521748114474635871e+00 5.160910355068147055e+02
1.521851430932947835e+00 5.161183842612856552e+02
1.521954747391259577e+00 5.161458599079666101e+02
1.522058063849571319e+00 5.161734620270646019e+02
1.522161380307883061e+00 5.162011901946430044e+02
1.522264696766194803e+00 5.162290439826313104e+02
1.522368013224506766e+00 5.162570229588363873e+02
1.522471329682818508e+00 5.162851266869527080e+02
1.522574646141130472e+00 5.163133547265732659e+02
1.522677962599442214e+00 5.163417066332013974e+02
1.522781279057754178e+00 5.163701819582599910e+02
1.522884595516065698e+00 5.163987802491050161e+02
1.522987911974377440e+00 5.164275010490334807e+02
1.523091228432689404e+00 5.164563438973013945e+02
1.523194544891001145e+00 5.164853083291275198e+02
1.523297861349313109e+00 5.165143938757119031e+02
1.523401177807624851e+00 5.165436000642438330e+02
1.523504494265936815e+00 5.165729264179145730e+02
1.523607810724248335e+00 5.166023724559324819e+02
1.523711127182560521e+00 5.166319376935314267e+02
1.523814443640872041e+00 5.166616216419861303e+02
1.523917760099183782e+00 5.166914238086237674e+02
1.524021076557495746e+00 5.167213436968373799e+02
1.524124393015807488e+00 5.167513808060982683e+02
1.524227709474119452e+00 5.167815346319700893e+02
1.524331025932430972e+00 5.168118046661204517e+02
1.524434342390743158e+00 5.168421903963367185e+02
1.524537658849054678e+00 5.168726913065374902e+02
1.524640975307366642e+00 5.169033068767877239e+02
1.524744291765678383e+00 5.169340365833114674e+02
1.524847608223990125e+00 5.169648798985067515e+02
1.524950924682302089e+00 5.169958362909591187e+02
1.525054241140613609e+00 5.170269052254571989e+02
1.525157557598925795e+00 5.170580861630040772e+02
1.525260874057237315e+00 5.170893785608359394e+02
1.525364190515549279e+00 5.171207818724341223e+02
1.525467506973861020e+00 5.171522955475397794e+02
1.525570823432172984e+00 5.171839190321694559e+02
1.525674139890484726e+00 5.172156517686321422e+02
1.525777456348796246e+00 5.172474931955407556e+02
1.525880772807108432e+00 5.172794427478304442e+02
1.525984089265419952e+00 5.173114998567730254e+02
1.526087405723731916e+00 5.173436639499918783e+02
1.526190722182043658e+00 5.173759344514808163e+02
1.526294038640355621e+00 5.174083107816138636e+02
1.526397355098667363e+00 5.174407923571683341e+02
1.526500671556979327e+00 5.174733785913379052e+02
1.526603988015291069e+00 5.175060688937463738e+02
1.526707304473602589e+00 5.175388626704685748e+02
1.526810620931914553e+00 5.175717593240448196e+02
1.526913937390226295e+00 5.176047582534961293e+02
1.527017253848538259e+00 5.176378588543448132e+02
1.527120570306850000e+00 5.176710605186274279e+02
1.527223886765161964e+00 5.177043626349150145e+02
1.527327203223473706e+00 5.177377645883278774e+02
1.527430519681785226e+00 5.177712657605544564e+02
1.527533836140097190e+00 5.178048655298691756e+02
1.527637152598408932e+00 5.178385632711476774e+02
1.527740469056720896e+00 5.178723583558869450e+02
1.527843785515032637e+00 5.179062501522223556e+02
1.527947101973344601e+00 5.179402380249447333e+02
1.528050418431656343e+00 5.179743213355209264e+02
1.528153734889968085e+00 5.180084994421082456e+02
1.528257051348279827e+00 5.180427716995759511e+02
1.528360367806591569e+00 5.180771374595229872e+02
1.528463684264903533e+00 5.181115960702959455e+02
1.528567000723215275e+00 5.181461468770073679e+02
1.528670317181527238e+00 5.181807892215563243e+02
1.528773633639838980e+00 5.182155224426455788e+02
1.528876950098150722e+00 5.182503458758013721e+02
1.528980266556462464e+00 5.182852588533926337e+02
1.529083583014774428e+00 5.183202607046506500e+02
1.529186899473086170e+00 5.183553507556870272e+02
1.529290215931397912e+00 5.183905283295150639e+02
1.529393532389709875e+00 5.184257927460680548e+02
1.529496848848021617e+00 5.184611433222193000e+02
1.529600165306333359e+00 5.184965793718035911e+02
1.529703481764645101e+00 5.185321002056336965e+02
1.529806798222957065e+00 5.185677051315243489e+02
1.529910114681268807e+00 5.186033934543087298e+02
1.530013431139580771e+00 5.186391644758634811e+02
1.530116747597892513e+00 5.186750174951234840e+02
1.530220064056204254e+00 5.187109518081072110e+02
1.530323380514515996e+00 5.187469667079335522e+02
1.530426696972827738e+00 5.187830614848473942e+02
1.530530013431139702e+00 5.188192354262351955e+02
1.530633329889451444e+00 5.188554878166481785e+02
1.530736646347763408e+00 5.188918179378247260e+02
1.530839962806075150e+00 5.189282250687107307e+02
1.530943279264387114e+00 5.189647084854785817e+02
1.531046595722698633e+00 5.190012674615525157e+02
1.531149912181010375e+00 5.190379012676264665e+02
1.531253228639322339e+00 5.190746091716889623e+02
1.531356545097634081e+00 5.191113904390415428e+02
1.531459861555946045e+00 5.191482443323234293e+02
1.531563178014257787e+00 5.191851701115319884e+02
1.531666494472569751e+00 5.192221670340445598e+02
1.531769810930881270e+00 5.192592343546407392e+02
1.531873127389193012e+00 5.192963713255252287e+02
1.531976443847504976e+00 5.193335771963502339e+02
1.532079760305816718e+00 5.193708512142360405e+02
1.532183076764128682e+00 5.194081926237959124e+02
1.532286393222440424e+00 5.194456006671570094e+02
1.532389709680752388e+00 5.194830745839834663e+02
1.532493026139063907e+00 5.195206136115004938e+02
1.532596342597376093e+00 5.195582169845142744e+02
1.532699659055687613e+00 5.195958839354382235e+02
1.532802975513999355e+00 5.196336136943140218e+02
1.532906291972311319e+00 5.196714054888352621e+02
1.533009608430623061e+00 5.197092585443710959e+02
1.533112924888935025e+00 5.197471720839886302e+02
1.533216241347246545e+00 5.197851453284769150e+02
1.533319557805558730e+00 5.198231774963710450e+02
1.533422874263870250e+00 5.198612678039750108e+02
1.533526190722182214e+00 5.198994154653845499e+02
1.533629507180493956e+00 5.199376196925136355e+02
1.533732823638805698e+00 5.199758796951144859e+02
1.533836140097117662e+00 5.200141946808050761e+02
1.533939456555429182e+00 5.200525638550909662e+02
1.534042773013741368e+00 5.200909864213903120e+02
1.534146089472052887e+00 5.201294615810579671e+02
1.534249405930364851e+00 5.201679885334082201e+02
1.534352722388676593e+00 5.202065664757426475e+02
1.534456038846988557e+00 5.202451946033700096e+02
1.534559355305300299e+00 5.202838721096348991e+02
1.534662671763611819e+00 5.203225981859401372e+02
1.534765988221924005e+00 5.203613720217701939e+02
1.534869304680235524e+00 5.204001928047191541e+02
1.534972621138547488e+00 5.204390597205142512e+02
1.535075937596859230e+00 5.204779719530378088e+02
1.535179254055171194e+00 5.205169286843570262e+02
1.535282570513482936e+00 5.205559290947455793e+02
1.535385886971794900e+00 5.205949723627095409e+02
1.535489203430106642e+00 5.206340576650134153e+02
1.535592519888418161e+00 5.206731841767045808e+02
1.535695836346730125e+00 5.207123510711385279e+02
1.535799152805041867e+00 5.207515575200040985e+02
1.535902469263353831e+00 5.207908026933491783e+02
1.536005785721665573e+00 5.208300857596062770e+02
1.536109102179977537e+00 5.208694058856185620e+02
1.536212418638289279e+00 5.209087622366646428e+02
1.536315735096601021e+00 5.209481539764831268e+02
1.536419051554912762e+00 5.209875802673013823e+02
1.536522368013224504e+00 5.210270402698589578e+02
1.536625684471536468e+00 5.210665331434346399e+02
1.536729000929848210e+00 5.211060580458715776e+02
1.536832317388160174e+00 5.211456141336034307e+02
1.536935633846471916e+00 5.211852005616806309e+02
1.537038950304783658e+00 5.212248164837966442e+02
1.537142266763095400e+00 5.212644610523137771e+02
1.537245583221407141e+00 5.213041334182892115e+02
1.537348899679719105e+00 5.213438327315021752e+02
1.537452216138030847e+00 5.213835581404787263e+02
1.537555532596342811e+00 5.214233087925198333e+02
1.537658849054654553e+00 5.214630838337267278e+02
1.537762165512966295e+00 5.215028824090272792e+02
1.537865481971278037e+00 5.215427036622033938e+02
1.537968798429590001e+00 5.215825467359159120e+02
1.538072114887901742e+00 5.216224107717338256e+02
1.538175431346213484e+00 5.216622949101580389e+02
1.538278747804525448e+00 5.217021982906508129e+02
1.538382064262837190e+00 5.217421200516604358e+02
1.538485380721148932e+00 5.217820593306480532e+02
1.538588697179460674e+00 5.218220152641158620e+02
1.538692013637772638e+00 5.218619869876346229e+02
1.538795330096084379e+00 5.219019736358668524e+02
1.538898646554396343e+00 5.219419743425976321e+02
1.539001963012708085e+00 5.219819882407598470e+02
1.539105279471019827e+00 5.220220144624613567e+02
1.539208595929331569e+00 5.220620521390121667e+02
1.539311912387643311e+00 5.221021004009528497e+02
1.539415228845955275e+00 5.221421583780787614e+02
1.539518545304267017e+00 5.221822251994698263e+02
1.539621861762578980e+00 5.222222999935164580e+02
1.539725178220890722e+00 5.222623818879469582e+02
1.539828494679202686e+00 5.223024700098560515e+02
1.539931811137514206e+00 5.223425634857302384e+02
1.540035127595825948e+00 5.223826614414751930e+02
1.540138444054137912e+00 5.224227630024466862e+02
1.540241760512449654e+00 5.224628672934722999e+02
1.540345076970761617e+00 5.225029734388834868e+02
1.540448393429073359e+00 5.225430805625400126e+02
1.540551709887385323e+00 5.225831877878612204e+02
1.540655026345696843e+00 5.226232942378478583e+02
1.540758342804009029e+00 5.226633990351144803e+02
1.540861659262320549e+00 5.227035013019157077e+02
1.540964975720632291e+00 5.227436001601715816e+02
1.541068292178944255e+00 5.227836947314984855e+02
1.541171608637255996e+00 5.228237841372354069e+02
1.541274925095567960e+00 5.228638674984697445e+02
1.541378241553879480e+00 5.229039439360665256e+02
1.541481558012191666e+00 5.229440125706978506e+02
1.541584874470503186e+00 5.229840725228665406e+02
1.541688190928815150e+00 5.230241229129379690e+02
1.541791507387126892e+00 5.230641628611641636e+02
1.541894823845438633e+00 5.231041914877133649e+02
1.541998140303750597e+00 5.231442079126989029e+02
1.542101456762062117e+00 5.231842112562032980e+02
1.542204773220374303e+00 5.232242006383100943e+02
1.542308089678685823e+00 5.232641751791278466e+02
1.542411406136997787e+00 5.233041339988220670e+02
1.542514722595309529e+00 5.233440762176378485e+02
1.542618039053621271e+00 5.233840009559327200e+02
1.542721355511933234e+00 5.234239073342005213e+02
1.542824671970244754e+00 5.234637944731016432e+02
1.542927988428556940e+00 5.235036614934898580e+02
1.543031304886868460e+00 5.235435075164390355e+02
1.543134621345180424e+00 5.235833316632731567e+02
1.543237937803492166e+00 5.236231330555920067e+02
1.543341254261804130e+00 5.236629108153006200e+02
1.543444570720115872e+00 5.237026640646363376e+02
1.543547887178427391e+00 5.237423919261948413e+02
1.543651203636739577e+00 5.237820935229616452e+02
1.543754520095051097e+00 5.238217679783361973e+02
1.543857836553363061e+00 5.238614144161626882e+02
1.543961153011674803e+00 5.239010319607543806e+02
1.544064469469986767e+00 5.239406197369251004e+02
1.544167785928298509e+00 5.239801768700137927e+02
1.544271102386610472e+00 5.240197024859137400e+02
1.544374418844922214e+00 5.240591957111009833e+02
1.544477735303233734e+00 5.240986556726593335e+02
1.544581051761545698e+00 5.241380814983110668e+02
1.544684368219857440e+00 5.241774723164429588e+02
1.544787684678169404e+00 5.242168272561347067e+02
1.544891001136481146e+00 5.242561454471850766e+02
1.544994317594793110e+00 5.242954260201414627e+02
1.545097634053104851e+00 5.243346681063253527e+02
1.545200950511416593e+00 5.243738708378627962e+02
1.545304266969728335e+00 5.244130333477081649e+02
1.545407583428040077e+00 5.244521547696763264e+02
1.545510899886352041e+00 5.244912342384650401e+02
1.545614216344663783e+00 5.245302708896865624e+02
1.545717532802975747e+00 5.245692638598928852e+02
1.545820849261287488e+00 5.246082122866039299e+02
1.545924165719599230e+00 5.246471153083347190e+02
1.546027482177910972e+00 5.246859720646234564e+02
1.546130798636222936e+00 5.247247816960575619e+02
1.546234115094534678e+00 5.247635433443017519e+02
1.546337431552846420e+00 5.248022561521262332e+02
1.546440748011158384e+00 5.248409192634312603e+02
1.546544064469470126e+00 5.248795318232780573e+02
1.546647380927781867e+00 5.249180929779130338e+02
1.546750697386093609e+00 5.249566018747963199e+02
1.546854013844405573e+00 5.249950576626285965e+02
1.546957330302717315e+00 5.250334594913779256e+02
1.547060646761029057e+00 5.250718065123066935e+02
1.547163963219341021e+00 5.251100978780002606e+02
1.547267279677652763e+00 5.251483327423919718e+02
1.547370596135964504e+00 5.251865102607904419e+02
1.547473912594276246e+00 5.252246295899072948e+02
1.547577229052588210e+00 5.252626898878831980e+02
1.547680545510899952e+00 5.253006903143158297e+02
1.547783861969211916e+00 5.253386300302844347e+02
1.547887178427523658e+00 5.253765081983800656e+02
