1.900094024446356000e+00 5.208457498865075195e+02
1.900194050453117622e+00 5.208370112473327254e+02
1.900294076459879467e+00 5.208282541808324595e+02
1.900394102466641311e+00 5.208194786594503967e+02
1.900494128473403155e+00 5.208106846572014774e+02
1.900594154480164555e+00 5.208018721496797525e+02
1.900694180486926399e+00 5.207930411140664546e+02
1.900794206493688243e+00 5.207841915291368196e+02
1.900894232500449865e+00 5.207753233752664528e+02
1.900994258507211709e+00 5.207664366344438349e+02
1.901094284513973554e+00 5.207575312902713449e+02
1.901194310520735176e+00 5.207486073279782204e+02
1.901294336527497020e+00 5.207396647344251051e+02
1.901394362534258864e+00 5.207307034981103016e+02
1.901494388541020486e+00 5.207217236091800032e+02
1.901594414547782330e+00 5.207127250594340921e+02
1.901694440554544174e+00 5.207037078423322782e+02
1.901794466561306018e+00 5.206946719530023984e+02
1.901894492568067641e+00 5.206856173882472376e+02
1.901994518574829485e+00 5.206765441465494177e+02
1.902094544581591329e+00 5.206674522280828796e+02
1.902194570588352729e+00 5.206583416347134516e+02
1.902294596595114573e+00 5.206492123700112415e+02
1.902394622601876417e+00 5.206400644392521144e+02
1.902494648608638039e+00 5.206308978494292887e+02
1.902594674615399883e+00 5.206217126092554963e+02
1.902694700622161728e+00 5.206125087291720774e+02
1.902794726628923350e+00 5.206032862213531871e+02
1.902894752635685194e+00 5.205940450997139806e+02
1.902994778642447038e+00 5.205847853799157292e+02
1.903094804649208882e+00 5.205755070793717323e+02
1.903194830655970282e+00 5.205662102172542518e+02
1.903294856662732126e+00 5.205568948144983779e+02
1.903394882669493970e+00 5.205475608938111236e+02
1.903494908676255593e+00 5.205382084796740401e+02
1.903594934683017437e+00 5.205288375983509468e+02
1.903694960689779281e+00 5.205194482778920246e+02
1.903794986696540903e+00 5.205100405481409780e+02
1.903895012703302747e+00 5.205006144407391275e+02
1.903995038710064591e+00 5.204911699891309809e+02
1.904095064716826213e+00 5.204817072285703716e+02
1.904195090723588057e+00 5.204722261961256891e+02
1.904295116730349902e+00 5.204627269306829476e+02
1.904395142737111524e+00 5.204532094729531764e+02
1.904495168743873368e+00 5.204436738654770807e+02
1.904595194750635212e+00 5.204341201526283385e+02
1.904695220757397056e+00 5.204245483806205357e+02
1.904795246764158456e+00 5.204149585975106902e+02
1.904895272770920300e+00 5.204053508532032311e+02
1.904995298777682144e+00 5.203957251994563649e+02
1.905095324784443767e+00 5.203860816898849180e+02
1.905195350791205611e+00 5.203764203799662482e+02
1.905295376797967455e+00 5.203667413270436555e+02
1.905395402804729077e+00 5.203570445903302470e+02
1.905495428811490921e+00 5.203473302309131441e+02
1.905595454818252765e+00 5.203375983117598480e+02
1.905695480825014165e+00 5.203278488977186953e+02
1.905795506831776009e+00 5.203180820555246555e+02
1.905895532838537854e+00 5.203082978538037651e+02
1.905995558845299698e+00 5.202984963630756283e+02
1.906095584852061320e+00 5.202886776557577377e+02
1.906195610858823164e+00 5.202788418061677476e+02
1.906295636865585008e+00 5.202689888905298403e+02
1.906395662872346630e+00 5.202591189869742720e+02
1.906495688879108474e+00 5.202492321755439662e+02
1.906595714885870319e+00 5.202393285381979240e+02
1.906695740892631941e+00 5.202294081588096333e+02
1.906795766899393785e+00 5.202194711231750262e+02
1.906895792906155629e+00 5.202095175190146392e+02
1.906995818912917251e+00 5.201995474359746368e+02
1.907095844919679095e+00 5.201895609656319266e+02
1.907195870926440939e+00 5.201795582014929096e+02
1.907295896933202339e+00 5.201695392390017787e+02
1.907395922939964183e+00 5.201595041755381317e+02
1.907495948946726028e+00 5.201494531104233374e+02
1.907595974953487872e+00 5.201393861449180349e+02
1.907696000960249494e+00 5.201293033822297502e+02
1.907796026967011338e+00 5.201192049275110776e+02
1.907896052973773182e+00 5.201090908878636583e+02
1.907996078980534804e+00 5.200989613723405682e+02
1.908096104987296648e+00 5.200888164919470000e+02
1.908196130994058493e+00 5.200786563596410588e+02
1.908296157000819893e+00 5.200684810903393327e+02
1.908396183007581737e+00 5.200582908009143921e+02
1.908496209014343581e+00 5.200480856101988820e+02
1.908596235021105203e+00 5.200378656389862044e+02
1.908696261027867047e+00 5.200276310100316550e+02
1.908796287034628891e+00 5.200173818480529917e+02
1.908896313041390735e+00 5.200071182797349820e+02
1.908996339048152358e+00 5.199968404337255379e+02
1.909096365054914202e+00 5.199865484406400356e+02
1.909196391061676046e+00 5.199762424330625663e+02
1.909296417068437668e+00 5.199659225455437763e+02
1.909396443075199512e+00 5.199555889146050731e+02
1.909496469081961356e+00 5.199452416787363518e+02
1.909596495088722978e+00 5.199348809783990646e+02
1.909696521095484822e+00 5.199245069560240609e+02
1.909796547102246667e+00 5.199141197560140881e+02
1.909896573109008067e+00 5.199037195247432237e+02
1.909996599115769911e+00 5.198933064105575568e+02
1.910096625122531755e+00 5.198828805637737105e+02
1.910196651129293377e+00 5.198724421366808883e+02
1.910296677136055221e+00 5.198619912835395098e+02
1.910396703142817065e+00 5.198515281605810969e+02
1.910496729149578909e+00 5.198410529260087287e+02
1.910596755156340532e+00 5.198305657399956772e+02
1.910696781163102376e+00 5.198200667646860893e+02
1.910796807169864220e+00 5.198095561641932818e+02
1.910896833176625620e+00 5.197990341045992864e+02
1.910996859183387464e+00 5.197885007539548496e+02
1.911096885190149308e+00 5.197779562822779553e+02
1.911196911196910930e+00 5.197674008615529146e+02
1.911296937203672774e+00 5.197568346657290022e+02
1.911396963210434619e+00 5.197462578707211378e+02
1.911496989217196241e+00 5.197356706544057943e+02
1.911597015223958085e+00 5.197250731966223611e+02
1.911697041230719929e+00 5.197144656791689385e+02
1.911797067237481773e+00 5.197038482858042698e+02
1.911897093244243395e+00 5.196932212022436488e+02
1.911997119251005239e+00 5.196825846161573281e+02
1.912097145257767083e+00 5.196719387171699509e+02
1.912197171264528706e+00 5.196612836968582769e+02
1.912297197271290550e+00 5.196506197487475447e+02
1.912397223278052394e+00 5.196399470683122672e+02
1.912497249284813794e+00 5.196292658529721393e+02
1.912597275291575638e+00 5.196185763020901049e+02
1.912697301298337482e+00 5.196078786169704244e+02
1.912797327305099104e+00 5.195971730008556051e+02
1.912897353311860948e+00 5.195864596589246958e+02
1.912997379318622793e+00 5.195757387982891942e+02
1.913097405325384415e+00 5.195650106279930469e+02
1.913197431332146259e+00 5.195542753590057146e+02
1.913297457338908103e+00 5.195435332042245591e+02
1.913397483345669947e+00 5.195327843784654078e+02
1.913497509352431347e+00 5.195220290984656231e+02
1.913597535359193191e+00 5.195112675828779629e+02
1.913697561365955035e+00 5.195005000522658065e+02
1.913797587372716658e+00 5.194897267291029266e+02
1.913897613379478502e+00 5.194789478377684873e+02
1.913997639386240346e+00 5.194681636045427240e+02
1.914097665393001968e+00 5.194573742576056929e+02
1.914197691399763812e+00 5.194465800270297677e+02
1.914297717406525656e+00 5.194357811447791846e+02
1.914397743413287278e+00 5.194249778447049266e+02
1.914497769420049123e+00 5.194141703625400623e+02
1.914597795426810967e+00 5.194033589358967902e+02
1.914697821433572811e+00 5.193925438042605265e+02
1.914797847440334433e+00 5.193817252089878593e+02
1.914897873447096277e+00 5.193709033932993862e+02
1.914997899453858121e+00 5.193600786022775537e+02
1.915097925460619521e+00 5.193492510828617696e+02
1.915197951467381365e+00 5.193384210838411263e+02
1.915297977474143210e+00 5.193275888558536053e+02
1.915398003480904832e+00 5.193167546513780053e+02
1.915498029487666676e+00 5.193059187247308728e+02
1.915598055494428520e+00 5.192950813320596808e+02
1.915698081501190142e+00 5.192842427313387361e+02
1.915798107507951986e+00 5.192734031823653140e+02
1.915898133514713830e+00 5.192625629467513590e+02
1.915998159521475230e+00 5.192517222879195060e+02
1.916098185528237074e+00 5.192408814710983052e+02
1.916198211534998919e+00 5.192300407633150598e+02
1.916298237541760763e+00 5.192192004333915065e+02
1.916398263548522385e+00 5.192083607519369934e+02
1.916498289555284229e+00 5.191975219913426827e+02
1.916598315562046073e+00 5.191866844257766616e+02
1.916698341568807695e+00 5.191758483311757573e+02
1.916798367575569539e+00 5.191650139852414441e+02
1.916898393582331384e+00 5.191541816674331358e+02
1.916998419589093006e+00 5.191433516589598867e+02
1.917098445595854850e+00 5.191325242427767535e+02
1.917198471602616694e+00 5.191216997035763825e+02
1.917298497609378316e+00 5.191108783277834391e+02
1.917398523616140160e+00 5.191000604035468768e+02
1.917498549622902004e+00 5.190892462207335711e+02
1.917598575629663848e+00 5.190784360709214980e+02
1.917698601636425249e+00 5.190676302473930264e+02
1.917798627643187093e+00 5.190568290451278699e+02
1.917898653649948937e+00 5.190460327607939917e+02
1.917998679656710559e+00 5.190352416927437389e+02
1.918098705663472403e+00 5.190244561410029291e+02
1.918198731670234247e+00 5.190136764072665301e+02
1.918298757676995869e+00 5.190029027948891098e+02
1.918398783683757713e+00 5.189921356088773337e+02
1.918498809690519558e+00 5.189813751558833701e+02
1.918598835697280958e+00 5.189706217441968192e+02
1.918698861704042802e+00 5.189598756837351630e+02
1.918798887710804646e+00 5.189491372860380807e+02
1.918898913717566268e+00 5.189384068642583543e+02
1.918998939724328112e+00 5.189276847331527733e+02
1.919098965731089956e+00 5.189169712090764506e+02
1.919198991737851800e+00 5.189062666099721355e+02
1.919299017744613423e+00 5.188955712553614603e+02
1.919399043751375267e+00 5.188848854663398242e+02
1.919499069758137111e+00 5.188742095655641151e+02
1.919599095764898733e+00 5.188635438772453199e+02
1.919699121771660577e+00 5.188528887271412486e+02
1.919799147778422421e+00 5.188422444425438016e+02
1.919899173785184043e+00 5.188316113522763544e+02
1.919999199791945887e+00 5.188209897866778419e+02
1.920099225798707732e+00 5.188103800775986656e+02
1.920199251805469132e+00 5.187997825583889835e+02
1.920299277812230976e+00 5.187891975638899567e+02
1.920399303818992820e+00 5.187786254304248814e+02
1.920499329825754664e+00 5.187680664957898671e+02
1.920599355832516286e+00 5.187575210992430357e+02
1.920699381839278130e+00 5.187469895814970187e+02
1.920799407846039975e+00 5.187364722847077019e+02
1.920899433852801597e+00 5.187259695524637664e+02
1.920999459859563441e+00 5.187154817297794125e+02
1.921099485866325285e+00 5.187050091630827637e+02
1.921199511873086685e+00 5.186945522002048392e+02
1.921299537879848529e+00 5.186841111903728461e+02
1.921399563886610373e+00 5.186736864841956276e+02
1.921499589893371995e+00 5.186632784336575241e+02
1.921599615900133839e+00 5.186528873921047307e+02
1.921699641906895684e+00 5.186425137142377935e+02
1.921799667913657306e+00 5.186321577560984224e+02
1.921899693920419150e+00 5.186218198750613055e+02
1.921999719927180994e+00 5.186115004298204667e+02
1.922099745933942838e+00 5.186011997803833538e+02
1.922199771940704460e+00 5.185909182880552635e+02
1.922299797947466304e+00 5.185806563154300193e+02
1.922399823954228149e+00 5.185704142263806489e+02
1.922499849960989771e+00 5.185601923860461966e+02
1.922599875967751615e+00 5.185499911608218326e+02
1.922699901974513459e+00 5.185398109183472570e+02
1.922799927981274859e+00 5.185296520274953309e+02
1.922899953988036703e+00 5.185195148583610489e+02
1.922999979994798547e+00 5.185093997822502843e+02
1.923100006001560169e+00 5.184993071716680788e+02
1.923200032008322014e+00 5.184892374003063651e+02
1.923300058015083858e+00 5.184791908430335070e+02
1.923400084021845702e+00 5.184691678758827038e+02
1.923500110028607324e+00 5.184591688760383477e+02
1.923600136035369168e+00 5.184491942218271561e+02
1.923700162042131012e+00 5.184392442927021420e+02
1.923800188048892412e+00 5.184293194692354518e+02
1.923900214055654256e+00 5.184194201331031309e+02
1.924000240062416101e+00 5.184095466670731867e+02
1.924100266069177723e+00 5.183996994549950159e+02
1.924200292075939567e+00 5.183898788817850800e+02
1.924300318082701411e+00 5.183800853334159910e+02
1.924400344089463033e+00 5.183703191969037789e+02
1.924500370096224877e+00 5.183605808602950447e+02
1.924600396102986721e+00 5.183508707126559329e+02
1.924700422109748565e+00 5.183411891440563295e+02
1.924800448116510188e+00 5.183315365455603114e+02
1.924900474123272032e+00 5.183219133092117090e+02
1.925000500130033876e+00 5.183123198280227371e+02
1.925100526136795498e+00 5.183027564959591018e+02
1.925200552143557342e+00 5.182932237079289735e+02
1.925300578150319186e+00 5.182837218597688889e+02
1.925400604157080586e+00 5.182742513482296545e+02
1.925500630163842430e+00 5.182648125709666829e+02
1.925600656170604275e+00 5.182554059265241904e+02
1.925700682177365897e+00 5.182460318143201903e+02
1.925800708184127741e+00 5.182366906346372843e+02
1.925900734190889585e+00 5.182273827886067465e+02
1.926000760197651207e+00 5.182181086781963586e+02
1.926100786204413051e+00 5.182088687061948349e+02
1.926200812211174895e+00 5.181996632761999990e+02
1.926300838217936739e+00 5.181904927926053688e+02
1.926400864224698140e+00 5.181813576605849221e+02
1.926500890231459984e+00 5.181722582860805915e+02
1.926600916238221828e+00 5.181631950757885079e+02
1.926700942244983450e+00 5.181541684371444489e+02
1.926800968251745294e+00 5.181451787783094005e+02
1.926900994258507138e+00 5.181362265081571650e+02
1.927001020265268760e+00 5.181273120362591271e+02
1.927101046272030604e+00 5.181184357728711802e+02
1.927201072278792449e+00 5.181095981289175825e+02
1.927301098285554071e+00 5.181007995159794746e+02
1.927401124292315915e+00 5.180920403462780541e+02
1.927501150299077759e+00 5.180833210326622975e+02
1.927601176305839603e+00 5.180746419885932710e+02
1.927701202312601225e+00 5.180660036281300336e+02
1.927801228319363069e+00 5.180574063659151989e+02
1.927901254326124914e+00 5.180488506171606105e+02
1.928001280332886314e+00 5.180403367976326763e+02
1.928101306339648158e+00 5.180318653236381579e+02
1.928201332346410002e+00 5.180234366120075720e+02
1.928301358353171624e+00 5.180150510800829124e+02
1.928401384359933468e+00 5.180067091457013930e+02
1.928501410366695312e+00 5.179984112271808954e+02
1.928601436373456934e+00 5.179901577433065540e+02
1.928701462380218778e+00 5.179819491133125666e+02
1.928801488386980623e+00 5.179737857568703703e+02
1.928901514393742023e+00 5.179656680940721571e+02
1.929001540400503867e+00 5.179575965454152993e+02
1.929101566407265711e+00 5.179495715317891609e+02
1.929201592414027555e+00 5.179415934744581591e+02
1.929301618420789177e+00 5.179336627950466436e+02
1.929401644427551021e+00 5.179257799155255952e+02
1.929501670434312866e+00 5.179179452581943224e+02
1.929601696441074488e+00 5.179101592456673870e+02
1.929701722447836332e+00 5.179024223008586887e+02
1.929801748454598176e+00 5.178947348469647523e+02
1.929901774461359798e+00 5.178870973074524500e+02
1.930001800468121642e+00 5.178795101060401294e+02
1.930101826474883486e+00 5.178719736666827202e+02
1.930201852481645108e+00 5.178644884135585471e+02
1.930301878488406953e+00 5.178570547710503433e+02
1.930401904495168797e+00 5.178496731637328594e+02
1.930501930501930641e+00 5.178423440163537634e+02
1.930601956508692041e+00 5.178350677538215905e+02
1.930701982515453885e+00 5.178278448011863020e+02
1.930802008522215729e+00 5.178206755836259845e+02
1.930902034528977351e+00 5.178135605264308197e+02
1.931002060535739195e+00 5.178065000549864862e+02
1.931102086542501040e+00 5.177994945947572205e+02
1.931202112549262662e+00 5.177925445712726287e+02
1.931302138556024506e+00 5.177856504101096107e+02
1.931402164562786350e+00 5.177788125368768988e+02
1.931502190569547750e+00 5.177720313771990277e+02
1.931602216576309594e+00 5.177653073567000774e+02
1.931702242583071438e+00 5.177586409009886665e+02
1.931802268589833060e+00 5.177520324356390802e+02
1.931902294596594905e+00 5.177454823861797877e+02
1.932002320603356749e+00 5.177389911780717284e+02
1.932102346610118593e+00 5.177325592366962610e+02
1.932202372616880215e+00 5.177261869873376554e+02
1.932302398623642059e+00 5.177198748551653580e+02
1.932402424630403903e+00 5.177136232652204626e+02
1.932502450637165525e+00 5.177074326423970660e+02
1.932602476643927369e+00 5.177013034114270340e+02
1.932702502650689214e+00 5.176952359968630617e+02
1.932802528657450836e+00 5.176892308230633262e+02
1.932902554664212680e+00 5.176832883141740922e+02
1.933002580670974524e+00 5.176774088941125456e+02
1.933102606677735924e+00 5.176715929865530370e+02
1.933202632684497768e+00 5.176658410149075280e+02
1.933302658691259612e+00 5.176601534023110389e+02
1.933402684698021456e+00 5.176545305716047096e+02
1.933502710704783079e+00 5.176489729453190876e+02
1.933602736711544923e+00 5.176434809456569610e+02
1.933702762718306767e+00 5.176380549944777840e+02
1.933802788725068389e+00 5.176326955132816465e+02
1.933902814731830233e+00 5.176274029231902887e+02
1.934002840738592077e+00 5.176221776449330036e+02
1.934102866745353477e+00 5.176170200988281067e+02
1.934202892752115321e+00 5.176119307047686107e+02
1.934302918758877166e+00 5.176069098822018759e+02
1.934402944765638788e+00 5.176019580501165365e+02
1.934502970772400632e+00 5.175970756270248785e+02
1.934602996779162476e+00 5.175922630309448778e+02
1.934703022785924098e+00 5.175875206793839425e+02
1.934803048792685942e+00 5.175828489893236792e+02
1.934903074799447786e+00 5.175782483772006799e+02
1.935003100806209630e+00 5.175737192588923108e+02
1.935103126812971253e+00 5.175692620496979544e+02
1.935203152819733097e+00 5.175648771643234340e+02
1.935303178826494941e+00 5.175605650168641887e+02
1.935403204833256563e+00 5.175563260207874237e+02
1.935503230840018407e+00 5.175521605889167631e+02
1.935603256846780251e+00 5.175480691334142875e+02
1.935703282853541651e+00 5.175440520657646175e+02
1.935803308860303495e+00 5.175401097967583155e+02
1.935903334867065340e+00 5.175362427364735822e+02
1.936003360873826962e+00 5.175324512942605679e+02
1.936103386880588806e+00 5.175287358787253424e+02
1.936203412887350650e+00 5.175250968977112507e+02
1.936303438894112494e+00 5.175215347582829963e+02
1.936403464900874116e+00 5.175180498667109532e+02
1.936503490907635960e+00 5.175146426284527479e+02
1.936603516914397805e+00 5.175113134481363204e+02
1.936703542921159205e+00 5.175080627295446902e+02
1.936803568927921049e+00 5.175048908755986758e+02
1.936903594934682893e+00 5.175017982883387049e+02
1.937003620941444515e+00 5.174987853689095800e+02
1.937103646948206359e+00 5.174958525175436534e+02
1.937203672954968203e+00 5.174930001335428642e+02
1.937303698961729825e+00 5.174902286152631632e+02
1.937403724968491670e+00 5.174875383600968917e+02
1.937503750975253514e+00 5.174849297644572061e+02
1.937603776982015136e+00 5.174824032237598885e+02
1.937703802988776980e+00 5.174799591324070889e+02
1.937803828995538824e+00 5.174775978837720913e+02
1.937903855002300668e+00 5.174753198701796464e+02
1.938003881009062290e+00 5.174731254828916462e+02
1.938103907015824134e+00 5.174710151120904129e+02
1.938203933022585979e+00 5.174689891468603946e+02
1.938303959029347379e+00 5.174670479751727044e+02
1.938403985036109223e+00 5.174651919838681806e+02
1.938504011042871067e+00 5.174634215586403343e+02
1.938604037049632689e+00 5.174617370840211379e+02
1.938704063056394533e+00 5.174601389433596523e+02
1.938804089063156377e+00 5.174586275188094078e+02
1.938904115069917999e+00 5.174572031913113506e+02
1.939004141076679844e+00 5.174558663405755397e+02
1.939104167083441688e+00 5.174546173450661399e+02
1.939204193090203532e+00 5.174534565819843692e+02
1.939304219096964932e+00 5.174523844272516726e+02
1.939404245103726776e+00 5.174514012554943747e+02
1.939504271110488620e+00 5.174505074400253761e+02
1.939604297117250242e+00 5.174497033528302836e+02
1.939704323124012086e+00 5.174489893645479697e+02
1.939804349130773931e+00 5.174483658444560206e+02
1.939904375137535553e+00 5.174478331604550476e+02
1.940004401144297397e+00 5.174473916790511794e+02
1.940104427151059241e+00 5.174470417653379855e+02
1.940204453157820863e+00 5.174467837829848804e+02
1.940304479164582707e+00 5.174466180942165465e+02
1.940404505171344551e+00 5.174465450597986091e+02
1.940504531178106173e+00 5.174465650390211522e+02
1.940604557184868018e+00 5.174466783896821198e+02
1.940704583191629862e+00 5.174468854680718550e+02
1.940804609198391706e+00 5.174471866289565014e+02
1.940904635205153106e+00 5.174475822255628827e+02
1.941004661211914950e+00 5.174480726095594036e+02
1.941104687218676794e+00 5.174486581310447946e+02
1.941204713225438416e+00 5.174493391385276482e+02
1.941304739232200260e+00 5.174501159789140274e+02
1.941404765238962105e+00 5.174509889974879115e+02
1.941504791245723727e+00 5.174519585378990314e+02
1.941604817252485571e+00 5.174530249421438839e+02
1.941704843259247415e+00 5.174541885505526579e+02
1.941804869266008815e+00 5.174554497017705899e+02
1.941904895272770659e+00 5.174568087327442072e+02
1.942004921279532503e+00 5.174582659787060948e+02
1.942104947286294347e+00 5.174598217731563636e+02
1.942204973293055970e+00 5.174614764478508278e+02
1.942304999299817814e+00 5.174632303327814498e+02
1.942405025306579658e+00 5.174650837561646313e+02
1.942505051313341280e+00 5.174670370444226819e+02
1.942605077320103124e+00 5.174690905221700632e+02
1.942705103326864968e+00 5.174712445121971314e+02
1.942805129333626590e+00 5.174734993354551307e+02
1.942905155340388434e+00 5.174758553110411867e+02
1.943005181347150279e+00 5.174783127561817082e+02
1.943105207353911901e+00 5.174808719862182897e+02
1.943205233360673745e+00 5.174835333145931600e+02
1.943305259367435589e+00 5.174862970528324695e+02
1.943405285374196989e+00 5.174891635105311707e+02
1.943505311380958833e+00 5.174921329953390341e+02
1.943605337387720677e+00 5.174952058129462102e+02
1.943705363394482521e+00 5.174983822670652671e+02
1.943805389401244144e+00 5.175016626594200488e+02
1.943905415408005988e+00 5.175050472897285090e+02
1.944005441414767832e+00 5.175085364556872491e+02
1.944105467421529454e+00 5.175121304529594681e+02
1.944205493428291298e+00 5.175158295751574542e+02
1.944305519435053142e+00 5.175196341138301932e+02
1.944405545441814542e+00 5.175235443584466566e+02
1.944505571448576386e+00 5.175275605963838643e+02
1.944605597455338231e+00 5.175316831129089223e+02
1.944705623462099853e+00 5.175359121911676539e+02
1.944805649468861697e+00 5.175402481121683422e+02
1.944905675475623541e+00 5.175446911547689979e+02
1.945005701482385385e+00 5.175492415956620107e+02
1.945105727489147007e+00 5.175538997093586886e+02
1.945205753495908851e+00 5.175586657681785709e+02
1.945305779502670696e+00 5.175635400422323755e+02
1.945405805509432318e+00 5.175685227994080151e+02
1.945505831516194162e+00 5.175736143053583191e+02
1.945605857522956006e+00 5.175788148234869368e+02
1.945705883529717628e+00 5.175841246149325343e+02
1.945805909536479472e+00 5.175895439385569716e+02
1.945905935543241316e+00 5.175950730509306368e+02
1.946005961550002716e+00 5.176007122063185761e+02
1.946105987556764561e+00 5.176064616566690120e+02
1.946206013563526405e+00 5.176123216515954937e+02
1.946306039570288249e+00 5.176182924383680302e+02
1.946406065577049871e+00 5.176243742618970600e+02
1.946506091583811715e+00 5.176305673647208323e+02
1.946606117590573559e+00 5.176368719869915367e+02
1.946706143597335181e+00 5.176432883664632527e+02
1.946806169604097025e+00 5.176498167384780800e+02
1.946906195610858870e+00 5.176564573359522683e+02
1.947006221617620270e+00 5.176632103893655312e+02
1.947106247624382114e+00 5.176700761267453572e+02
1.947206273631143958e+00 5.176770547736556409e+02
1.947306299637905580e+00 5.176841465531840640e+02
1.947406325644667424e+00 5.176913516859291349e+02
1.947506351651429268e+00 5.176986703899872282e+02
1.947606377658190890e+00 5.177061028809393974e+02
1.947706403664952735e+00 5.177136493718412567e+02
1.947806429671714579e+00 5.177213100732071780e+02
1.947906455678476423e+00 5.177290851930002873e+02
1.948006481685238045e+00 5.177369749366209817e+02
1.948106507691999889e+00 5.177449795068908998e+02
1.948206533698761733e+00 5.177530991040450772e+02
1.948306559705523355e+00 5.177613339257170537e+02
1.948406585712285199e+00 5.177696841669288688e+02
1.948506611719047044e+00 5.177781500200769642e+02
1.948606637725808444e+00 5.177867316749221800e+02
1.948706663732570288e+00 5.177954293185778170e+02
1.948806689739332132e+00 5.178042431354962218e+02
1.948906715746093754e+00 5.178131733074599197e+02
1.949006741752855598e+00 5.178222200135683124e+02
1.949106767759617442e+00 5.178313834302261967e+02
1.949206793766379286e+00 5.178406637311331906e+02
1.949306819773140909e+00 5.178500610872725929e+02
1.949406845779902753e+00 5.178595756668989907e+02
1.949506871786664597e+00 5.178692076355283689e+02
1.949606897793425997e+00 5.178789571559270826e+02
1.949706923800187841e+00 5.178888243880995788e+02
1.949806949806949685e+00 5.178988094892788467e+02
1.949906975813711307e+00 5.179089126139165273e+02
1.950007001820473151e+00 5.179191339136685883e+02
1.950107027827234996e+00 5.179294735373892991e+02
1.950207053833996618e+00 5.179399316311179291e+02
1.950307079840758462e+00 5.179505083380689712e+02
1.950407105847520306e+00 5.179612037986212272e+02
1.950507131854281928e+00 5.179720181503091680e+02
1.950607157861043772e+00 5.179829515278112240e+02
1.950707183867805616e+00 5.179940040629403484e+02
1.950807209874567461e+00 5.180051758846344683e+02
1.950907235881329083e+00 5.180164671189454566e+02
1.951007261888090927e+00 5.180278778890310605e+02
1.951107287894852771e+00 5.180394083151418272e+02
1.951207313901614171e+00 5.180510585146167841e+02
1.951307339908376015e+00 5.180628286018687731e+02
1.951407365915137859e+00 5.180747186883784252e+02
1.951507391921899481e+00 5.180867288826824506e+02
1.951607417928661325e+00 5.180988592903669314e+02
1.951707443935423170e+00 5.181111100140553845e+02
1.951807469942184792e+00 5.181234811534025084e+02
1.951907495948946636e+00 5.181359728050817921e+02
1.952007521955708480e+00 5.181485850627808531e+02
1.952107547962470324e+00 5.181613180171899558e+02
1.952207573969231724e+00 5.181741717559923472e+02
1.952307599975993568e+00 5.181871463638589148e+02
1.952407625982755413e+00 5.182002419224372716e+02
1.952507651989517035e+00 5.182134585103448217e+02
1.952607677996278879e+00 5.182267962031577326e+02
1.952707704003040723e+00 5.182402550734068427e+02
1.952807730009802345e+00 5.182538351905665195e+02
1.952907756016564189e+00 5.182675366210480661e+02
1.953007782023326033e+00 5.182813594281915357e+02
1.953107808030087655e+00 5.182953036722554998e+02
1.953207834036849500e+00 5.183093694104150018e+02
1.953307860043611344e+00 5.183235566967491650e+02
1.953407886050372966e+00 5.183378655822341443e+02
1.953507912057134810e+00 5.183522961147378965e+02
1.953607938063896654e+00 5.183668483390111987e+02
1.953707964070658498e+00 5.183815222966802594e+02
1.953807990077419898e+00 5.183963180262430797e+02
1.953908016084181742e+00 5.184112355630560387e+02
1.954008042090943587e+00 5.184262749393332115e+02
1.954108068097705209e+00 5.184414361841354548e+02
1.954208094104467053e+00 5.184567193233666558e+02
1.954308120111228897e+00 5.184721243797653187e+02
1.954408146117990519e+00 5.184876513728978580e+02
1.954508172124752363e+00 5.185033003191540502e+02
1.954608198131514207e+00 5.185190712317397583e+02
1.954708224138275607e+00 5.185349641206695424e+02
1.954808250145037452e+00 5.185509789927631346e+02
1.954908276151799296e+00 5.185671158516365722e+02
1.955008302158561140e+00 5.185833746976998100e+02
1.955108328165322762e+00 5.185997555281475115e+02
1.955208354172084606e+00 5.186162583369563208e+02
1.955308380178846450e+00 5.186328831148765630e+02
1.955408406185608072e+00 5.186496298494307666e+02
1.955508432192369916e+00 5.186664985249025221e+02
1.955608458199131761e+00 5.186834891223385284e+02
1.955708484205893383e+00 5.187006016195352913e+02
1.955808510212655227e+00 5.187178359910433301e+02
1.955908536219417071e+00 5.187351922081537623e+02
1.956008562226178693e+00 5.187526702388990998e+02
1.956108588232940537e+00 5.187702700480461999e+02
1.956208614239702381e+00 5.187879915970926277e+02
1.956308640246463781e+00 5.188058348442616534e+02
1.956408666253225626e+00 5.188237997444985012e+02
1.956508692259987470e+00 5.188418862494662562e+02
1.956608718266749314e+00 5.188600943075400664e+02
1.956708744273510936e+00 5.188784238638055513e+02
1.956808770280272780e+00 5.188968748600535719e+02
1.956908796287034624e+00 5.189154472347770479e+02
1.957008822293796246e+00 5.189341409231664102e+02
1.957108848300558090e+00 5.189529558571068719e+02
1.957208874307319935e+00 5.189718919651754732e+02
1.957308900314081335e+00 5.189909491726357373e+02
1.957408926320843179e+00 5.190101274014375576e+02
1.957508952327605023e+00 5.190294265702110579e+02
1.957608978334366645e+00 5.190488465942648872e+02
1.957709004341128489e+00 5.190683873855848560e+02
1.957809030347890333e+00 5.190880488528282513e+02
1.957909056354652177e+00 5.191078309013236094e+02
1.958009082361413800e+00 5.191277334330673057e+02
1.958109108368175644e+00 5.191477563467205982e+02
1.958209134374937488e+00 5.191678995376083776e+02
1.958309160381699110e+00 5.191881628977167793e+02
1.958409186388460954e+00 5.192085463156902279e+02
1.958509212395222798e+00 5.192290496768304138e+02
1.958609238401984420e+00 5.192496728630954976e+02
1.958709264408746265e+00 5.192704157530944258e+02
1.958809290415508109e+00 5.192912782220907957e+02
1.958909316422269509e+00 5.193122601419970579e+02
1.959009342429031353e+00 5.193333613813751981e+02
1.959109368435793197e+00 5.193545818054351457e+02
1.959209394442554819e+00 5.193759212760335231e+02
1.959309420449316663e+00 5.193973796516721677e+02
1.959409446456078507e+00 5.194189567874980185e+02
1.959509472462840352e+00 5.194406525353031157e+02
1.959609498469601974e+00 5.194624667435207357e+02
1.959709524476363818e+00 5.194843992572293701e+02
1.959809550483125662e+00 5.195064499181473820e+02
1.959909576489887062e+00 5.195286185646375543e+02
1.960009602496648906e+00 5.195509050317034507e+02
1.960109628503410750e+00 5.195733091509906671e+02
1.960209654510172372e+00 5.195958307507866039e+02
1.960309680516934216e+00 5.196184696560210341e+02
1.960409706523696061e+00 5.196412256882661040e+02
1.960509732530457683e+00 5.196640986657366739e+02
1.960609758537219527e+00 5.196870884032896356e+02
1.960709784543981371e+00 5.197101947124284607e+02
1.960809810550743215e+00 5.197334174012995618e+02
1.960909836557504837e+00 5.197567562746944532e+02
1.961009862564266681e+00 5.197802111340521378e+02
1.961109888571028526e+00 5.198037817774593350e+02
1.961209914577790148e+00 5.198274679996517307e+02
1.961309940584551992e+00 5.198512695920143187e+02
1.961409966591313836e+00 5.198751863425846977e+02
1.961509992598075236e+00 5.198992180360539805e+02
1.961610018604837080e+00 5.199233644537672490e+02
1.961710044611598924e+00 5.199476253737278739e+02
1.961810070618360546e+00 5.199720005705969470e+02
1.961910096625122391e+00 5.199964898156963500e+02
1.962010122631884235e+00 5.200210928770120518e+02
1.962110148638645857e+00 5.200458095191951315e+02
1.962210174645407701e+00 5.200706395035631431e+02
1.962310200652169545e+00 5.200955825881062538e+02
1.962410226658931389e+00 5.201206385274853119e+02
1.962510252665692789e+00 5.201458070730386680e+02
1.962610278672454633e+00 5.201710879727829706e+02
1.962710304679216478e+00 5.201964809714158946e+02
1.962810330685978100e+00 5.202219858103204615e+02
1.962910356692739944e+00 5.202476022275679952e+02
1.963010382699501788e+00 5.202733299579213053e+02
1.963110408706263410e+00 5.202991687328379840e+02
1.963210434713025254e+00 5.203251182804737027e+02
1.963310460719787098e+00 5.203511783256880108e+02
1.963410486726548720e+00 5.203773485900451305e+02
1.963510512733310565e+00 5.204036287918205517e+02
1.963610538740072409e+00 5.204300186460035320e+02
1.963710564746834253e+00 5.204565178643016452e+02
1.963810590753595875e+00 5.204831261551461239e+02
1.963910616760357719e+00 5.205098432236939061e+02
1.964010642767119563e+00 5.205366687718358207e+02
1.964110668773880963e+00 5.205636024981986338e+02
1.964210694780642807e+00 5.205906440981491414e+02
1.964310720787404652e+00 5.206177932638020138e+02
1.964410746794166274e+00 5.206450496840221831e+02
1.964510772800928118e+00 5.206724130444317780e+02
1.964610798807689962e+00 5.206998830274153534e+02
1.964710824814451584e+00 5.207274593121227326e+02
1.964810850821213428e+00 5.207551415744781025e+02
1.964910876827975272e+00 5.207829294871833099e+02
1.965010902834737117e+00 5.208108227197249107e+02
1.965110928841498517e+00 5.208388209383781486e+02
1.965210954848260361e+00 5.208669238062163913e+02
1.965310980855022205e+00 5.208951309831127219e+02
1.965411006861783827e+00 5.209234421257501708e+02
1.965511032868545671e+00 5.209518568876264908e+02
1.965611058875307515e+00 5.209803749190590452e+02
1.965711084882069137e+00 5.210089958671948125e+02
1.965811110888830981e+00 5.210377193760136834e+02
1.965911136895592826e+00 5.210665450863378965e+02
1.966011162902354448e+00 5.210954726358368134e+02
1.966111188909116292e+00 5.211245016590363548e+02
1.966211214915878136e+00 5.211536317873237749e+02
1.966311240922639758e+00 5.211828626489561884e+02
1.966411266929401602e+00 5.212121938690677325e+02
1.966511292936163446e+00 5.212416250696778661e+02
1.966611318942925291e+00 5.212711558696967131e+02
1.966711344949686691e+00 5.213007858849371132e+02
1.966811370956448535e+00 5.213305147281157588e+02
1.966911396963210379e+00 5.213603420088687699e+02
1.967011422969972001e+00 5.213902673337541955e+02
1.967111448976733845e+00 5.214202903062630412e+02
1.967211474983495689e+00 5.214504105268271132e+02
1.967311500990257311e+00 5.214806275928254991e+02
1.967411526997019156e+00 5.215109410985950262e+02
1.967511553003781000e+00 5.215413506354402671e+02
1.967611579010542400e+00 5.215718557916393365e+02
1.967711605017304244e+00 5.216024561524546925e+02
1.967811631024066088e+00 5.216331513001407529e+02
1.967911657030827932e+00 5.216639408139537863e+02
1.968011683037589554e+00 5.216948242701629397e+02
1.968111709044351398e+00 5.217258012420558089e+02
1.968211735051113243e+00 5.217568712999510581e+02
1.968311761057874865e+00 5.217880340112056956e+02
1.968411787064636709e+00 5.218192889402270112e+02
1.968511813071398553e+00 5.218506356484815569e+02
1.968611839078160175e+00 5.218820736945040153e+02
1.968711865084922019e+00 5.219136026339068621e+02
1.968811891091683863e+00 5.219452220193938956e+02
1.968911917098445485e+00 5.219769314007669436e+02
1.969011943105207330e+00 5.220087303249374600e+02
1.969111969111969174e+00 5.220406183359369834e+02
1.969211995118730574e+00 5.220725949749274832e+02
1.969312021125492418e+00 5.221046597802135238e+02
1.969412047132254262e+00 5.221368122872495405e+02
1.969512073139016106e+00 5.221690520286554147e+02
1.969612099145777728e+00 5.222013785342228402e+02
1.969712125152539572e+00 5.222337913309299893e+02
1.969812151159301417e+00 5.222662899429511754e+02
1.969912177166063039e+00 5.222988738916675402e+02
1.970012203172824883e+00 5.223315426956806959e+02
1.970112229179586727e+00 5.223642958708221613e+02
1.970212255186348127e+00 5.223971329301650712e+02
1.970312281193109971e+00 5.224300533840377057e+02
1.970412307199871815e+00 5.224630567400344034e+02
1.970512333206633437e+00 5.224961425030262490e+02
1.970612359213395282e+00 5.225293101751749418e+02
1.970712385220157126e+00 5.225625592559443930e+02
1.970812411226918970e+00 5.225958892421119799e+02
1.970912437233680592e+00 5.226292996277842349e+02
1.971012463240442436e+00 5.226627899044043488e+02
1.971112489247204280e+00 5.226963595607686557e+02
1.971212515253965902e+00 5.227300080830381148e+02
1.971312541260727746e+00 5.227637349547504755e+02
1.971412567267489591e+00 5.227975396568344877e+02
1.971512593274251213e+00 5.228314216676216120e+02
1.971612619281013057e+00 5.228653804628603439e+02
1.971712645287774901e+00 5.228994155157278101e+02
1.971812671294536301e+00 5.229335262968454572e+02
1.971912697301298145e+00 5.229677122742892834e+02
1.972012723308059989e+00 5.230019729136067781e+02
1.972112749314821611e+00 5.230363076778276081e+02
1.972212775321583456e+00 5.230707160274794205e+02
1.972312801328345300e+00 5.231051974206002342e+02
1.972412827335107144e+00 5.231397513127534467e+02
1.972512853341868766e+00 5.231743771570409081e+02
1.972612879348630610e+00 5.232090744041181551e+02
1.972712905355392454e+00 5.232438425022058937e+02
1.972812931362153854e+00 5.232786808971087567e+02
1.972912957368915698e+00 5.233135890322259911e+02
1.973012983375677543e+00 5.233485663485669193e+02
1.973113009382439165e+00 5.233836122847658316e+02
1.973213035389201009e+00 5.234187262770979032e+02
1.973313061395962853e+00 5.234539077594901073e+02
1.973413087402724475e+00 5.234891561635414519e+02
1.973513113409486319e+00 5.235244709185328702e+02
1.973613139416248163e+00 5.235598514514458657e+02
1.973713165423010008e+00 5.235952971869754720e+02
1.973813191429771630e+00 5.236308075475462829e+02
1.973913217436533474e+00 5.236663819533287096e+02
1.974013243443295318e+00 5.237020198222527370e+02
1.974113269450056940e+00 5.237377205700241802e+02
1.974213295456818784e+00 5.237734836101404881e+02
1.974313321463580628e+00 5.238093083539063173e+02
1.974413347470342028e+00 5.238451942104475165e+02
1.974513373477103872e+00 5.238811405867326130e+02
1.974613399483865717e+00 5.239171468875802020e+02
1.974713425490627339e+00 5.239532125156828215e+02
1.974813451497389183e+00 5.239893368716191162e+02
1.974913477504151027e+00 5.240255193538689582e+02
1.975013503510912649e+00 5.240617593588350474e+02
1.975113529517674493e+00 5.240980562808526884e+02
1.975213555524436337e+00 5.241344095122108229e+02
1.975313581531198182e+00 5.241708184431663540e+02
1.975413607537959582e+00 5.242072824619635867e+02
1.975513633544721426e+00 5.242438009548459377e+02
1.975613659551483270e+00 5.242803733060784452e+02
1.975713685558244892e+00 5.243169988979601612e+02
1.975813711565006736e+00 5.243536771108434777e+02
1.975913737571768580e+00 5.243904073231514076e+02
1.976013763578530202e+00 5.244271889113927045e+02
1.976113789585292047e+00 5.244640212501807355e+02
1.976213815592053891e+00 5.245009037122508744e+02
1.976313841598815513e+00 5.245378356684753953e+02
1.976413867605577357e+00 5.245748164878859825e+02
1.976513893612339201e+00 5.246118455376848715e+02
1.976613919619101045e+00 5.246489221832678140e+02
1.976713945625862667e+00 5.246860457882386299e+02
1.976813971632624511e+00 5.247232157144288749e+02
1.976913997639386356e+00 5.247604313219126198e+02
1.977014023646147756e+00 5.247976919690286195e+02
1.977114049652909600e+00 5.248349970123953199e+02
1.977214075659671444e+00 5.248723458069302978e+02
1.977314101666433066e+00 5.249097377058665188e+02
1.977414127673194910e+00 5.249471720607726866e+02
1.977514153679956754e+00 5.249846482215714332e+02
1.977614179686718376e+00 5.250221655365543256e+02
1.977714205693480221e+00 5.250597233524053991e+02
1.977814231700242065e+00 5.250973210142160497e+02
1.977914257707003465e+00 5.251349578655044752e+02
1.978014283713765309e+00 5.251726332482339785e+02
1.978114309720527153e+00 5.252103465028337723e+02
1.978214335727288997e+00 5.252480969682134173e+02
1.978314361734050619e+00 5.252858839817865828e+02
1.978414387740812463e+00 5.253237068794865081e+02
1.978514413747574308e+00 5.253615649957858977e+02
1.978614439754335930e+00 5.253994576637167029e+02
1.978714465761097774e+00 5.254373842148876292e+02
1.978814491767859618e+00 5.254753439795055101e+02
1.978914517774621240e+00 5.255133362863923594e+02
1.979014543781383084e+00 5.255513604630056079e+02
1.979114569788144928e+00 5.255894158354574301e+02
1.979214595794906550e+00 5.256275017285336162e+02
1.979314621801668395e+00 5.256656174657148313e+02
1.979414647808430239e+00 5.257037623691932140e+02
1.979514673815192083e+00 5.257419357598940906e+02
1.979614699821953483e+00 5.257801369574947330e+02
1.979714725828715327e+00 5.258183652804444819e+02
1.979814751835477171e+00 5.258566200459849824e+02
1.979914777842238793e+00 5.258949005701676924e+02
1.980014803849000637e+00 5.259332061678774153e+02
1.980114829855762482e+00 5.259715361528482163e+02
1.980214855862524104e+00 5.260098898376867282e+02
1.980314881869285948e+00 5.260482665338900006e+02
1.980414907876047792e+00 5.260866655518664174e+02
1.980514933882809192e+00 5.261250862009565026e+02
1.980614959889571036e+00 5.261635277894507681e+02
1.980714985896332880e+00 5.262019896246130202e+02
1.980815011903094502e+00 5.262404710126993450e+02
1.980915037909856347e+00 5.262789712589757301e+02
1.981015063916618191e+00 5.263174896677446668e+02
1.981115089923380035e+00 5.263560255423584522e+02
1.981215115930141657e+00 5.263945781852452228e+02
1.981315141936903501e+00 5.264331468979258943e+02
1.981415167943665345e+00 5.264717309810373536e+02
1.981515193950426967e+00 5.265103297343507620e+02
1.981615219957188812e+00 5.265489424567945207e+02
1.981715245963950656e+00 5.265875684464722326e+02
1.981815271970712278e+00 5.266262070006860085e+02
1.981915297977474122e+00 5.266648574159562486e+02
1.982015323984235966e+00 5.267035189880422195e+02
1.982115349990997366e+00 5.267421910119626318e+02
1.982215375997759210e+00 5.267808727820174681e+02
1.982315402004521054e+00 5.268195635918089010e+02
1.982415428011282899e+00 5.268582627342615297e+02
1.982515454018044521e+00 5.268969695016430705e+02
1.982615480024806365e+00 5.269356831855868677e+02
1.982715506031568209e+00 5.269744030771126972e+02
1.982815532038329831e+00 5.270131284666470037e+02
1.982915558045091675e+00 5.270518586440433637e+02
1.983015584051853519e+00 5.270905928986060189e+02
1.983115610058614919e+00 5.271293305191104537e+02
1.983215636065376763e+00 5.271680707938230626e+02
1.983315662072138608e+00 5.272068130105243426e+02
1.983415688078900230e+00 5.272455564565282202e+02
1.983515714085662074e+00 5.272843004187054703e+02
1.983615740092423918e+00 5.273230441835050897e+02
1.983715766099185540e+00 5.273617870369732827e+02
1.983815792105947384e+00 5.274005282647772219e+02
1.983915818112709228e+00 5.274392671522261935e+02
1.984015844119471073e+00 5.274780029842925160e+02
1.984115870126232695e+00 5.275167350456323447e+02
1.984215896132994539e+00 5.275554626206104558e+02
1.984315922139756383e+00 5.275941849933174126e+02
1.984415948146518005e+00 5.276329014475948043e+02
1.984515974153279849e+00 5.276716112670534358e+02
1.984616000160041693e+00 5.277103137350994757e+02
1.984716026166803093e+00 5.277490081349527600e+02
1.984816052173564938e+00 5.277876937496677101e+02
1.984916078180326782e+00 5.278263698621593676e+02
1.985016104187088404e+00 5.278650357552204468e+02
1.985116130193850248e+00 5.279036907115461190e+02
1.985216156200612092e+00 5.279423340137548166e+02
1.985316182207373936e+00 5.279809649444091519e+02
1.985416208214135558e+00 5.280195827860395639e+02
1.985516234220897402e+00 5.280581868211645542e+02
1.985616260227659247e+00 5.280967763323130839e+02
1.985716286234420647e+00 5.281353506020473105e+02
1.985816312241182491e+00 5.281739089129822560e+02
1.985916338247944335e+00 5.282124505478102492e+02
1.986016364254705957e+00 5.282509747893217309e+02
1.986116390261467801e+00 5.282894809204248077e+02
1.986216416268229645e+00 5.283279682241728779e+02
1.986316442274991267e+00 5.283664359837803204e+02
1.986416468281753112e+00 5.284048834826483017e+02
1.986516494288514956e+00 5.284433100043856939e+02
1.986616520295276800e+00 5.284817148328304484e+02
1.986716546302038422e+00 5.285200972520725600e+02
1.986816572308800266e+00 5.285584565464753268e+02
1.986916598315562110e+00 5.285967920006970644e+02
1.987016624322323732e+00 5.286351028997139565e+02
1.987116650329085576e+00 5.286733885288415422e+02
1.987216676335847421e+00 5.287116481737565437e+02
1.987316702342608821e+00 5.287498811205191487e+02
1.987416728349370665e+00 5.287880866555947250e+02
1.987516754356132509e+00 5.288262640658762166e+02
1.987616780362894131e+00 5.288644126387055167e+02
1.987716806369655975e+00 5.289025316618963188e+02
1.987816832376417819e+00 5.289406204237544671e+02
1.987916858383179441e+00 5.289786782131018299e+02
1.988016884389941286e+00 5.290167043192971050e+02
1.988116910396703130e+00 5.290546980322586705e+02
1.988216936403464974e+00 5.290926586424849347e+02
1.988316962410226374e+00 5.291305854410786651e+02
1.988416988416988218e+00 5.291684777197660878e+02
1.988517014423750062e+00 5.292063347709211030e+02
1.988617040430511684e+00 5.292441558875873397e+02
1.988717066437273528e+00 5.292819403634971422e+02
1.988817092444035373e+00 5.293196874930973763e+02
1.988917118450796995e+00 5.293573965715683016e+02
1.989017144457558839e+00 5.293950668948471048e+02
1.989117170464320683e+00 5.294326977596493862e+02
1.989217196471082305e+00 5.294702884634903057e+02
1.989317222477844149e+00 5.295078383047080024e+02
1.989417248484605993e+00 5.295453465824832620e+02
1.989517274491367838e+00 5.295828125968633913e+02
1.989617300498129460e+00 5.296202356487837051e+02
1.989717326504891304e+00 5.296576150400866254e+02
1.989817352511653148e+00 5.296949500735483980e+02
1.989917378518414548e+00 5.297322400528953494e+02
1.990017404525176392e+00 5.297694842828306037e+02
1.990117430531938236e+00 5.298066820690512486e+02
1.990217456538699858e+00 5.298438327182744843e+02
1.990317482545461703e+00 5.298809355382554713e+02
1.990417508552223547e+00 5.299179898378109783e+02
1.990517534558985169e+00 5.299549949268405271e+02
1.990617560565747013e+00 5.299919501163478799e+02
1.990717586572508857e+00 5.300288547184634353e+02
1.990817612579270257e+00 5.300657080464652608e+02
1.990917638586032101e+00 5.301025094147983054e+02
1.991017664592793945e+00 5.301392581391008889e+02
1.991117690599555790e+00 5.301759535362211864e+02
1.991217716606317412e+00 5.302125949242417846e+02
1.991317742613079256e+00 5.302491816224998047e+02
1.991417768619841100e+00 5.302857129516079340e+02
1.991517794626602722e+00 5.303221882334779593e+02
1.991617820633364566e+00 5.303586067913388433e+02
1.991717846640126410e+00 5.303949679497605985e+02
1.991817872646888032e+00 5.304312710346735003e+02
1.991917898653649877e+00 5.304675153733917341e+02
1.992017924660411721e+00 5.305037002946335178e+02
1.992117950667173343e+00 5.305398251285396327e+02
1.992217976673935187e+00 5.305758892066983208e+02
1.992318002680697031e+00 5.306118918621652938e+02
1.992418028687458875e+00 5.306478324294831737e+02
1.992518054694220275e+00 5.306837102447047982e+02
1.992618080700982119e+00 5.307195246454116386e+02
1.992718106707743964e+00 5.307552749707372186e+02
1.992818132714505586e+00 5.307909605613864414e+02
1.992918158721267430e+00 5.308265807596566219e+02
1.993018184728029274e+00 5.308621349094584048e+02
1.993118210734790896e+00 5.308976223563362282e+02
1.993218236741552740e+00 5.309330424474903793e+02
1.993318262748314584e+00 5.309683945317957523e+02
1.993418288755075984e+00 5.310036779598229941e+02
1.993518314761837829e+00 5.310388920838605600e+02
1.993618340768599673e+00 5.310740362579325620e+02
1.993718366775361295e+00 5.311091098378216202e+02
1.993818392782123139e+00 5.311441121810880759e+02
1.993918418788884983e+00 5.311790426470909097e+02
1.994018444795646827e+00 5.312139005970065000e+02
1.994118470802408449e+00 5.312486853938521563e+02
1.994218496809170293e+00 5.312833964025030582e+02
1.994318522815932138e+00 5.313180329897128331e+02
1.994418548822693760e+00 5.313525945241364070e+02
1.994518574829455604e+00 5.313870803763466029e+02
1.994618600836217448e+00 5.314214899188569916e+02
1.994718626842979070e+00 5.314558225261396274e+02
1.994818652849740914e+00 5.314900775746460795e+02
1.994918678856502758e+00 5.315242544428261908e+02
1.995018704863264158e+00 5.315583525111499057e+02
1.995118730870026003e+00 5.315923711621254597e+02
1.995218756876787847e+00 5.316263097803188202e+02
1.995318782883549691e+00 5.316601677523730132e+02
1.995418808890311313e+00 5.316939444670313151e+02
1.995518834897073157e+00 5.317276393151506682e+02
1.995618860903835001e+00 5.317612516897252135e+02
1.995718886910596623e+00 5.317947809859055042e+02
1.995818912917358467e+00 5.318282266010158992e+02
1.995918938924120312e+00 5.318615879345753683e+02
1.996018964930881712e+00 5.318948643883156819e+02
1.996118990937643556e+00 5.319280553662016473e+02
1.996219016944405400e+00 5.319611602744489574e+02
1.996319042951167022e+00 5.319941785215432901e+02
1.996419068957928866e+00 5.320271095182599765e+02
1.996519094964690710e+00 5.320599526776818493e+02
1.996619120971452332e+00 5.320927074152192517e+02
1.996719146978214177e+00 5.321253731486270908e+02
1.996819172984976021e+00 5.321579492980249597e+02
1.996919198991737865e+00 5.321904352859145320e+02
1.997019224998499487e+00 5.322228305371986607e+02
1.997119251005261331e+00 5.322551344792000236e+02
1.997219277012023175e+00 5.322873465416786303e+02
1.997319303018784797e+00 5.323194661568506945e+02
1.997419329025546642e+00 5.323514927594061419e+02
1.997519355032308486e+00 5.323834257865280506e+02
1.997619381039069886e+00 5.324152646779092493e+02
1.997719407045831730e+00 5.324470088757701660e+02
1.997819433052593574e+00 5.324786578248787237e+02
1.997919459059355196e+00 5.325102109725660284e+02
1.998019485066117040e+00 5.325416677687444462e+02
1.998119511072878884e+00 5.325730276659264746e+02
1.998219537079640729e+00 5.326042901192402041e+02
1.998319563086402351e+00 5.326354545864491001e+02
1.998419589093164195e+00 5.326665205279679185e+02
1.998519615099926039e+00 5.326974874068810095e+02
1.998619641106687439e+00 5.327283546889568697e+02
1.998719667113449283e+00 5.327591218426696287e+02
1.998819693120211127e+00 5.327897883392125777e+02
1.998919719126972749e+00 5.328203536525168147e+02
1.999019745133734594e+00 5.328508172592678420e+02
1.999119771140496438e+00 5.328811786389219378e+02
1.999219797147258060e+00 5.329114372737230951e+02
1.999319823154019904e+00 5.329415926487199613e+02
1.999419849160781748e+00 5.329716442517820951e+02
1.999519875167543370e+00 5.330015915736167926e+02
1.999619901174305214e+00 5.330314341077836389e+02
1.999719927181067058e+00 5.330611713507154263e+02
1.999819953187828903e+00 5.330908028017272500e+02
1.999919979194590525e+00 5.331203279630401539e+02
2.000020005201352369e+00 4.798352511297632645e+02
2.000120031208114213e+00 4.795811378151526014e+02
2.000220057214875613e+00 4.793268703582939452e+02
2.000320083221637457e+00 4.790724527191959510e+02
2.000420109228399301e+00 4.788178888625518539e+02
2.000520135235160701e+00 4.785631827576322053e+02
2.000620161241922546e+00 4.783083383781774387e+02
2.000720187248684390e+00 4.780533597022881622e+02
2.000820213255446234e+00 4.777982507123170990e+02
2.000920239262208078e+00 4.775430153947618237e+02
2.001020265268969922e+00 4.772876577401542590e+02
2.001120291275731766e+00 4.770321817429534121e+02
2.001220317282493166e+00 4.767765914014360646e+02
2.001320343289255010e+00 4.765208907175861555e+02
2.001420369296016855e+00 4.762650836969889383e+02
2.001520395302778699e+00 4.760091743487184317e+02
2.001620421309540543e+00 4.757531666852302692e+02
2.001720447316302387e+00 4.754970647222506841e+02
2.001820473323063787e+00 4.752408724786680523e+02
2.001920499329825631e+00 4.749845939764238665e+02
2.002020525336587475e+00 4.747282332404002432e+02
2.002120551343348875e+00 4.744717942983124317e+02
2.002220577350110720e+00 4.742152811805991064e+02
2.002320603356872564e+00 4.739586979203110104e+02
2.002420629363634408e+00 4.737020485530009637e+02
2.002520655370396252e+00 4.734453371166148372e+02
2.002620681377158096e+00 4.731885676513799126e+02
2.002720707383919940e+00 4.729317441996959701e+02
2.002820733390681340e+00 4.726748708060239323e+02
2.002920759397443184e+00 4.724179515167755881e+02
2.003020785404205029e+00 4.721609903802036570e+02
2.003120811410966873e+00 4.719039914462904335e+02
2.003220837417728717e+00 4.716469587666377947e+02
2.003320863424490561e+00 4.713898963943561284e+02
2.003420889431251961e+00 4.711328083839542842e+02
2.003520915438013805e+00 4.708756987912287855e+02
2.003620941444775649e+00 4.706185716731516777e+02
2.003720967451537049e+00 4.703614310877616163e+02
2.003820993458298894e+00 4.701042810940522259e+02
2.003921019465060738e+00 4.698471257518619950e+02
2.004021045471822582e+00 4.695899691217605891e+02
2.004121071478584426e+00 4.693328152649428944e+02
2.004221097485346270e+00 4.690756682431133413e+02
2.004321123492108114e+00 4.688185321183780729e+02
2.004421149498869514e+00 4.685614109531321105e+02
2.004521175505631359e+00 4.683043088099508395e+02
2.004621201512393203e+00 4.680472297514759248e+02
2.004721227519154603e+00 4.677901778403064554e+02
2.004821253525916447e+00 4.675331571388894645e+02
2.004921279532678291e+00 4.672761717094045366e+02
2.005021305539440135e+00 4.670192256136576248e+02
2.005121331546201979e+00 4.667623229129680453e+02
2.005221357552963823e+00 4.665054676680571788e+02
2.005321383559725223e+00 4.662486639389385914e+02
2.005421409566487068e+00 4.659919157848073041e+02
2.005521435573248912e+00 4.657352272639290049e+02
2.005621461580010756e+00 4.654786024335285788e+02
2.005721487586772156e+00 4.652220453496804566e+02
2.005821513593534000e+00 4.649655600671978277e+02
2.005921539600295844e+00 4.647091506395208285e+02
2.006021565607057688e+00 4.644528211186080284e+02
2.006121591613819533e+00 4.641965755548254720e+02
2.006221617620581377e+00 4.639404179968340713e+02
2.006321643627342777e+00 4.636843524914827412e+02
2.006421669634104621e+00 4.634283830836955076e+02
2.006521695640866465e+00 4.631725138163628230e+02
2.006621721647628309e+00 4.629167487302305517e+02
2.006721747654390153e+00 4.626610918637894656e+02
2.006821773661151997e+00 4.624055472531681517e+02
2.006921799667913842e+00 4.621501189320189837e+02
2.007021825674675242e+00 4.618948109314112571e+02
2.007121851681437086e+00 4.616396272797207416e+02
2.007221877688198930e+00 4.613845720025202013e+02
2.007321903694960330e+00 4.611296491224684928e+02
2.007421929701722174e+00 4.608748626592045525e+02
2.007521955708484018e+00 4.606202166292333118e+02
2.007621981715245862e+00 4.603657150458207639e+02
2.007722007722007707e+00 4.601113619188836310e+02
2.007822033728769551e+00 4.598571612548784060e+02
2.007922059735530951e+00 4.596031170566953961e+02
2.008022085742292795e+00 4.593492333235485603e+02
2.008122111749054639e+00 4.590955140508668819e+02
2.008222137755816483e+00 4.588419632301860247e+02
2.008322163762578327e+00 4.585885848490413537e+02
2.008422189769340171e+00 4.583353828908568062e+02
2.008522215776102016e+00 4.580823613348409822e+02
2.008622241782863416e+00 4.578295241558738553e+02
2.008722267789625260e+00 4.575768753244050231e+02
2.008822293796387104e+00 4.573244188063409865e+02
2.008922319803148504e+00 4.570721585629420929e+02
2.009022345809910348e+00 4.568200985507112932e+02
2.009122371816672192e+00 4.565682427212896641e+02
2.009222397823434036e+00 4.563165950213490305e+02
2.009322423830195881e+00 4.560651593924831104e+02
2.009422449836957725e+00 4.558139397711051970e+02
2.009522475843719125e+00 4.555629400883375411e+02
2.009622501850480969e+00 4.553121642699065887e+02
2.009722527857242813e+00 4.550616162360385033e+02
2.009822553864004657e+00 4.548112999013502531e+02
2.009922579870766057e+00 4.545612191747467250e+02
2.010022605877527901e+00 4.543113779593134609e+02
2.010122631884289746e+00 4.540617801522122363e+02
2.010222657891051590e+00 4.538124296445759569e+02
2.010322683897813434e+00 4.535633303214028160e+02
2.010422709904575278e+00 4.533144860614537492e+02
2.010522735911336678e+00 4.530659007371452844e+02
2.010622761918098522e+00 4.528175782144470531e+02
2.010722787924860366e+00 4.525695223527775397e+02
2.010822813931621766e+00 4.523217370048998873e+02
2.010922839938383611e+00 4.520742260168188409e+02
2.011022865945145455e+00 4.518269932276760983e+02
2.011122891951907299e+00 4.515800424696493565e+02
2.011222917958669143e+00 4.513333775678473216e+02
2.011322943965430987e+00 4.510870023402085280e+02
2.011422969972192831e+00 4.508409205973976555e+02
2.011522995978954231e+00 4.505951361427050870e+02
2.011623021985716075e+00 4.503496527719440792e+02
2.011723047992477920e+00 4.501044742733467388e+02
2.011823073999239764e+00 4.498596044274680708e+02
2.011923100006001608e+00 4.496150470070797951e+02
2.012023126012763452e+00 4.493708057770712685e+02
2.012123152019524852e+00 4.491268844943497811e+02
2.012223178026286696e+00 4.488832869077391479e+02
2.012323204033048540e+00 4.486400167578790388e+02
2.012423230039809940e+00 4.483970777771273220e+02
2.012523256046571785e+00 4.481544736894578023e+02
2.012623282053333629e+00 4.479122082103633602e+02
2.012723308060095473e+00 4.476702850467564758e+02
2.012823334066857317e+00 4.474287078968673086e+02
2.012923360073619161e+00 4.471874804501521794e+02
2.013023386080381005e+00 4.469466063871881261e+02
2.013123412087142405e+00 4.467060893795795096e+02
2.013223438093904250e+00 4.464659330898595613e+02
2.013323464100666094e+00 4.462261411713930102e+02
2.013423490107427938e+00 4.459867172682795058e+02
2.013523516114189782e+00 4.457476650152552793e+02
2.013623542120951626e+00 4.455089880375997495e+02
2.013723568127713026e+00 4.452706899510383209e+02
2.013823594134474870e+00 4.450327743616464886e+02
2.013923620141236714e+00 4.447952448657526929e+02
2.014023646147998559e+00 4.445581050498489049e+02
2.014123672154759959e+00 4.443213584904893310e+02
2.014223698161521803e+00 4.440850087542007145e+02
2.014323724168283647e+00 4.438490593973869522e+02
2.014423750175045491e+00 4.436135139662342226e+02
2.014523776181807335e+00 4.433783759966194111e+02
2.014623802188569179e+00 4.431436490140171145e+02
2.014723828195330579e+00 4.429093365334048258e+02
2.014823854202092424e+00 4.426754420591741450e+02
2.014923880208854268e+00 4.424419690850357938e+02
2.015023906215615668e+00 4.422089210939298027e+02
2.015123932222377512e+00 4.419763015579323451e+02
2.015223958229139356e+00 4.417441139381690505e+02
2.015323984235901200e+00 4.415123616847192807e+02
2.015424010242663044e+00 4.412810482365299549e+02
2.015524036249424888e+00 4.410501770213240320e+02
2.015624062256186733e+00 4.408197514555111525e+02
2.015724088262948133e+00 4.405897749440994176e+02
2.015824114269709977e+00 4.403602508806062588e+02
2.015924140276471821e+00 4.401311826469703306e+02
2.016024166283233221e+00 4.399025736134639146e+02
2.016124192289995065e+00 4.396744271386048695e+02
2.016224218296756909e+00 4.394467465690697736e+02
2.016324244303518753e+00 4.392195352396078079e+02
2.016424270310280598e+00 4.389927964729537848e+02
2.016524296317042442e+00 4.387665335797428270e+02
2.016624322323803842e+00 4.385407498584244763e+02
2.016724348330565686e+00 4.383154485951769743e+02
2.016824374337327530e+00 4.380906330638247255e+02
2.016924400344089374e+00 4.378663065257515541e+02
2.017024426350851218e+00 4.376424722298185088e+02
2.017124452357613063e+00 4.374191334122791659e+02
2.017224478364374907e+00 4.371962932966985704e+02
2.017324504371136307e+00 4.369739550938681987e+02
2.017424530377898151e+00 4.367521220017256383e+02
2.017524556384659995e+00 4.365307972052721652e+02
2.017624582391421395e+00 4.363099838764903211e+02
2.017724608398183239e+00 4.360896851742657532e+02
2.017824634404945083e+00 4.358699042443038252e+02
2.017924660411706927e+00 4.356506442190515145e+02
2.018024686418468772e+00 4.354319082176173197e+02
2.018124712425230616e+00 4.352136993456909408e+02
2.018224738431992016e+00 4.349960206954667683e+02
2.018324764438753860e+00 4.347788753455638471e+02
2.018424790445515704e+00 4.345622663609487972e+02
2.018524816452277548e+00 4.343461967928576541e+02
2.018624842459039392e+00 4.341306696787210626e+02
2.018724868465801237e+00 4.339156880420848097e+02
2.018824894472563081e+00 4.337012548925363831e+02
2.018924920479324481e+00 4.334873732256278345e+02
2.019024946486086325e+00 4.332740460228017128e+02
2.019124972492848169e+00 4.330612762513154621e+02
2.019224998499609569e+00 4.328490668641686057e+02
2.019325024506371413e+00 4.326374208000267458e+02
2.019425050513133257e+00 4.324263409831519880e+02
2.019525076519895102e+00 4.322158303233267134e+02
2.019625102526656946e+00 4.320058917157832070e+02
2.019725128533418790e+00 4.317965280411309550e+02
2.019825154540180634e+00 4.315877421652858175e+02
2.019925180546942034e+00 4.313795369393994292e+02
2.020025206553703878e+00 4.311719151997882591e+02
2.020125232560465722e+00 4.309648797678642609e+02
2.020225258567227122e+00 4.307584334500656382e+02
2.020325284573988966e+00 4.305525790377873818e+02
2.020425310580750811e+00 4.303473193073127732e+02
2.020525336587512655e+00 4.301426570197464230e+02
2.020625362594274499e+00 4.299385949209463433e+02
2.020725388601036343e+00 4.297351357414567588e+02
2.020825414607797743e+00 4.295322821964425657e+02
2.020925440614559587e+00 4.293300369856225416e+02
2.021025466621321431e+00 4.291284027932039749e+02
2.021125492628082831e+00 4.289273822878191709e+02
2.021225518634844676e+00 4.287269781224596272e+02
2.021325544641606520e+00 4.285271929344126534e+02
2.021425570648368364e+00 4.283280293451981606e+02
2.021525596655130208e+00 4.281294899605056798e+02
2.021625622661892052e+00 4.279315773701322314e+02
2.021725648668653896e+00 4.277342941479203091e+02
2.021825674675415296e+00 4.275376428516971146e+02
2.021925700682177141e+00 4.273416260232127684e+02
2.022025726688938985e+00 4.271462461880819319e+02
2.022125752695700829e+00 4.269515058557216776e+02
2.022225778702462673e+00 4.267574075192947021e+02
2.022325804709224517e+00 4.265639536556490157e+02
2.022425830715985917e+00 4.263711467252614398e+02
2.022525856722747761e+00 4.261789891721776939e+02
2.022625882729509605e+00 4.259874834239578263e+02
2.022725908736271450e+00 4.257966318916182900e+02
2.022825934743032850e+00 4.256064369695764071e+02
2.022925960749794694e+00 4.254169010355949467e+02
2.023025986756556538e+00 4.252280264507279526e+02
2.023126012763318382e+00 4.250398155592640137e+02
2.023226038770080226e+00 4.248522706886760716e+02
2.023326064776842070e+00 4.246653941495654294e+02
2.023426090783603470e+00 4.244791882356097403e+02
2.023526116790365315e+00 4.242936552235119620e+02
2.023626142797127159e+00 4.241087973729469809e+02
2.023726168803889003e+00 4.239246169265118169e+02
2.023826194810650847e+00 4.237411161096750902e+02
2.023926220817412691e+00 4.235582971307271123e+02
2.024026246824174091e+00 4.233761621807299775e+02
2.024126272830935935e+00 4.231947134334682232e+02
2.024226298837697779e+00 4.230139530454032979e+02
2.024326324844459624e+00 4.228338831556228001e+02
2.024426350851221024e+00 4.226545058857947197e+02
2.024526376857982868e+00 4.224758233401210532e+02
2.024626402864744712e+00 4.222978376052913063e+02
2.024726428871506556e+00 4.221205507504381558e+02
2.024826454878268400e+00 4.219439648270905536e+02
2.024926480885030244e+00 4.217680818691312084e+02
2.025026506891791644e+00 4.215929038927525880e+02
2.025126532898553489e+00 4.214184328964133215e+02
2.025226558905315333e+00 4.212446708607960204e+02
2.025326584912076733e+00 4.210716197487645331e+02
2.025426610918838577e+00 4.208992815053244385e+02
2.025526636925600421e+00 4.207276580575800722e+02
2.025626662932362265e+00 4.205567513146946794e+02
2.025726688939124109e+00 4.203865631678519321e+02
2.025826714945885954e+00 4.202170954902161952e+02
2.025926740952647798e+00 4.200483501368931343e+02
2.026026766959409198e+00 4.198803289448937903e+02
2.026126792966171042e+00 4.197130337330950169e+02
2.026226818972932886e+00 4.195464663022037257e+02
2.026326844979694286e+00 4.193806284347213023e+02
2.026426870986456130e+00 4.192155218949068853e+02
2.026526896993217974e+00 4.190511484287433177e+02
2.026626922999979818e+00 4.188875097639022442e+02
2.026726949006741663e+00 4.187246076097100058e+02
2.026826975013503507e+00 4.185624436571155229e+02
2.026927001020264907e+00 4.184010195786560189e+02
2.027027027027026751e+00 4.182403370284260404e+02
2.027127053033788595e+00 4.180803976420467620e+02
2.027227079040550439e+00 4.179212030366327326e+02
2.027327105047312283e+00 4.177627548107638518e+02
2.027427131054074128e+00 4.176050545444549016e+02
2.027527157060835972e+00 4.174481037991264998e+02
2.027627183067597372e+00 4.172919041175764505e+02
2.027727209074359216e+00 4.171364570239517775e+02
2.027827235081121060e+00 4.169817640237217233e+02
2.027927261087882460e+00 4.168278266036509763e+02
2.028027287094644304e+00 4.166746462317739770e+02
2.028127313101406148e+00 4.165222243573690548e+02
2.028227339108167993e+00 4.163705624109326777e+02
2.028327365114929837e+00 4.162196618041567149e+02
2.028427391121691681e+00 4.160695239299037667e+02
2.028527417128453525e+00 4.159201501621845409e+02
2.028627443135214925e+00 4.157715418561358547e+02
2.028727469141976769e+00 4.156237003479968166e+02
2.028827495148738613e+00 4.154766269550891593e+02
2.028927521155500457e+00 4.153303229757971167e+02
2.029027547162262302e+00 4.151847896895450845e+02
2.029127573169024146e+00 4.150400283567811357e+02
2.029227599175785546e+00 4.148960402189553633e+02
2.029327625182547390e+00 4.147528264985031115e+02
2.029427651189309234e+00 4.146103883988279222e+02
2.029527677196070634e+00 4.144687271042822090e+02
2.029627703202832478e+00 4.143278437801536711e+02
2.029727729209594322e+00 4.141877395726468194e+02
2.029827755216356167e+00 4.140484156088700729e+02
2.029927781223118011e+00 4.139098729968196722e+02
2.030027807229879855e+00 4.137721128253655820e+02
2.030127833236641699e+00 4.136351361642389293e+02
2.030227859243403099e+00 4.134989440640196676e+02
2.030327885250164943e+00 4.133635375561221394e+02
2.030427911256926787e+00 4.132289176527857535e+02
2.030527937263688187e+00 4.130950853470641277e+02
2.030627963270450032e+00 4.129620416128122997e+02
2.030727989277211876e+00 4.128297874046792231e+02
2.030828015283973720e+00 4.126983236580979337e+02
2.030928041290735564e+00 4.125676512892772507e+02
2.031028067297497408e+00 4.124377711951927949e+02
2.031128093304258808e+00 4.123086842535811911e+02
2.031228119311020652e+00 4.121803913229329055e+02
2.031328145317782496e+00 4.120528932424855952e+02
2.031428171324544341e+00 4.119261908322181398e+02
2.031528197331305741e+00 4.118002848928480830e+02
2.031628223338067585e+00 4.116751762058253234e+02
2.031728249344829429e+00 4.115508655333282491e+02
2.031828275351591273e+00 4.114273536182621456e+02
2.031928301358353117e+00 4.113046411842552175e+02
2.032028327365114961e+00 4.111827289356590427e+02
2.032128353371876361e+00 4.110616175575444231e+02
2.032228379378638206e+00 4.109413077157025782e+02
2.032328405385400050e+00 4.108218000566446335e+02
2.032428431392161894e+00 4.107030952076027006e+02
2.032528457398923738e+00 4.105851937765303319e+02
2.032628483405685582e+00 4.104680963521044532e+02
2.032728509412447426e+00 4.103518035037286609e+02
2.032828535419208826e+00 4.102363157815343584e+02
2.032928561425970670e+00 4.101216337163864978e+02
2.033028587432732515e+00 4.100077578198863648e+02
2.033128613439493915e+00 4.098946885843774339e+02
2.033228639446255759e+00 4.097824264829491767e+02
2.033328665453017603e+00 4.096709719694447926e+02
2.033428691459779447e+00 4.095603254784678029e+02
2.033528717466541291e+00 4.094504874253869957e+02
2.033628743473303135e+00 4.093414582063477951e+02
2.033728769480064535e+00 4.092332381982760126e+02
2.033828795486826380e+00 4.091258277588930241e+02
2.033928821493588224e+00 4.090192272267200906e+02
2.034028847500350068e+00 4.089134369210904083e+02
2.034128873507111912e+00 4.088084571421613873e+02
2.034228899513873756e+00 4.087042881709226094e+02
2.034328925520635600e+00 4.086009302692120855e+02
2.034428951527397000e+00 4.084983836797258050e+02
2.034528977534158845e+00 4.083966486260316060e+02
2.034629003540920689e+00 4.082957253125835564e+02
2.034729029547682089e+00 4.081956139247365059e+02
2.034829055554443933e+00 4.080963146287601830e+02
2.034929081561205777e+00 4.079978275718547138e+02
2.035029107567967621e+00 4.079001528821689817e+02
2.035129133574729465e+00 4.078032906688136450e+02
2.035229159581491309e+00 4.077072410218819982e+02
2.035329185588252709e+00 4.076120040124655475e+02
2.035429211595014554e+00 4.075175796926750422e+02
2.035529237601776398e+00 4.074239680956554821e+02
2.035629263608538242e+00 4.073311692356110143e+02
2.035729289615299642e+00 4.072391831078204518e+02
2.035829315622061486e+00 4.071480096886616593e+02
2.035929341628823330e+00 4.070576489356312209e+02
2.036029367635585174e+00 4.069681007873660974e+02
2.036129393642347019e+00 4.068793651636684103e+02
2.036229419649108863e+00 4.067914419655256779e+02
2.036329445655870263e+00 4.067043310751369631e+02
2.036429471662632107e+00 4.066180323559371459e+02
2.036529497669393951e+00 4.065325456526193761e+02
2.036629523676155351e+00 4.064478707911638935e+02
2.036729549682917195e+00 4.063640075788611625e+02
2.036829575689679039e+00 4.062809558043412039e+02
2.036929601696440884e+00 4.061987152375987762e+02
2.037029627703202728e+00 4.061172856300210015e+02
2.037129653709964572e+00 4.060366667144184021e+02
2.037229679716726416e+00 4.059568582050511623e+02
2.037329705723487816e+00 4.058778597976590845e+02
2.037429731730249660e+00 4.057996711694917735e+02
2.037529757737011504e+00 4.057222919793413780e+02
2.037629783743773348e+00 4.056457218675693639e+02
2.037729809750535193e+00 4.055699604561434626e+02
2.037829835757297037e+00 4.054950073486647852e+02
2.037929861764058437e+00 4.054208621304051121e+02
2.038029887770820281e+00 4.053475243683375879e+02
2.038129913777582125e+00 4.052749936111719080e+02
2.038229939784343525e+00 4.052032693893875717e+02
2.038329965791105369e+00 4.051323512152710009e+02
2.038429991797867213e+00 4.050622385829497034e+02
2.038530017804629058e+00 4.049929309684283680e+02
2.038630043811390902e+00 4.049244278296264952e+02
2.038730069818152746e+00 4.048567286064150039e+02
2.038830095824914590e+00 4.047898327206535782e+02
2.038930121831675990e+00 4.047237395762313099e+02
2.039030147838437834e+00 4.046584485591026805e+02
2.039130173845199678e+00 4.045939590373286023e+02
2.039230199851961522e+00 4.045302703611159814e+02
2.039330225858723367e+00 4.044673818628589856e+02
2.039430251865485211e+00 4.044052928571784946e+02
2.039530277872246611e+00 4.043440026409654138e+02
2.039630303879008455e+00 4.042835104934218293e+02
2.039730329885770299e+00 4.042238156761040386e+02
2.039830355892531699e+00 4.041649174329648986e+02
2.039930381899293543e+00 4.041068149903989024e+02
2.040030407906055387e+00 4.040495075572855512e+02
2.040130433912817232e+00 4.039929943250338056e+02
2.040230459919579076e+00 4.039372744676281854e+02
2.040330485926340920e+00 4.038823471416746997e+02
2.040430511933102764e+00 4.038282114864451273e+02
2.040530537939864164e+00 4.037748666239265276e+02
2.040630563946626008e+00 4.037223116588672269e+02
2.040730589953387852e+00 4.036705456788242259e+02
2.040830615960149252e+00 4.036195677542126532e+02
2.040930641966911097e+00 4.035693769383539689e+02
2.041030667973672941e+00 4.035199722675253611e+02
2.041130693980434785e+00 4.034713527610095980e+02
2.041230719987196629e+00 4.034235174211456751e+02
2.041330745993958473e+00 4.033764652333800313e+02
2.041430772000720317e+00 4.033301951663163436e+02
2.041530798007481717e+00 4.032847061717691304e+02
2.041630824014243561e+00 4.032399971848154792e+02
2.041730850021005406e+00 4.031960671238475697e+02
2.041830876027766806e+00 4.031529148906261071e+02
2.041930902034528650e+00 4.031105393703347772e+02
2.042030928041290494e+00 4.030689394316342486e+02
2.042130954048052338e+00 4.030281139267160029e+02
2.042230980054814182e+00 4.029880616913590075e+02
2.042331006061576026e+00 4.029487815449849677e+02
2.042431032068337426e+00 4.029102722907135785e+02
2.042531058075099271e+00 4.028725327154211868e+02
2.042631084081861115e+00 4.028355615897962707e+02
2.042731110088622959e+00 4.027993576683972492e+02
2.042831136095384803e+00 4.027639196897124521e+02
2.042931162102146647e+00 4.027292463762159969e+02
2.043031188108908491e+00 4.026953364344280999e+02
2.043131214115669891e+00 4.026621885549748185e+02
2.043231240122431736e+00 4.026298014126485896e+02
2.043331266129193580e+00 4.025981736664656410e+02
2.043431292135954980e+00 4.025673039597309639e+02
2.043531318142716824e+00 4.025371909200974301e+02
2.043631344149478668e+00 4.025078331596263297e+02
2.043731370156240512e+00 4.024792292748520595e+02
2.043831396163002356e+00 4.024513778468437977e+02
2.043931422169764200e+00 4.024242774412686572e+02
2.044031448176525601e+00 4.023979266084546680e+02
2.044131474183287445e+00 4.023723238834546692e+02
2.044231500190049289e+00 4.023474677861116220e+02
2.044331526196811133e+00 4.023233568211237525e+02
2.044431552203572977e+00 4.022999894781074772e+02
2.044531578210334821e+00 4.022773642316662972e+02
2.044631604217096665e+00 4.022554795414542923e+02
2.044731630223858065e+00 4.022343338522434806e+02
2.044831656230619910e+00 4.022139255939919735e+02
2.044931682237381754e+00 4.021942531819090618e+02
2.045031708244143154e+00 4.021753150165245074e+02
2.045131734250904998e+00 4.021571094837574378e+02
2.045231760257666842e+00 4.021396349549821139e+02
2.045331786264428686e+00 4.021228897871007462e+02
2.045431812271190530e+00 4.021068723226099451e+02
2.045531838277952374e+00 4.020915808896702970e+02
2.045631864284713775e+00 4.020770138021803746e+02
2.045731890291475619e+00 4.020631693598426182e+02
2.045831916298237463e+00 4.020500458482367776e+02
2.045931942304999307e+00 4.020376415388919895e+02
2.046031968311760707e+00 4.020259546893567517e+02
2.046131994318522551e+00 4.020149835432716259e+02
2.046232020325284395e+00 4.020047263304418266e+02
2.046332046332046239e+00 4.019951812669112883e+02
2.046432072338808084e+00 4.019863465550343449e+02
2.046532098345569928e+00 4.019782203835493419e+02
2.046632124352331328e+00 4.019708009276544090e+02
2.046732150359093172e+00 4.019640863490794800e+02
2.046832176365855016e+00 4.019580747961642828e+02
2.046932202372616416e+00 4.019527644039291658e+02
2.047032228379378260e+00 4.019481532941550199e+02
2.047132254386140104e+00 4.019442395754560380e+02
2.047232280392901949e+00 4.019410213433566810e+02
2.047332306399663793e+00 4.019384966803688712e+02
2.047432332406425637e+00 4.019366636560681059e+02
2.047532358413187481e+00 4.019355203271716732e+02
2.047632384419948881e+00 4.019350647376152210e+02
2.047732410426710725e+00 4.019352949186308024e+02
2.047832436433472569e+00 4.019362088888260587e+02
2.047932462440234413e+00 4.019378046542614698e+02
2.048032488446996258e+00 4.019400802085306168e+02
2.048132514453758102e+00 4.019430335328377168e+02
2.048232540460519502e+00 4.019466625960796478e+02
2.048332566467281346e+00 4.019509653549229711e+02
2.048432592474043190e+00 4.019559397538864687e+02
2.048532618480805034e+00 4.019615837254211215e+02
2.048632644487566434e+00 4.019678951899895765e+02
2.048732670494328278e+00 4.019748720561491382e+02
2.048832696501090123e+00 4.019825122206327137e+02
2.048932722507851967e+00 4.019908135684282797e+02
2.049032748514613811e+00 4.019997739728659099e+02
2.049132774521375655e+00 4.020093912956949112e+02
2.049232800528137055e+00 4.020196633871696008e+02
2.049332826534898899e+00 4.020305880861309902e+02
2.049432852541660743e+00 4.020421632200907425e+02
2.049532878548422588e+00 4.020543866053146189e+02
2.049632904555184432e+00 4.020672560469049586e+02
2.049732930561946276e+00 4.020807693388870803e+02
2.049832956568707676e+00 4.020949242642908530e+02
2.049932982575469520e+00 4.021097185952380642e+02
2.050033008582231364e+00 4.021251500930255816e+02
2.050133034588993208e+00 4.021412165082111869e+02
2.050233060595754608e+00 4.021579155806977042e+02
2.050333086602516453e+00 4.021752450398215046e+02
2.050433112609278297e+00 4.021932026044355553e+02
2.050533138616040141e+00 4.022117859829966733e+02
2.050633164622801985e+00 4.022309928736528946e+02
2.050733190629563829e+00 4.022508209643282271e+02
2.050833216636325229e+00 4.022712679328119521e+02
2.050933242643087073e+00 4.022923314468431499e+02
2.051033268649848917e+00 4.023140091642009111e+02
2.051133294656610317e+00 4.023362987327894871e+02
2.051233320663372162e+00 4.023591977907274782e+02
2.051333346670134006e+00 4.023827039664358836e+02
2.051433372676895850e+00 4.024068148787263226e+02
2.051533398683657694e+00 4.024315281368888577e+02
2.051633424690419538e+00 4.024568413407832850e+02
2.051733450697181382e+00 4.024827520809229782e+02
2.051833476703942782e+00 4.025092579385713520e+02
2.051933502710704627e+00 4.025363564858237737e+02
2.052033528717466471e+00 4.025640452857028890e+02
2.052133554724227871e+00 4.025923218922453657e+02
2.052233580730989715e+00 4.026211838505934111e+02
2.052333606737751559e+00 4.026506286970837323e+02
2.052433632744513403e+00 4.026806539593387697e+02
2.052533658751275247e+00 4.027112571563570214e+02
2.052633684758037091e+00 4.027424357986039354e+02
2.052733710764798492e+00 4.027741873881033712e+02
2.052833736771560336e+00 4.028065094185271846e+02
2.052933762778322180e+00 4.028393993752885649e+02
2.053033788785084024e+00 4.028728547356313356e+02
2.053133814791845868e+00 4.029068729687246559e+02
2.053233840798607712e+00 4.029414515357508435e+02
2.053333866805369556e+00 4.029765878900007579e+02
2.053433892812130956e+00 4.030122794769645225e+02
2.053533918818892801e+00 4.030485237344236680e+02
2.053633944825654645e+00 4.030853180925444690e+02
2.053733970832416045e+00 4.031226599739692347e+02
2.053833996839177889e+00 4.031605467939102141e+02
2.053934022845939733e+00 4.031989759602433878e+02
2.054034048852701577e+00 4.032379448735968026e+02
2.054134074859463421e+00 4.032774509274512411e+02
2.054234100866225265e+00 4.033174915082256575e+02
2.054334126872987110e+00 4.033580639953778473e+02
2.054434152879748510e+00 4.033991657614917585e+02
2.054534178886510354e+00 4.034407941723757176e+02
2.054634204893272198e+00 4.034829465871531511e+02
2.054734230900034042e+00 4.035256203583587649e+02
2.054834256906795886e+00 4.035688128320310284e+02
2.054934282913557730e+00 4.036125213478075011e+02
2.055034308920319130e+00 4.036567432390180556e+02
2.055134334927080975e+00 4.037014758327792379e+02
2.055234360933842819e+00 4.037467164500893091e+02
2.055334386940604219e+00 4.037924624059238567e+02
2.055434412947366063e+00 4.038387110093270849e+02
2.055534438954127907e+00 4.038854595635102669e+02
2.055634464960889751e+00 4.039327053659433773e+02
2.055734490967651595e+00 4.039804457084527485e+02
2.055834516974413440e+00 4.040286778773139531e+02
2.055934542981175284e+00 4.040773991533485514e+02
2.056034568987936684e+00 4.041266068120172577e+02
2.056134594994698528e+00 4.041762981235166308e+02
2.056234621001460372e+00 4.042264703528738323e+02
2.056334647008221772e+00 4.042771207600424077e+02
2.056434673014983616e+00 4.043282465999964757e+02
2.056534699021745460e+00 4.043798451228269073e+02
2.056634725028507305e+00 4.044319135738374484e+02
2.056734751035269149e+00 4.044844491936393069e+02
2.056834777042030993e+00 4.045374492182462518e+02
2.056934803048792393e+00 4.045909108791718154e+02
2.057034829055554237e+00 4.046448314035241083e+02
2.057134855062316081e+00 4.046992080141003498e+02
2.057234881069077925e+00 4.047540379294851505e+02
2.057334907075839325e+00 4.048093183641435644e+02
2.057434933082601169e+00 4.048650465285186328e+02
2.057534959089363014e+00 4.049212196291269947e+02
2.057634985096124858e+00 4.049778348686530762e+02
2.057735011102886702e+00 4.050348894460478846e+02
2.057835037109648546e+00 4.050923805566214924e+02
2.057935063116409946e+00 4.051503053921411492e+02
2.058035089123171790e+00 4.052086611409270063e+02
2.058135115129933634e+00 4.052674449879457939e+02
2.058235141136695479e+00 4.053266541149100135e+02
2.058335167143457323e+00 4.053862857003707632e+02
2.058435193150219167e+00 4.054463369198157352e+02
2.058535219156980567e+00 4.055068049457625534e+02
2.058635245163742411e+00 4.055676869478589879e+02
2.058735271170504255e+00 4.056289800929726539e+02
2.058835297177266099e+00 4.056906815452917385e+02
2.058935323184027499e+00 4.057527884664190196e+02
2.059035349190789344e+00 4.058152980154667375e+02
2.059135375197551188e+00 4.058782073491533993e+02
2.059235401204313032e+00 4.059415136218988209e+02
2.059335427211074876e+00 4.060052139859202498e+02
2.059435453217836720e+00 4.060693055913270655e+02
2.059535479224598120e+00 4.061337855862178685e+02
2.059635505231359964e+00 4.061986511167734761e+02
2.059735531238121808e+00 4.062638993273543520e+02
2.059835557244883653e+00 4.063295273605963303e+02
2.059935583251645497e+00 4.063955323575024750e+02
2.060035609258407341e+00 4.064619114575426693e+02
2.060135635265169185e+00 4.065286617987462705e+02
2.060235661271930585e+00 4.065957805177977775e+02
2.060335687278692429e+00 4.066632647501312476e+02
2.060435713285454273e+00 4.067311116300256799e+02
2.060535739292215673e+00 4.067993182907011942e+02
2.060635765298977518e+00 4.068678818644113448e+02
2.060735791305739362e+00 4.069367994825397545e+02
2.060835817312501206e+00 4.070060682756935080e+02
2.060935843319263050e+00 4.070756853737979100e+02
2.061035869326024894e+00 4.071456479061920959e+02
2.061135895332786294e+00 4.072159530017215729e+02
2.061235921339548138e+00 4.072865977888337170e+02
2.061335947346309982e+00 4.073575793956702569e+02
2.061435973353071383e+00 4.074288949501644197e+02
2.061535999359833227e+00 4.075005415801308573e+02
2.061636025366595071e+00 4.075725164133624503e+02
2.061736051373356915e+00 4.076448165777224517e+02
2.061836077380118759e+00 4.077174392012383350e+02
2.061936103386880603e+00 4.077903814121962114e+02
2.062036129393642447e+00 4.078636403392313241e+02
2.062136155400403847e+00 4.079372131114252511e+02
2.062236181407165692e+00 4.080110968583952626e+02
2.062336207413927536e+00 4.080852887103886815e+02
2.062436233420688936e+00 4.081597857983766175e+02
2.062536259427450780e+00 4.082345852541446902e+02
2.062636285434212624e+00 4.083096842103867630e+02
2.062736311440974468e+00 4.083850798007957223e+02
2.062836337447736312e+00 4.084607691601581791e+02
2.062936363454498156e+00 4.085367494244436557e+02
2.063036389461260001e+00 4.086130177308995144e+02
2.063136415468021401e+00 4.086895712181382692e+02
2.063236441474783245e+00 4.087664070262338782e+02
2.063336467481545089e+00 4.088435222968092262e+02
2.063436493488306933e+00 4.089209141731295176e+02
2.063536519495068777e+00 4.089985798001931698e+02
2.063636545501830621e+00 4.090765163248212275e+02
2.063736571508592021e+00 4.091547208957487669e+02
2.063836597515353866e+00 4.092331906637156749e+02
2.063936623522115710e+00 4.093119227815569161e+02
2.064036649528877110e+00 4.093909144042914363e+02
2.064136675535638954e+00 4.094701626892136801e+02
2.064236701542400798e+00 4.095496647959811867e+02
2.064336727549162642e+00 4.096294178867067899e+02
2.064436753555924486e+00 4.097094191260453044e+02
2.064536779562686331e+00 4.097896656812844185e+02
2.064636805569448175e+00 4.098701547224321757e+02
2.064736831576209575e+00 4.099508834223069584e+02
2.064836857582971419e+00 4.100318489566236622e+02
2.064936883589733263e+00 4.101130485040849862e+02
2.065036909596495107e+00 4.101944792464670400e+02
2.065136935603256951e+00 4.102761383687084162e+02
2.065236961610018795e+00 4.103580230589969915e+02
2.065336987616780196e+00 4.104401305088572371e+02
2.065437013623542040e+00 4.105224579132380995e+02
2.065537039630303884e+00 4.106050024705983219e+02
2.065637065637065284e+00 4.106877613829944949e+02
2.065737091643827128e+00 4.107707318561676857e+02
2.065837117650588972e+00 4.108539110996268278e+02
2.065937143657350816e+00 4.109372963267389309e+02
2.066037169664112660e+00 4.110208847548108793e+02
2.066137195670874505e+00 4.111046736051762309e+02
2.066237221677636349e+00 4.111886601032801423e+02
2.066337247684397749e+00 4.112728414787654856e+02
2.066437273691159593e+00 4.113572149655552721e+02
2.066537299697921437e+00 4.114417778019389402e+02
2.066637325704682837e+00 4.115265272306550060e+02
2.066737351711444681e+00 4.116114604989751911e+02
2.066837377718206525e+00 4.116965748587888356e+02
2.066937403724968370e+00 4.117818675666847525e+02
2.067037429731730214e+00 4.118673358840354695e+02
2.067137455738492058e+00 4.119529770770799360e+02
2.067237481745253458e+00 4.120387884170036159e+02
2.067337507752015302e+00 4.121247671800236958e+02
2.067437533758777146e+00 4.122109106474694613e+02
2.067537559765538990e+00 4.122972161058636402e+02
2.067637585772300390e+00 4.123836808470035749e+02
2.067737611779062235e+00 4.124703021680437018e+02
2.067837637785824079e+00 4.125570773715747919e+02
2.067937663792585923e+00 4.126440037657030189e+02
2.068037689799347767e+00 4.127310786641337472e+02
2.068137715806109611e+00 4.128182993862479293e+02
2.068237741812871011e+00 4.129056632571828800e+02
2.068337767819632855e+00 4.129931676079115732e+02
2.068437793826394699e+00 4.130808097753202333e+02
2.068537819833156544e+00 4.131685871022888250e+02
2.068637845839918388e+00 4.132564969377671105e+02
2.068737871846680232e+00 4.133445366368541727e+02
2.068837897853442076e+00 4.134327035608754386e+02
2.068937923860203476e+00 4.135209950774582239e+02
2.069037949866965320e+00 4.136094085606121098e+02
2.069137975873727164e+00 4.136979413908016454e+02
2.069238001880488564e+00 4.137865909550254173e+02
2.069338027887250409e+00 4.138753546468903437e+02
2.069438053894012253e+00 4.139642298666879014e+02
2.069538079900774097e+00 4.140532140214688184e+02
2.069638105907535941e+00 4.141423045251181634e+02
2.069738131914297785e+00 4.142314987984308914e+02
2.069838157921059185e+00 4.143207942691832386e+02
2.069938183927821029e+00 4.144101883722094044e+02
2.070038209934582873e+00 4.144996785494735150e+02
2.070138235941344718e+00 4.145892622501427240e+02
2.070238261948106562e+00 4.146789369306607682e+02
2.070338287954868406e+00 4.147687000548190781e+02
2.070438313961630250e+00 4.148585490938294811e+02
2.070538339968391650e+00 4.149484815263974724e+02
2.070638365975153494e+00 4.150384948387892905e+02
2.070738391981915338e+00 4.151285865249072913e+02
2.070838417988676738e+00 4.152187540863567392e+02
2.070938443995438583e+00 4.153089950325204995e+02
2.071038470002200427e+00 4.153993068806231577e+02
2.071138496008962271e+00 4.154896871558047451e+02
2.071238522015724115e+00 4.155801333911890652e+02
2.071338548022485959e+00 4.156706431279498020e+02
2.071438574029247359e+00 4.157612139153813473e+02
2.071538600036009203e+00 4.158518433109672969e+02
2.071638626042771048e+00 4.159425288804443426e+02
2.071738652049532892e+00 4.160332681978730989e+02
2.071838678056294292e+00 4.161240588457017111e+02
2.071938704063056136e+00 4.162148984148346358e+02
2.072038730069817980e+00 4.163057845046979537e+02
2.072138756076579824e+00 4.163967147233038872e+02
2.072238782083341668e+00 4.164876866873169661e+02
2.072338808090103512e+00 4.165786980221170097e+02
2.072438834096864912e+00 4.166697463618656911e+02
2.072538860103626757e+00 4.167608293495694625e+02
2.072638886110388601e+00 4.168519446371428216e+02
2.072738912117150001e+00 4.169430898854707266e+02
2.072838938123911845e+00 4.170342627644729419e+02
2.072938964130673689e+00 4.171254609531647475e+02
2.073038990137435533e+00 4.172166821397194667e+02
2.073139016144197377e+00 4.173079240215300842e+02
2.073239042150959222e+00 4.173991843052697845e+02
2.073339068157721066e+00 4.174904607069516942e+02
2.073439094164482466e+00 4.175817509519910118e+02
2.073539120171244310e+00 4.176730527752638977e+02
2.073639146178006154e+00 4.177643639211645450e+02
2.073739172184767998e+00 4.178556821436678206e+02
2.073839198191529842e+00 4.179470052063852563e+02
2.073939224198291686e+00 4.180383308826236544e+02
2.074039250205053087e+00 4.181296569554414759e+02
2.074139276211814931e+00 4.182209812177090384e+02
2.074239302218576775e+00 4.183123014721619484e+02
2.074339328225338175e+00 4.184036155314582857e+02
2.074439354232100019e+00 4.184949212182356177e+02
2.074539380238861863e+00 4.185862163651646597e+02
2.074639406245623707e+00 4.186774988150059471e+02
2.074739432252385551e+00 4.187687664206624731e+02
2.074839458259147396e+00 4.188600170452339171e+02
2.074939484265909240e+00 4.189512485620729194e+02
2.075039510272670640e+00 4.190424588548339102e+02
2.075139536279432484e+00 4.191336458175284179e+02
2.075239562286194328e+00 4.192248073545787861e+02
2.075339588292956172e+00 4.193159413808652403e+02
2.075439614299718016e+00 4.194070458217818214e+02
2.075539640306479860e+00 4.194981186132843050e+02
2.075639666313241261e+00 4.195891577019423266e+02
2.075739692320003105e+00 4.196801610449874715e+02
2.075839718326764949e+00 4.197711266103650019e+02
2.075939744333526793e+00 4.198620523767808663e+02
2.076039770340288193e+00 4.199529363337522341e+02
2.076139796347050037e+00 4.200437764816520598e+02
2.076239822353811881e+00 4.201345708317616072e+02
2.076339848360573725e+00 4.202253174063137067e+02
2.076439874367335570e+00 4.203160142385396512e+02
2.076539900374097414e+00 4.204066593727188774e+02
2.076639926380858814e+00 4.204972508642196090e+02
2.076739952387620658e+00 4.205877867795485940e+02
2.076839978394382502e+00 4.206782651963927719e+02
2.076940004401143902e+00 4.207686842036649750e+02
2.077040030407905746e+00 4.208590419015482667e+02
2.077140056414667590e+00 4.209493364015377779e+02
2.077240082421429435e+00 4.210395658264836811e+02
2.077340108428191279e+00 4.211297283106362102e+02
2.077440134434953123e+00 4.212198219996832336e+02
2.077540160441714967e+00 4.213098450507952748e+02
2.077640186448476367e+00 4.213997956326645635e+02
2.077740212455238211e+00 4.214896719255468724e+02
2.077840238462000055e+00 4.215794721212996592e+02
2.077940264468761455e+00 4.216691944234217431e+02
2.078040290475523300e+00 4.217588370470959944e+02
2.078140316482285144e+00 4.218483982192213944e+02
2.078240342489046988e+00 4.219378761784571452e+02
2.078340368495808832e+00 4.220272691752554124e+02
2.078440394502570676e+00 4.221165754719022516e+02
2.078540420509332076e+00 4.222057933425510328e+02
2.078640446516093920e+00 4.222949210732607526e+02
2.078740472522855764e+00 4.223839569620298562e+02
2.078840498529617609e+00 4.224728993188325603e+02
2.078940524536379453e+00 4.225617464656525044e+02
2.079040550543141297e+00 4.226504967365173115e+02
2.079140576549903141e+00 4.227391484775317849e+02
2.079240602556664541e+00 4.228277000469115592e+02
2.079340628563426385e+00 4.229161498150150464e+02
2.079440654570188229e+00 4.230044961643754959e+02
2.079540680576949629e+00 4.230927374897339632e+02
2.079640706583711474e+00 4.231808721980665950e+02
2.079740732590473318e+00 4.232688987086203838e+02
2.079840758597235162e+00 4.233568154529393723e+02
2.079940784603997006e+00 4.234446208748951790e+02
2.080040810610758850e+00 4.235323134307175224e+02
2.080140836617520250e+00 4.236198915890197441e+02
2.080240862624282094e+00 4.237073538308304137e+02
2.080340888631043939e+00 4.237946986496176578e+02
2.080440914637805783e+00 4.238819245513184342e+02
2.080540940644567627e+00 4.239690300543637136e+02
2.080640966651329471e+00 4.240560136897056509e+02
2.080740992658091315e+00 4.241428740008416867e+02
2.080841018664852715e+00 4.242296095438411498e+02
2.080941044671614559e+00 4.243162188873677678e+02
2.081041070678376403e+00 4.244027006127056438e+02
2.081141096685137803e+00 4.244890533137815964e+02
2.081241122691899648e+00 4.245752755971888064e+02
2.081341148698661492e+00 4.246613660822081329e+02
2.081441174705423336e+00 4.247473234008307941e+02
2.081541200712185180e+00 4.248331461977805930e+02
2.081641226718947024e+00 4.249188331305339830e+02
2.081741252725708868e+00 4.250043828693391674e+02
2.081841278732470268e+00 4.250897940972394053e+02
2.081941304739232113e+00 4.251750655100887002e+02
2.082041330745993957e+00 4.252601958165737415e+02
2.082141356752755357e+00 4.253451837382294798e+02
2.082241382759517201e+00 4.254300280094593063e+02
2.082341408766279045e+00 4.255147273775516510e+02
2.082441434773040889e+00 4.255992806026962967e+02
2.082541460779802733e+00 4.256836864580011479e+02
2.082641486786564577e+00 4.257679437295079765e+02
2.082741512793325978e+00 4.258520512162079967e+02
2.082841538800087822e+00 4.259360077300550529e+02
2.082941564806849666e+00 4.260198120959842072e+02
2.083041590813611066e+00 4.261034631519196409e+02
2.083141616820372910e+00 4.261869597487914234e+02
2.083241642827134754e+00 4.262703007505486426e+02
2.083341668833896598e+00 4.263534850341695801e+02
2.083441694840658442e+00 4.264365114896750129e+02
2.083541720847420287e+00 4.265193790201390129e+02
2.083641746854182131e+00 4.266020865416982133e+02
2.083741772860943531e+00 4.266846329835651659e+02
2.083841798867705375e+00 4.267670172880345945e+02
2.083941824874467219e+00 4.268492384104949338e+02
2.084041850881229063e+00 4.269312953194356623e+02
2.084141876887990907e+00 4.270131869964561133e+02
2.084241902894752752e+00 4.270949124362729208e+02
2.084341928901514152e+00 4.271764706467265000e+02
2.084441954908275996e+00 4.272578606487890625e+02
2.084541980915037840e+00 4.273390814765693904e+02
2.084642006921799684e+00 4.274201321773194877e+02
2.084742032928561084e+00 4.275010118114373086e+02
2.084842058935322928e+00 4.275817194524760225e+02
2.084942084942084772e+00 4.276622541871424801e+02
2.085042110948846616e+00 4.277426151153044884e+02
2.085142136955608461e+00 4.278228013499931990e+02
2.085242162962370305e+00 4.279028120174043579e+02
2.085342188969131705e+00 4.279826462569021146e+02
2.085442214975893549e+00 4.280623032210189649e+02
2.085542240982655393e+00 4.281417820754570016e+02
2.085642266989417237e+00 4.282210819990903019e+02
2.085742292996179081e+00 4.283002021839621420e+02
2.085842319002940926e+00 4.283791418352860774e+02
2.085942345009702326e+00 4.284579001714457718e+02
2.086042371016464170e+00 4.285364764239902797e+02
2.086142397023226014e+00 4.286148698376364337e+02
2.086242423029987858e+00 4.286930796702622501e+02
2.086342449036749258e+00 4.287711051929070436e+02
2.086442475043511102e+00 4.288489456897655714e+02
2.086542501050272946e+00 4.289266004581852485e+02
2.086642527057034791e+00 4.290040688086619411e+02
2.086742553063796635e+00 4.290813500648336003e+02
2.086842579070558479e+00 4.291584435634767942e+02
2.086942605077319879e+00 4.292353486544970451e+02
2.087042631084081723e+00 4.293120647009274080e+02
2.087142657090843567e+00 4.293885910789173295e+02
2.087242683097604967e+00 4.294649271777262243e+02
2.087342709104366811e+00 4.295410723997171658e+02
2.087442735111128655e+00 4.296170261603459721e+02
2.087542761117890500e+00 4.296927878881534753e+02
2.087642787124652344e+00 4.297683570247568241e+02
2.087742813131414188e+00 4.298437330248364106e+02
2.087842839138176032e+00 4.299189153561299008e+02
2.087942865144937432e+00 4.299939034994175699e+02
2.088042891151699276e+00 4.300686969485126383e+02
2.088142917158461120e+00 4.301432952102491640e+02
2.088242943165222520e+00 4.302176978044682869e+02
2.088342969171984365e+00 4.302919042640085081e+02
2.088442995178746209e+00 4.303659141346879551e+02
2.088543021185508053e+00 4.304397269752947182e+02
2.088643047192269897e+00 4.305133423575695701e+02
2.088743073199031741e+00 4.305867598661920397e+02
2.088843099205793141e+00 4.306599790987659162e+02
2.088943125212554985e+00 4.307329996658020264e+02
2.089043151219316830e+00 4.308058211907033410e+02
2.089143177226078674e+00 4.308784433097472402e+02
2.089243203232840518e+00 4.309508656720685735e+02
2.089343229239602362e+00 4.310230879396421528e+02
2.089443255246364206e+00 4.310951097872647324e+02
2.089543281253125606e+00 4.311669309025355119e+02
2.089643307259887450e+00 4.312385509858376054e+02
2.089743333266649294e+00 4.313099697503193966e+02
2.089843359273410694e+00 4.313811869218723132e+02
2.089943385280172539e+00 4.314522022391123528e+02
2.090043411286934383e+00 4.315230154533574591e+02
2.090143437293696227e+00 4.315936263286072290e+02
2.090243463300458071e+00 4.316640346415224485e+02
2.090343489307219915e+00 4.317342401813962738e+02
2.090443515313981759e+00 4.318042427501420093e+02
2.090543541320743159e+00 4.318740421622586609e+02
2.090643567327505004e+00 4.319436382448150766e+02
2.090743593334266848e+00 4.320130308374220363e+02
2.090843619341028692e+00 4.320822197922091163e+02
2.090943645347790536e+00 4.321512049737989400e+02
2.091043671354552380e+00 4.322199862592803470e+02
2.091143697361313780e+00 4.322885635381850875e+02
2.091243723368075624e+00 4.323569367124591736e+02
2.091343749374837468e+00 4.324251056964371855e+02
2.091443775381598869e+00 4.324930704168141347e+02
2.091543801388360713e+00 4.325608308126177235e+02
2.091643827395122557e+00 4.326283868351796968e+02
2.091743853401884401e+00 4.326957384481091822e+02
2.091843879408646245e+00 4.327628856272607436e+02
2.091943905415408089e+00 4.328298283607063581e+02
2.092043931422169933e+00 4.328965666487055728e+02
2.092143957428931333e+00 4.329631005036739566e+02
2.092243983435693178e+00 4.330294299501529167e+02
2.092344009442455022e+00 4.330955550247791734e+02
2.092444035449216422e+00 4.331614757762509953e+02
2.092544061455978266e+00 4.332271922652975604e+02
2.092644087462740110e+00 4.332927045646457032e+02
2.092744113469501954e+00 4.333580127589878543e+02
2.092844139476263798e+00 4.334231169449465142e+02
2.092944165483025643e+00 4.334880172310430453e+02
2.093044191489787043e+00 4.335527137376604969e+02
2.093144217496548887e+00 4.336172065970121139e+02
2.093244243503310731e+00 4.336814959531021714e+02
2.093344269510072575e+00 4.337455819616948247e+02
2.093444295516833975e+00 4.338094647902747170e+02
2.093544321523595819e+00 4.338731446180123044e+02
2.093644347530357663e+00 4.339366216357256576e+02
2.093744373537119507e+00 4.339998960458462420e+02
2.093844399543881352e+00 4.340629680623765694e+02
2.093944425550643196e+00 4.341258379108578538e+02
2.094044451557404596e+00 4.341885058283259582e+02
2.094144477564166440e+00 4.342509720632764356e+02
2.094244503570928284e+00 4.343132368756242272e+02
2.094344529577690128e+00 4.343753005366637012e+02
2.094444555584451972e+00 4.344371633290289765e+02
2.094544581591213817e+00 4.344988255466528813e+02
2.094644607597975661e+00 4.345602874947278451e+02
2.094744633604737061e+00 4.346215494896612199e+02
2.094844659611498905e+00 4.346826118590396391e+02
2.094944685618260749e+00 4.347434749415804163e+02
2.095044711625022149e+00 4.348041390870932901e+02
2.095144737631783993e+00 4.348646046564372227e+02
2.095244763638545837e+00 4.349248720214761761e+02
2.095344789645307682e+00 4.349849415650363085e+02
2.095444815652069526e+00 4.350448136808624326e+02
2.095544841658831370e+00 4.351044887735723705e+02
2.095644867665592770e+00 4.351639672586145480e+02
2.095744893672354614e+00 4.352232495622216675e+02
2.095844919679116458e+00 4.352823361213654039e+02
2.095944945685878302e+00 4.353412273837109296e+02
2.096044971692640146e+00 4.353999238075709854e+02
2.096144997699401991e+00 4.354584258618590411e+02
2.096245023706163835e+00 4.355167340260435367e+02
2.096345049712925235e+00 4.355748487900992245e+02
2.096445075719687079e+00 4.356327706544617513e+02
2.096545101726448923e+00 4.356905001299769538e+02
2.096645127733210323e+00 4.357480377378554408e+02
2.096745153739972167e+00 4.358053840096229692e+02
2.096845179746734011e+00 4.358625394870717855e+02
2.096945205753495856e+00 4.359195047222094672e+02
2.097045231760257700e+00 4.359762802772138457e+02
2.097145257767019544e+00 4.360328667243788914e+02
2.097245283773780944e+00 4.360892646460654873e+02
2.097345309780542788e+00 4.361454746346528282e+02
2.097445335787304632e+00 4.362014972924848735e+02
2.097545361794066476e+00 4.362573332318214057e+02
2.097645387800827876e+00 4.363129830747847677e+02
2.097745413807589721e+00 4.363684474533093862e+02
2.097845439814351565e+00 4.364237270090874290e+02
2.097945465821113409e+00 4.364788223935198630e+02
2.098045491827875253e+00 4.365337342676601793e+02
2.098145517834637097e+00 4.365884633021633476e+02
2.098245543841398497e+00 4.366430101772307353e+02
2.098345569848160341e+00 4.366973755825581520e+02
2.098445595854922185e+00 4.367515602172819627e+02
2.098545621861683586e+00 4.368055647899204814e+02
2.098645647868445430e+00 4.368593900183259962e+02
2.098745673875207274e+00 4.369130366296248553e+02
2.098845699881969118e+00 4.369665053601637510e+02
2.098945725888730962e+00 4.370197969554542397e+02
2.099045751895492806e+00 4.370729121701163535e+02
2.099145777902254650e+00 4.371258517678239741e+02
2.099245803909016050e+00 4.371786165212465676e+02
2.099345829915777895e+00 4.372312072119929098e+02
2.099445855922539739e+00 4.372836246305557779e+02
2.099545881929301583e+00 4.373358695762524917e+02
2.099645907936063427e+00 4.373879428571679000e+02
2.099745933942825271e+00 4.374398452900978214e+02
2.099845959949586671e+00 4.374915777004893016e+02
2.099945985956348515e+00 4.375431409223834862e+02
2.100046011963110359e+00 4.375945357983562758e+02
2.100146037969871760e+00 4.376457631794594931e+02
2.100246063976633604e+00 4.376968239251631303e+02
2.100346089983395448e+00 4.377477189032933325e+02
2.100446115990157292e+00 4.377984489899740765e+02
2.100546141996919136e+00 4.378490150695682814e+02
2.100646168003680980e+00 4.378994180346167582e+02
2.100746194010442824e+00 4.379496587857769896e+02
2.100846220017204224e+00 4.379997382317635584e+02
2.100946246023966069e+00 4.380496572892863014e+02
2.101046272030727913e+00 4.380994168829906812e+02
2.101146298037489757e+00 4.381490179453951441e+02
2.101246324044251601e+00 4.381984614168305825e+02
2.101346350051013445e+00 4.382477482453748507e+02
2.101446376057774845e+00 4.382968793867981958e+02
2.101546402064536689e+00 4.383458558044920892e+02
2.101646428071298534e+00 4.383946784694132930e+02
2.101746454078059934e+00 4.384433483600183763e+02
2.101846480084821778e+00 4.384918664622013011e+02
2.101946506091583622e+00 4.385402337692287347e+02
2.102046532098345466e+00 4.385884512816796246e+02
2.102146558105107310e+00 4.386365200073794313e+02
2.102246584111869154e+00 4.386844409613361222e+02
2.102346610118630998e+00 4.387322151656783262e+02
2.102446636125392398e+00 4.387798436495887699e+02
2.102546662132154243e+00 4.388273274492401583e+02
2.102646688138916087e+00 4.388746676077316238e+02
2.102746714145677487e+00 4.389218651750244931e+02
2.102846740152439331e+00 4.389689212078748710e+02
2.102946766159201175e+00 4.390158367697702033e+02
2.103046792165963019e+00 4.390626129308627696e+02
2.103146818172724863e+00 4.391092507679062464e+02
2.103246844179486708e+00 4.391557513641878927e+02
2.103346870186248552e+00 4.392021158094631801e+02
2.103446896193009952e+00 4.392483451998889450e+02
2.103546922199771796e+00 4.392944406379599513e+02
2.103646948206533640e+00 4.393404032324381774e+02
2.103746974213295040e+00 4.393862340982913111e+02
2.103847000220056884e+00 4.394319343566189673e+02
2.103947026226818728e+00 4.394775051345953898e+02
2.104047052233580573e+00 4.395229475653922577e+02
2.104147078240342417e+00 4.395682627881184885e+02
2.104247104247104261e+00 4.396134519477498088e+02
2.104347130253865661e+00 4.396585161950620773e+02
2.104447156260627505e+00 4.397034566865636975e+02
2.104547182267389349e+00 4.397482745844272927e+02
2.104647208274151193e+00 4.397929710564209245e+02
2.104747234280913037e+00 4.398375472758425531e+02
2.104847260287674882e+00 4.398820044214497216e+02
2.104947286294436726e+00 4.399263436773915714e+02
2.105047312301198126e+00 4.399705662331400617e+02
2.105147338307959970e+00 4.400146732834222121e+02
2.105247364314721814e+00 4.400586660281510945e+02
2.105347390321483214e+00 4.401025456723559159e+02
2.105447416328245058e+00 4.401463134261152845e+02
2.105547442335006902e+00 4.401899705044843358e+02
2.105647468341768747e+00 4.402335181274304432e+02
2.105747494348530591e+00 4.402769575197592644e+02
2.105847520355292435e+00 4.403202899110482917e+02
2.105947546362053835e+00 4.403635165355757408e+02
2.106047572368815679e+00 4.404066386322523385e+02
2.106147598375577523e+00 4.404496574445498140e+02
2.106247624382339367e+00 4.404925742204322887e+02
2.106347650389101211e+00 4.405353902122865861e+02
2.106447676395863056e+00 4.405781066768507230e+02
2.106547702402624900e+00 4.406207248751452425e+02
2.106647728409386300e+00 4.406632460724028988e+02
2.106747754416148144e+00 4.407056715379970910e+02
2.106847780422909988e+00 4.407480025453738222e+02
2.106947806429671388e+00 4.407902403719780295e+02
2.107047832436433232e+00 4.408323862991867372e+02
2.107147858443195076e+00 4.408744416122362964e+02
2.107247884449956921e+00 4.409164076001510466e+02
2.107347910456718765e+00 4.409582855556753884e+02
2.107447936463480609e+00 4.410000767752009665e+02
2.107547962470242009e+00 4.410417825586952176e+02
2.107647988477003853e+00 4.410834042096329313e+02
2.107748014483765697e+00 4.411249430349237741e+02
2.107848040490527541e+00 4.411664003448407811e+02
2.107948066497288941e+00 4.412077774529518024e+02
2.108048092504050786e+00 4.412490756760448676e+02
2.108148118510812630e+00 4.412902963340599172e+02
2.108248144517574474e+00 4.413314407500174639e+02
2.108348170524336318e+00 4.413725102499456057e+02
2.108448196531098162e+00 4.414135061628100516e+02
2.108548222537859562e+00 4.414544298204447159e+02
2.108648248544621406e+00 4.414952825574754343e+02
2.108748274551383250e+00 4.415360657112543663e+02
2.108848300558144651e+00 4.415767806217854741e+02
2.108948326564906495e+00 4.416174286316537518e+02
2.109048352571668339e+00 4.416580110859545698e+02
2.109148378578430183e+00 4.416985293322212556e+02
2.109248404585192027e+00 4.417389847203539261e+02
2.109348430591953871e+00 4.417793786025504801e+02
2.109448456598715715e+00 4.418197123332320189e+02
2.109548482605477115e+00 4.418599872689725316e+02
2.109648508612238960e+00 4.419002047684285799e+02
2.109748534619000804e+00 4.419403661922675610e+02
2.109848560625762648e+00 4.419804729030950057e+02
2.109948586632524492e+00 4.420205262653857403e+02
2.110048612639286336e+00 4.420605276454099339e+02
2.110148638646047736e+00 4.421004784111631238e+02
2.110248664652809580e+00 4.421403799322970372e+02
2.110348690659571425e+00 4.421802335800423407e+02
2.110448716666332825e+00 4.422200407271448057e+02
2.110548742673094669e+00 4.422598027477895357e+02
2.110648768679856513e+00 4.422995210175302532e+02
2.110748794686618357e+00 4.423391969132194959e+02
2.110848820693380201e+00 4.423788318129366530e+02
2.110948846700142045e+00 4.424184270959178775e+02
2.111048872706903889e+00 4.424579841424830420e+02
2.111148898713665290e+00 4.424975043339670151e+02
2.111248924720427134e+00 4.425369890526482664e+02
2.111348950727188978e+00 4.425764396816765043e+02
2.111448976733950822e+00 4.426158576050042370e+02
2.111549002740712666e+00 4.426552442073138423e+02
2.111649028747474510e+00 4.426946008739485023e+02
2.111749054754235910e+00 4.427339289908404680e+02
2.111849080760997754e+00 4.427732299444421642e+02
2.111949106767759599e+00 4.428125051216528618e+02
2.112049132774521443e+00 4.428517559097512049e+02
2.112149158781282843e+00 4.428909836963231896e+02
2.112249184788044687e+00 4.429301898691918495e+02
2.112349210794806531e+00 4.429693758163492703e+02
2.112449236801568375e+00 4.430085429258831482e+02
2.112549262808330219e+00 4.430476925859092034e+02
2.112649288815092063e+00 4.430868261845006373e+02
2.112749314821853464e+00 4.431259451096173052e+02
2.112849340828615308e+00 4.431650507490382438e+02
2.112949366835377152e+00 4.432041444902897069e+02
2.113049392842138552e+00 4.432432277205766127e+02
2.113149418848900396e+00 4.432823018267131943e+02
2.113249444855662240e+00 4.433213681950544469e+02
2.113349470862424084e+00 4.433604282114242210e+02
2.113449496869185928e+00 4.433994832610495678e+02
2.113549522875947773e+00 4.434385347284886620e+02
2.113649548882709617e+00 4.434775839975643521e+02
2.113749574889471017e+00 4.435166324512941856e+02
2.113849600896232861e+00 4.435556814718213445e+02
2.113949626902994705e+00 4.435947324403476273e+02
2.114049652909756105e+00 4.436337867370630192e+02
2.114149678916517949e+00 4.436728457410791293e+02
2.114249704923279793e+00 4.437119108303604094e+02
2.114349730930041638e+00 4.437509833816561695e+02
2.114449756936803482e+00 4.437900647704323092e+02
2.114549782943565326e+00 4.438291563708053218e+02
2.114649808950326726e+00 4.438682595554719228e+02
2.114749834957088570e+00 4.439073756956428269e+02
2.114849860963850414e+00 4.439465061609776058e+02
2.114949886970612258e+00 4.439856523195138607e+02
2.115049912977374102e+00 4.440248155376021373e+02
2.115149938984135947e+00 4.440639971798399301e+02
2.115249964990897791e+00 4.441031986090029591e+02
2.115349990997659191e+00 4.441424211859808224e+02
2.115450017004421035e+00 4.441816662697082734e+02
2.115550043011182879e+00 4.442209352171002479e+02
2.115650069017944279e+00 4.442602293829875180e+02
2.115750095024706123e+00 4.442995501200476269e+02
2.115850121031467967e+00 4.443388987787407132e+02
2.115950147038229812e+00 4.443782767072450497e+02
2.116050173044991656e+00 4.444176852513895710e+02
2.116150199051753500e+00 4.444571257545904928e+02
2.116250225058515344e+00 4.444965995577851459e+02
2.116350251065276744e+00 4.445361079993687667e+02
2.116450277072038588e+00 4.445756524151274789e+02
2.116550303078800432e+00 4.446152341381765041e+02
2.116650329085562277e+00 4.446548544988939966e+02
2.116750355092324121e+00 4.446945148248576061e+02
2.116850381099085965e+00 4.447342164407816654e+02
2.116950407105847365e+00 4.447739606684517071e+02
2.117050433112609209e+00 4.448137488266626178e+02
2.117150459119371053e+00 4.448535822311540642e+02
2.117250485126132453e+00 4.448934621945496701e+02
2.117350511132894297e+00 4.449333900262915904e+02
2.117450537139656142e+00 4.449733670325794037e+02
2.117550563146417986e+00 4.450133945163074713e+02
2.117650589153179830e+00 4.450534737770034326e+02
2.117750615159941674e+00 4.450936061107642558e+02
2.117850641166703518e+00 4.451337928101972921e+02
2.117950667173464918e+00 4.451740351643565532e+02
2.118050693180226762e+00 4.452143344586826856e+02
2.118150719186988606e+00 4.452546919749412950e+02
2.118250745193750006e+00 4.452951089911619533e+02
2.118350771200511851e+00 4.453355867815786269e+02
2.118450797207273695e+00 4.453761266165687971e+02
2.118550823214035539e+00 4.454167297625927517e+02
2.118650849220797383e+00 4.454573974821348088e+02
2.118750875227559227e+00 4.454981310336423235e+02
2.118850901234320627e+00 4.455389316714684469e+02
2.118950927241082471e+00 4.455798006458104510e+02
2.119050953247844316e+00 4.456207392026527714e+02
2.119150979254606160e+00 4.456617485837080039e+02
2.119251005261367560e+00 4.457028300263564802e+02
2.119351031268129404e+00 4.457439847635914703e+02
2.119451057274891248e+00 4.457852140239602932e+02
2.119551083281653092e+00 4.458265190315039490e+02
2.119651109288414936e+00 4.458679010057035157e+02
2.119751135295176780e+00 4.459093611614216570e+02
2.119851161301938181e+00 4.459509007088443013e+02
2.119951187308700025e+00 4.459925208534264129e+02
2.120051213315461869e+00 4.460342227958350918e+02
2.120151239322223713e+00 4.460760077318918206e+02
2.120251265328985557e+00 4.461178768525198279e+02
2.120351291335747401e+00 4.461598313436853118e+02
2.120451317342508801e+00 4.462018723863453715e+02
2.120551343349270645e+00 4.462440011563900271e+02
2.120651369356032490e+00 4.462862188245908897e+02
2.120751395362794334e+00 4.463285265565428972e+02
2.120851421369555734e+00 4.463709255126149174e+02
2.120951447376317578e+00 4.464134168478913693e+02
2.121051473383079422e+00 4.464560017121229407e+02
2.121151499389841266e+00 4.464986812496699713e+02
2.121251525396603110e+00 4.465414565994508393e+02
2.121351551403364954e+00 4.465843288948906320e+02
2.121451577410126355e+00 4.466272992638671440e+02
2.121551603416888199e+00 4.466703688286591500e+02
2.121651629423650043e+00 4.467135387058960987e+02
2.121751655430411887e+00 4.467568100065042245e+02
2.121851681437173731e+00 4.468001838356570943e+02
2.121951707443935575e+00 4.468436612927260967e+02
2.122051733450697419e+00 4.468872434712277482e+02
2.122151759457458819e+00 4.469309314587731023e+02
2.122251785464220664e+00 4.469747263370211954e+02
2.122351811470982508e+00 4.470186291816251014e+02
2.122451837477743908e+00 4.470626410621870264e+02
2.122551863484505752e+00 4.471067630422064667e+02
2.122651889491267596e+00 4.471509961790329726e+02
2.122751915498029440e+00 4.471953415238168077e+02
2.122851941504791284e+00 4.472398001214622809e+02
2.122951967511553129e+00 4.472843730105796567e+02
2.123051993518314529e+00 4.473290612234376340e+02
2.123152019525076373e+00 4.473738657859157684e+02
2.123252045531838217e+00 4.474187877174599635e+02
2.123352071538599617e+00 4.474638280310331311e+02
2.123452097545361461e+00 4.475089877330730133e+02
2.123552123552123305e+00 4.475542678234422169e+02
2.123652149558885149e+00 4.475996692953867750e+02
2.123752175565646994e+00 4.476451931354891940e+02
2.123852201572408838e+00 4.476908403236231493e+02
2.123952227579170682e+00 4.477366118329115352e+02
2.124052253585932082e+00 4.477825086296810468e+02
2.124152279592693926e+00 4.478285316734183539e+02
2.124252305599455770e+00 4.478746819167271838e+02
2.124352331606217170e+00 4.479209603052858597e+02
2.124452357612979014e+00 4.479673677778048386e+02
2.124552383619740858e+00 4.480139052659832259e+02
2.124652409626502703e+00 4.480605736944681325e+02
2.124752435633264547e+00 4.481073739808131791e+02
2.124852461640026391e+00 4.481543070354364318e+02
2.124952487646788235e+00 4.482013737615802711e+02
2.125052513653549635e+00 4.482485750552709760e+02
2.125152539660311479e+00 4.482959118052795588e+02
2.125252565667073323e+00 4.483433848930792465e+02
2.125352591673835168e+00 4.483909951928084752e+02
2.125452617680597012e+00 4.484387435712323509e+02
2.125552643687358856e+00 4.484866308877018355e+02
2.125652669694120256e+00 4.485346579941170830e+02
2.125752695700882100e+00 4.485828257348888428e+02
2.125852721707643944e+00 4.486311349469016250e+02
2.125952747714405344e+00 4.486795864594757859e+02
2.126052773721167188e+00 4.487281810943309779e+02
2.126152799727929033e+00 4.487769196655502810e+02
2.126252825734690877e+00 4.488258029795432549e+02
2.126352851741452721e+00 4.488748318350100703e+02
2.126452877748214565e+00 4.489240070229079720e+02
2.126552903754976409e+00 4.489733293264143867e+02
2.126652929761737809e+00 4.490227995208938410e+02
2.126752955768499653e+00 4.490724183738624902e+02
2.126852981775261497e+00 4.491221866449549225e+02
2.126953007782023342e+00 4.491721050858911894e+02
2.127053033788785186e+00 4.492221744404425294e+02
2.127153059795547030e+00 4.492723954444004448e+02
2.127253085802308430e+00 4.493227688255431644e+02
2.127353111809070274e+00 4.493732953036042090e+02
2.127453137815832118e+00 4.494239755902401612e+02
2.127553163822593518e+00 4.494748103890013908e+02
2.127653189829355362e+00 4.495258003952986314e+02
2.127753215836117207e+00 4.495769462963752403e+02
2.127853241842879051e+00 4.496282487712752527e+02
2.127953267849640895e+00 4.496797084908155284e+02
2.128053293856402739e+00 4.497313261175553407e+02
2.128153319863164583e+00 4.497831023057683524e+02
2.128253345869925983e+00 4.498350377014126025e+02
2.128353371876687827e+00 4.498871329421060068e+02
2.128453397883449671e+00 4.499393886570935592e+02
2.128553423890211072e+00 4.499918054672261860e+02
2.128653449896972916e+00 4.500443839849287428e+02
2.128753475903734760e+00 4.500971248141768797e+02
2.128853501910496604e+00 4.501500285504683916e+02
2.128953527917258448e+00 4.502030957808016183e+02
2.129053553924020292e+00 4.502563270836448055e+02
2.129153579930781692e+00 4.503097230289163804e+02
2.129253605937543536e+00 4.503632841779564160e+02
2.129353631944305381e+00 4.504170110835059972e+02
2.129453657951067225e+00 4.504709042896817550e+02
2.129553683957828625e+00 4.505249643319526740e+02
2.129653709964590469e+00 4.505791917371175828e+02
2.129753735971352313e+00 4.506335870232833258e+02
2.129853761978114157e+00 4.506881506998419695e+02
2.129953787984876001e+00 4.507428832674491446e+02
2.130053813991637846e+00 4.507977852180034120e+02
2.130153839998399246e+00 4.508528570346253446e+02
2.130253866005161090e+00 4.509080991916363814e+02
2.130353892011922934e+00 4.509635121545408083e+02
2.130453918018684778e+00 4.510190963800033614e+02
2.130553944025446622e+00 4.510748523158328567e+02
2.130653970032208466e+00 4.511307804009610436e+02
2.130753996038970310e+00 4.511868810654266895e+02
2.130854022045731710e+00 4.512431547303550587e+02
2.130954048052493555e+00 4.512996018079426221e+02
2.131054074059255399e+00 4.513562227014382984e+02
2.131154100066016799e+00 4.514130178051279358e+02
2.131254126072778643e+00 4.514699875043168618e+02
2.131354152079540487e+00 4.515271321753165239e+02
2.131454178086302331e+00 4.515844521854243112e+02
2.131554204093064175e+00 4.516419478929134925e+02
2.131654230099826020e+00 4.516996196470165046e+02
2.131754256106587420e+00 4.517574677879092633e+02
2.131854282113349264e+00 4.518154926466994539e+02
2.131954308120111108e+00 4.518736945454128886e+02
2.132054334126872952e+00 4.519320737969794664e+02
2.132154360133634796e+00 4.519906307052208376e+02
2.132254386140396640e+00 4.520493655648391496e+02
2.132354412147158484e+00 4.521082786614046540e+02
2.132454438153919885e+00 4.521673702713441116e+02
2.132554464160681729e+00 4.522266406619304462e+02
2.132654490167443573e+00 4.522860900912714897e+02
2.132754516174204973e+00 4.523457188083012852e+02
2.132854542180966817e+00 4.524055270527682069e+02
2.132954568187728661e+00 4.524655150552276837e+02
2.133054594194490505e+00 4.525256830370327634e+02
2.133154620201252349e+00 4.525860312103249044e+02
2.133254646208014194e+00 4.526465597780271537e+02
2.133354672214775594e+00 4.527072689338355076e+02
2.133454698221537438e+00 4.527681588622125446e+02
2.133554724228299282e+00 4.528292297383796949e+02
2.133654750235061126e+00 4.528904817283117268e+02
2.133754776241822526e+00 4.529519149887307776e+02
2.133854802248584370e+00 4.530135296671004994e+02
2.133954828255346214e+00 4.530753259016200900e+02
2.134054854262108059e+00 4.531373038212208257e+02
2.134154880268869903e+00 4.531994635455622529e+02
2.134254906275631747e+00 4.532618051850269012e+02
2.134354932282393147e+00 4.533243288407164755e+02
2.134454958289154991e+00 4.533870346044515145e+02
2.134554984295916835e+00 4.534499225587650812e+02
2.134655010302678235e+00 4.535129927769036726e+02
2.134755036309440079e+00 4.535762453228227855e+02
2.134855062316201924e+00 4.536396802511881106e+02
2.134955088322963768e+00 4.537032976073728037e+02
2.135055114329725612e+00 4.537670974274570312e+02
2.135155140336487456e+00 4.538310797382283681e+02
2.135255166343249300e+00 4.538952445571816838e+02
2.135355192350010700e+00 4.539595918925202795e+02
2.135455218356772544e+00 4.540241217431562859e+02
2.135555244363534388e+00 4.540888340987121410e+02
2.135655270370296233e+00 4.541537289395231483e+02
2.135755296377058077e+00 4.542188062366394661e+02
2.135855322383819921e+00 4.542840659518283815e+02
2.135955348390581321e+00 4.543495080375778912e+02
2.136055374397343165e+00 4.544151324371002829e+02
2.136155400404105009e+00 4.544809390843361143e+02
2.136255426410866409e+00 4.545469279039575667e+02
2.136355452417628253e+00 4.546130988113742433e+02
2.136455478424390098e+00 4.546794517127390236e+02
2.136555504431151942e+00 4.547459865049507926e+02
2.136655530437913786e+00 4.548127030756632507e+02
2.136755556444675630e+00 4.548796013032911105e+02
2.136855582451437474e+00 4.549466810570141320e+02
2.136955608458198874e+00 4.550139421967872977e+02
2.137055634464960718e+00 4.550813845733471794e+02
2.137155660471722562e+00 4.551490080282205213e+02
2.137255686478484407e+00 4.552168123937304358e+02
2.137355712485246251e+00 4.552847974930090231e+02
2.137455738492008095e+00 4.553529631400023163e+02
2.137555764498769495e+00 4.554213091394839239e+02
2.137655790505531339e+00 4.554898352870611120e+02
2.137755816512293183e+00 4.555585413691892427e+02
2.137855842519055027e+00 4.556274271631775150e+02
2.137955868525816427e+00 4.556964924372058476e+02
2.138055894532578272e+00 4.557657369503326095e+02
2.138155920539340116e+00 4.558351604525068410e+02
2.138255946546101960e+00 4.559047626845823515e+02
2.138355972552863804e+00 4.559745433783289172e+02
2.138455998559625648e+00 4.560445022564467195e+02
2.138556024566387048e+00 4.561146390325778270e+02
2.138656050573148892e+00 4.561849534113236473e+02
2.138756076579910737e+00 4.562554450882549872e+02
2.138856102586672137e+00 4.563261137499291635e+02
2.138956128593433981e+00 4.563969590739067144e+02
2.139056154600195825e+00 4.564679807287624271e+02
2.139156180606957669e+00 4.565391783741048357e+02
2.139256206613719513e+00 4.566105516605922503e+02
2.139356232620481357e+00 4.566821002299465135e+02
2.139456258627243201e+00 4.567538237149740894e+02
2.139556284634004601e+00 4.568257217395802172e+02
2.139656310640766446e+00 4.568977939187882384e+02
2.139756336647528290e+00 4.569700398587574455e+02
2.139856362654289690e+00 4.570424591568018400e+02
2.139956388661051534e+00 4.571150514014082660e+02
2.140056414667813378e+00 4.571878161722563618e+02
