9.000980215647441662e-01 5.144329992683864248e+02
9.001980435695853267e-01 5.144304063340279072e+02
9.002980655744263760e-01 5.144278300316384502e+02
9.003980875792673144e-01 5.144252702889627926e+02
9.004981095841084748e-01 5.144227270337009941e+02
9.005981315889495242e-01 5.144202001935137787e+02
9.006981535937905736e-01 5.144176896960242402e+02
9.007981755986316230e-01 5.144151954688229580e+02
9.008981976034726724e-01 5.144127174394703843e+02
9.009982196083138328e-01 5.144102555355024151e+02
9.010982416131547712e-01 5.144078096844316406e+02
9.011982636179959316e-01 5.144053798137532567e+02
9.012982856228369810e-01 5.144029658509476803e+02
9.013983076276779194e-01 5.144005677234830500e+02
9.014983296325190798e-01 5.143981853588219337e+02
9.015983516373602402e-01 5.143958186844225793e+02
9.016983736422012896e-01 5.143934676277431208e+02
9.017983956470422280e-01 5.143911321162453305e+02
9.018984176518833884e-01 5.143888120773998480e+02
9.019984396567244378e-01 5.143865074386861806e+02
9.020984616615654872e-01 5.143842181276017982e+02
9.021984836664065366e-01 5.143819440716599729e+02
9.022985056712475860e-01 5.143796851983979650e+02
9.023985276760886354e-01 5.143774414353789552e+02
9.024985496809296848e-01 5.143752127101953420e+02
9.025985716857708452e-01 5.143729989504738569e+02
9.026985936906118946e-01 5.143708000838781800e+02
9.027986156954528330e-01 5.143686160381129184e+02
9.028986377002939934e-01 5.143664467409278132e+02
9.029986597051351538e-01 5.143642921201203535e+02
9.030986817099760922e-01 5.143621521035414617e+02
9.031987037148171416e-01 5.143600266190969705e+02
9.032987257196583020e-01 5.143579155947525123e+02
9.033987477244993514e-01 5.143558189585382934e+02
9.034987697293404008e-01 5.143537366385498899e+02
9.035987917341814502e-01 5.143516685629558651e+02
9.036988137390224995e-01 5.143496146599983376e+02
9.037988357438635489e-01 5.143475748579973015e+02
9.038988577487045983e-01 5.143455490853566516e+02
9.039988797535457588e-01 5.143435372705646387e+02
9.040989017583868081e-01 5.143415393421995532e+02
9.041989237632277465e-01 5.143395552289349553e+02
9.042989457680689069e-01 5.143375848595383104e+02
9.043989677729100674e-01 5.143356281628804254e+02
9.044989897777510057e-01 5.143336850679362442e+02
9.045990117825920551e-01 5.143317555037883722e+02
9.046990337874332155e-01 5.143298393996333289e+02
9.047990557922742649e-01 5.143279366847818892e+02
9.048990777971153143e-01 5.143260472886643129e+02
9.049990998019563637e-01 5.143241711408361425e+02
9.050991218067974131e-01 5.143223081709784310e+02
9.051991438116384625e-01 5.143204583089029711e+02
9.052991658164795119e-01 5.143186214845579798e+02
9.053991878213206723e-01 5.143167976280285529e+02
9.054992098261617217e-01 5.143149866695413266e+02
9.055992318310026601e-01 5.143131885394700475e+02
9.056992538358438205e-01 5.143114031683385292e+02
9.057992758406849809e-01 5.143096304868215611e+02
9.058992978455259193e-01 5.143078704257529807e+02
9.059993198503669687e-01 5.143061229161265828e+02
9.060993418552081291e-01 5.143043878891007807e+02
9.061993638600491785e-01 5.143026652760019033e+02
9.062993858648902279e-01 5.143009550083284012e+02
9.063994078697312773e-01 5.142992570177541438e+02
9.064994298745723267e-01 5.142975712361317164e+02
9.065994518794133761e-01 5.142958975954991274e+02
9.066994738842544255e-01 5.142942360280779894e+02
9.067994958890955859e-01 5.142925864662815911e+02
9.068995178939366353e-01 5.142909488427176257e+02
9.069995398987775737e-01 5.142893230901912602e+02
9.070995619036187341e-01 5.142877091417093425e+02
9.071995839084598945e-01 5.142861069304830153e+02
9.072996059133008329e-01 5.142845163899329464e+02
9.073996279181418823e-01 5.142829374536919431e+02
9.074996499229830427e-01 5.142813700556101821e+02
9.075996719278240921e-01 5.142798141297550956e+02
9.076996939326651415e-01 5.142782696104197839e+02
9.077997159375061909e-01 5.142767364321232435e+02
9.078997379423472402e-01 5.142752145296159370e+02
9.079997599471882896e-01 5.142737038378822945e+02
9.080997819520293390e-01 5.142722042921448065e+02
9.081998039568704995e-01 5.142707158278670931e+02
9.082998259617115488e-01 5.142692383807584520e+02
9.083998479665524872e-01 5.142677718867774956e+02
9.084998699713936476e-01 5.142663162821345395e+02
9.085998919762348081e-01 5.142648715032959217e+02
9.086999139810757464e-01 5.142634374869884368e+02
9.087999359859167958e-01 5.142620141701997909e+02
9.088999579907579562e-01 5.142606014901882645e+02
9.089999799955990056e-01 5.142591993844790750e+02
9.091000020004400550e-01 5.142578077908723344e+02
9.092000240052811044e-01 5.142564266474469150e+02
9.093000460101221538e-01 5.142550558925612449e+02
9.094000680149632032e-01 5.142536954648583105e+02
9.095000900198042526e-01 5.142523453032699763e+02
9.096001120246454130e-01 5.142510053470188041e+02
9.097001340294864624e-01 5.142496755356231688e+02
9.098001560343274008e-01 5.142483558088998734e+02
9.099001780391685612e-01 5.142470461069673320e+02
9.100002000440097216e-01 5.142457463702503446e+02
9.101002220488506600e-01 5.142444565394819165e+02
9.102002440536917094e-01 5.142431765557080325e+02
9.103002660585328698e-01 5.142419063602907272e+02
9.104002880633739192e-01 5.142406458949105854e+02
9.105003100682149686e-01 5.142393951015727680e+02
9.106003320730560180e-01 5.142381539226067844e+02
9.107003540778970674e-01 5.142369223006732000e+02
9.108003760827381168e-01 5.142357001787650006e+02
9.109003980875791662e-01 5.142344875002122535e+02
9.110004200924203266e-01 5.142332842086838127e+02
9.111004420972612650e-01 5.142320902481930034e+02
9.112004641021023144e-01 5.142309055630992134e+02
9.113004861069434748e-01 5.142297300981115313e+02
9.114005081117846352e-01 5.142285637982934077e+02
9.115005301166255736e-01 5.142274066090633369e+02
9.116005521214666230e-01 5.142262584762015649e+02
9.117005741263077834e-01 5.142251193458494072e+02
9.118005961311487217e-01 5.142239891645174339e+02
9.119006181359898822e-01 5.142228678790842196e+02
9.120006401408309316e-01 5.142217554368011179e+02
9.121006621456719810e-01 5.142206517852977186e+02
9.122006841505130303e-01 5.142195568725817338e+02
9.123007061553540797e-01 5.142184706470441142e+02
9.124007281601952402e-01 5.142173930574620044e+02
9.125007501650361785e-01 5.142163240530019266e+02
9.126007721698772279e-01 5.142152635832221677e+02
9.127007941747183883e-01 5.142142115980781227e+02
9.128008161795595488e-01 5.142131680479225224e+02
9.129008381844004871e-01 5.142121328835114582e+02
9.130008601892415365e-01 5.142111060560044962e+02
9.131008821940826969e-01 5.142100875169710434e+02
9.132009041989236353e-01 5.142090772183906893e+02
9.133009262037647957e-01 5.142080751126588893e+02
9.134009482086058451e-01 5.142070811525873069e+02
9.135009702134468945e-01 5.142060952914080190e+02
9.136009922182879439e-01 5.142051174827792011e+02
9.137010142231289933e-01 5.142041476807829667e+02
9.138010362279701537e-01 5.142031858399324165e+02
9.139010582328110921e-01 5.142022319151735701e+02
9.140010802376521415e-01 5.142012858618875271e+02
9.141011022424933019e-01 5.142003476358960370e+02
9.142011242473344623e-01 5.141994171934588849e+02
9.143011462521754007e-01 5.141984944912842366e+02
9.144011682570164501e-01 5.141975794865256830e+02
9.145011902618576105e-01 5.141966721367889477e+02
9.146012122666985489e-01 5.141957724001312044e+02
9.147012342715397093e-01 5.141948802350674441e+02
9.148012562763807587e-01 5.141939956005717249e+02
9.149012782812218081e-01 5.141931184560794463e+02
9.150013002860628575e-01 5.141922487614912143e+02
9.151013222909039069e-01 5.141913864771761382e+02
9.152013442957450673e-01 5.141905315639717173e+02
9.153013663005860057e-01 5.141896839831914576e+02
9.154013883054270551e-01 5.141888436966227118e+02
9.155014103102682155e-01 5.141880106665331596e+02
9.156014323151093759e-01 5.141871848556711484e+02
9.157014543199503143e-01 5.141863662272689908e+02
9.158014763247913637e-01 5.141855547450469430e+02
9.159014983296325241e-01 5.141847503732152518e+02
9.160015203344734624e-01 5.141839530764744950e+02
9.161015423393146229e-01 5.141831628200220621e+02
9.162015643441556723e-01 5.141823795695519266e+02
9.163015863489967217e-01 5.141816032912591936e+02
9.164016083538377710e-01 5.141808339518407820e+02
9.165016303586788204e-01 5.141800715184991759e+02
9.166016523635199809e-01 5.141793159589462903e+02
9.167016743683609192e-01 5.141785672414014243e+02
9.168016963732019686e-01 5.141778253345997882e+02
9.169017183780431290e-01 5.141770902077910250e+02
9.170017403828842895e-01 5.141763618307418255e+02
9.171017623877252278e-01 5.141756401737401347e+02
9.172017843925662772e-01 5.141749252075969707e+02
9.173018063974074376e-01 5.141742169036484711e+02
9.174018284022483760e-01 5.141735152337581667e+02
9.175018504070895364e-01 5.141728201703193690e+02
9.176018724119305858e-01 5.141721316862583535e+02
9.177018944167716352e-01 5.141714497550357237e+02
9.178019164216126846e-01 5.141707743506497081e+02
9.179019384264537340e-01 5.141701054476366153e+02
9.180019604312948944e-01 5.141694430210764040e+02
9.181019824361358328e-01 5.141687870465905235e+02
9.182020044409768822e-01 5.141681375003489620e+02
9.183020264458180426e-01 5.141674943590678595e+02
9.184020484506592030e-01 5.141668576000153053e+02
9.185020704555001414e-01 5.141662272010112247e+02
9.186020924603411908e-01 5.141656031404315854e+02
9.187021144651823512e-01 5.141649853972077153e+02
9.188021364700232896e-01 5.141643739508307362e+02
9.189021584748644500e-01 5.141637687813534967e+02
9.190021804797054994e-01 5.141631698693911403e+02
9.191022024845465488e-01 5.141625771961249711e+02
9.192022244893875982e-01 5.141619907433030221e+02
9.193022464942286476e-01 5.141614104932422151e+02
9.194022684990698080e-01 5.141608364288318853e+02
9.195022905039107464e-01 5.141602685335330989e+02
9.196023125087517958e-01 5.141597067913841101e+02
9.197023345135929562e-01 5.141591511869980877e+02
9.198023565184338945e-01 5.141586017055676621e+02
9.199023785232750550e-01 5.141580583328674265e+02
9.200024005281161044e-01 5.141575210552532553e+02
9.201024225329572648e-01 5.141569898596661687e+02
9.202024445377982032e-01 5.141564647336333564e+02
9.203024665426393636e-01 5.141559456652695417e+02
9.204024885474804130e-01 5.141554326432799371e+02
9.205025105523213513e-01 5.141549256569606996e+02
9.206025325571625118e-01 5.141544246962006355e+02
9.207025545620035611e-01 5.141539297514851796e+02
9.208025765668447216e-01 5.141534408138942354e+02
9.209025985716856599e-01 5.141529578751069494e+02
9.210026205765267093e-01 5.141524809274019390e+02
9.211026425813678697e-01 5.141520099636588839e+02
9.212026645862088081e-01 5.141515449773606861e+02
9.213026865910499685e-01 5.141510859625947205e+02
9.214027085958910179e-01 5.141506329140531761e+02
9.215027306007321783e-01 5.141501858270371486e+02
9.216027526055731167e-01 5.141497446974553895e+02
9.217027746104142771e-01 5.141493095218270355e+02
9.218027966152553265e-01 5.141488802972830854e+02
9.219028186200962649e-01 5.141484570215684471e+02
9.220028406249374253e-01 5.141480396930401184e+02
9.221028626297784747e-01 5.141476283106734400e+02
9.222028846346196351e-01 5.141472228740591390e+02
9.223029066394605735e-01 5.141468233834058310e+02
9.224029286443016229e-01 5.141464298395435435e+02
9.225029506491427833e-01 5.141460422439212152e+02
9.226029726539837217e-01 5.141456605986109025e+02
9.227029946588248821e-01 5.141452849063068697e+02
9.228030166636659315e-01 5.141449151703286589e+02
9.229030386685070919e-01 5.141445513946206347e+02
9.230030606733480303e-01 5.141441935837538040e+02
9.231030826781891907e-01 5.141438417429263836e+02
9.232031046830302401e-01 5.141434958779660747e+02
9.233031266878711785e-01 5.141431559953291526e+02
9.234031486927123389e-01 5.141428221021039917e+02
9.235031706975533883e-01 5.141424942060087915e+02
9.236031927023945487e-01 5.141421723153956691e+02
9.237032147072354871e-01 5.141418564392490680e+02
9.238032367120765365e-01 5.141415465871885999e+02
9.239032587169176969e-01 5.141412427694691587e+02
9.240032807217586353e-01 5.141409449969814887e+02
9.241033027265997957e-01 5.141406532812527530e+02
9.242033247314408451e-01 5.141403676344480118e+02
9.243033467362820055e-01 5.141400880693703357e+02
9.244033687411229439e-01 5.141398145994628521e+02
9.245033907459641043e-01 5.141395472388071539e+02
9.246034127508051537e-01 5.141392860021263687e+02
9.247034347556460920e-01 5.141390309047843630e+02
9.248034567604872525e-01 5.141387819627865383e+02
9.249034787653283018e-01 5.141385391927801720e+02
9.250035007701694623e-01 5.141383026120569184e+02
9.251035227750104006e-01 5.141380722385499666e+02
9.252035447798514500e-01 5.141378480908371102e+02
9.253035667846926104e-01 5.141376301881413156e+02
9.254035887895335488e-01 5.141374185503285617e+02
9.255036107943747092e-01 5.141372131979117057e+02
9.256036327992157586e-01 5.141370141520488914e+02
9.257036548040569190e-01 5.141368214345432079e+02
9.258036768088978574e-01 5.141366350678453045e+02
9.259036988137390178e-01 5.141364550750513445e+02
9.260037208185800672e-01 5.141362814799051648e+02
9.261037428234210056e-01 5.141361143067981629e+02
9.262037648282621660e-01 5.141359535807674774e+02
9.263037868331032154e-01 5.141357993274987166e+02
9.264038088379443758e-01 5.141356515733257311e+02
9.265038308427853142e-01 5.141355103452294770e+02
9.266038528476263636e-01 5.141353756708391529e+02
9.267038748524675240e-01 5.141352475784321996e+02
9.268038968573084624e-01 5.141351260969330497e+02
9.269039188621496228e-01 5.141350112559156287e+02
9.270039408669906722e-01 5.141349030856014224e+02
9.271039628718318326e-01 5.141348016168594768e+02
9.272039848766727710e-01 5.141347068812075349e+02
9.273040068815139314e-01 5.141346189108109002e+02
9.274040288863549808e-01 5.141345377384827771e+02
9.275040508911959192e-01 5.141344633976833620e+02
9.276040728960370796e-01 5.141343959225218896e+02
9.277040949008781290e-01 5.141343353477523124e+02
9.278041169057192894e-01 5.141342817087781896e+02
9.279041389105602278e-01 5.141342350416473437e+02
9.280041609154012772e-01 5.141341953830566354e+02
9.281041829202424376e-01 5.141341627703469612e+02
9.282042049250833760e-01 5.141341372415054138e+02
9.283042269299245364e-01 5.141341188351643723e+02
9.284042489347655858e-01 5.141341075906012748e+02
9.285042709396065241e-01 5.141341035477383912e+02
9.286042929444476846e-01 5.141341067471419137e+02
9.287043149492888450e-01 5.141341172300204789e+02
9.288043369541298944e-01 5.141341350382267592e+02
9.289043589589708327e-01 5.141341602142557576e+02
9.290043809638119932e-01 5.141341928012436711e+02
9.291044029686530425e-01 5.141342328429674353e+02
9.292044249734940919e-01 5.141342803838469990e+02
9.293044469783351413e-01 5.141343354689382750e+02
9.294044689831761907e-01 5.141343981439399613e+02
9.295044909880173511e-01 5.141344684551871751e+02
9.296045129928582895e-01 5.141345464496520208e+02
9.297045349976994499e-01 5.141346321749458639e+02
9.298045570025404993e-01 5.141347256793126235e+02
9.299045790073814377e-01 5.141348270116346839e+02
9.300046010122225981e-01 5.141349362214267558e+02
9.301046230170637585e-01 5.141350533588370126e+02
9.302046450219048079e-01 5.141351784746464091e+02
9.303046670267457463e-01 5.141353116202662932e+02
9.304046890315869067e-01 5.141354528477398844e+02
9.305047110364279561e-01 5.141356022097382947e+02
9.306047330412690055e-01 5.141357597595615516e+02
9.307047550461100549e-01 5.141359255511371202e+02
9.308047770509511043e-01 5.141360996390169475e+02
9.309047990557922647e-01 5.141362820783793950e+02
9.310048210606332031e-01 5.141364729250268510e+02
9.311048430654743635e-01 5.141366722353814112e+02
9.312048650703154129e-01 5.141368800664894252e+02
9.313048870751563513e-01 5.141370964760150173e+02
9.314049090799975117e-01 5.141373215222425870e+02
9.315049310848386721e-01 5.141375552640715796e+02
9.316049530896797215e-01 5.141377977610194421e+02
9.317049750945206599e-01 5.141380490732171893e+02
9.318049970993618203e-01 5.141383092614081534e+02
9.319050191042028697e-01 5.141385783869490069e+02
9.320050411090439191e-01 5.141388565118045335e+02
9.321050631138849685e-01 5.141391436985493328e+02
9.322050851187260179e-01 5.141394400103650923e+02
9.323051071235671783e-01 5.141397455110380861e+02
9.324051291284081167e-01 5.141400602649583789e+02
9.325051511332492771e-01 5.141403843371197127e+02
9.326051731380903265e-01 5.141407177931145043e+02
9.327051951429312648e-01 5.141410606991343002e+02
9.328052171477724253e-01 5.141414131219696628e+02
9.329052391526135857e-01 5.141417751290039178e+02
9.330052611574546351e-01 5.141421467882153138e+02
9.331052831622955734e-01 5.141425281681731576e+02
9.332053051671367339e-01 5.141429193380373590e+02
9.333053271719777833e-01 5.141433203675551340e+02
9.334053491768188326e-01 5.141437313270604363e+02
9.335053711816598820e-01 5.141441522874707744e+02
9.336053931865009314e-01 5.141445833202863014e+02
9.337054151913420919e-01 5.141450244975865189e+02
9.338054371961830302e-01 5.141454758920301629e+02
9.339054592010241906e-01 5.141459375768515656e+02
9.340054812058652400e-01 5.141464096258588370e+02
9.341055032107061784e-01 5.141468921134326138e+02
9.342055252155473388e-01 5.141473851145228764e+02
9.343055472203884992e-01 5.141478887046464479e+02
9.344055692252295486e-01 5.141484029598873349e+02
9.345055912300704870e-01 5.141489279568910433e+02
9.346056132349116474e-01 5.141494637728650332e+02
9.347056352397526968e-01 5.141500104855745121e+02
9.348056572445937462e-01 5.141505681733417532e+02
9.349056792494347956e-01 5.141511369150425708e+02
9.350057012542758450e-01 5.141517167901042740e+02
9.351057232591170054e-01 5.141523078785033931e+02
9.352057452639579438e-01 5.141529102607632922e+02
9.353057672687991042e-01 5.141535240179513266e+02
9.354057892736401536e-01 5.141541492316767972e+02
9.355058112784810920e-01 5.141547859840885621e+02
9.356058332833222524e-01 5.141554343578709450e+02
9.357058552881634128e-01 5.141560944362440750e+02
9.358058772930044622e-01 5.141567663029587720e+02
9.359058992978454006e-01 5.141574500422942720e+02
9.360059213026865610e-01 5.141581457390564083e+02
9.361059433075276104e-01 5.141588534785751108e+02
9.362059653123686598e-01 5.141595733466992897e+02
9.363059873172097092e-01 5.141603054297981998e+02
9.364060093220507586e-01 5.141610498147551880e+02
9.365060313268919190e-01 5.141618065889651916e+02
9.366060533317328574e-01 5.141625758403342843e+02
9.367060753365740178e-01 5.141633576572746733e+02
9.368060973414150672e-01 5.141641521287018577e+02
9.369061193462560055e-01 5.141649593440331500e+02
9.370061413510971660e-01 5.141657793931835840e+02
9.371061633559383264e-01 5.141666123665626174e+02
9.372061853607792647e-01 5.141674583550727675e+02
9.373062073656203141e-01 5.141683174501040412e+02
9.374062293704614746e-01 5.141691897435337069e+02
9.375062513753025240e-01 5.141700753277214062e+02
9.376062733801435733e-01 5.141709742955065394e+02
9.377062953849846227e-01 5.141718867402043998e+02
9.378063173898256721e-01 5.141728127556049230e+02
9.379063393946667215e-01 5.141737524359671170e+02
9.380063613995077709e-01 5.141747058760171285e+02
9.381063834043489313e-01 5.141756731709458563e+02
9.382064054091899807e-01 5.141766544164038351e+02
9.383064274140309191e-01 5.141776497084981656e+02
9.384064494188720795e-01 5.141786591437908100e+02
9.385064714237132399e-01 5.141796828192930207e+02
9.386064934285541783e-01 5.141807208324657950e+02
9.387065154333952277e-01 5.141817732812096438e+02
9.388065374382363881e-01 5.141828402638686839e+02
9.389065594430774375e-01 5.141839218792225665e+02
9.390065814479184869e-01 5.141850182264837485e+02
9.391066034527595363e-01 5.141861294052953326e+02
9.392066254576005857e-01 5.141872555157259512e+02
9.393066474624416351e-01 5.141883966582671519e+02
9.394066694672826845e-01 5.141895529338302140e+02
9.395066914721238449e-01 5.141907244437397821e+02
9.396067134769648943e-01 5.141919112897345485e+02
9.397067354818058327e-01 5.141931135739607726e+02
9.398067574866469931e-01 5.141943313989673925e+02
9.399067794914881535e-01 5.141955648677064801e+02
9.400068014963290919e-01 5.141968140835253962e+02
9.401068235011701413e-01 5.141980791501648582e+02
9.402068455060113017e-01 5.141993601717557567e+02
9.403068675108523511e-01 5.142006572528136985e+02
9.404068895156934005e-01 5.142019704982362782e+02
9.405069115205344499e-01 5.142033000132988718e+02
9.406069335253754993e-01 5.142046459036507713e+02
9.407069555302165487e-01 5.142060082753115466e+02
9.408069775350575981e-01 5.142073872346658163e+02
9.409069995398987585e-01 5.142087828884622240e+02
9.410070215447398079e-01 5.142101953438044575e+02
9.411070435495807462e-01 5.142116247081535221e+02
9.412070655544219067e-01 5.142130710893177366e+02
9.413070875592630671e-01 5.142145345954535287e+02
9.414071095641040055e-01 5.142160153350574774e+02
9.415071315689450548e-01 5.142175134169652893e+02
9.416071535737862153e-01 5.142190289503447502e+02
9.417071755786272647e-01 5.142205620446945886e+02
9.418071975834683141e-01 5.142221128098375402e+02
9.419072195883093634e-01 5.142236813559181883e+02
9.420072415931504128e-01 5.142252677933977338e+02
9.421072635979914622e-01 5.142268722330493347e+02
9.422072856028325116e-01 5.142284947859558315e+02
9.423073076076736720e-01 5.142301355635019036e+02
9.424073296125147214e-01 5.142317946773744097e+02
9.425073516173556598e-01 5.142334722395532935e+02
9.426073736221968202e-01 5.142351683623106737e+02
9.427073956270379806e-01 5.142368831582045914e+02
9.428074176318789190e-01 5.142386167400755994e+02
9.429074396367199684e-01 5.142403692210422150e+02
9.430074616415611288e-01 5.142421407144955765e+02
9.431074836464021782e-01 5.142439313340956915e+02
9.432075056512432276e-01 5.142457411937670031e+02
9.433075276560842770e-01 5.142475704076942975e+02
9.434075496609253264e-01 5.142494190903162234e+02
9.435075716657663758e-01 5.142512873563231324e+02
9.436075936706074252e-01 5.142531753206517351e+02
9.437076156754485856e-01 5.142550830984787353e+02
9.438076376802896350e-01 5.142570108052188971e+02
9.439076596851305734e-01 5.142589585565191328e+02
9.440076816899717338e-01 5.142609264682533876e+02
9.441077036948128942e-01 5.142629146565186602e+02
9.442077256996538326e-01 5.142649232376300006e+02
9.443077477044948820e-01 5.142669523281163038e+02
9.444077697093360424e-01 5.142690020447143979e+02
9.445077917141770918e-01 5.142710725043662023e+02
9.446078137190181412e-01 5.142731638242116787e+02
9.447078357238591906e-01 5.142752761215856481e+02
9.448078577287002400e-01 5.142774095140113104e+02
9.449078797335412894e-01 5.142795641191987670e+02
9.450079017383823388e-01 5.142817400550363800e+02
9.451079237432234992e-01 5.142839374395871346e+02
9.452079457480645486e-01 5.142861563910854557e+02
9.453079677529054869e-01 5.142883970279298183e+02
9.454079897577466474e-01 5.142906594686788821e+02
9.455080117625878078e-01 5.142929438320475128e+02
9.456080337674287462e-01 5.142952502368991645e+02
9.457080557722697955e-01 5.142975788022444021e+02
9.458080777771109560e-01 5.142999296472332844e+02
9.459080997819518943e-01 5.143023028911517258e+02
9.460081217867930548e-01 5.143046986534136522e+02
9.461081437916341041e-01 5.143071170535612282e+02
9.462081657964751535e-01 5.143095582112548527e+02
9.463081878013162029e-01 5.143120222462705442e+02
9.464082098061572523e-01 5.143145092784939152e+02
9.465082318109984127e-01 5.143170194279159659e+02
9.466082538158393511e-01 5.143195528146266042e+02
9.467082758206804005e-01 5.143221095588111211e+02
9.468082978255215609e-01 5.143246897807430287e+02
9.469083198303627213e-01 5.143272936007813314e+02
9.470083418352036597e-01 5.143299211393627957e+02
9.471083638400447091e-01 5.143325725169985390e+02
9.472083858448858695e-01 5.143352478542683457e+02
9.473084078497268079e-01 5.143379472718146417e+02
9.474084298545679683e-01 5.143406708903387425e+02
9.475084518594090177e-01 5.143434188305942598e+02
9.476084738642500671e-01 5.143461912133819851e+02
9.477084958690911165e-01 5.143489881595453426e+02
9.478085178739321659e-01 5.143518097899639088e+02
9.479085398787733263e-01 5.143546562255496610e+02
9.480085618836142647e-01 5.143575275872406110e+02
9.481085838884553141e-01 5.143604239959946653e+02
9.482086058932964745e-01 5.143633455727864430e+02
9.483086278981376349e-01 5.143662924385996575e+02
9.484086499029785733e-01 5.143692647144233661e+02
9.485086719078196227e-01 5.143722625212454886e+02
9.486086939126607831e-01 5.143752859800476926e+02
9.487087159175017215e-01 5.143783352118005041e+02
9.488087379223428819e-01 5.143814103374566002e+02
9.489087599271839313e-01 5.143845114779472851e+02
9.490087819320249807e-01 5.143876387541754411e+02
9.491088039368660301e-01 5.143907922870100720e+02
9.492088259417070795e-01 5.143939721972814141e+02
9.493088479465482399e-01 5.143971786057762756e+02
9.494088699513891783e-01 5.144004116332298508e+02
9.495088919562302276e-01 5.144036714003227644e+02
9.496089139610713881e-01 5.144069580276751594e+02
9.497089359659125485e-01 5.144102716358398766e+02
9.498089579707534869e-01 5.144136123452975653e+02
9.499089799755945362e-01 5.144169802764513406e+02
9.500090019804356967e-01 5.144203755496218946e+02
9.501090239852766350e-01 5.144237982850393109e+02
9.502090459901177955e-01 5.144272486028414733e+02
9.503090679949588448e-01 5.144307266230649702e+02
9.504090899997998942e-01 5.144342324656402070e+02
9.505091120046409436e-01 5.144377662503873125e+02
9.506091340094819930e-01 5.144413280970095457e+02
9.507091560143231534e-01 5.144449181250872698e+02
9.508091780191640918e-01 5.144485364540726096e+02
9.509092000240051412e-01 5.144521832032843349e+02
9.510092220288463016e-01 5.144558584919012674e+02
9.511092440336874620e-01 5.144595624389570503e+02
9.512092660385284004e-01 5.144632951633352604e+02
9.513092880433694498e-01 5.144670567837615636e+02
9.514093100482106102e-01 5.144708474188014407e+02
9.515093320530515486e-01 5.144746671868500698e+02
9.516093540578927090e-01 5.144785162061313031e+02
9.517093760627337584e-01 5.144823945946878894e+02
9.518093980675748078e-01 5.144863024703789733e+02
9.519094200724158572e-01 5.144902399508717963e+02
9.520094420772569066e-01 5.144942071536380581e+02
9.521094640820980670e-01 5.144982041959472099e+02
9.522094860869390054e-01 5.145022311948592915e+02
9.523095080917800548e-01 5.145062882672226579e+02
9.524095300966212152e-01 5.145103755296653389e+02
9.525095521014623756e-01 5.145144930985902647e+02
9.526095741063033140e-01 5.145186410901687850e+02
9.527095961111443634e-01 5.145228196203366906e+02
9.528096181159855238e-01 5.145270288047868235e+02
9.529096401208264622e-01 5.145312687589633924e+02
9.530096621256676226e-01 5.145355395980577669e+02
9.531096841305086720e-01 5.145398414369992679e+02
9.532097061353497214e-01 5.145441743904543728e+02
9.533097281401907708e-01 5.145485385728168239e+02
9.534097501450318202e-01 5.145529340982033091e+02
9.535097721498729806e-01 5.145573610804474356e+02
9.536097941547139190e-01 5.145618196330946148e+02
9.537098161595549684e-01 5.145663098693954680e+02
9.538098381643961288e-01 5.145708319023008244e+02
9.539098601692372892e-01 5.145753858444547859e+02
9.540098821740782276e-01 5.145799718081899528e+02
9.541099041789192770e-01 5.145845899055211703e+02
9.542099261837604374e-01 5.145892402481396175e+02
9.543099481886013757e-01 5.145939229474080321e+02
9.544099701934425362e-01 5.145986381143529798e+02
9.545099921982835856e-01 5.146033858596611026e+02
9.546100142031245239e-01 5.146081662936717294e+02
9.547100362079656843e-01 5.146129795263718734e+02
9.548100582128067337e-01 5.146178256673917986e+02
9.549100802176478942e-01 5.146227048259947878e+02
9.550101022224888325e-01 5.146276171110766882e+02
9.551101242273298819e-01 5.146325626311572705e+02
9.552101462321710423e-01 5.146375414943734086e+02
9.553101682370119807e-01 5.146425538084768050e+02
9.554101902418531411e-01 5.146475996808255786e+02
9.555102122466941905e-01 5.146526792183776706e+02
9.556102342515353509e-01 5.146577925276894803e+02
9.557102562563762893e-01 5.146629397149026772e+02
9.558102782612174497e-01 5.146681208857464753e+02
9.559103002660584991e-01 5.146733361455267186e+02
9.560103222708994375e-01 5.146785855991225844e+02
9.561103442757405979e-01 5.146838693509777158e+02
9.562103662805816473e-01 5.146891875050980616e+02
9.563103882854228077e-01 5.146945401650444865e+02
9.564104102902637461e-01 5.146999274339267458e+02
9.565104322951047955e-01 5.147053494143983698e+02
9.566104542999459559e-01 5.147108062086504106e+02
9.567104763047868943e-01 5.147162979184055303e+02
9.568104983096280547e-01 5.147218246449140224e+02
9.569105203144691041e-01 5.147273864889447168e+02
9.570105423193102645e-01 5.147329835507829330e+02
9.571105643241512029e-01 5.147386159302220676e+02
9.572105863289923633e-01 5.147442837265592743e+02
9.573106083338334127e-01 5.147499870385893246e+02
9.574106303386743511e-01 5.147557259645983549e+02
9.575106523435155115e-01 5.147615006023595470e+02
9.576106743483565609e-01 5.147673110491258512e+02
9.577106963531977213e-01 5.147731574016257809e+02
9.578107183580386597e-01 5.147790397560563633e+02
9.579107403628797091e-01 5.147849582080784785e+02
9.580107623677208695e-01 5.147909128528103793e+02
9.581107843725618078e-01 5.147969037848231437e+02
9.582108063774029683e-01 5.148029310981337403e+02
9.583108283822440177e-01 5.148089948862008214e+02
9.584108503870851781e-01 5.148150952419171063e+02
9.585108723919261164e-01 5.148212322576059705e+02
9.586108943967672769e-01 5.148274060250143975e+02
9.587109164016083263e-01 5.148336166353069530e+02
9.588109384064492646e-01 5.148398641790629426e+02
9.589109604112904250e-01 5.148461487462672039e+02
9.590109824161314744e-01 5.148524704263068088e+02
9.591110044209726349e-01 5.148588293079645837e+02
9.592110264258135732e-01 5.148652254794146756e+02
9.593110484306546226e-01 5.148716590282149355e+02
9.594110704354957830e-01 5.148781300413039617e+02
9.595110924403367214e-01 5.148846386049940520e+02
9.596111144451778818e-01 5.148911848049646096e+02
9.597111364500189312e-01 5.148977687262595282e+02
9.598111584548600916e-01 5.149043904532795750e+02
9.599111804597010300e-01 5.149110500697769339e+02
9.600112024645421904e-01 5.149177476588509990e+02
9.601112244693832398e-01 5.149244833029418942e+02
9.602112464742241782e-01 5.149312570838251304e+02
9.603112684790653386e-01 5.149380690826072851e+02
9.604112904839063880e-01 5.149449193797184989e+02
9.605113124887475484e-01 5.149518080549088381e+02
9.606113344935884868e-01 5.149587351872419276e+02
9.607113564984295362e-01 5.149657008550909723e+02
9.608113785032706966e-01 5.149727051361319354e+02
9.609114005081116350e-01 5.149797481073381960e+02
9.610114225129527954e-01 5.149868298449757731e+02
9.611114445177938448e-01 5.149939504245985518e+02
9.612114665226350052e-01 5.150011099210421435e+02
9.613114885274759436e-01 5.150083084084187703e+02
9.614115105323171040e-01 5.150155459601112398e+02
9.615115325371581534e-01 5.150228226487702159e+02
9.616115545419990918e-01 5.150301385463060342e+02
9.617115765468402522e-01 5.150374937238851771e+02
9.618115985516813016e-01 5.150448882519242488e+02
9.619116205565224620e-01 5.150523222000853139e+02
9.620116425613634004e-01 5.150597956372705539e+02
9.621116645662044498e-01 5.150673086316178342e+02
9.622116865710456102e-01 5.150748612504933135e+02
9.623117085758865485e-01 5.150824535604896255e+02
9.624117305807277090e-01 5.150900856274171247e+02
9.625117525855687584e-01 5.150977575163028632e+02
9.626117745904099188e-01 5.151054692913813824e+02
9.627117965952508571e-01 5.151132210160931209e+02
9.628118186000920176e-01 5.151210127530764566e+02
9.629118406049330670e-01 5.151288445641655471e+02
9.630118626097740053e-01 5.151367165103829393e+02
9.631118846146151657e-01 5.151446286519362729e+02
9.632119066194562151e-01 5.151525810482115730e+02
9.633119286242972645e-01 5.151605737577710897e+02
9.634119506291383139e-01 5.151686068383447719e+02
9.635119726339793633e-01 5.151766803468287890e+02
9.636119946388205237e-01 5.151847943392788238e+02
9.637120166436614621e-01 5.151929488709045017e+02
9.638120386485026225e-01 5.152011439960668895e+02
9.639120606533436719e-01 5.152093797682714467e+02
9.640120826581846103e-01 5.152176562401643878e+02
9.641121046630257707e-01 5.152259734635291579e+02
9.642121266678669311e-01 5.152343314892780199e+02
9.643121486727079805e-01 5.152427303674503491e+02
9.644121706775489189e-01 5.152511701472075174e+02
9.645121926823900793e-01 5.152596508768270951e+02
9.646122146872311287e-01 5.152681726037001226e+02
9.647122366920721781e-01 5.152767353743238345e+02
9.648122586969132275e-01 5.152853392342994994e+02
9.649122807017542769e-01 5.152939842283261669e+02
9.650123027065954373e-01 5.153026704001970302e+02
9.651123247114363757e-01 5.153113977927939686e+02
9.652123467162775361e-01 5.153201664480850468e+02
9.653123687211185855e-01 5.153289764071170111e+02
9.654123907259595239e-01 5.153378277100135847e+02
9.655124127308006843e-01 5.153467203959689868e+02
9.656124347356418447e-01 5.153556545032445229e+02
9.657124567404828941e-01 5.153646300691647184e+02
9.658124787453238325e-01 5.153736471301115216e+02
9.659125007501649929e-01 5.153827057215205514e+02
9.660125227550060423e-01 5.153918058778779141e+02
9.661125447598470917e-01 5.154009476327137236e+02
9.662125667646881411e-01 5.154101310186001683e+02
9.663125887695291905e-01 5.154193560671446903e+02
9.664126107743703509e-01 5.154286228089879387e+02
9.665126327792112892e-01 5.154379312737993359e+02
9.666126547840524497e-01 5.154472814902708251e+02
9.667126767888934991e-01 5.154566734861163013e+02
9.668126987937344374e-01 5.154661072880630854e+02
9.669127207985755978e-01 5.154755829218527197e+02
9.670127428034167583e-01 5.154851004122325548e+02
9.671127648082578077e-01 5.154946597829542725e+02
9.672127868130987460e-01 5.155042610567691099e+02
9.673128088179399064e-01 5.155139042554242224e+02
9.674128308227809558e-01 5.155235893996574532e+02
9.675128528276220052e-01 5.155333165091955152e+02
9.676128748324630546e-01 5.155430856027485333e+02
9.677128968373041040e-01 5.155528966980067480e+02
9.678129188421452644e-01 5.155627498116361949e+02
9.679129408469862028e-01 5.155726449592752942e+02
9.680129628518273632e-01 5.155825821555326911e+02
9.681129848566684126e-01 5.155925614139788422e+02
9.682130068615093510e-01 5.156025827471481762e+02
9.683130288663505114e-01 5.156126461665299985e+02
9.684130508711916718e-01 5.156227516825696284e+02
9.685130728760327212e-01 5.156328993046614642e+02
9.686130948808736596e-01 5.156430890411470500e+02
9.687131168857148200e-01 5.156533208993092785e+02
9.688131388905558694e-01 5.156635948853721629e+02
9.689131608953969188e-01 5.156739110044950394e+02
9.690131829002379682e-01 5.156842692607697245e+02
9.691132049050790176e-01 5.156946696572169913e+02
9.692132269099201780e-01 5.157051121957834994e+02
9.693132489147611164e-01 5.157155968773371342e+02
9.694132709196022768e-01 5.157261237016653013e+02
9.695132929244433262e-01 5.157366926674723118e+02
9.696133149292842646e-01 5.157473037723717653e+02
9.697133369341254250e-01 5.157579570128884825e+02
9.698133589389665854e-01 5.157686523844527073e+02
9.699133809438076348e-01 5.157793898813960141e+02
9.700134029486485732e-01 5.157901694969514210e+02
9.701134249534897336e-01 5.158009912232463421e+02
9.702134469583307830e-01 5.158118550513027003e+02
9.703134689631718324e-01 5.158227609710319257e+02
9.704134909680128818e-01 5.158337089712331363e+02
9.705135129728539312e-01 5.158446990395887042e+02
9.706135349776950916e-01 5.158557311626625506e+02
9.707135569825360299e-01 5.158668053258975306e+02
9.708135789873771904e-01 5.158779215136105449e+02
9.709136009922182398e-01 5.158890797089921989e+02
9.710136229970591781e-01 5.159002798941022547e+02
9.711136450019003385e-01 5.159115220498679264e+02
9.712136670067414990e-01 5.159228061560792185e+02
9.713136890115825484e-01 5.159341321913893808e+02
9.714137110164234867e-01 5.159455001333089967e+02
9.715137330212646471e-01 5.159569099582054150e+02
9.716137550261056965e-01 5.159683616412993388e+02
9.717137770309467459e-01 5.159798551566623246e+02
9.718137990357877953e-01 5.159913904772146225e+02
9.719138210406288447e-01 5.160029675747217652e+02
9.720138430454698941e-01 5.160145864197936589e+02
9.721138650503109435e-01 5.160262469818801492e+02
9.722138870551521039e-01 5.160379492292704526e+02
9.723139090599931533e-01 5.160496931290895191e+02
9.724139310648340917e-01 5.160614786472963260e+02
9.725139530696752521e-01 5.160733057486817188e+02
9.726139750745164125e-01 5.160851743968661367e+02
9.727139970793573509e-01 5.160970845542957477e+02
9.728140190841984003e-01 5.161090361822439263e+02
9.729140410890395607e-01 5.161210292408047735e+02
9.730140630938806101e-01 5.161330636888949357e+02
9.731140850987216595e-01 5.161451394842480340e+02
9.732141071035627089e-01 5.161572565834154602e+02
9.733141291084037583e-01 5.161694149417634208e+02
9.734141511132448077e-01 5.161816145134705494e+02
9.735141731180858571e-01 5.161938552515252923e+02
9.736141951229270175e-01 5.162061371077274998e+02
9.737142171277680669e-01 5.162184600326811506e+02
9.738142391326090053e-01 5.162308239757974206e+02
9.739142611374501657e-01 5.162432288852905913e+02
9.740142831422913261e-01 5.162556747081771391e+02
9.741143051471322645e-01 5.162681613902730078e+02
9.742143271519733139e-01 5.162806888761929258e+02
9.743143491568144743e-01 5.162932571093488150e+02
9.744143711616555237e-01 5.163058660319470619e+02
9.745143931664965731e-01 5.163185155849894272e+02
9.746144151713376225e-01 5.163312057082679303e+02
9.747144371761786719e-01 5.163439363403682592e+02
9.748144591810197213e-01 5.163567074186627224e+02
9.749144811858607707e-01 5.163695188793130910e+02
9.750145031907019311e-01 5.163823706572685523e+02
9.751145251955429805e-01 5.163952626862626403e+02
9.752145472003839188e-01 5.164081948988132353e+02
9.753145692052250793e-01 5.164211672262219963e+02
9.754145912100662397e-01 5.164341795985725412e+02
9.755146132149071780e-01 5.164472319447282871e+02
9.756146352197482274e-01 5.164603241923331325e+02
9.757146572245893879e-01 5.164734562678088423e+02
9.758146792294304372e-01 5.164866280963559575e+02
9.759147012342714866e-01 5.164998396019509528e+02
9.760147232391125360e-01 5.165130907073464641e+02
9.761147452439535854e-01 5.165263813340689012e+02
9.762147672487946348e-01 5.165397114024202665e+02
9.763147892536356842e-01 5.165530808314744036e+02
9.764148112584768446e-01 5.165664895390790434e+02
9.765148332633178940e-01 5.165799374418522802e+02
9.766148552681588324e-01 5.165934244551845040e+02
9.767148772729999928e-01 5.166069504932353311e+02
9.768148992778411532e-01 5.166205154689356505e+02
9.769149212826820916e-01 5.166341192939838720e+02
9.770149432875231410e-01 5.166477618788494510e+02
9.771149652923643014e-01 5.166614431327679995e+02
9.772149872972053508e-01 5.166751629637449241e+02
9.773150093020464002e-01 5.166889212785514474e+02
9.774150313068874496e-01 5.167027179827274495e+02
9.775150533117284990e-01 5.167165529805795359e+02
9.776150753165695484e-01 5.167304261751795593e+02
9.777150973214105978e-01 5.167443374683670072e+02
9.778151193262517582e-01 5.167582867607475237e+02
9.779151413310928076e-01 5.167722739516930233e+02
9.780151633359337460e-01 5.167862989393411226e+02
9.781151853407749064e-01 5.168003616205958224e+02
9.782152073456160668e-01 5.168144618911260295e+02
9.783152293504570052e-01 5.168285996453687403e+02
9.784152513552980546e-01 5.168427747765251752e+02
9.785152733601392150e-01 5.168569871765641892e+02
9.786152953649802644e-01 5.168712367362195437e+02
9.787153173698213138e-01 5.168855233449936577e+02
9.788153393746623632e-01 5.168998468911540840e+02
9.789153613795034126e-01 5.169142072617364647e+02
9.790153833843444620e-01 5.169286043425443040e+02
9.791154053891855114e-01 5.169430380181483997e+02
9.792154273940266718e-01 5.169575081718878664e+02
9.793154493988677212e-01 5.169720146858716134e+02
9.794154714037086595e-01 5.169865574409773217e+02
9.795154934085498200e-01 5.170011363168517846e+02
9.796155154133909804e-01 5.170157511919140916e+02
9.797155374182319187e-01 5.170304019433532403e+02
9.798155594230729681e-01 5.170450884471309791e+02
9.799155814279141286e-01 5.170598105779806701e+02
9.800156034327551779e-01 5.170745682094096765e+02
9.801156254375962273e-01 5.170893612137001583e+02
9.802156474424372767e-01 5.171041894619082768e+02
9.803156694472783261e-01 5.171190528238670368e+02
9.804156914521193755e-01 5.171339511681853764e+02
9.805157134569604249e-01 5.171488843622521472e+02
9.806157354618015853e-01 5.171638522722327025e+02
9.807157574666425237e-01 5.171788547630745825e+02
9.808157794714835731e-01 5.171938916985058086e+02
9.809158014763247335e-01 5.172089629410361340e+02
9.810158234811658939e-01 5.172240683519609092e+02
9.811158454860068323e-01 5.172392077913569892e+02
9.812158674908478817e-01 5.172543811180912599e+02
9.813158894956890421e-01 5.172695881898151811e+02
9.814159115005299805e-01 5.172848288629713807e+02
9.815159335053711409e-01 5.173001029927906984e+02
9.816159555102121903e-01 5.173154104332978704e+02
9.817159775150532397e-01 5.173307510373098239e+02
9.818159995198942891e-01 5.173461246564386329e+02
9.819160215247353385e-01 5.173615311410928825e+02
9.820160435295764989e-01 5.173769703404803977e+02
9.821160655344174373e-01 5.173924421026075606e+02
9.822160875392584867e-01 5.174079462742830628e+02
9.823161095440996471e-01 5.174234827011188145e+02
9.824161315489408075e-01 5.174390512275332412e+02
9.825161535537817459e-01 5.174546516967499201e+02
9.826161755586227953e-01 5.174702839508031502e+02
9.827161975634639557e-01 5.174859478305384073e+02
9.828162195683048941e-01 5.175016431756131396e+02
9.829162415731460545e-01 5.175173698245005198e+02
9.830162635779871039e-01 5.175331276144913772e+02
9.831162855828281533e-01 5.175489163816955624e+02
9.832163075876692027e-01 5.175647359610443345e+02
9.833163295925102521e-01 5.175805861862941128e+02
9.834163515973514125e-01 5.175964668900252263e+02
9.835163736021923508e-01 5.176123779036482802e+02
9.836163956070334002e-01 5.176283190574042692e+02
9.837164176118745607e-01 5.176442901803668519e+02
9.838164396167157211e-01 5.176602911004463294e+02
9.839164616215566594e-01 5.176763216443903275e+02
9.840164836263977088e-01 5.176923816377876619e+02
9.841165056312388693e-01 5.177084709050703850e+02
9.842165276360798076e-01 5.177245892695167413e+02
9.843165496409209680e-01 5.177407365532527592e+02
9.844165716457620174e-01 5.177569125772567986e+02
9.845165936506030668e-01 5.177731171613611423e+02
9.846166156554441162e-01 5.177893501242540424e+02
9.847166376602851656e-01 5.178056112834858595e+02
9.848166596651263260e-01 5.178219004554664480e+02
9.849166816699672644e-01 5.178382174554739095e+02
9.850167036748083138e-01 5.178545620976533428e+02
9.851167256796494742e-01 5.178709341950227554e+02
9.852167476844906346e-01 5.178873335594739729e+02
9.853167696893315730e-01 5.179037600017761633e+02
9.854167916941726224e-01 5.179202133315809533e+02
9.855168136990137828e-01 5.179366933574228824e+02
9.856168357038547212e-01 5.179531998867244056e+02
9.857168577086958816e-01 5.179697327257989627e+02
9.858168797135369310e-01 5.179862916798532524e+02
9.859169017183779804e-01 5.180028765529914381e+02
9.860169237232190298e-01 5.180194871482200369e+02
9.861169457280600792e-01 5.180361232674476923e+02
9.862169677329012396e-01 5.180527847114924498e+02
9.863169897377421780e-01 5.180694712800827801e+02
9.864170117425832274e-01 5.180861827718622408e+02
9.865170337474243878e-01 5.181029189843929998e+02
9.866170557522655482e-01 5.181196797141601564e+02
9.867170777571064866e-01 5.181364647565737869e+02
9.868170997619475360e-01 5.181532739059745154e+02
9.869171217667886964e-01 5.181701069556356742e+02
9.870171437716296348e-01 5.181869636977679647e+02
9.871171657764707952e-01 5.182038439235245733e+02
9.872171877813118446e-01 5.182207474230028765e+02
9.873172097861528940e-01 5.182376739852491028e+02
9.874172317909939434e-01 5.182546233982636750e+02
9.875172537958349928e-01 5.182715954490032573e+02
9.876172758006761532e-01 5.182885899233868940e+02
9.877172978055170915e-01 5.183056066062989657e+02
9.878173198103581409e-01 5.183226452815925995e+02
9.879173418151993014e-01 5.183397057320952399e+02
9.880173638200404618e-01 5.183567877396128551e+02
9.881173858248814001e-01 5.183738910849336889e+02
9.882174078297224495e-01 5.183910155478337174e+02
9.883174298345636100e-01 5.184081609070777859e+02
9.884174518394045483e-01 5.184253269404291586e+02
9.885174738442457087e-01 5.184425134246496327e+02
9.886174958490867581e-01 5.184597201355062452e+02
9.887175178539278075e-01 5.184769468477744567e+02
9.888175398587688569e-01 5.184941933352449723e+02
9.889175618636099063e-01 5.185114593707257882e+02
9.890175838684510667e-01 5.185287447260488989e+02
9.891176058732920051e-01 5.185460491720730261e+02
9.892176278781330545e-01 5.185633724786907806e+02
9.893176498829742149e-01 5.185807144148325278e+02
9.894176718878151533e-01 5.185980747484682070e+02
9.895176938926563137e-01 5.186154532466177898e+02
9.896177158974973631e-01 5.186328496753532136e+02
9.897177379023385235e-01 5.186502637998009959e+02
9.898177599071794619e-01 5.186676953841532622e+02
9.899177819120206223e-01 5.186851441916656995e+02
9.900178039168616717e-01 5.187026099846696070e+02
9.901178259217026101e-01 5.187200925245705321e+02
9.902178479265437705e-01 5.187375915718588431e+02
9.903178699313848199e-01 5.187551068861112071e+02
9.904178919362259803e-01 5.187726382259977527e+02
9.905179139410669187e-01 5.187901853492874125e+02
9.906179359459079681e-01 5.188077480128516754e+02
9.907179579507491285e-01 5.188253259726711804e+02
9.908179799555900669e-01 5.188429189838414004e+02
9.909180019604312273e-01 5.188605268005765083e+02
9.910180239652722767e-01 5.188781491762181304e+02
9.911180459701134371e-01 5.188957858632360285e+02
9.912180679749543755e-01 5.189134366132374225e+02
9.913180899797955359e-01 5.189311011769710831e+02
9.914181119846365853e-01 5.189487793043350621e+02
9.915181339894775236e-01 5.189664707443777161e+02
9.916181559943186841e-01 5.189841752453079380e+02
9.917181779991597335e-01 5.190018925544993635e+02
9.918182000040008939e-01 5.190196224184951461e+02
9.919182220088418322e-01 5.190373645830156875e+02
9.920182440136828816e-01 5.190551187929631851e+02
9.921182660185240421e-01 5.190728847924274305e+02
9.922182880233649804e-01 5.190906623246919480e+02
9.923183100282061408e-01 5.191084511322408162e+02
9.924183320330471902e-01 5.191262509567632151e+02
9.925183540378883507e-01 5.191440615391614983e+02
9.926183760427292890e-01 5.191618826195544898e+02
9.927183980475704494e-01 5.191797139372861238e+02
9.928184200524114988e-01 5.191975552309298791e+02
9.929184420572524372e-01 5.192154062382962820e+02
9.930184640620935976e-01 5.192332666964384771e+02
9.931184860669346470e-01 5.192511363416573431e+02
9.932185080717758074e-01 5.192690149095096785e+02
9.933185300766167458e-01 5.192869021348152501e+02
9.934185520814577952e-01 5.193047977516588389e+02
9.935185740862989556e-01 5.193227014934014960e+02
9.936185960911398940e-01 5.193406130926844071e+02
9.937186180959810544e-01 5.193585322814356005e+02
9.938186401008221038e-01 5.193764587908768817e+02
9.939186621056632642e-01 5.193943923515305414e+02
9.940186841105042026e-01 5.194123326932245845e+02
9.941187061153453630e-01 5.194302795451017118e+02
9.942187281201864124e-01 5.194482326356237536e+02
9.943187501250273508e-01 5.194661916925783771e+02
9.944187721298685112e-01 5.194841564430884091e+02
9.945187941347095606e-01 5.195021266136144504e+02
9.946188161395507210e-01 5.195201019299664722e+02
9.947188381443916594e-01 5.195380821173054073e+02
9.948188601492327088e-01 5.195560669001545193e+02
9.949188821540738692e-01 5.195740560024028127e+02
9.950189041589148076e-01 5.195920491473146967e+02
9.951189261637559680e-01 5.196100460575348734e+02
9.952189481685970174e-01 5.196280464550965235e+02
9.953189701734381778e-01 5.196460500614268767e+02
9.954189921782791162e-01 5.196640565973569892e+02
9.955190141831202766e-01 5.196820657831250401e+02
9.956190361879613260e-01 5.197000773383864498e+02
9.957190581928022644e-01 5.197180909822194508e+02
9.958190801976434248e-01 5.197361064331327043e+02
9.959191022024844742e-01 5.197541234090726903e+02
9.960191242073256346e-01 5.197721416274301873e+02
9.961191462121665730e-01 5.197901608050481173e+02
9.962191682170076223e-01 5.198081806582290483e+02
9.963191902218487828e-01 5.198262009027416752e+02
9.964192122266897211e-01 5.198442212538284366e+02
9.965192342315308816e-01 5.198622414262125631e+02
9.966192562363719309e-01 5.198802611341069451e+02
9.967192782412130914e-01 5.198982800912193625e+02
9.968193002460540297e-01 5.199162980107616931e+02
9.969193222508951902e-01 5.199343146054561657e+02
9.970193442557362395e-01 5.199523295875434314e+02
9.971193662605771779e-01 5.199703426687898400e+02
9.972193882654183383e-01 5.199883535604960798e+02
9.973194102702593877e-01 5.200063619735022939e+02
9.974194322751005481e-01 5.200243676181978572e+02
9.975194542799414865e-01 5.200423702045288792e+02
9.976194762847825359e-01 5.200603694420040028e+02
9.977194982896236963e-01 5.200783650397040674e+02
9.978195202944646347e-01 5.200963567062893844e+02
9.979195422993057951e-01 5.201143441500067865e+02
9.980195643041468445e-01 5.201323270786973580e+02
9.981195863089877829e-01 5.201503051998056435e+02
9.982196083138289433e-01 5.201682782203851048e+02
9.983196303186701037e-01 5.201862458471084665e+02
9.984196523235111531e-01 5.202042077862739688e+02
9.985196743283520915e-01 5.202221637438134394e+02
9.986196963331932519e-01 5.202401134252996826e+02
9.987197183380343013e-01 5.202580565359567117e+02
9.988197403428753507e-01 5.202759927806649785e+02
9.989197623477164001e-01 5.202939218639703540e+02
9.990197843525574495e-01 5.203118434900933380e+02
9.991198063573986099e-01 5.203297573629346289e+02
9.992198283622395483e-01 5.203476631860852422e+02
9.993198503670807087e-01 5.203655606628336727e+02
9.994198723719217581e-01 5.203834494961737391e+02
9.995198943767626965e-01 5.204013293888142471e+02
9.996199163816038569e-01 5.204192000431841052e+02
9.997199383864450173e-01 5.204370611614443760e+02
9.998199603912860667e-01 5.204549124454929370e+02
9.999199823961270051e-01 5.204727535969745986e+02
1.000020004400968165e+00 5.023073921365626120e+02
1.000120026405809215e+00 5.022353943000023833e+02
1.000220048410650264e+00 5.021635134128082427e+02
1.000320070415491314e+00 5.020917507835988545e+02
1.000420092420332363e+00 5.020201077178039668e+02
1.000520114425173634e+00 5.019485855176295104e+02
1.000620136430014462e+00 5.018771854820199110e+02
1.000720158434855511e+00 5.018059089066202887e+02
1.000820180439696783e+00 5.017347570837425224e+02
1.000920202444537610e+00 5.016637313023269371e+02
1.001020224449378659e+00 5.015928328479057541e+02
1.001120246454219931e+00 5.015220630025673927e+02
1.001220268459060980e+00 5.014514230449214551e+02
1.001320290463902030e+00 5.013809142500595613e+02
1.001420312468743079e+00 5.013105378895223794e+02
1.001520334473584128e+00 5.012402952312626780e+02
1.001620356478425178e+00 5.011701875396095716e+02
1.001720378483266227e+00 5.011002160752319696e+02
1.001820400488107277e+00 5.010303820951039597e+02
1.001920422492948326e+00 5.009606868524708716e+02
1.002020444497789375e+00 5.008911315968097142e+02
1.002120466502630425e+00 5.008217175737981961e+02
1.002220488507471696e+00 5.007524460252779477e+02
1.002320510512312524e+00 5.006833181892193352e+02
1.002420532517153795e+00 5.006143352996863314e+02
1.002520554521994844e+00 5.005454985868024096e+02
1.002620576526835894e+00 5.004768092767153576e+02
1.002720598531676943e+00 5.004082685915639104e+02
1.002820620536517993e+00 5.003398777494421665e+02
1.002920642541359042e+00 5.002716379643644586e+02
1.003020664546200091e+00 5.002035504462338622e+02
1.003120686551041141e+00 5.001356164008053611e+02
1.003220708555882190e+00 5.000678370296535604e+02
1.003320730560723462e+00 5.000002135301385806e+02
1.003420752565564289e+00 4.999327470953722923e+02
1.003520774570405338e+00 4.998654389141842103e+02
1.003620796575246610e+00 4.997982901710887518e+02
1.003720818580087437e+00 4.997313020462520399e+02
1.003820840584928487e+00 4.996644757154576837e+02
1.003920862589769758e+00 4.995978123500759125e+02
1.004020884594610807e+00 4.995313131170269116e+02
1.004120906599451857e+00 4.994649791787526851e+02
1.004220928604292906e+00 4.993988116931808463e+02
1.004320950609133956e+00 4.993328118136934677e+02
1.004420972613975005e+00 4.992669806890943391e+02
1.004520994618816054e+00 4.992013194635784998e+02
1.004621016623657104e+00 4.991358292766963700e+02
1.004721038628498153e+00 4.990705112633257841e+02
1.004821060633339203e+00 4.990053665536380549e+02
1.004921082638180252e+00 4.989403962730660851e+02
1.005021104643021523e+00 4.988756015422740688e+02
1.005121126647862351e+00 4.988109834771257738e+02
1.005221148652703622e+00 4.987465431886521969e+02
1.005321170657544672e+00 4.986822817830218355e+02
1.005421192662385721e+00 4.986182003615087979e+02
1.005521214667226770e+00 4.985543000204635291e+02
1.005621236672067820e+00 4.984905818512792735e+02
1.005721258676908869e+00 4.984270469403645052e+02
1.005821280681749919e+00 4.983636963691117217e+02
1.005921302686590968e+00 4.983005312138656677e+02
1.006021324691432017e+00 4.982375525458958236e+02
1.006121346696273289e+00 4.981747614313646864e+02
1.006221368701114116e+00 4.981121589312980404e+02
1.006321390705955166e+00 4.980497461015573890e+02
1.006421412710796437e+00 4.979875239928079509e+02
1.006521434715637264e+00 4.979254936504905231e+02
1.006621456720478314e+00 4.978636561147931161e+02
1.006721478725319585e+00 4.978020124206204855e+02
1.006821500730160412e+00 4.977405635975666769e+02
1.006921522735001684e+00 4.976793106698854672e+02
1.007021544739842733e+00 4.976182546564625113e+02
1.007121566744683783e+00 4.975573965707870912e+02
1.007221588749524832e+00 4.974967374209231252e+02
1.007321610754365881e+00 4.974362782094818840e+02
1.007421632759206931e+00 4.973760199335947618e+02
1.007521654764047980e+00 4.973159635848841162e+02
1.007621676768889030e+00 4.972561101494370064e+02
1.007721698773730079e+00 4.971964606077785902e+02
1.007821720778571351e+00 4.971370159348415427e+02
1.007921742783412178e+00 4.970777770999436029e+02
1.008021764788253449e+00 4.970187450667582425e+02
1.008121786793094499e+00 4.969599207932880063e+02
1.008221808797935326e+00 4.969013052318391033e+02
1.008321830802776597e+00 4.968428993289944060e+02
1.008421852807617647e+00 4.967847040255874163e+02
1.008521874812458696e+00 4.967267202566774813e+02
1.008621896817299746e+00 4.966689489515211449e+02
1.008721918822140795e+00 4.966113910335507171e+02
1.008821940826981844e+00 4.965540474203452277e+02
1.008921962831822894e+00 4.964969190236073473e+02
1.009021984836663943e+00 4.964400067491379787e+02
1.009122006841504993e+00 4.963833114968107907e+02
1.009222028846346264e+00 4.963268341605482874e+02
1.009322050851187091e+00 4.962705756282957736e+02
1.009422072856028141e+00 4.962145367820006072e+02
1.009522094860869412e+00 4.961587184975836635e+02
1.009622116865710240e+00 4.961031216449185308e+02
1.009722138870551511e+00 4.960477470878071244e+02
1.009822160875392560e+00 4.959925956839550167e+02
1.009922182880233610e+00 4.959376682849499502e+02
1.010022204885074659e+00 4.958829657362354055e+02
1.010122226889915709e+00 4.958284888770928092e+02
1.010222248894756758e+00 4.957742385406137942e+02
1.010322270899597807e+00 4.957202155536796226e+02
1.010422292904438857e+00 4.956664207369395854e+02
1.010522314909279906e+00 4.956128549047872411e+02
1.010622336914121178e+00 4.955595188653394985e+02
1.010722358918962005e+00 4.955064134204142192e+02
1.010822380923803276e+00 4.954535393655084476e+02
1.010922402928644326e+00 4.954008974897778330e+02
1.011022424933485153e+00 4.953484885760138923e+02
1.011122446938326425e+00 4.952963134006253085e+02
1.011222468943167474e+00 4.952443727336138295e+02
1.011322490948008523e+00 4.951926673385569870e+02
1.011422512952849573e+00 4.951411979725859283e+02
1.011522534957690622e+00 4.950899653863643834e+02
1.011622556962531672e+00 4.950389703240705330e+02
1.011722578967372721e+00 4.949882135233747817e+02
1.011822600972213770e+00 4.949376957154241836e+02
1.011922622977054820e+00 4.948874176248172603e+02
1.012022644981896091e+00 4.948373799695898470e+02
1.012122666986736919e+00 4.947875834611939467e+02
1.012222688991577968e+00 4.947380288044773238e+02
1.012322710996419239e+00 4.946887166976678145e+02
1.012422733001260067e+00 4.946396478323542283e+02
1.012522755006101338e+00 4.945908228934653721e+02
1.012622777010942388e+00 4.945422425592565787e+02
1.012722799015783437e+00 4.944939075012879357e+02
1.012822821020624486e+00 4.944458183844084260e+02
1.012922843025465536e+00 4.943979758667391025e+02
1.013022865030306585e+00 4.943503805996537608e+02
1.013122887035147635e+00 4.943030332277641605e+02
1.013222909039988684e+00 4.942559343889024603e+02
1.013322931044829733e+00 4.942090847141050176e+02
1.013422953049671005e+00 4.941624848275947102e+02
1.013522975054511832e+00 4.941161353467655317e+02
1.013622997059353104e+00 4.940700368821686652e+02
1.013723019064194153e+00 4.940241900374927582e+02
1.013823041069034980e+00 4.939785954095531224e+02
1.013923063073876252e+00 4.939332535882703041e+02
1.014023085078717301e+00 4.938881651566630921e+02
1.014123107083558351e+00 4.938433306908256100e+02
1.014223129088399400e+00 4.937987507599186756e+02
1.014323151093240449e+00 4.937544259261517254e+02
1.014423173098081499e+00 4.937103567447701948e+02
1.014523195102922548e+00 4.936665437640417622e+02
1.014623217107763598e+00 4.936229875252417401e+02
1.014723239112604647e+00 4.935796885626388644e+02
1.014823261117445918e+00 4.935366474034845510e+02
1.014923283122286746e+00 4.934938645679970932e+02
1.015023305127127795e+00 4.934513405693502364e+02
1.015123327131969067e+00 4.934090759136589099e+02
1.015223349136809894e+00 4.933670710999704170e+02
1.015323371141651165e+00 4.933253266202465284e+02
1.015423393146492215e+00 4.932838429593572300e+02
1.015523415151333264e+00 4.932426205950649774e+02
1.015623437156174314e+00 4.932016599980141223e+02
1.015723459161015363e+00 4.931609616317211362e+02
1.015823481165856412e+00 4.931205259525609677e+02
1.015923503170697462e+00 4.930803534097584020e+02
1.016023525175538511e+00 4.930404444453751580e+02
1.016123547180379560e+00 4.930007994943019867e+02
1.016223569185220610e+00 4.929614189842452561e+02
1.016323591190061659e+00 4.929223033357201302e+02
1.016423613194902931e+00 4.928834529620384046e+02
1.016523635199743980e+00 4.928448682693008323e+02
1.016623657204584807e+00 4.928065496563860961e+02
1.016723679209426079e+00 4.927684975149414868e+02
1.016823701214267128e+00 4.927307122293768771e+02
1.016923723219107956e+00 4.926931941768526713e+02
1.017023745223949227e+00 4.926559437272727564e+02
1.017123767228790276e+00 4.926189612432762033e+02
1.017223789233631326e+00 4.925822470802305020e+02
1.017323811238472375e+00 4.925458015862207617e+02
1.017423833243313425e+00 4.925096251020456748e+02
1.017523855248154474e+00 4.924737179612076261e+02
1.017623877252995523e+00 4.924380804899059854e+02
1.017723899257836573e+00 4.924027130070319913e+02
1.017823921262677622e+00 4.923676158241598273e+02
1.017923943267518894e+00 4.923327892455419601e+02
1.018023965272359721e+00 4.922982335681024324e+02
1.018123987277200992e+00 4.922639490814294163e+02
1.018224009282042042e+00 4.922299360677717459e+02
1.018324031286883091e+00 4.921961948020333466e+02
1.018424053291724141e+00 4.921627255517652202e+02
1.018524075296565190e+00 4.921295285771631143e+02
1.018624097301406239e+00 4.920966041310626338e+02
1.018724119306247289e+00 4.920639524589332154e+02
1.018824141311088338e+00 4.920315737988740921e+02
1.018924163315929388e+00 4.919994683816112229e+02
1.019024185320770437e+00 4.919676364304922913e+02
1.019124207325611486e+00 4.919360781614843745e+02
1.019224229330452758e+00 4.919047937831687705e+02
1.019324251335293807e+00 4.918737834967379285e+02
1.019424273340134635e+00 4.918430474959952790e+02
1.019524295344975906e+00 4.918125859673485820e+02
1.019624317349816955e+00 4.917823990898106103e+02
1.019724339354657783e+00 4.917524870349944877e+02
1.019824361359499054e+00 4.917228499671131772e+02
1.019924383364340104e+00 4.916934880429760142e+02
1.020024405369181153e+00 4.916644014119904682e+02
1.020124427374022202e+00 4.916355902161569702e+02
1.020224449378863252e+00 4.916070545900702768e+02
1.020324471383704301e+00 4.915787946609165147e+02
1.020424493388545351e+00 4.915508105484744874e+02
1.020524515393386400e+00 4.915231023651147098e+02
1.020624537398227449e+00 4.914956702157980430e+02
1.020724559403068721e+00 4.914685141980772300e+02
1.020824581407909548e+00 4.914416344020965539e+02
1.020924603412750820e+00 4.914150309105928045e+02
1.021024625417591869e+00 4.913887037988936868e+02
1.021124647422432918e+00 4.913626531349224820e+02
1.021224669427273968e+00 4.913368789791967970e+02
1.021324691432115017e+00 4.913113813848295877e+02
1.021424713436956067e+00 4.912861603975333651e+02
1.021524735441797116e+00 4.912612160556195704e+02
1.021624757446638165e+00 4.912365483900006211e+02
1.021724779451479215e+00 4.912121574241941744e+02
1.021824801456320264e+00 4.911880431743253439e+02
1.021924823461161314e+00 4.911642056491270978e+02
1.022024845466002585e+00 4.911406448499470798e+02
1.022124867470843634e+00 4.911173607707461883e+02
1.022224889475684462e+00 4.910943533981069891e+02
1.022324911480525733e+00 4.910716227112335446e+02
1.022424933485366783e+00 4.910491686819582355e+02
1.022524955490207610e+00 4.910269912747435228e+02
1.022624977495048881e+00 4.910050904466871771e+02
1.022724999499889931e+00 4.909834661475289295e+02
1.022825021504730980e+00 4.909621183196510970e+02
1.022925043509572030e+00 4.909410468980881319e+02
1.023025065514413079e+00 4.909202518105291233e+02
1.023125087519254128e+00 4.908997329773237652e+02
1.023225109524095178e+00 4.908794903114887802e+02
1.023325131528936227e+00 4.908595237187147404e+02
1.023425153533777276e+00 4.908398330973687962e+02
1.023525175538618548e+00 4.908204183385061583e+02
1.023625197543459375e+00 4.908012793258721445e+02
1.023725219548300647e+00 4.907824159359117857e+02
1.023825241553141696e+00 4.907638280377769320e+02
1.023925263557982746e+00 4.907455154933318227e+02
1.024025285562823795e+00 4.907274781571625226e+02
1.024125307567664844e+00 4.907097158765830613e+02
1.024225329572505894e+00 4.906922284916456647e+02
1.024325351577346943e+00 4.906750158351472919e+02
1.024425373582187992e+00 4.906580777326385601e+02
1.024525395587029042e+00 4.906414140024323842e+02
1.024625417591870091e+00 4.906250244556123903e+02
1.024725439596711141e+00 4.906089088960444542e+02
1.024825461601552412e+00 4.905930671203825568e+02
1.024925483606393239e+00 4.905774989180813463e+02
1.025025505611234289e+00 4.905622040714038690e+02
1.025125527616075560e+00 4.905471823554333923e+02
1.025225549620916610e+00 4.905324335380828416e+02
1.025325571625757437e+00 4.905179573801043489e+02
1.025425593630598708e+00 4.905037536351021004e+02
1.025525615635439758e+00 4.904898220495415444e+02
1.025625637640280807e+00 4.904761623627610447e+02
1.025725659645121857e+00 4.904627743069834196e+02
1.025825681649962906e+00 4.904496576073274809e+02
1.025925703654803955e+00 4.904368119818203127e+02
1.026025725659645005e+00 4.904242371414085824e+02
1.026125747664486054e+00 4.904119327899707059e+02
1.026225769669327104e+00 4.903998986243296940e+02
1.026325791674168153e+00 4.903881343342662262e+02
1.026425813679009202e+00 4.903766396025314975e+02
1.026525835683850474e+00 4.903654141048592123e+02
1.026625857688691523e+00 4.903544575099809890e+02
1.026725879693532573e+00 4.903437694796371034e+02
1.026825901698373622e+00 4.903333496685934279e+02
1.026925923703214671e+00 4.903231977246526867e+02
1.027025945708055721e+00 4.903133132886707131e+02
1.027125967712896770e+00 4.903036959945699209e+02
1.027225989717737820e+00 4.902943454693532885e+02
1.027326011722578869e+00 4.902852613331214684e+02
1.027426033727419918e+00 4.902764431990844400e+02
1.027526055732260968e+00 4.902678906735809505e+02
1.027626077737102239e+00 4.902596033560902242e+02
1.027726099741943067e+00 4.902515808392495273e+02
1.027826121746784116e+00 4.902438227088696294e+02
1.027926143751625387e+00 4.902363285439516858e+02
1.028026165756466437e+00 4.902290979167025853e+02
1.028126187761307264e+00 4.902221303925523443e+02
1.028226209766148536e+00 4.902154255301696821e+02
1.028326231770989585e+00 4.902089828814798693e+02
1.028426253775830634e+00 4.902028019916816675e+02
1.028526275780671684e+00 4.901968823992655189e+02
1.028626297785512733e+00 4.901912236360297470e+02
1.028726319790353783e+00 4.901858252270988032e+02
1.028826341795194832e+00 4.901806866909411724e+02
1.028926363800035881e+00 4.901758075393891545e+02
1.029026385804876931e+00 4.901711872776544396e+02
1.029126407809717980e+00 4.901668254043491402e+02
1.029226429814559030e+00 4.901627214115025595e+02
1.029326451819400301e+00 4.901588747845831904e+02
1.029426473824241350e+00 4.901552850025138923e+02
1.029526495829082400e+00 4.901519515376944014e+02
1.029626517833923449e+00 4.901488738560202023e+02
1.029726539838764499e+00 4.901460514169016847e+02
1.029826561843605548e+00 4.901434836732847771e+02
1.029926583848446597e+00 4.901411700716709561e+02
1.030026605853287647e+00 4.901391100521370845e+02
1.030126627858128696e+00 4.901373030483570119e+02
1.030226649862969746e+00 4.901357484876220383e+02
1.030326671867810795e+00 4.901344457908612640e+02
1.030426693872652066e+00 4.901333943726633606e+02
1.030526715877492894e+00 4.901325936412988540e+02
1.030626737882333943e+00 4.901320429987392799e+02
1.030726759887175215e+00 4.901317418406811726e+02
1.030826781892016264e+00 4.901316895565665845e+02
1.030926803896857091e+00 4.901318855296065635e+02
1.031026825901698363e+00 4.901323291368021273e+02
1.031126847906539412e+00 4.901330197489675697e+02
1.031226869911380462e+00 4.901339567307534821e+02
1.031326891916221511e+00 4.901351394406688087e+02
1.031426913921062560e+00 4.901365672311034700e+02
1.031526935925903610e+00 4.901382394483546250e+02
1.031626957930744659e+00 4.901401554326458267e+02
1.031726979935585709e+00 4.901423145181534551e+02
1.031827001940426758e+00 4.901447160330306474e+02
1.031927023945267807e+00 4.901473592994287856e+02
1.032027045950108857e+00 4.901502436335256903e+02
1.032127067954950128e+00 4.901533683455460277e+02
1.032227089959791178e+00 4.901567327397878557e+02
1.032327111964632227e+00 4.901603361146474072e+02
1.032427133969473276e+00 4.901641777626437602e+02
1.032527155974314326e+00 4.901682569704431103e+02
1.032627177979155375e+00 4.901725730188852594e+02
1.032727199983996424e+00 4.901771251830085134e+02
1.032827221988837474e+00 4.901819127320745224e+02
1.032927243993678523e+00 4.901869349295960774e+02
1.033027265998519573e+00 4.901921910333604728e+02
1.033127288003360622e+00 4.901976802954583263e+02
1.033227310008201894e+00 4.902034019623073391e+02
1.033327332013042721e+00 4.902093552746806608e+02
1.033427354017883770e+00 4.902155394677324693e+02
1.033527376022725042e+00 4.902219537710251416e+02
1.033627398027565869e+00 4.902285974085567659e+02
1.033727420032406918e+00 4.902354695987862669e+02
1.033827442037248190e+00 4.902425695546647830e+02
1.033927464042089239e+00 4.902498964836577215e+02
1.034027486046930289e+00 4.902574495877773870e+02
1.034127508051771338e+00 4.902652280636071964e+02
1.034227530056612387e+00 4.902732311023318630e+02
1.034327552061453437e+00 4.902814578897644537e+02
1.034427574066294486e+00 4.902899076063752091e+02
1.034527596071135536e+00 4.902985794273192823e+02
1.034627618075976585e+00 4.903074725224662416e+02
1.034727640080817634e+00 4.903165860564280933e+02
1.034827662085658684e+00 4.903259191885886707e+02
1.034927684090499955e+00 4.903354710731321120e+02
1.035027706095340783e+00 4.903452408590738401e+02
1.035127728100182054e+00 4.903552276902872222e+02
1.035227750105023103e+00 4.903654307055345498e+02
1.035327772109864153e+00 4.903758490384968809e+02
1.035427794114705202e+00 4.903864818178051905e+02
1.035527816119546252e+00 4.903973281670659503e+02
1.035627838124387301e+00 4.904083872048968828e+02
1.035727860129228350e+00 4.904196580449528255e+02
1.035827882134069400e+00 4.904311397959583587e+02
1.035927904138910449e+00 4.904428315617380463e+02
1.036027926143751721e+00 4.904547324412465628e+02
1.036127948148592548e+00 4.904668415286003551e+02
1.036227970153433597e+00 4.904791579131079970e+02
1.036327992158274869e+00 4.904916806793016804e+02
1.036428014163115696e+00 4.905044089069684219e+02
1.036528036167956746e+00 4.905173416711816117e+02
1.036628058172798017e+00 4.905304780423325042e+02
1.036728080177639066e+00 4.905438170861609137e+02
1.036828102182480116e+00 4.905573578637896048e+02
1.036928124187321165e+00 4.905710994317533959e+02
1.037028146192162215e+00 4.905850408420322992e+02
1.037128168197003264e+00 4.905991811420854560e+02
1.037228190201844313e+00 4.906135193748809797e+02
1.037328212206685363e+00 4.906280545789294365e+02
1.037428234211526412e+00 4.906427857883165871e+02
1.037528256216367462e+00 4.906577120327361285e+02
1.037628278221208511e+00 4.906728323375224363e+02
1.037728300226049782e+00 4.906881457236847837e+02
1.037828322230890610e+00 4.907036512079371278e+02
1.037928344235731881e+00 4.907193478027356832e+02
1.038028366240572931e+00 4.907352345163091059e+02
1.038128388245413980e+00 4.907513103526935083e+02
1.038228410250255029e+00 4.907675743117652019e+02
1.038328432255096079e+00 4.907840253892751434e+02
1.038428454259937128e+00 4.908006625768832691e+02
1.038528476264778178e+00 4.908174848621903834e+02
1.038628498269619227e+00 4.908344912287741408e+02
1.038728520274460276e+00 4.908516806562237775e+02
1.038828542279301548e+00 4.908690521201711476e+02
1.038928564284142375e+00 4.908866045923301726e+02
1.039028586288983425e+00 4.909043370405261157e+02
1.039128608293824696e+00 4.909222484287344059e+02
1.039228630298665523e+00 4.909403377171125840e+02
1.039328652303506573e+00 4.909586038620365116e+02
1.039428674308347844e+00 4.909770458161358988e+02
1.039528696313188894e+00 4.909956625283271592e+02
1.039628718318029943e+00 4.910144529438517225e+02
1.039728740322870992e+00 4.910334160043081511e+02
1.039828762327712042e+00 4.910525506476897135e+02
1.039928784332553091e+00 4.910718558084196843e+02
1.040028806337394141e+00 4.910913304173848246e+02
1.040128828342235190e+00 4.911109734019743200e+02
1.040228850347076239e+00 4.911307836861126930e+02
1.040328872351917289e+00 4.911507601902981719e+02
1.040428894356758338e+00 4.911709018316353763e+02
1.040528916361599610e+00 4.911912075238755051e+02
1.040628938366440437e+00 4.912116761774491920e+02
1.040728960371281708e+00 4.912323066995040790e+02
1.040828982376122758e+00 4.912530979939409690e+02
1.040929004380963807e+00 4.912740489614506032e+02
1.041029026385804857e+00 4.912951584995492453e+02
1.041129048390645906e+00 4.913164255026164255e+02
1.041229070395486955e+00 4.913378488619307518e+02
1.041329092400328005e+00 4.913594274657073129e+02
1.041429114405169054e+00 4.913811601991341149e+02
1.041529136410010103e+00 4.914030459444084613e+02
1.041629158414851375e+00 4.914250835807757198e+02
1.041729180419692202e+00 4.914472719845645088e+02
1.041829202424533252e+00 4.914696100292250094e+02
1.041929224429374523e+00 4.914920965853650614e+02
1.042029246434215350e+00 4.915147305207895556e+02
1.042129268439056400e+00 4.915375107005356199e+02
1.042229290443897671e+00 4.915604359869109885e+02
1.042329312448738499e+00 4.915835052395324283e+02
1.042429334453579770e+00 4.916067173153605268e+02
1.042529356458420819e+00 4.916300710687410742e+02
1.042629378463261869e+00 4.916535653514407045e+02
1.042729400468102918e+00 4.916771990126837295e+02
1.042829422472943968e+00 4.917009708991927823e+02
1.042929444477785017e+00 4.917248798552246853e+02
1.043029466482626066e+00 4.917489247226077396e+02
1.043129488487467116e+00 4.917731043407830498e+02
1.043229510492308165e+00 4.917974175468398244e+02
1.043329532497149437e+00 4.918218631755530623e+02
1.043429554501990264e+00 4.918464400594245376e+02
1.043529576506831535e+00 4.918711470287196335e+02
1.043629598511672585e+00 4.918959829115041202e+02
1.043729620516513412e+00 4.919209465336848552e+02
1.043829642521354684e+00 4.919460367190479246e+02
1.043929664526195733e+00 4.919712522892962738e+02
1.044029686531036782e+00 4.919965920640880199e+02
1.044129708535877832e+00 4.920220548610755031e+02
1.044229730540718881e+00 4.920476394959449635e+02
1.044329752545559931e+00 4.920733447824536029e+02
1.044429774550400980e+00 4.920991695324688067e+02
1.044529796555242029e+00 4.921251125560074229e+02
1.044629818560083079e+00 4.921511726612741313e+02
1.044729840564924350e+00 4.921773486546996992e+02
1.044829862569765178e+00 4.922036393409821926e+02
1.044929884574606227e+00 4.922300435231216511e+02
1.045029906579447498e+00 4.922565600024639139e+02
1.045129928584288326e+00 4.922831875787364879e+02
1.045229950589129597e+00 4.923099250500873723e+02
1.045329972593970647e+00 4.923367712131266103e+02
1.045429994598811696e+00 4.923637248629640908e+02
1.045530016603652745e+00 4.923907847932464392e+02
1.045630038608493795e+00 4.924179497962002188e+02
1.045730060613334844e+00 4.924452186626682533e+02
1.045830082618175894e+00 4.924725901821488492e+02
1.045930104623016943e+00 4.925000631428373481e+02
1.046030126627857992e+00 4.925276363316633592e+02
1.046130148632699264e+00 4.925553085343302087e+02
1.046230170637540091e+00 4.925830785353535362e+02
1.046330192642381363e+00 4.926109451181035297e+02
1.046430214647222412e+00 4.926389070648413622e+02
1.046530236652063239e+00 4.926669631567589249e+02
1.046630258656904511e+00 4.926951121740198687e+02
1.046730280661745560e+00 4.927233528957960971e+02
1.046830302666586610e+00 4.927516841003110812e+02
1.046930324671427659e+00 4.927801045648747049e+02
1.047030346676268708e+00 4.928086130659271475e+02
1.047130368681109758e+00 4.928372083790748093e+02
1.047230390685950807e+00 4.928658892791314088e+02
1.047330412690791857e+00 4.928946545401568642e+02
1.047430434695632906e+00 4.929235029354970834e+02
1.047530456700474177e+00 4.929524332378233566e+02
1.047630478705315005e+00 4.929814442191711805e+02
1.047730500710156054e+00 4.930105346509810715e+02
1.047830522714997326e+00 4.930397033041354007e+02
1.047930544719838153e+00 4.930689489490011397e+02
1.048030566724679424e+00 4.930982703554673208e+02
1.048130588729520474e+00 4.931276662929840313e+02
1.048230610734361523e+00 4.931571355306033979e+02
1.048330632739202573e+00 4.931866768370171599e+02
1.048430654744043622e+00 4.932162889805980512e+02
1.048530676748884671e+00 4.932459707294378290e+02
1.048630698753725721e+00 4.932757208513872911e+02
1.048730720758566770e+00 4.933055381140949294e+02
1.048830742763407819e+00 4.933354212850473459e+02
1.048930764768249091e+00 4.933653691316066556e+02
1.049030786773089918e+00 4.933953804210530620e+02
1.049130808777931190e+00 4.934254539206209529e+02
1.049230830782772239e+00 4.934555883975393726e+02
1.049330852787613066e+00 4.934857826190718129e+02
1.049430874792454338e+00 4.935160353525547521e+02
1.049530896797295387e+00 4.935463453654379578e+02
1.049630918802136437e+00 4.935767114253206387e+02
1.049730940806977486e+00 4.936071322999954987e+02
1.049830962811818535e+00 4.936376067574836952e+02
1.049930984816659585e+00 4.936681335660754826e+02
1.050031006821500634e+00 4.936987114943691495e+02
1.050131028826341684e+00 4.937293393113113780e+02
1.050231050831182733e+00 4.937600157862334527e+02
1.050331072836024005e+00 4.937907396888926996e+02
1.050431094840864832e+00 4.938215097895099461e+02
1.050531116845705881e+00 4.938523248588102206e+02
1.050631138850547153e+00 4.938831836680590186e+02
1.050731160855387980e+00 4.939140849891038556e+02
1.050831182860229251e+00 4.939450275944111581e+02
1.050931204865070301e+00 4.939760102571055995e+02
1.051031226869911350e+00 4.940070317510096629e+02
1.051131248874752400e+00 4.940380908506801916e+02
1.051231270879593449e+00 4.940691863314496004e+02
1.051331292884434498e+00 4.941003169694622557e+02
1.051431314889275548e+00 4.941314815417150044e+02
1.051531336894116597e+00 4.941626788260932130e+02
1.051631358898957647e+00 4.941939076014119223e+02
1.051731380903798696e+00 4.942251666474518288e+02
1.051831402908639745e+00 4.942564547450002692e+02
1.051931424913481017e+00 4.942877706758856107e+02
1.052031446918322066e+00 4.943191132230194853e+02
1.052131468923162894e+00 4.943504811704327722e+02
1.052231490928004165e+00 4.943818733033140802e+02
1.052331512932845214e+00 4.944132884080482313e+02
1.052431534937686042e+00 4.944447252722532653e+02
1.052531556942527313e+00 4.944761826848188662e+02
1.052631578947368363e+00 4.945076594359460387e+02
1.052731600952209412e+00 4.945391543171810440e+02
1.052831622957050461e+00 4.945706661214560427e+02
1.052931644961891511e+00 4.946021936431270660e+02
1.053031666966732560e+00 4.946337356780089181e+02
1.053131688971573610e+00 4.946652910234156479e+02
1.053231710976414659e+00 4.946968584781961908e+02
1.053331732981255708e+00 4.947284368427721120e+02
1.053431754986096980e+00 4.947600249191752937e+02
1.053531776990937807e+00 4.947916215110852818e+02
1.053631798995779079e+00 4.948232254238652672e+02
1.053731821000620128e+00 4.948548354646015355e+02
1.053831843005461177e+00 4.948864504421369475e+02
1.053931865010302227e+00 4.949180691671122077e+02
1.054031887015143276e+00 4.949496904519983786e+02
1.054131909019984326e+00 4.949813131111372400e+02
1.054231931024825375e+00 4.950129359607752235e+02
1.054331953029666424e+00 4.950445578191024083e+02
1.054431975034507474e+00 4.950761775062865695e+02
1.054531997039348523e+00 4.951077938445126279e+02
1.054632019044189573e+00 4.951394056580155620e+02
1.054732041049030844e+00 4.951710117731197442e+02
1.054832063053871893e+00 4.952026110182725915e+02
1.054932085058712721e+00 4.952342022240829920e+02
1.055032107063553992e+00 4.952657842233551833e+02
1.055132129068395042e+00 4.952973558511260990e+02
1.055232151073235869e+00 4.953289159447002135e+02
1.055332173078077140e+00 4.953604633436866607e+02
1.055432195082918190e+00 4.953919968900325443e+02
1.055532217087759239e+00 4.954235154280611368e+02
1.055632239092600289e+00 4.954550178045041662e+02
1.055732261097441338e+00 4.954865028685409243e+02
1.055832283102282387e+00 4.955179694718306109e+02
1.055932305107123437e+00 4.955494164685478609e+02
1.056032327111964486e+00 4.955808427154182709e+02
1.056132349116805536e+00 4.956122470717542114e+02
1.056232371121646807e+00 4.956436283994872838e+02
1.056332393126487634e+00 4.956749855632047002e+02
1.056432415131328906e+00 4.957063174301848107e+02
1.056532437136169955e+00 4.957376228704280265e+02
1.056632459141011005e+00 4.957689007566958139e+02
1.056732481145852054e+00 4.958001499645405374e+02
1.056832503150693103e+00 4.958313693723426354e+02
1.056932525155534153e+00 4.958625578613436460e+02
1.057032547160375202e+00 4.958937143156803131e+02
1.057132569165216252e+00 4.959248376224169306e+02
1.057232591170057301e+00 4.959559266715824606e+02
1.057332613174898350e+00 4.959869803561990693e+02
1.057432635179739400e+00 4.960179975723208941e+02
1.057532657184580671e+00 4.960489772190637723e+02
1.057632679189421721e+00 4.960799181986393478e+02
1.057732701194262548e+00 4.961108194163896314e+02
1.057832723199103819e+00 4.961416797808166166e+02
1.057932745203944869e+00 4.961724982036184315e+02
1.058032767208785696e+00 4.962032735997214559e+02
1.058132789213626967e+00 4.962340048873103342e+02
1.058232811218468017e+00 4.962646909878644692e+02
1.058332833223309066e+00 4.962953308261858183e+02
1.058432855228150116e+00 4.963259233304360123e+02
1.058532877232991165e+00 4.963564674321630719e+02
1.058632899237832214e+00 4.963869620663391515e+02
1.058732921242673264e+00 4.964174061713868014e+02
1.058832943247514313e+00 4.964477986892144372e+02
1.058932965252355363e+00 4.964781385652466952e+02
1.059032987257196634e+00 4.965084247484546154e+02
1.059133009262037461e+00 4.965386561913896344e+02
1.059233031266878733e+00 4.965688318502112679e+02
1.059333053271719782e+00 4.965989506847211032e+02
1.059433075276560832e+00 4.966290116583925851e+02
1.059533097281401881e+00 4.966590137383999490e+02
1.059633119286242930e+00 4.966889558956532369e+02
1.059733141291083980e+00 4.967188371048225122e+02
1.059833163295925029e+00 4.967486563443749787e+02
1.059933185300766079e+00 4.967784125965987414e+02
1.060033207305607128e+00 4.968081048476365709e+02
1.060133229310448177e+00 4.968377320875160876e+02
1.060233251315289227e+00 4.968672933101771036e+02
1.060333273320130498e+00 4.968967875135020904e+02
1.060433295324971326e+00 4.969262136993457943e+02
1.060533317329812375e+00 4.969555708735658186e+02
1.060633339334653646e+00 4.969848580460484300e+02
1.060733361339494696e+00 4.970140742307413007e+02
1.060833383344335523e+00 4.970432184456787468e+02
1.060933405349176795e+00 4.970722897130127649e+02
1.061033427354017844e+00 4.971012870590414536e+02
1.061133449358858893e+00 4.971302095142349913e+02
1.061233471363699943e+00 4.971590561132676385e+02
1.061333493368540992e+00 4.971878258950414988e+02
1.061433515373382042e+00 4.972165179027182944e+02
1.061533537378223091e+00 4.972451311837440358e+02
1.061633559383064140e+00 4.972736647898780120e+02
1.061733581387905190e+00 4.973021177772201327e+02
1.061833603392746239e+00 4.973304892062369049e+02
1.061933625397587289e+00 4.973587781417920723e+02
1.062033647402428560e+00 4.973869836531675901e+02
1.062133669407269609e+00 4.974151048140964804e+02
1.062233691412110659e+00 4.974431407027849446e+02
1.062333713416951708e+00 4.974710904019403301e+02
1.062433735421792758e+00 4.974989529987987567e+02
1.062533757426633807e+00 4.975267275851485351e+02
1.062633779431474856e+00 4.975544132573579645e+02
1.062733801436315906e+00 4.975820091164005134e+02
1.062833823441156955e+00 4.976095142678794332e+02
1.062933845445998005e+00 4.976369278220547585e+02
1.063033867450839054e+00 4.976642488938688302e+02
1.063133889455680325e+00 4.976914766029674411e+02
1.063233911460521153e+00 4.977186100737301899e+02
1.063333933465362202e+00 4.977456484352909456e+02
1.063433955470203474e+00 4.977725908215643358e+02
1.063533977475044523e+00 4.977994363712700192e+02
1.063633999479885350e+00 4.978261842279564462e+02
1.063734021484726622e+00 4.978528335400239371e+02
1.063834043489567671e+00 4.978793834607506597e+02
1.063934065494408721e+00 4.979058331483148550e+02
1.064034087499249770e+00 4.979321817658167788e+02
1.064134109504090819e+00 4.979584284813063846e+02
1.064234131508931869e+00 4.979845724678014562e+02
1.064334153513772918e+00 4.980106129033142679e+02
1.064434175518613968e+00 4.980365489708713653e+02
1.064534197523455017e+00 4.980623798585396003e+02
1.064634219528296066e+00 4.980881047594440929e+02
1.064734241533137116e+00 4.981137228717948346e+02
1.064834263537978387e+00 4.981392333989046506e+02
1.064934285542819437e+00 4.981646355492147222e+02
1.065034307547660486e+00 4.981899285363128342e+02
1.065134329552501535e+00 4.982151115789587266e+02
1.065234351557342585e+00 4.982401839011005791e+02
1.065334373562183634e+00 4.982651447319003069e+02
1.065434395567024684e+00 4.982899933057512953e+02
1.065534417571865733e+00 4.983147288623023883e+02
1.065634439576706782e+00 4.983393506464738039e+02
1.065734461581547832e+00 4.983638579084831122e+02
1.065834483586388881e+00 4.983882499038593323e+02
1.065934505591230153e+00 4.984125258934690237e+02
1.066034527596070980e+00 4.984366851435303829e+02
1.066134549600912029e+00 4.984607269256358677e+02
1.066234571605753301e+00 4.984846505167718078e+02
1.066334593610594350e+00 4.985084551993357991e+02
1.066434615615435177e+00 4.985321402611567123e+02
1.066534637620276449e+00 4.985557049955147590e+02
1.066634659625117498e+00 4.985791487011558729e+02
1.066734681629958548e+00 4.986024706823149018e+02
1.066834703634799597e+00 4.986256702487311259e+02
1.066934725639640646e+00 4.986487467156663342e+02
1.067034747644481696e+00 4.986716994039243218e+02
1.067134769649322745e+00 4.986945276398664646e+02
1.067234791654163795e+00 4.987172307554297959e+02
1.067334813659004844e+00 4.987398080881441729e+02
1.067434835663845893e+00 4.987622589811498983e+02
1.067534857668686943e+00 4.987845827832140913e+02
1.067634879673528214e+00 4.988067788487458074e+02
1.067734901678369264e+00 4.988288465378163892e+02
1.067834923683210313e+00 4.988507852161707206e+02
1.067934945688051362e+00 4.988725942552462129e+02
1.068034967692892412e+00 4.988942730321883232e+02
1.068134989697733461e+00 4.989158209298656743e+02
1.068235011702574511e+00 4.989372373368854028e+02
1.068335033707415560e+00 4.989585216476084497e+02
1.068435055712256609e+00 4.989796732621645106e+02
1.068535077717097659e+00 4.990006915864662460e+02
1.068635099721938708e+00 4.990215760322256529e+02
1.068735121726779980e+00 4.990423260169662854e+02
1.068835143731620807e+00 4.990629409640387735e+02
1.068935165736461856e+00 4.990834203026336127e+02
1.069035187741303128e+00 4.991037634677965116e+02
1.069135209746143955e+00 4.991239699004400450e+02
1.069235231750985005e+00 4.991440390473589446e+02
1.069335253755826276e+00 4.991639703612412404e+02
1.069435275760667325e+00 4.991837633006824149e+02
1.069535297765508375e+00 4.992034173301985334e+02
1.069635319770349424e+00 4.992229319202370448e+02
1.069735341775190474e+00 4.992423065471914470e+02
1.069835363780031523e+00 4.992615406934104954e+02
1.069935385784872572e+00 4.992806338472116181e+02
1.070035407789713622e+00 4.992995855028941605e+02
1.070135429794554671e+00 4.993183951607470590e+02
1.070235451799395721e+00 4.993370623270639612e+02
1.070335473804236770e+00 4.993555865141517529e+02
1.070435495809078041e+00 4.993739672403416421e+02
1.070535517813918869e+00 4.993922040300014942e+02
1.070635539818760140e+00 4.994102964135437333e+02
1.070735561823601190e+00 4.994282439274383592e+02
1.070835583828442239e+00 4.994460461142189160e+02
1.070935605833283288e+00 4.994637025224972149e+02
1.071035627838124338e+00 4.994812127069690746e+02
1.071135649842965387e+00 4.994985762284246675e+02
1.071235671847806437e+00 4.995157926537592061e+02
1.071335693852647486e+00 4.995328615559793661e+02
1.071435715857488535e+00 4.995497825142131774e+02
1.071535737862329807e+00 4.995665551137200850e+02
1.071635759867170634e+00 4.995831789458956678e+02
1.071735781872011684e+00 4.995996536082827788e+02
1.071835803876852955e+00 4.996159787045780831e+02
1.071935825881693782e+00 4.996321538446396744e+02
1.072035847886534832e+00 4.996481786444951467e+02
1.072135869891376103e+00 4.996640527263488707e+02
1.072235891896217153e+00 4.996797757185873934e+02
1.072335913901058202e+00 4.996953472557876239e+02
1.072435935905899251e+00 4.997107669787233135e+02
1.072535957910740301e+00 4.997260345343713652e+02
1.072635979915581350e+00 4.997411495759179161e+02
1.072736001920422400e+00 4.997561117627631120e+02
1.072836023925263449e+00 4.997709207605289521e+02
1.072936045930104498e+00 4.997855762410631542e+02
1.073036067934945548e+00 4.998000778824450094e+02
1.073136089939786597e+00 4.998144253689900438e+02
1.073236111944627869e+00 4.998286183912564411e+02
1.073336133949468696e+00 4.998426566460462368e+02
1.073436155954309967e+00 4.998565398364137309e+02
1.073536177959151017e+00 4.998702676716676478e+02
1.073636199963992066e+00 4.998838398673743200e+02
1.073736221968833116e+00 4.998972561453631442e+02
1.073836243973674165e+00 4.999105162337299930e+02
1.073936265978515214e+00 4.999236198668390898e+02
1.074036287983356264e+00 4.999365667853272726e+02
1.074136309988197313e+00 4.999493567361068926e+02
1.074236331993038362e+00 4.999619894723686571e+02
1.074336353997879634e+00 4.999744647535829927e+02
1.074436376002720461e+00 4.999867823455031157e+02
1.074536398007561511e+00 4.999989420201681583e+02
1.074636420012402782e+00 5.000109435559025428e+02
1.074736442017243609e+00 5.000227867373198478e+02
1.074836464022084659e+00 5.000344713553223528e+02
1.074936486026925930e+00 5.000459972071039942e+02
1.075036508031766980e+00 5.000573640961501951e+02
1.075136530036608029e+00 5.000685718322383764e+02
1.075236552041449078e+00 5.000796202314405718e+02
1.075336574046290128e+00 5.000905091161204155e+02
1.075436596051131177e+00 5.001012383149367224e+02
1.075536618055972227e+00 5.001118076628405333e+02
1.075636640060813276e+00 5.001222170010765922e+02
1.075736662065654325e+00 5.001324661771816409e+02
1.075836684070495375e+00 5.001425550449853290e+02
1.075936706075336424e+00 5.001524834646071440e+02
1.076036728080177696e+00 5.001622513024567525e+02
1.076136750085018523e+00 5.001718584312321809e+02
1.076236772089859794e+00 5.001813047299182244e+02
1.076336794094700844e+00 5.001905900837846275e+02
1.076436816099541893e+00 5.001997143843834692e+02
1.076536838104382943e+00 5.002086775295483676e+02
1.076636860109223992e+00 5.002174794233905004e+02
1.076736882114065041e+00 5.002261199762963315e+02
1.076836904118906091e+00 5.002345991049269287e+02
1.076936926123747140e+00 5.002429167322094372e+02
1.077036948128588190e+00 5.002510727873414567e+02
1.077136970133429239e+00 5.002590672057802976e+02
1.077236992138270288e+00 5.002668999292429817e+02
1.077337014143111338e+00 5.002745709057031718e+02
1.077437036147952609e+00 5.002820800893830437e+02
1.077537058152793437e+00 5.002894274407536841e+02
1.077637080157634486e+00 5.002966129265267909e+02
1.077737102162475757e+00 5.003036365196522297e+02
1.077837124167316585e+00 5.003104981993125762e+02
1.077937146172157856e+00 5.003171979509148173e+02
1.078037168176998906e+00 5.003237357660916018e+02
1.078137190181839955e+00 5.003301116426890189e+02
1.078237212186681004e+00 5.003363255847647224e+02
1.078337234191522054e+00 5.003423776025787788e+02
1.078437256196363103e+00 5.003482677125920191e+02
1.078537278201204153e+00 5.003539959374551245e+02
1.078637300206045202e+00 5.003595623060040793e+02
1.078737322210886251e+00 5.003649668532526675e+02
1.078837344215727523e+00 5.003702096203868450e+02
1.078937366220568350e+00 5.003752906547551333e+02
1.079037388225409622e+00 5.003802100098627079e+02
1.079137410230250671e+00 5.003849677453625873e+02
1.079237432235091498e+00 5.003895639270511992e+02
1.079337454239932770e+00 5.003939986268539428e+02
1.079437476244773819e+00 5.003982719228235396e+02
1.079537498249614869e+00 5.004023838991269599e+02
1.079637520254455918e+00 5.004063346460392268e+02
1.079737542259296967e+00 5.004101242599321608e+02
1.079837564264138017e+00 5.004137528432685258e+02
1.079937586268979066e+00 5.004172205045896362e+02
1.080037608273820116e+00 5.004205273585084228e+02
1.080137630278661165e+00 5.004236735256965858e+02
1.080237652283502436e+00 5.004266591328784557e+02
1.080337674288343264e+00 5.004294843128175785e+02
1.080437696293184313e+00 5.004321492043081889e+02
1.080537718298025585e+00 5.004346539521646946e+02
1.080637740302866412e+00 5.004369987072104209e+02
1.080737762307707683e+00 5.004391836262658444e+02
1.080837784312548733e+00 5.004412088721405212e+02
1.080937806317389782e+00 5.004430746136173411e+02
1.081037828322230832e+00 5.004447810254453088e+02
1.081137850327071881e+00 5.004463282883256738e+02
1.081237872331912930e+00 5.004477165888990271e+02
1.081337894336753980e+00 5.004489461197368882e+02
1.081437916341595029e+00 5.004500170793240841e+02
1.081537938346436079e+00 5.004509296720514726e+02
1.081637960351277350e+00 5.004516841082009933e+02
1.081737982356118177e+00 5.004522806039314560e+02
1.081838004360959449e+00 5.004527193812687074e+02
1.081938026365800498e+00 5.004530006680885776e+02
1.082038048370641325e+00 5.004531246981072741e+02
1.082138070375482597e+00 5.004530917108641574e+02
1.082238092380323646e+00 5.004529019517112829e+02
1.082338114385164696e+00 5.004525556717968016e+02
1.082438136390005745e+00 5.004520531280521709e+02
1.082538158394846795e+00 5.004513945831766364e+02
1.082638180399687844e+00 5.004505803056248965e+02
1.082738202404528893e+00 5.004496105695890265e+02
1.082838224409369943e+00 5.004484856549855749e+02
1.082938246414210992e+00 5.004472058474418077e+02
1.083038268419052264e+00 5.004457714382770064e+02
1.083138290423893091e+00 5.004441827244889964e+02
1.083238312428734140e+00 5.004424400087383447e+02
1.083338334433575412e+00 5.004405435993329547e+02
1.083438356438416239e+00 5.004384938102097635e+02
1.083538378443257510e+00 5.004362909609216672e+02
1.083638400448098560e+00 5.004339353766184786e+02
1.083738422452939609e+00 5.004314273880315795e+02
1.083838444457780659e+00 5.004287673314573226e+02
1.083938466462621708e+00 5.004259555487392390e+02
1.084038488467462757e+00 5.004229923872518384e+02
1.084138510472303807e+00 5.004198781998817935e+02
1.084238532477144856e+00 5.004166133450126495e+02
1.084338554481985906e+00 5.004131981865052126e+02
1.084438576486827177e+00 5.004096330936803838e+02
1.084538598491668004e+00 5.004059184413012531e+02
1.084638620496509276e+00 5.004020546095551936e+02
1.084738642501350325e+00 5.003980419840348759e+02
1.084838664506191153e+00 5.003938809557198510e+02
1.084938686511032424e+00 5.003895719209580193e+02
1.085038708515873473e+00 5.003851152814466445e+02
1.085138730520714523e+00 5.003805114442138802e+02
1.085238752525555572e+00 5.003757608215979644e+02
1.085338774530396622e+00 5.003708638312300536e+02
1.085438796535237671e+00 5.003658208960125648e+02
1.085538818540078720e+00 5.003606324441001334e+02
1.085638840544919770e+00 5.003552989088815366e+02
1.085738862549760819e+00 5.003498207289559332e+02
1.085838884554601869e+00 5.003441983481156967e+02
1.085938906559442918e+00 5.003384322153259518e+02
1.086038928564283967e+00 5.003325227847013821e+02
1.086138950569125239e+00 5.003264705154878129e+02
1.086238972573966066e+00 5.003202758720411225e+02
1.086338994578807338e+00 5.003139393238064940e+02
1.086439016583648387e+00 5.003074613452949393e+02
1.086539038588489436e+00 5.003008424160640288e+02
1.086639060593330486e+00 5.002940830206968599e+02
1.086739082598171535e+00 5.002871836487780115e+02
1.086839104603012585e+00 5.002801447948743316e+02
1.086939126607853634e+00 5.002729669585104375e+02
1.087039148612694683e+00 5.002656506441491047e+02
1.087139170617535733e+00 5.002581963611669380e+02
1.087239192622376782e+00 5.002506046238323734e+02
1.087339214627217832e+00 5.002428759512842475e+02
1.087439236632059103e+00 5.002350108675079809e+02
1.087539258636900152e+00 5.002270099013117601e+02
1.087639280641740980e+00 5.002188735863063584e+02
1.087739302646582251e+00 5.002106024608781354e+02
1.087839324651423301e+00 5.002021970681695962e+02
1.087939346656264128e+00 5.001936579560523342e+02
1.088039368661105399e+00 5.001849856771064537e+02
1.088139390665946449e+00 5.001761807885936832e+02
1.088239412670787498e+00 5.001672438524364566e+02
1.088339434675628548e+00 5.001581754351922768e+02
1.088439456680469597e+00 5.001489761080287053e+02
1.088539478685310646e+00 5.001396464467010219e+02
1.088639500690151696e+00 5.001301870315264750e+02
1.088739522694992745e+00 5.001205984473587023e+02
1.088839544699833795e+00 5.001108812835655613e+02
1.088939566704675066e+00 5.001010361340015606e+02
1.089039588709515893e+00 5.000910635969845544e+02
1.089139610714357165e+00 5.000809642752702189e+02
1.089239632719198214e+00 5.000707387760248821e+02
1.089339654724039264e+00 5.000603877108032975e+02
1.089439676728880313e+00 5.000499116955201089e+02
1.089539698733721362e+00 5.000393113504266012e+02
1.089639720738562412e+00 5.000285873000820516e+02
1.089739742743403461e+00 5.000177401733305373e+02
1.089839764748244511e+00 5.000067706032724573e+02
1.089939786753085560e+00 4.999956792272406574e+02
1.090039808757926609e+00 4.999844666867705314e+02
1.090139830762767659e+00 4.999731336275785907e+02
1.090239852767608930e+00 4.999616806995313709e+02
1.090339874772449980e+00 4.999501085566197389e+02
1.090439896777290807e+00 4.999384178569339952e+02
1.090539918782132078e+00 4.999266092626347699e+02
1.090639940786973128e+00 4.999146834399256250e+02
1.090739962791813955e+00 4.999026410590278715e+02
1.090839984796655227e+00 4.998904827941528310e+02
1.090940006801496276e+00 4.998782093234720492e+02
1.091040028806337325e+00 4.998658213290920003e+02
1.091140050811178375e+00 4.998533194970252111e+02
1.091240072816019424e+00 4.998407045171630330e+02
1.091340094820860473e+00 4.998279770832488111e+02
1.091440116825701523e+00 4.998151378928465647e+02
1.091540138830542572e+00 4.998021876473161456e+02
1.091640160835383622e+00 4.997891270517831117e+02
1.091740182840224893e+00 4.997759568151108169e+02
1.091840204845065720e+00 4.997626776498730692e+02
1.091940226849906992e+00 4.997492902723220141e+02
1.092040248854748041e+00 4.997357954023649427e+02
1.092140270859589091e+00 4.997221937635302424e+02
1.092240292864430140e+00 4.997084860829410218e+02
1.092340314869271189e+00 4.996946730912865178e+02
1.092440336874112239e+00 4.996807555227909461e+02
1.092540358878953288e+00 4.996667341151867845e+02
1.092640380883794338e+00 4.996526096096829974e+02
1.092740402888635387e+00 4.996383827509376374e+02
1.092840424893476436e+00 4.996240542870269792e+02
1.092940446898317486e+00 4.996096249694168137e+02
1.093040468903158757e+00 4.995950955529316957e+02
1.093140490907999807e+00 4.995804667957268066e+02
1.093240512912840634e+00 4.995657394592554965e+02
1.093340534917681905e+00 4.995509143082424544e+02
1.093440556922522955e+00 4.995359921106509091e+02
1.093540578927363782e+00 4.995209736376535261e+02
1.093640600932205054e+00 4.995058596636027914e+02
1.093740622937046103e+00 4.994906509660002598e+02
1.093840644941887152e+00 4.994753483254641537e+02
1.093940666946728202e+00 4.994599525257028745e+02
1.094040688951569251e+00 4.994444643534803845e+02
1.094140710956410301e+00 4.994288845985880698e+02
1.094240732961251350e+00 4.994132140538127942e+02
1.094340754966092399e+00 4.993974535149067719e+02
1.094440776970933449e+00 4.993816037805564747e+02
1.094540798975774498e+00 4.993656656523499464e+02
1.094640820980615548e+00 4.993496399347495185e+02
1.094740842985456819e+00 4.993335274350553163e+02
1.094840864990297868e+00 4.993173289633797367e+02
1.094940886995138918e+00 4.993010453326129436e+02
1.095040908999979967e+00 4.992846773583905815e+02
1.095140931004821017e+00 4.992682258590642732e+02
1.095240953009662066e+00 4.992516916556708111e+02
1.095340975014503115e+00 4.992350755718973119e+02
1.095440997019344165e+00 4.992183784340529655e+02
1.095541019024185214e+00 4.992016010710349292e+02
1.095641041029026264e+00 4.991847443142972907e+02
1.095741063033867313e+00 4.991678089978206003e+02
1.095841085038708584e+00 4.991507959580779925e+02
1.095941107043549412e+00 4.991337060340031258e+02
1.096041129048390461e+00 4.991165400669607379e+02
1.096141151053231733e+00 4.990992989007098686e+02
1.096241173058072782e+00 4.990819833813778246e+02
1.096341195062913609e+00 4.990645943574219814e+02
1.096441217067754881e+00 4.990471326796021572e+02
1.096541239072595930e+00 4.990295992009448582e+02
1.096641261077436980e+00 4.990119947767125268e+02
1.096741283082278029e+00 4.989943202643714244e+02
1.096841305087119078e+00 4.989765765235587196e+02
1.096941327091960128e+00 4.989587644160481545e+02
1.097041349096801177e+00 4.989408848057216233e+02
1.097141371101642227e+00 4.989229385585321097e+02
1.097241393106483276e+00 4.989049265424731630e+02
1.097341415111324325e+00 4.988868496275468942e+02
1.097441437116165375e+00 4.988687086857285067e+02
1.097541459121006646e+00 4.988505045909365663e+02
1.097641481125847696e+00 4.988322382189977020e+02
1.097741503130688745e+00 4.988139104476150578e+02
1.097841525135529794e+00 4.987955221563353234e+02
1.097941547140370844e+00 4.987770742265148556e+02
1.098041569145211893e+00 4.987585675412871637e+02
1.098141591150052943e+00 4.987400029855299408e+02
1.098241613154893992e+00 4.987213814458313550e+02
1.098341635159735041e+00 4.987027038104591838e+02
1.098441657164576091e+00 4.986839709693233544e+02
1.098541679169417140e+00 4.986651838139465553e+02
1.098641701174258412e+00 4.986463432374300737e+02
1.098741723179099239e+00 4.986274501344190071e+02
1.098841745183940288e+00 4.986085054010718522e+02
1.098941767188781560e+00 4.985895099350235000e+02
1.099041789193622609e+00 4.985704646353547673e+02
1.099141811198463436e+00 4.985513704025580637e+02
1.099241833203304708e+00 4.985322281385044789e+02
1.099341855208145757e+00 4.985130387464089381e+02
1.099441877212986807e+00 4.984938031307985966e+02
1.099541899217827856e+00 4.984745221974779952e+02
1.099641921222668906e+00 4.984551968534967159e+02
1.099741943227509955e+00 4.984358280071147078e+02
1.099841965232351004e+00 4.984164165677694882e+02
1.099941987237192054e+00 4.983969634460423777e+02
1.100042009242033103e+00 4.983774695536263835e+02
1.100142031246874152e+00 4.983579358032890241e+02
1.100242053251715202e+00 4.983383631088435664e+02
1.100342075256556473e+00 4.983187523851116794e+02
1.100442097261397523e+00 4.982991045478898968e+02
1.100542119266238572e+00 4.982794205139199448e+02
1.100642141271079621e+00 4.982597012008509978e+02
1.100742163275920671e+00 4.982399475272080167e+02
1.100842185280761720e+00 4.982201604123570178e+02
1.100942207285602770e+00 4.982003407764724443e+02
1.101042229290443819e+00 4.981804895405036291e+02
1.101142251295284868e+00 4.981606076261410294e+02
1.101242273300125918e+00 4.981406959557814957e+02
1.101342295304966967e+00 4.981207554524953025e+02
1.101442317309808239e+00 4.981007870399949979e+02
1.101542339314649066e+00 4.980807916425968642e+02
1.101642361319490115e+00 4.980607701851913021e+02
1.101742383324331387e+00 4.980407235932077583e+02
1.101842405329172436e+00 4.980206527925827231e+02
1.101942427334013264e+00 4.980005587097219859e+02
1.102042449338854535e+00 4.979804422714726684e+02
1.102142471343695584e+00 4.979603044050851395e+02
1.102242493348536634e+00 4.979401460381816378e+02
1.102342515353377683e+00 4.979199680987222791e+02
1.102442537358218733e+00 4.978997715149728265e+02
1.102542559363059782e+00 4.978795572154668889e+02
1.102642581367900831e+00 4.978593261289788074e+02
1.102742603372741881e+00 4.978390791844851719e+02
1.102842625377582930e+00 4.978188173111332162e+02
1.102942647382423980e+00 4.977985414382075646e+02
1.103042669387265029e+00 4.977782524950956144e+02
1.103142691392106300e+00 4.977579514112563857e+02
1.103242713396947128e+00 4.977376391161848801e+02
1.103342735401788399e+00 4.977173165393805903e+02
1.103442757406629449e+00 4.976969846103120290e+02
1.103542779411470498e+00 4.976766442583857497e+02
1.103642801416311547e+00 4.976562964129111606e+02
1.103742823421152597e+00 4.976359420030693741e+02
1.103842845425993646e+00 4.976155819578773389e+02
1.103942867430834696e+00 4.975952172061588499e+02
1.104042889435675745e+00 4.975748486765046437e+02
1.104142911440516794e+00 4.975544772972473311e+02
1.104242933445358066e+00 4.975341039964223455e+02
1.104342955450198893e+00 4.975137297017375317e+02
1.104442977455039943e+00 4.974933553405394946e+02
1.104542999459881214e+00 4.974729818397820509e+02
1.104643021464722041e+00 4.974526101259892812e+02
1.104743043469563091e+00 4.974322411252281313e+02
1.104843065474404362e+00 4.974118757630723167e+02
1.104943087479245412e+00 4.973915149645695806e+02
1.105043109484086461e+00 4.973711596542091797e+02
1.105143131488927510e+00 4.973508107558909614e+02
1.105243153493768560e+00 4.973304691928905754e+02
1.105343175498609609e+00 4.973101358878274141e+02
1.105443197503450659e+00 4.972898117626328940e+02
1.105543219508291708e+00 4.972694977385165771e+02
1.105643241513132757e+00 4.972491947359354754e+02
1.105743263517973807e+00 4.972289036745597741e+02
1.105843285522814856e+00 4.972086254732428188e+02
1.105943307527656128e+00 4.971883610499852466e+02
1.106043329532496955e+00 4.971681113219070198e+02
1.106143351537338226e+00 4.971478772052123531e+02
1.106243373542179276e+00 4.971276596151583931e+02
1.106343395547020325e+00 4.971074594660239541e+02
1.106443417551861375e+00 4.970872776710754692e+02
1.106543439556702424e+00 4.970671151425378866e+02
1.106643461561543473e+00 4.970469727915606200e+02
1.106743483566384523e+00 4.970268515281859436e+02
1.106843505571225572e+00 4.970067522613189794e+02
1.106943527576066622e+00 4.969866758986936475e+02
1.107043549580907893e+00 4.969666233468430505e+02
1.107143571585748720e+00 4.969465955110667892e+02
1.107243593590589770e+00 4.969265932953991864e+02
1.107343615595431041e+00 4.969066176025798995e+02
1.107443637600271868e+00 4.968866693340203824e+02
1.107543659605112918e+00 4.968667493897730765e+02
1.107643681609954189e+00 4.968468586685006585e+02
1.107743703614795239e+00 4.968269980674464819e+02
1.107843725619636288e+00 4.968071684823991063e+02
1.107943747624477338e+00 4.967873708076668890e+02
1.108043769629318387e+00 4.967676059360430258e+02
1.108143791634159436e+00 4.967478747587764474e+02
1.108243813639000486e+00 4.967281781655402710e+02
1.108343835643841535e+00 4.967085170444022992e+02
1.108443857648682584e+00 4.966888922817933008e+02
1.108543879653523634e+00 4.966693047624774522e+02
1.108643901658364683e+00 4.966497553695210740e+02
1.108743923663205955e+00 4.966302449842629585e+02
1.108843945668046782e+00 4.966107744862842992e+02
1.108943967672888053e+00 4.965913447533779390e+02
1.109043989677729103e+00 4.965719566615184135e+02
1.109144011682570152e+00 4.965526110848326198e+02
1.109244033687411202e+00 4.965333088955680410e+02
1.109344055692252251e+00 4.965140509640671667e+02
1.109444077697093300e+00 4.964948381587323638e+02
1.109544099701934350e+00 4.964756713460005244e+02
1.109644121706775399e+00 4.964565513903110059e+02
1.109744143711616449e+00 4.964374791540782326e+02
1.109844165716457720e+00 4.964184554976602044e+02
1.109944187721298547e+00 4.963994812793317806e+02
1.110044209726139597e+00 4.963805573552527335e+02
1.110144231730980868e+00 4.963616845794415440e+02
1.110244253735821696e+00 4.963428638037445353e+02
1.110344275740662745e+00 4.963240958778067125e+02
1.110444297745504016e+00 4.963053816490457280e+02
1.110544319750345066e+00 4.962867219626205042e+02
1.110644341755186115e+00 4.962681176614037213e+02
1.110744363760027165e+00 4.962495695859537364e+02
1.110844385764868214e+00 4.962310785744857071e+02
1.110944407769709263e+00 4.962126454628436250e+02
1.111044429774550313e+00 4.961942710844724047e+02
1.111144451779391362e+00 4.961759562703894062e+02
1.111244473784232412e+00 4.961577018491573199e+02
1.111344495789073461e+00 4.961395086468554609e+02
1.111444517793914510e+00 4.961213774870524844e+02
1.111544539798755782e+00 4.961033091907796120e+02
1.111644561803596609e+00 4.960853045765023808e+02
1.111744583808437881e+00 4.960673644600920511e+02
1.111844605813278930e+00 4.960494896548028123e+02
1.111944627818119757e+00 4.960316809712386430e+02
1.112044649822961029e+00 4.960139392173306874e+02
1.112144671827802078e+00 4.959962651983097999e+02
1.112244693832643128e+00 4.959786597166772708e+02
1.112344715837484177e+00 4.959611235721819185e+02
1.112444737842325226e+00 4.959436575617903600e+02
1.112544759847166276e+00 4.959262624796626255e+02
1.112644781852007325e+00 4.959089391171253283e+02
1.112744803856848375e+00 4.958916882626444362e+02
1.112844825861689424e+00 4.958745107018019667e+02
1.112944847866530695e+00 4.958574072172665410e+02
1.113044869871371523e+00 4.958403785887702497e+02
1.113144891876212572e+00 4.958234255930826180e+02
1.113244913881053844e+00 4.958065490039845145e+02
1.113344935885894671e+00 4.957897495922418329e+02
1.113444957890735942e+00 4.957730281255828686e+02
1.113544979895576992e+00 4.957563853686704078e+02
1.113645001900418041e+00 4.957398220830784794e+02
1.113745023905259091e+00 4.957233390272670022e+02
1.113845045910100140e+00 4.957069369565572856e+02
1.113945067914941189e+00 4.956906166231055977e+02
1.114045089919782239e+00 4.956743787758817348e+02
1.114145111924623288e+00 4.956582241606427601e+02
1.114245133929464338e+00 4.956421535199087884e+02
1.114345155934305609e+00 4.956261675929396233e+02
1.114445177939146436e+00 4.956102671157100872e+02
1.114545199943987708e+00 4.955944528208873976e+02
1.114645221948828757e+00 4.955787254378055877e+02
1.114745243953669585e+00 4.955630856924436785e+02
1.114845265958510856e+00 4.955475343074017474e+02
1.114945287963351905e+00 4.955320720018773386e+02
1.115045309968192955e+00 4.955166994916427257e+02
1.115145331973034004e+00 4.955014174890217760e+02
1.115245353977875054e+00 4.954862267028669862e+02
1.115345375982716103e+00 4.954711278385381661e+02
1.115445397987557152e+00 4.954561215978769155e+02
1.115545419992398202e+00 4.954412086791867296e+02
1.115645441997239251e+00 4.954263897772104883e+02
1.115745464002080523e+00 4.954116655831072649e+02
1.115845486006921350e+00 4.953970367844313500e+02
1.115945508011762399e+00 4.953825040651098561e+02
1.116045530016603671e+00 4.953680681054208321e+02
1.116145552021444498e+00 4.953537295819730275e+02
1.116245574026285770e+00 4.953394891676824159e+02
1.116345596031126819e+00 4.953253475317535504e+02
1.116445618035967868e+00 4.953113053396555756e+02
1.116545640040808918e+00 4.952973632531039243e+02
1.116645662045649967e+00 4.952835219300383756e+02
1.116745684050491016e+00 4.952697820246016818e+02
1.116845706055332066e+00 4.952561441871206398e+02
1.116945728060173115e+00 4.952426090640842631e+02
1.117045750065014165e+00 4.952291772981250233e+02
1.117145772069855436e+00 4.952158495279980457e+02
1.117245794074696263e+00 4.952026263885611570e+02
1.117345816079537535e+00 4.951895085107552177e+02
1.117445838084378584e+00 4.951764965215850225e+02
1.117545860089219412e+00 4.951635910440995758e+02
1.117645882094060683e+00 4.951507926973727081e+02
1.117745904098901732e+00 4.951381020964844311e+02
1.117845926103742782e+00 4.951255198525016681e+02
1.117945948108583831e+00 4.951130465724593250e+02
1.118045970113424881e+00 4.951006828593421574e+02
1.118145992118265930e+00 4.950884293120666939e+02
1.118246014123106979e+00 4.950762865254608300e+02
1.118346036127948029e+00 4.950642550902487642e+02
1.118446058132789078e+00 4.950523355930304774e+02
1.118546080137630350e+00 4.950405286162656466e+02
1.118646102142471177e+00 4.950288347382550000e+02
1.118746124147312226e+00 4.950172545331224683e+02
1.118846146152153498e+00 4.950057885708005188e+02
1.118946168156994325e+00 4.949944374170088395e+02
1.119046190161835597e+00 4.949832016332409239e+02
1.119146212166676646e+00 4.949720817767450285e+02
1.119246234171517695e+00 4.949610784005092228e+02
1.119346256176358745e+00 4.949501920532428585e+02
1.119446278181199794e+00 4.949394232793630408e+02
1.119546300186040844e+00 4.949287726189751311e+02
1.119646322190881893e+00 4.949182406078597865e+02
1.119746344195722942e+00 4.949078277774555090e+02
1.119846366200563992e+00 4.948975346548426728e+02
1.119946388205405263e+00 4.948873617627295403e+02
1.120046410210246091e+00 4.948773096194352661e+02
1.120146432215087362e+00 4.948673787388762548e+02
1.120246454219928411e+00 4.948575696305505289e+02
1.120346476224769239e+00 4.948478827995219262e+02
1.120446498229610510e+00 4.948383187464079924e+02
1.120546520234451560e+00 4.948288779673618478e+02
1.120646542239292387e+00 4.948195609540621831e+02
1.120746564244133658e+00 4.948103681936951261e+02
1.120846586248974708e+00 4.948013001689431576e+02
1.120946608253815757e+00 4.947923573579697063e+02
1.121046630258656807e+00 4.947835402344067575e+02
1.121146652263497856e+00 4.947748492673400165e+02
1.121246674268338905e+00 4.947662849212968581e+02
1.121346696273179955e+00 4.947578476562325704e+02
1.121446718278021004e+00 4.947495379275176219e+02
1.121546740282862054e+00 4.947413561859248716e+02
1.121646762287703325e+00 4.947333028776176889e+02
1.121746784292544152e+00 4.947253784441357993e+02
1.121846806297385424e+00 4.947175833223848258e+02
1.121946828302226473e+00 4.947099179446241806e+02
1.122046850307067523e+00 4.947023827384546166e+02
1.122146872311908572e+00 4.946949781268046991e+02
1.122246894316749621e+00 4.946877045279239837e+02
1.122346916321590671e+00 4.946805623553661917e+02
1.122446938326431720e+00 4.946735520179829564e+02
1.122546960331272770e+00 4.946666739199093854e+02
1.122646982336113819e+00 4.946599284605549656e+02
1.122747004340954868e+00 4.946533160345920805e+02
1.122847026345795918e+00 4.946468370319468022e+02
1.122947048350637189e+00 4.946404918377866125e+02
1.123047070355478239e+00 4.946342808325121041e+02
1.123147092360319066e+00 4.946282043917465217e+02
1.123247114365160337e+00 4.946222628863259274e+02
1.123347136370001387e+00 4.946164566822893676e+02
1.123447158374842214e+00 4.946107861408702888e+02
1.123547180379683486e+00 4.946052516184864203e+02
1.123647202384524535e+00 4.945998534667310196e+02
1.123747224389365584e+00 4.945945920323651421e+02
1.123847246394206634e+00 4.945894676573075799e+02
1.123947268399047683e+00 4.945844806786261643e+02
1.124047290403888733e+00 4.945796314285313997e+02
1.124147312408729782e+00 4.945749202343660613e+02
1.124247334413570831e+00 4.945703474185993969e+02
1.124347356418411881e+00 4.945659132988172360e+02
1.124447378423253152e+00 4.945616181877167605e+02
1.124547400428093979e+00 4.945574623930959888e+02
1.124647422432935251e+00 4.945534462178500803e+02
1.124747444437776300e+00 4.945495699599626960e+02
1.124847466442617350e+00 4.945458339124979261e+02
1.124947488447458399e+00 4.945422383635954020e+02
1.125047510452299449e+00 4.945387835964631336e+02
1.125147532457140498e+00 4.945354698893719956e+02
1.125247554461981547e+00 4.945322975156486223e+02
1.125347576466822597e+00 4.945292667436679608e+02
1.125447598471663646e+00 4.945263778368531007e+02
1.125547620476504695e+00 4.945236310536623705e+02
1.125647642481345745e+00 4.945210266475888261e+02
1.125747664486187016e+00 4.945185648671542253e+02
1.125847686491028066e+00 4.945162459559027184e+02
1.125947708495868893e+00 4.945140701523974371e+02
1.126047730500710164e+00 4.945120376902139014e+02
1.126147752505551214e+00 4.945101487979392800e+02
1.126247774510392041e+00 4.945084036991628409e+02
1.126347796515233313e+00 4.945068026124762355e+02
1.126447818520074362e+00 4.945053457514676438e+02
1.126547840524915411e+00 4.945040333247176250e+02
1.126647862529756461e+00 4.945028655357983780e+02
1.126747884534597510e+00 4.945018425832660682e+02
1.126847906539438560e+00 4.945009646606604861e+02
1.126947928544279609e+00 4.945002319565010680e+02
1.127047950549120658e+00 4.944996446542847934e+02
1.127147972553961708e+00 4.944992029324831151e+02
1.127247994558802979e+00 4.944989069645384916e+02
1.127348016563643807e+00 4.944987569188648422e+02
1.127448038568485078e+00 4.944987529588413508e+02
1.127548060573326127e+00 4.944988952428150242e+02
1.127648082578167177e+00 4.944991839240948366e+02
1.127748104583008226e+00 4.944996191509529808e+02
1.127848126587849276e+00 4.945002010666229353e+02
1.127948148592690325e+00 4.945009298092963945e+02
1.128048170597531374e+00 4.945018055121254861e+02
1.128148192602372424e+00 4.945028283032196441e+02
1.128248214607213473e+00 4.945039983056443589e+02
1.128348236612054523e+00 4.945053156374237915e+02
1.128448258616895572e+00 4.945067804115360559e+02
1.128548280621736843e+00 4.945083927359180507e+02
1.128648302626577893e+00 4.945101527134612525e+02
1.128748324631418720e+00 4.945120604420142172e+02
1.128848346636259992e+00 4.945141160143832622e+02
1.128948368641101041e+00 4.945163195183313292e+02
1.129048390645941868e+00 4.945186710365800877e+02
1.129148412650783140e+00 4.945211706468107309e+02
1.129248434655624189e+00 4.945238184216647710e+02
1.129348456660465239e+00 4.945266144287452903e+02
1.129448478665306288e+00 4.945295587306197262e+02
1.129548500670147337e+00 4.945326513848195304e+02
1.129648522674988387e+00 4.945358924438431245e+02
1.129748544679829436e+00 4.945392819551584012e+02
1.129848566684670486e+00 4.945428199612038043e+02
1.129948588689511535e+00 4.945465064993917395e+02
1.130048610694352584e+00 4.945503416021098815e+02
1.130148632699193634e+00 4.945543252967261765e+02
1.130248654704034905e+00 4.945584576055888988e+02
1.130348676708875955e+00 4.945627385460323922e+02
1.130448698713717004e+00 4.945671681303780360e+02
1.130548720718558053e+00 4.945717463659399300e+02
1.130648742723399103e+00 4.945764732550263716e+02
1.130748764728240152e+00 4.945813487949457112e+02
1.130848786733081202e+00 4.945863729780086828e+02
1.130948808737922251e+00 4.945915457915330080e+02
1.131048830742763300e+00 4.945968672178491943e+02
1.131148852747604350e+00 4.946023372343020128e+02
1.131248874752445399e+00 4.946079558132582861e+02
1.131348896757286671e+00 4.946137229221102984e+02
1.131448918762127498e+00 4.946196385232804005e+02
1.131548940766968547e+00 4.946257025742272617e+02
1.131648962771809819e+00 4.946319150274507024e+02
1.131748984776650868e+00 4.946382758304973208e+02
1.131849006781491696e+00 4.946447849259661780e+02
1.131949028786332967e+00 4.946514422515145384e+02
1.132049050791174016e+00 4.946582477398644642e+02
1.132149072796015066e+00 4.946652013188081582e+02
1.132249094800856115e+00 4.946723029112160361e+02
1.132349116805697165e+00 4.946795524350408755e+02
1.132449138810538214e+00 4.946869498033267973e+02
1.132549160815379263e+00 4.946944949242159737e+02
1.132649182820220313e+00 4.947021877009533455e+02
1.132749204825061362e+00 4.947100280318963996e+02
1.132849226829902411e+00 4.947180158105218197e+02
1.132949248834743461e+00 4.947261509254335579e+02
1.133049270839584732e+00 4.947344332603692010e+02
1.133149292844425782e+00 4.947428626942095207e+02
1.133249314849266831e+00 4.947514391009855217e+02
1.133349336854107881e+00 4.947601623498873096e+02
1.133449358858948930e+00 4.947690323052717645e+02
1.133549380863789979e+00 4.947780488266722614e+02
1.133649402868631029e+00 4.947872117688060030e+02
1.133749424873472078e+00 4.947965209815849335e+02
1.133849446878313127e+00 4.948059763101229578e+02
1.133949468883154177e+00 4.948155775947452071e+02
1.134049490887995226e+00 4.948253246709997484e+02
1.134149512892836498e+00 4.948352173696649743e+02
1.134249534897677325e+00 4.948452555167585842e+02
1.134349556902518374e+00 4.948554389335510564e+02
1.134449578907359646e+00 4.948657674365721277e+02
1.134549600912200695e+00 4.948762408376231861e+02
1.134649622917041523e+00 4.948868589437864216e+02
1.134749644921882794e+00 4.948976215574356274e+02
1.134849666926723843e+00 4.949085284762477386e+02
1.134949688931564893e+00 4.949195794932128933e+02
1.135049710936405942e+00 4.949307743966456883e+02
1.135149732941246992e+00 4.949421129701960353e+02
1.135249754946088041e+00 4.949535949928613832e+02
1.135349776950929090e+00 4.949652202389971762e+02
1.135449798955770140e+00 4.949769884783295311e+02
1.135549820960611189e+00 4.949888994759656953e+02
1.135649842965452239e+00 4.950009529924076332e+02
1.135749864970293288e+00 4.950131487835631106e+02
1.135849886975134559e+00 4.950254866007569490e+02
1.135949908979975609e+00 4.950379661907477384e+02
1.136049930984816658e+00 4.950505872957339193e+02
1.136149952989657708e+00 4.950633496533724269e+02
1.136249974994498757e+00 4.950762529967877299e+02
1.136349996999339806e+00 4.950892970545870071e+02
1.136450019004180856e+00 4.951024815508719712e+02
1.136550041009021905e+00 4.951158062052537616e+02
1.136650063013862955e+00 4.951292707328642564e+02
1.136750085018704004e+00 4.951428748443722725e+02
1.136850107023545053e+00 4.951566182459945367e+02
1.136950129028386325e+00 4.951705006395123405e+02
1.137050151033227152e+00 4.951845217222837618e+02
1.137150173038068202e+00 4.951986811872590124e+02
1.137250195042909473e+00 4.952129787229931708e+02
1.137350217047750522e+00 4.952274140136629512e+02
1.137450239052591350e+00 4.952419867390790955e+02
1.137550261057432621e+00 4.952566965747038239e+02
1.137650283062273671e+00 4.952715431916620901e+02
1.137750305067114720e+00 4.952865262567615900e+02
1.137850327071955769e+00 4.953016454325014593e+02
1.137950349076796819e+00 4.953169003770949530e+02
1.138050371081637868e+00 4.953322907444799625e+02
1.138150393086478918e+00 4.953478161843352154e+02
1.138250415091319967e+00 4.953634763420981244e+02
1.138350437096161016e+00 4.953792708589787708e+02
1.138450459101002066e+00 4.953951993719770144e+02
1.138550481105843115e+00 4.954112615138978981e+02
1.138650503110684387e+00 4.954274569133692694e+02
1.138750525115525214e+00 4.954437851948564457e+02
1.138850547120366485e+00 4.954602459786798931e+02
1.138950569125207535e+00 4.954768388810331317e+02
1.139050591130048584e+00 4.954935635139956389e+02
1.139150613134889634e+00 4.955104194855552464e+02
1.139250635139730683e+00 4.955274063996213840e+02
1.139350657144571732e+00 4.955445238560422467e+02
1.139450679149412782e+00 4.955617714506256561e+02
1.139550701154253831e+00 4.955791487751525324e+02
1.139650723159094881e+00 4.955966554173977556e+02
1.139750745163936152e+00 4.956142909611447180e+02
1.139850767168776979e+00 4.956320549862068674e+02
1.139950789173618029e+00 4.956499470684422022e+02
1.140050811178459300e+00 4.956679667797741331e+02
