1.800096021124647283e+00 5.188876434901744688e+02
1.800196043129488332e+00 5.188904539245484102e+02
1.800296065134329382e+00 5.188933215163311843e+02
1.800396087139170653e+00 5.188962461371951349e+02
1.800496109144011703e+00 5.188992276565290922e+02
1.800596131148852752e+00 5.189022659414486043e+02
1.800696153153693579e+00 5.189053608567917308e+02
1.800796175158534629e+00 5.189085122651326856e+02
1.800896197163375678e+00 5.189117200267834278e+02
1.800996219168216950e+00 5.189149839997987783e+02
1.801096241173057999e+00 5.189183040399839228e+02
1.801196263177899048e+00 5.189216800008979362e+02
1.801296285182740320e+00 5.189251117338615131e+02
1.801396307187581147e+00 5.189285990879585597e+02
1.801496329192422197e+00 5.189321419100494950e+02
1.801596351197263246e+00 5.189357400447684086e+02
1.801696373202104295e+00 5.189393933345367032e+02
1.801796395206945345e+00 5.189431016195630946e+02
1.801896417211786616e+00 5.189468647378552077e+02
1.801996439216627666e+00 5.189506825252203726e+02
1.802096461221468493e+00 5.189545548152777883e+02
1.802196483226309542e+00 5.189584814394602290e+02
1.802296505231150814e+00 5.189624622270221153e+02
1.802396527235991863e+00 5.189664970050474722e+02
1.802496549240832913e+00 5.189705855984552727e+02
1.802596571245673962e+00 5.189747278300061453e+02
1.802696593250515011e+00 5.189789235203101043e+02
1.802796615255355839e+00 5.189831724878326895e+02
1.802896637260197110e+00 5.189874745489023553e+02
1.802996659265038160e+00 5.189918295177180880e+02
1.803096681269879209e+00 5.189962372063554312e+02
1.803196703274720480e+00 5.190006974247752396e+02
1.803296725279561530e+00 5.190052099808297044e+02
1.803396747284402579e+00 5.190097746802703114e+02
1.803496769289243407e+00 5.190143913267568223e+02
1.803596791294084456e+00 5.190190597218619359e+02
1.803696813298925505e+00 5.190237796650819746e+02
1.803796835303766777e+00 5.190285509538425686e+02
1.803896857308607826e+00 5.190333733835071826e+02
1.803996879313448876e+00 5.190382467473862107e+02
1.804096901318290147e+00 5.190431708367430019e+02
1.804196923323130974e+00 5.190481454408044328e+02
1.804296945327972024e+00 5.190531703467656826e+02
1.804396967332813073e+00 5.190582453398017151e+02
1.804496989337654123e+00 5.190633702030743279e+02
1.804597011342495172e+00 5.190685447177412470e+02
1.804697033347336443e+00 5.190737686629629479e+02
1.804797055352177271e+00 5.190790418159133424e+02
1.804897077357018320e+00 5.190843639517869406e+02
1.804997099361859370e+00 5.190897348438088557e+02
1.805097121366700641e+00 5.190951542632418523e+02
1.805197143371541690e+00 5.191006219793976015e+02
1.805297165376382740e+00 5.191061377596438433e+02
1.805397187381223789e+00 5.191117013694140496e+02
1.805497209386064617e+00 5.191173125722167470e+02
1.805597231390905666e+00 5.191229711296447249e+02
1.805697253395746937e+00 5.191286768013831079e+02
1.805797275400587987e+00 5.191344293452214060e+02
1.805897297405429036e+00 5.191402285170601090e+02
1.805997319410270308e+00 5.191460740709215997e+02
1.806097341415111357e+00 5.191519657589602730e+02
1.806197363419952184e+00 5.191579033314706066e+02
1.806297385424793234e+00 5.191638865368979623e+02
1.806397407429634283e+00 5.191699151218487032e+02
1.806497429434475332e+00 5.191759888310994029e+02
1.806597451439316604e+00 5.191821074076068498e+02
1.806697473444157653e+00 5.191882705925178243e+02
1.806797495448998703e+00 5.191944781251806944e+02
1.806897517453839530e+00 5.192007297431538291e+02
1.806997539458680802e+00 5.192070251822160571e+02
1.807097561463521851e+00 5.192133641763784908e+02
1.807197583468362900e+00 5.192197464578930521e+02
1.807297605473203950e+00 5.192261717572637281e+02
1.807397627478044999e+00 5.192326398032578254e+02
1.807497649482886271e+00 5.192391503229150658e+02
1.807597671487727098e+00 5.192457030415600912e+02
1.807697693492568147e+00 5.192522976828101946e+02
1.807797715497409197e+00 5.192589339685895311e+02
1.807897737502250468e+00 5.192656116191383262e+02
1.807997759507091518e+00 5.192723303530241310e+02
1.808097781511932567e+00 5.192790898871520540e+02
1.808197803516773616e+00 5.192858899367776075e+02
1.808297825521614444e+00 5.192927302155139841e+02
1.808397847526455493e+00 5.192996104353494502e+02
1.808497869531296764e+00 5.193065303066524621e+02
1.808597891536137814e+00 5.193134895381873548e+02
1.808697913540978863e+00 5.193204878371223003e+02
1.808797935545820135e+00 5.193275249090440866e+02
1.808897957550661184e+00 5.193346004579669852e+02
1.808997979555502011e+00 5.193417141863458255e+02
1.809098001560343061e+00 5.193488657950869083e+02
1.809198023565184110e+00 5.193560549835597158e+02
1.809298045570025160e+00 5.193632814496098717e+02
1.809398067574866431e+00 5.193705448895686914e+02
1.809498089579707480e+00 5.193778449982672782e+02
1.809598111584548530e+00 5.193851814690476658e+02
1.809698133589389357e+00 5.193925539937744134e+02
1.809798155594230629e+00 5.193999622628463158e+02
1.809898177599071678e+00 5.194074059652098185e+02
1.809998199603912727e+00 5.194148847883711824e+02
1.810098221608753777e+00 5.194223984184072833e+02
1.810198243613594826e+00 5.194299465399789142e+02
1.810298265618436098e+00 5.194375288363429490e+02
1.810398287623276925e+00 5.194451449893648487e+02
1.810498309628117974e+00 5.194527946795301432e+02
1.810598331632959024e+00 5.194604775859604615e+02
1.810698353637800295e+00 5.194681933864196708e+02
1.810798375642641345e+00 5.194759417573330893e+02
1.810898397647482394e+00 5.194837223737968088e+02
1.810998419652323443e+00 5.194915349095905412e+02
1.811098441657164271e+00 5.194993790371905789e+02
1.811198463662005320e+00 5.195072544277838915e+02
1.811298485666846592e+00 5.195151607512796090e+02
1.811398507671687641e+00 5.195230976763214130e+02
1.811498529676528690e+00 5.195310648703039078e+02
1.811598551681369962e+00 5.195390619993809196e+02
1.811698573686211011e+00 5.195470887284814125e+02
1.811798595691051839e+00 5.195551447213232450e+02
1.811898617695892888e+00 5.195632296404239696e+02
1.811998639700733937e+00 5.195713431471162949e+02
1.812098661705574987e+00 5.195794849015605905e+02
1.812198683710416258e+00 5.195876545627564838e+02
1.812298705715257308e+00 5.195958517885596848e+02
1.812398727720098357e+00 5.196040762356929008e+02
1.812498749724939184e+00 5.196123275597590236e+02
1.812598771729780456e+00 5.196206054152571596e+02
1.812698793734621505e+00 5.196289094555939982e+02
1.812798815739462555e+00 5.196372393330979094e+02
1.812898837744303604e+00 5.196455946990325856e+02
1.812998859749144653e+00 5.196539752036110258e+02
1.813098881753985925e+00 5.196623804960098596e+02
1.813198903758826752e+00 5.196708102243811709e+02
1.813298925763667802e+00 5.196792640358685276e+02
1.813398947768508851e+00 5.196877415766188051e+02
1.813498969773350122e+00 5.196962424917982162e+02
1.813598991778191172e+00 5.197047664256048165e+02
1.813699013783032221e+00 5.197133130212830565e+02
1.813799035787873271e+00 5.197218819211365144e+02
1.813899057792714098e+00 5.197304727665443806e+02
1.813999079797555147e+00 5.197390851979735089e+02
1.814099101802396419e+00 5.197477188549938774e+02
1.814199123807237468e+00 5.197563733762908669e+02
1.814299145812078518e+00 5.197650483996817457e+02
1.814399167816919789e+00 5.197737435621285158e+02
1.814499189821760838e+00 5.197824584997532611e+02
1.814599211826601666e+00 5.197911928478508798e+02
1.814699233831442715e+00 5.197999462409040916e+02
1.814799255836283765e+00 5.198087183125998081e+02
1.814899277841124814e+00 5.198175086958393649e+02
1.814999299845966085e+00 5.198263170227563705e+02
1.815099321850807135e+00 5.198351429247311444e+02
1.815199343855648184e+00 5.198439860324040183e+02
1.815299365860489011e+00 5.198528459756875009e+02
1.815399387865330283e+00 5.198617223837873098e+02
1.815499409870171332e+00 5.198706148852104434e+02
1.815599431875012382e+00 5.198795231077835979e+02
1.815699453879853431e+00 5.198884466786665826e+02
1.815799475884694480e+00 5.198973852243667579e+02
1.815899497889535752e+00 5.199063383707543835e+02
1.815999519894376579e+00 5.199153057430771696e+02
1.816099541899217629e+00 5.199242869659749431e+02
1.816199563904058678e+00 5.199332816634937444e+02
1.816299585908899950e+00 5.199422894591024260e+02
1.816399607913740999e+00 5.199513099757050441e+02
1.816499629918582048e+00 5.199603428356590484e+02
1.816599651923423098e+00 5.199693876607859693e+02
1.816699673928263925e+00 5.199784440723904027e+02
1.816799695933104974e+00 5.199875116912716067e+02
1.816899717937946246e+00 5.199965901377408954e+02
1.816999739942787295e+00 5.200056790316351680e+02
1.817099761947628345e+00 5.200147779923329381e+02
1.817199783952469616e+00 5.200238866387678627e+02
1.817299805957310666e+00 5.200330045894448858e+02
1.817399827962151493e+00 5.200421314624559272e+02
1.817499849966992542e+00 5.200512668754930701e+02
1.817599871971833592e+00 5.200604104458655002e+02
1.817699893976674641e+00 5.200695617905132622e+02
1.817799915981515912e+00 5.200787205260231758e+02
1.817899937986356962e+00 5.200878862686428192e+02
1.817999959991198011e+00 5.200970586342978095e+02
1.818099981996038839e+00 5.201062372386052175e+02
1.818200004000880110e+00 5.201154216968893707e+02
1.818300026005721159e+00 5.201246116241964046e+02
1.818400048010562209e+00 5.201338066353098384e+02
1.818500070015403258e+00 5.201430063447667180e+02
1.818600092020244308e+00 5.201522103668718273e+02
1.818700114025085579e+00 5.201614183157123534e+02
1.818800136029926406e+00 5.201706298051749400e+02
1.818900158034767456e+00 5.201798444489594431e+02
1.819000180039608505e+00 5.201890618605940517e+02
1.819100202044449777e+00 5.201982816534530230e+02
1.819200224049290826e+00 5.202075034407678231e+02
1.819300246054131875e+00 5.202167268356452041e+02
1.819400268058972925e+00 5.202259514510843701e+02
1.819500290063813752e+00 5.202351768999865271e+02
1.819600312068654802e+00 5.202444027951763701e+02
1.819700334073496073e+00 5.202536287494127691e+02
1.819800356078337122e+00 5.202628543754067323e+02
1.819900378083178172e+00 5.202720792858352752e+02
1.820000400088019443e+00 5.202813030933581331e+02
1.820100422092860493e+00 5.202905254106328812e+02
1.820200444097701320e+00 5.202997458503281223e+02
1.820300466102542369e+00 5.203089640251409946e+02
1.820400488107383419e+00 5.203181795478135427e+02
1.820500510112224468e+00 5.203273920311431766e+02
1.820600532117065740e+00 5.203366010880046133e+02
1.820700554121906789e+00 5.203458063313602224e+02
1.820800576126747838e+00 5.203550073742770792e+02
1.820900598131588666e+00 5.203642038299419710e+02
1.821000620136429937e+00 5.203733953116777684e+02
1.821100642141270987e+00 5.203825814329575223e+02
1.821200664146112036e+00 5.203917618074200391e+02
1.821300686150953085e+00 5.204009360488857965e+02
1.821400708155794135e+00 5.204101037713711548e+02
1.821500730160635406e+00 5.204192645891048414e+02
1.821600752165476234e+00 5.204284181165426162e+02
1.821700774170317283e+00 5.204375639683833015e+02
1.821800796175158332e+00 5.204467017595814013e+02
1.821900818179999604e+00 5.204558311053666557e+02
1.822000840184840653e+00 5.204649516212562048e+02
1.822100862189681703e+00 5.204740629230702780e+02
1.822200884194522530e+00 5.204831646269486782e+02
1.822300906199363579e+00 5.204922563493643111e+02
1.822400928204204629e+00 5.205013377071401237e+02
1.822500950209045900e+00 5.205104083174633161e+02
1.822600972213886950e+00 5.205194677979002336e+02
1.822700994218727999e+00 5.205285157664122835e+02
1.822801016223569270e+00 5.205375518413708278e+02
1.822901038228410098e+00 5.205465756415727583e+02
1.823001060233251147e+00 5.205555867862553896e+02
1.823101082238092197e+00 5.205645848951099879e+02
1.823201104242933246e+00 5.205735695883009839e+02
1.823301126247774295e+00 5.205825404864751818e+02
1.823401148252615567e+00 5.205914972107833592e+02
1.823501170257456616e+00 5.206004393828899310e+02
1.823601192262297443e+00 5.206093666249910257e+02
1.823701214267138493e+00 5.206182785598290366e+02
1.823801236271979764e+00 5.206271748107052417e+02
1.823901258276820814e+00 5.206360550014995852e+02
1.824001280281661863e+00 5.206449187566811361e+02
1.824101302286502913e+00 5.206537657013248008e+02
1.824201324291343962e+00 5.206625954611272391e+02
1.824301346296184789e+00 5.206714076624193694e+02
1.824401368301026061e+00 5.206802019321838770e+02
1.824501390305867110e+00 5.206889778980671508e+02
1.824601412310708159e+00 5.206977351883983829e+02
1.824701434315549431e+00 5.207064734321988908e+02
1.824801456320390480e+00 5.207151922592020128e+02
1.824901478325231530e+00 5.207238912998648175e+02
1.825001500330072357e+00 5.207325701853831106e+02
1.825101522334913406e+00 5.207412285477074647e+02
1.825201544339754456e+00 5.207498660195565208e+02
1.825301566344595727e+00 5.207584822344333588e+02
1.825401588349436777e+00 5.207670768266377763e+02
1.825501610354277826e+00 5.207756494312827726e+02
1.825601632359119098e+00 5.207841996843078505e+02
1.825701654363959925e+00 5.207927272224951594e+02
1.825801676368800974e+00 5.208012316834825697e+02
1.825901698373642024e+00 5.208097127057777698e+02
1.826001720378483073e+00 5.208181699287744095e+02
1.826101742383324122e+00 5.208266029927659702e+02
1.826201764388165394e+00 5.208350115389583834e+02
1.826301786393006443e+00 5.208433952094871984e+02
1.826401808397847271e+00 5.208517536474294047e+02
1.826501830402688320e+00 5.208600864968192354e+02
1.826601852407529591e+00 5.208683934026620364e+02
1.826701874412370641e+00 5.208766740109483635e+02
1.826801896417211690e+00 5.208849279686676255e+02
1.826901918422052740e+00 5.208931549238234311e+02
1.827001940426893789e+00 5.209013545254463224e+02
1.827101962431734616e+00 5.209095264236091225e+02
1.827201984436575888e+00 5.209176702694397818e+02
1.827302006441416937e+00 5.209257857151362714e+02
1.827402028446257987e+00 5.209338724139795431e+02
1.827502050451099258e+00 5.209419300203494458e+02
1.827602072455940307e+00 5.209499581897348435e+02
1.827702094460781357e+00 5.209579565787523734e+02
1.827802116465622184e+00 5.209659248451550866e+02
1.827902138470463234e+00 5.209738626478507513e+02
1.828002160475304283e+00 5.209817696469120847e+02
1.828102182480145554e+00 5.209896455035922145e+02
1.828202204484986604e+00 5.209974898803379801e+02
1.828302226489827653e+00 5.210053024408034616e+02
1.828402248494668925e+00 5.210130828498629398e+02
1.828502270499509752e+00 5.210208307736245388e+02
1.828602292504350801e+00 5.210285458794451188e+02
1.828702314509191851e+00 5.210362278359414177e+02
1.828802336514032900e+00 5.210438763130042616e+02
1.828902358518873950e+00 5.210514909818136857e+02
1.829002380523715221e+00 5.210590715148468917e+02
1.829102402528556270e+00 5.210666175858991664e+02
1.829202424533397098e+00 5.210741288700897940e+02
1.829302446538238147e+00 5.210816050438800175e+02
1.829402468543079419e+00 5.210890457850825896e+02
1.829502490547920468e+00 5.210964507728783701e+02
1.829602512552761517e+00 5.211038196878248527e+02
1.829702534557602567e+00 5.211111522118740140e+02
1.829802556562443616e+00 5.211184480283804987e+02
1.829902578567284444e+00 5.211257068221183317e+02
1.830002600572125715e+00 5.211329282792895583e+02
1.830102622576966764e+00 5.211401120875412971e+02
1.830202644581807814e+00 5.211472579359749489e+02
1.830302666586649085e+00 5.211543655151608618e+02
1.830402688591490135e+00 5.211614345171486775e+02
1.830502710596331184e+00 5.211684646354829056e+02
1.830602732601172011e+00 5.211754555652115641e+02
1.830702754606013061e+00 5.211824070029017548e+02
1.830802776610854110e+00 5.211893186466501220e+02
1.830902798615695382e+00 5.211961901960960404e+02
1.831002820620536431e+00 5.212030213524325291e+02
1.831102842625377480e+00 5.212098118184193254e+02
1.831202864630218752e+00 5.212165612983955043e+02
1.831302886635059579e+00 5.212232694982898238e+02
1.831402908639900629e+00 5.212299361256335715e+02
1.831502930644741678e+00 5.212365608895732976e+02
1.831602952649582727e+00 5.212431435008801373e+02
1.831702974654423777e+00 5.212496836719649309e+02
1.831802996659265048e+00 5.212561811168866370e+02
1.831903018664106098e+00 5.212626355513652925e+02
1.832003040668946925e+00 5.212690466927959960e+02
1.832103062673787974e+00 5.212754142602544789e+02
1.832203084678629246e+00 5.212817379745150674e+02
1.832303106683470295e+00 5.212880175580580726e+02
1.832403128688311345e+00 5.212942527350816135e+02
1.832503150693152394e+00 5.213004432315137819e+02
1.832603172697993443e+00 5.213065887750237835e+02
1.832703194702834271e+00 5.213126890950319421e+02
1.832803216707675542e+00 5.213187439227219784e+02
1.832903238712516591e+00 5.213247529910512412e+02
1.833003260717357641e+00 5.213307160347617355e+02
1.833103282722198912e+00 5.213366327903917181e+02
1.833203304727039962e+00 5.213425029962835424e+02
1.833303326731881011e+00 5.213483263925996880e+02
1.833403348736721838e+00 5.213541027213285588e+02
1.833503370741562888e+00 5.213598317262960791e+02
1.833603392746403937e+00 5.213655131531794495e+02
1.833703414751245209e+00 5.213711467495118086e+02
1.833803436756086258e+00 5.213767322646978073e+02
1.833903458760927307e+00 5.213822694500219086e+02
1.834003480765768579e+00 5.213877580586573686e+02
1.834103502770609406e+00 5.213931978456781735e+02
1.834203524775450456e+00 5.213985885680691581e+02
1.834303546780291505e+00 5.214039299847340772e+02
1.834403568785132554e+00 5.214092218565074290e+02
1.834503590789973604e+00 5.214144639461630959e+02
1.834603612794814875e+00 5.214196560184257123e+02
1.834703634799655925e+00 5.214247978399782824e+02
1.834803656804496752e+00 5.214298891794730935e+02
1.834903678809337801e+00 5.214349298075411525e+02
1.835003700814179073e+00 5.214399194968020765e+02
1.835103722819020122e+00 5.214448580218711413e+02
1.835203744823861172e+00 5.214497451593723554e+02
1.835303766828702221e+00 5.214545806879441443e+02
1.835403788833543270e+00 5.214593643882508331e+02
1.835503810838384098e+00 5.214640960429917413e+02
1.835603832843225369e+00 5.214687754369078903e+02
1.835703854848066419e+00 5.214734023567940540e+02
1.835803876852907468e+00 5.214779765915042162e+02
1.835903898857748739e+00 5.214824979319639624e+02
1.836003920862589789e+00 5.214869661711765048e+02
1.836103942867430838e+00 5.214913811042326870e+02
1.836203964872271666e+00 5.214957425283184875e+02
1.836303986877112715e+00 5.215000502427243418e+02
1.836404008881953764e+00 5.215043040488535553e+02
1.836504030886795036e+00 5.215085037502296927e+02
1.836604052891636085e+00 5.215126491525056736e+02
1.836704074896477135e+00 5.215167400634718433e+02
1.836804096901318406e+00 5.215207762930630224e+02
1.836904118906159233e+00 5.215247576533682832e+02
1.837004140911000283e+00 5.215286839586366341e+02
1.837104162915841332e+00 5.215325550252881612e+02
1.837204184920682382e+00 5.215363706719173251e+02
1.837304206925523431e+00 5.215401307193030789e+02
1.837404228930364702e+00 5.215438349904181905e+02
1.837504250935205752e+00 5.215474833104325398e+02
1.837604272940046579e+00 5.215510755067253967e+02
1.837704294944887629e+00 5.215546114088864442e+02
1.837804316949728900e+00 5.215580908487302167e+02
1.837904338954569949e+00 5.215615136602970097e+02
1.838004360959410999e+00 5.215648796798643616e+02
1.838104382964252048e+00 5.215681887459514883e+02
1.838204404969093098e+00 5.215714406993270131e+02
1.838304426973933925e+00 5.215746353830163571e+02
1.838404448978775196e+00 5.215777726423063996e+02
1.838504470983616246e+00 5.215808523247544599e+02
1.838604492988457295e+00 5.215838742801943226e+02
1.838704514993298567e+00 5.215868383607408987e+02
1.838804536998139616e+00 5.215897444207989793e+02
1.838904559002980665e+00 5.215925923170678971e+02
1.839004581007821493e+00 5.215953819085492569e+02
1.839104603012662542e+00 5.215981130565505737e+02
1.839204625017503592e+00 5.216007856246944812e+02
1.839304647022344863e+00 5.216033994789207782e+02
1.839404669027185912e+00 5.216059544874966605e+02
1.839504691032026962e+00 5.216084505210187672e+02
1.839604713036867789e+00 5.216108874524215935e+02
1.839704735041709061e+00 5.216132651569804466e+02
1.839804757046550110e+00 5.216155835123181532e+02
1.839904779051391159e+00 5.216178423984127903e+02
1.840004801056232209e+00 5.216200416975976850e+02
1.840104823061073258e+00 5.216221812945727834e+02
1.840204845065914530e+00 5.216242610764039682e+02
1.840304867070755357e+00 5.216262809325323815e+02
1.840404889075596406e+00 5.216282407547769253e+02
1.840504911080437456e+00 5.216301404373407422e+02
1.840604933085278727e+00 5.216319798768151941e+02
1.840704955090119777e+00 5.216337589721833865e+02
1.840804977094960826e+00 5.216354776248268763e+02
1.840904999099801875e+00 5.216371357385291958e+02
1.841005021104642703e+00 5.216387332194792634e+02
1.841105043109483752e+00 5.216402699762779775e+02
1.841205065114325024e+00 5.216417459199394671e+02
1.841305087119166073e+00 5.216431609638980262e+02
1.841405109124007122e+00 5.216445150240106159e+02
1.841505131128848394e+00 5.216458080185609560e+02
1.841605153133689443e+00 5.216470398682623681e+02
1.841705175138530270e+00 5.216482104962653921e+02
1.841805197143371320e+00 5.216493198281547166e+02
1.841905219148212369e+00 5.216503677919602069e+02
1.842005241153053419e+00 5.216513543181549721e+02
1.842105263157894690e+00 5.216522793396613906e+02
1.842205285162735739e+00 5.216531427918524741e+02
1.842305307167576789e+00 5.216539446125574386e+02
1.842405329172417616e+00 5.216546847420622726e+02
1.842505351177258888e+00 5.216553631231148529e+02
1.842605373182099937e+00 5.216559797009263093e+02
1.842705395186940986e+00 5.216565344231745485e+02
1.842805417191782036e+00 5.216570272400070962e+02
1.842905439196623085e+00 5.216574581040429166e+02
1.843005461201464357e+00 5.216578269703759361e+02
1.843105483206305184e+00 5.216581337965768626e+02
1.843205505211146233e+00 5.216583785426958002e+02
1.843305527215987283e+00 5.216585611712635000e+02
1.843405549220828554e+00 5.216586816472947703e+02
1.843505571225669604e+00 5.216587399382905232e+02
1.843605593230510653e+00 5.216587360142382295e+02
1.843705615235351702e+00 5.216586698476155561e+02
1.843805637240192530e+00 5.216585414133912764e+02
1.843905659245033579e+00 5.216583506890264061e+02
1.844005681249874851e+00 5.216580976544764781e+02
1.844105703254715900e+00 5.216577822921931329e+02
1.844205725259556949e+00 5.216574045871249155e+02
1.844305747264398221e+00 5.216569645267190936e+02
1.844405769269239270e+00 5.216564621009225675e+02
1.844505791274080098e+00 5.216558973021825523e+02
1.844605813278921147e+00 5.216552701254481690e+02
1.844705835283762196e+00 5.216545805681713546e+02
1.844805857288603246e+00 5.216538286303066343e+02
1.844905879293444517e+00 5.216530143143141913e+02
1.845005901298285567e+00 5.216521376251566835e+02
1.845105923303126616e+00 5.216511985703039045e+02
1.845205945307967443e+00 5.216501971597296006e+02
1.845305967312808715e+00 5.216491334059146538e+02
1.845405989317649764e+00 5.216480073238451496e+02
1.845506011322490814e+00 5.216468189310137404e+02
1.845606033327331863e+00 5.216455682474203286e+02
1.845706055332172912e+00 5.216442552955683141e+02
1.845806077337014184e+00 5.216428801004688012e+02
1.845906099341855011e+00 5.216414426896396890e+02
1.846006121346696061e+00 5.216399430931015786e+02
1.846106143351537110e+00 5.216383813433817522e+02
1.846206165356378381e+00 5.216367574755113310e+02
1.846306187361219431e+00 5.216350715270247065e+02
1.846406209366060480e+00 5.216333235379596545e+02
1.846506231370901530e+00 5.216315135508554022e+02
1.846606253375742357e+00 5.216296416107531968e+02
1.846706275380583406e+00 5.216277077651928948e+02
1.846806297385424678e+00 5.216257120642152358e+02
1.846906319390265727e+00 5.216236545603567265e+02
1.847006341395106777e+00 5.216215353086508912e+02
1.847106363399948048e+00 5.216193543666261121e+02
1.847206385404789097e+00 5.216171117943048330e+02
1.847306407409629925e+00 5.216148076542001490e+02
1.847406429414470974e+00 5.216124420113158067e+02
1.847506451419312024e+00 5.216100149331437024e+02
1.847606473424153073e+00 5.216075264896622912e+02
1.847706495428994344e+00 5.216049767533335171e+02
1.847806517433835394e+00 5.216023657991022446e+02
1.847906539438676443e+00 5.215996937043933031e+02
1.848006561443517271e+00 5.215969605491089851e+02
1.848106583448358542e+00 5.215941664156273418e+02
1.848206605453199591e+00 5.215913113887984309e+02
1.848306627458040641e+00 5.215883955559430660e+02
1.848406649462881690e+00 5.215854190068507705e+02
1.848506671467722740e+00 5.215823818337734110e+02
1.848606693472564011e+00 5.215792841314272437e+02
1.848706715477404838e+00 5.215761259969857520e+02
1.848806737482245888e+00 5.215729075300795330e+02
1.848906759487086937e+00 5.215696288327909542e+02
1.849006781491928209e+00 5.215662900096539261e+02
1.849106803496769258e+00 5.215628911676451480e+02
1.849206825501610307e+00 5.215594324161876330e+02
1.849306847506451357e+00 5.215559138671414985e+02
1.849406869511292184e+00 5.215523356348031712e+02
1.849506891516133233e+00 5.215486978359008390e+02
1.849606913520974505e+00 5.215450005895908134e+02
1.849706935525815554e+00 5.215412440174541189e+02
1.849806957530656604e+00 5.215374282434909219e+02
1.849906979535497875e+00 5.215335533941182575e+02
1.850007001540338925e+00 5.215296195981645724e+02
1.850107023545179752e+00 5.215256269868665413e+02
1.850207045550020801e+00 5.215215756938641789e+02
1.850307067554861851e+00 5.215174658551947005e+02
1.850407089559702900e+00 5.215132976092921808e+02
1.850507111564544172e+00 5.215090710969780048e+02
1.850607133569385221e+00 5.215047864614600712e+02
1.850707155574226270e+00 5.215004438483241529e+02
1.850807177579067098e+00 5.214960434055343512e+02
1.850907199583908369e+00 5.214915852834211591e+02
1.851007221588749418e+00 5.214870696346828254e+02
1.851107243593590468e+00 5.214824966143760321e+02
1.851207265598431517e+00 5.214778663799128253e+02
1.851307287603272567e+00 5.214731790910529980e+02
1.851407309608113838e+00 5.214684349099011342e+02
1.851507331612954665e+00 5.214636340008992192e+02
1.851607353617795715e+00 5.214587765308220924e+02
1.851707375622636764e+00 5.214538626687703982e+02
1.851807397627478036e+00 5.214488925861670623e+02
1.851907419632319085e+00 5.214438664567478554e+02
1.852007441637160134e+00 5.214387844565586647e+02
1.852107463642001184e+00 5.214336467639489001e+02
1.852207485646842011e+00 5.214284535595625130e+02
1.852307507651683061e+00 5.214232050263352676e+02
1.852407529656524332e+00 5.214179013494864421e+02
1.852507551661365381e+00 5.214125427165120072e+02
1.852607573666206431e+00 5.214071293171796242e+02
1.852707595671047702e+00 5.214016613435211411e+02
1.852807617675888752e+00 5.213961389898257721e+02
1.852907639680729579e+00 5.213905624526332758e+02
1.853007661685570628e+00 5.213849319307269070e+02
1.853107683690411678e+00 5.213792476251280732e+02
1.853207705695252727e+00 5.213735097390863302e+02
1.853307727700093999e+00 5.213677184780743801e+02
1.853407749704935048e+00 5.213618740497803401e+02
1.853507771709776097e+00 5.213559766641005808e+02
1.853607793714616925e+00 5.213500265331315404e+02
1.853707815719458196e+00 5.213440238711630172e+02
1.853807837724299246e+00 5.213379688946699844e+02
1.853907859729140295e+00 5.213318618223051999e+02
1.854007881733981344e+00 5.213257028748923858e+02
1.854107903738822394e+00 5.213194922754169056e+02
1.854207925743663665e+00 5.213132302490170105e+02
1.854307947748504493e+00 5.213069170229784959e+02
1.854407969753345542e+00 5.213005528267261752e+02
1.854507991758186591e+00 5.212941378918135342e+02
1.854608013763027863e+00 5.212876724519159097e+02
1.854708035767868912e+00 5.212811567428220769e+02
1.854808057772709962e+00 5.212745910024260638e+02
1.854908079777551011e+00 5.212679754707180564e+02
1.855008101782391838e+00 5.212613103897765541e+02
1.855108123787232888e+00 5.212545960037584791e+02
1.855208145792074159e+00 5.212478325588914458e+02
1.855308167796915209e+00 5.212410203034651204e+02
1.855408189801756258e+00 5.212341594878212163e+02
1.855508211806597529e+00 5.212272503643457640e+02
1.855608233811438579e+00 5.212202931874586511e+02
1.855708255816279406e+00 5.212132882136057788e+02
1.855808277821120456e+00 5.212062357012493976e+02
1.855908299825961505e+00 5.211991359108584447e+02
1.856008321830802554e+00 5.211919891048987665e+02
1.856108343835643826e+00 5.211847955478256154e+02
1.856208365840484875e+00 5.211775555060715988e+02
1.856308387845325925e+00 5.211702692480388350e+02
1.856408409850166752e+00 5.211629370440883804e+02
1.856508431855008023e+00 5.211555591665309066e+02
1.856608453859849073e+00 5.211481358896164693e+02
1.856708475864690122e+00 5.211406674895260949e+02
1.856808497869531172e+00 5.211331542443579110e+02
1.856908519874372221e+00 5.211255964341218032e+02
1.857008541879213048e+00 5.211179943407262272e+02
1.857108563884054320e+00 5.211103482479691138e+02
1.857208585888895369e+00 5.211026584415269554e+02
1.857308607893736419e+00 5.210949252089458241e+02
1.857408629898577690e+00 5.210871488396284121e+02
1.857508651903418739e+00 5.210793296248257320e+02
1.857608673908259789e+00 5.210714678576265442e+02
1.857708695913100616e+00 5.210635638329446238e+02
1.857808717917941665e+00 5.210556178475108027e+02
1.857908739922782715e+00 5.210476301998585313e+02
1.858008761927623986e+00 5.210396011903185354e+02
1.858108783932465036e+00 5.210315311210013078e+02
1.858208805937306085e+00 5.210234202957908565e+02
1.858308827942147357e+00 5.210152690203325392e+02
1.858408849946988184e+00 5.210070776020202175e+02
1.858508871951829233e+00 5.209988463499864793e+02
1.858608893956670283e+00 5.209905755750928620e+02
1.858708915961511332e+00 5.209822655899147321e+02
1.858808937966352381e+00 5.209739167087330998e+02
1.858908959971193653e+00 5.209655292475213173e+02
1.859008981976034702e+00 5.209571035239353023e+02
1.859109003980875530e+00 5.209486398572989856e+02
1.859209025985716579e+00 5.209401385685958985e+02
1.859309047990557850e+00 5.209315999804550756e+02
1.859409069995398900e+00 5.209230244171411641e+02
1.859509092000239949e+00 5.209144122045402128e+02
1.859609114005080999e+00 5.209057636701501224e+02
1.859709136009922048e+00 5.208970791430672307e+02
1.859809158014762875e+00 5.208883589539739205e+02
1.859909180019604147e+00 5.208796034351269100e+02
1.860009202024445196e+00 5.208708129203466797e+02
1.860109224029286246e+00 5.208619877450032618e+02
1.860209246034127517e+00 5.208531282460035072e+02
1.860309268038968566e+00 5.208442347617803989e+02
1.860409290043809616e+00 5.208353076322797506e+02
1.860509312048650443e+00 5.208263471989483833e+02
1.860609334053491493e+00 5.208173538047205966e+02
1.860709356058332542e+00 5.208083277940047537e+02
1.860809378063173813e+00 5.207992695126740728e+02
1.860909400068014863e+00 5.207901793080501420e+02
1.861009422072855912e+00 5.207810575288917789e+02
1.861109444077697184e+00 5.207719045253828654e+02
1.861209466082538011e+00 5.207627206491179095e+02
1.861309488087379060e+00 5.207535062530898813e+02
1.861409510092220110e+00 5.207442616916771385e+02
1.861509532097061159e+00 5.207349873206308075e+02
1.861609554101902209e+00 5.207256834970607997e+02
1.861709576106743480e+00 5.207163505794233060e+02
1.861809598111584529e+00 5.207069889275069272e+02
1.861909620116425357e+00 5.206975989024201681e+02
1.862009642121266406e+00 5.206881808665774543e+02
1.862109664126107678e+00 5.206787351836865128e+02
1.862209686130948727e+00 5.206692622187340476e+02
1.862309708135789776e+00 5.206597623379725519e+02
1.862409730140630826e+00 5.206502359089070069e+02
1.862509752145471875e+00 5.206406833002813528e+02
1.862609774150312703e+00 5.206311048820648466e+02
1.862709796155153974e+00 5.206215010254381923e+02
1.862809818159995023e+00 5.206118721027784204e+02
1.862909840164836073e+00 5.206022184876485426e+02
1.863009862169677344e+00 5.205925405547800437e+02
1.863109884174518394e+00 5.205828386800626504e+02
1.863209906179359443e+00 5.205731132405260269e+02
1.863309928184200270e+00 5.205633646143299984e+02
1.863409950189041320e+00 5.205535931807477255e+02
1.863509972193882369e+00 5.205437993201538802e+02
1.863609994198723641e+00 5.205339834140083894e+02
1.863710016203564690e+00 5.205241458448431331e+02
1.863810038208405739e+00 5.205142869962480745e+02
1.863910060213247011e+00 5.205044072528578454e+02
1.864010082218087838e+00 5.204945070003350338e+02
1.864110104222928888e+00 5.204845866253582471e+02
1.864210126227769937e+00 5.204746465156068780e+02
1.864310148232610986e+00 5.204646870597464385e+02
1.864410170237452036e+00 5.204547086474130992e+02
1.864510192242293307e+00 5.204447116692030022e+02
1.864610214247134357e+00 5.204346965166544123e+02
1.864710236251975184e+00 5.204246635822325970e+02
1.864810258256816233e+00 5.204146132593182301e+02
1.864910280261657505e+00 5.204045459421909072e+02
1.865010302266498554e+00 5.203944620260140255e+02
1.865110324271339604e+00 5.203843619068219368e+02
1.865210346276180653e+00 5.203742459815036909e+02
1.865310368281021702e+00 5.203641146477892789e+02
1.865410390285862530e+00 5.203539683042325805e+02
1.865510412290703801e+00 5.203438073502009047e+02
1.865610434295544851e+00 5.203336321858553219e+02
1.865710456300385900e+00 5.203234432121386135e+02
1.865810478305227171e+00 5.203132408307599235e+02
1.865910500310068221e+00 5.203030254441802072e+02
1.866010522314909270e+00 5.202927974555943820e+02
1.866110544319750097e+00 5.202825572689216642e+02
1.866210566324591147e+00 5.202723052887848780e+02
1.866310588329432196e+00 5.202620419204987456e+02
1.866410610334273468e+00 5.202517675700541986e+02
1.866510632339114517e+00 5.202414826441029163e+02
1.866610654343955567e+00 5.202311875499419784e+02
1.866710676348796838e+00 5.202208826954991991e+02
1.866810698353637665e+00 5.202105684893177795e+02
1.866910720358478715e+00 5.202002453405402775e+02
1.867010742363319764e+00 5.201899136588947385e+02
1.867110764368160813e+00 5.201795738546786652e+02
1.867210786373001863e+00 5.201692263387440107e+02
1.867310808377843134e+00 5.201588715224808084e+02
1.867410830382684184e+00 5.201485098178028466e+02
1.867510852387525011e+00 5.201381416371325486e+02
1.867610874392366060e+00 5.201277673933850565e+02
1.867710896397207332e+00 5.201173874999523150e+02
1.867810918402048381e+00 5.201070023706888605e+02
1.867910940406889431e+00 5.200966124198944271e+02
1.868010962411730480e+00 5.200862180623011000e+02
1.868110984416571529e+00 5.200758197130564895e+02
1.868211006421412357e+00 5.200654177877069060e+02
1.868311028426253628e+00 5.200550127021840581e+02
1.868411050431094678e+00 5.200446048727881134e+02
1.868511072435935727e+00 5.200341947161728058e+02
1.868611094440776998e+00 5.200237826493304283e+02
1.868711116445618048e+00 5.200133690895735299e+02
1.868811138450459097e+00 5.200029544545227509e+02
1.868911160455299925e+00 5.199925391620896562e+02
1.869011182460140974e+00 5.199821236304600234e+02
1.869111204464982023e+00 5.199717082780807687e+02
1.869211226469823295e+00 5.199612935236414160e+02
1.869311248474664344e+00 5.199508797860607956e+02
1.869411270479505394e+00 5.199404674844695364e+02
1.869511292484346665e+00 5.199300570381969919e+02
1.869611314489187492e+00 5.199196488667523681e+02
1.869711336494028542e+00 5.199092433898094896e+02
1.869811358498869591e+00 5.198988410271945213e+02
1.869911380503710641e+00 5.198884421988659597e+02
1.870011402508551690e+00 5.198780473249014449e+02
1.870111424513392961e+00 5.198676568254811627e+02
1.870211446518234011e+00 5.198572711208723831e+02
1.870311468523074838e+00 5.198468906314127480e+02
1.870411490527915888e+00 5.198365157774964018e+02
1.870511512532757159e+00 5.198261469795570520e+02
1.870611534537598208e+00 5.198157846580515979e+02
1.870711556542439258e+00 5.198054292334447837e+02
1.870811578547280307e+00 5.197950811261957824e+02
1.870911600552121357e+00 5.197847407567389837e+02
1.871011622556962184e+00 5.197744085454683045e+02
1.871111644561803455e+00 5.197640849127260481e+02
1.871211666566644505e+00 5.197537702787805074e+02
1.871311688571485554e+00 5.197434650638159610e+02
1.871411710576326826e+00 5.197331696879128913e+02
1.871511732581167875e+00 5.197228845710346832e+02
1.871611754586008924e+00 5.197126101330107986e+02
1.871711776590849752e+00 5.197023467935208600e+02
1.871811798595690801e+00 5.196920949720798717e+02
1.871911820600531851e+00 5.196818550880216208e+02
1.872011842605373122e+00 5.196716275604824204e+02
1.872111864610214171e+00 5.196614128083871265e+02
1.872211886615055221e+00 5.196512112504318566e+02
1.872311908619896492e+00 5.196410233050690977e+02
1.872411930624737320e+00 5.196308493904914485e+02
1.872511952629578369e+00 5.196206899246153625e+02
1.872611974634419418e+00 5.196105453250681876e+02
1.872711996639260468e+00 5.196004160091684980e+02
1.872812018644101517e+00 5.195903023939139302e+02
1.872912040648942789e+00 5.195802048959621970e+02
1.873012062653783838e+00 5.195701239316193778e+02
1.873112084658624665e+00 5.195600599168209328e+02
1.873212106663465715e+00 5.195500132671164693e+02
1.873312128668306986e+00 5.195399843976566672e+02
1.873412150673148036e+00 5.195299737231742938e+02
1.873512172677989085e+00 5.195199816579713570e+02
1.873612194682830134e+00 5.195100086159020520e+02
1.873712216687671184e+00 5.195000550103569594e+02
1.873812238692512011e+00 5.194901212542482654e+02
1.873912260697353283e+00 5.194802077599945278e+02
1.874012282702194332e+00 5.194703149395032824e+02
1.874112304707035381e+00 5.194604432041589916e+02
1.874212326711876653e+00 5.194505929648033771e+02
1.874312348716717702e+00 5.194407646317233684e+02
1.874412370721558529e+00 5.194309586146325728e+02
1.874512392726399579e+00 5.194211753226604742e+02
1.874612414731240628e+00 5.194114151643314017e+02
1.874712436736081678e+00 5.194016785475529332e+02
1.874812458740922949e+00 5.193919658795997520e+02
1.874912480745763999e+00 5.193822775670970486e+02
1.875012502750605048e+00 5.193726140160073328e+02
1.875112524755445875e+00 5.193629756316128123e+02
1.875212546760287147e+00 5.193533628185025464e+02
1.875312568765128196e+00 5.193437759805547103e+02
1.875412590769969245e+00 5.193342155209235216e+02
1.875512612774810295e+00 5.193246818420221871e+02
1.875612634779651344e+00 5.193151753455099424e+02
1.875712656784492616e+00 5.193056964322743170e+02
1.875812678789333443e+00 5.192962455024178325e+02
1.875912700794174492e+00 5.192868229552419734e+02
1.876012722799015542e+00 5.192774291892334304e+02
1.876112744803856813e+00 5.192680646020479571e+02
1.876212766808697863e+00 5.192587295904951361e+02
1.876312788813538912e+00 5.192494245505240542e+02
1.876412810818379961e+00 5.192401498772078412e+02
1.876512832823220789e+00 5.192309059647298000e+02
1.876612854828061838e+00 5.192216932063677177e+02
1.876712876832903110e+00 5.192125119944785183e+02
1.876812898837744159e+00 5.192033627204843924e+02
1.876912920842585208e+00 5.191942457748580182e+02
1.877012942847426480e+00 5.191851615471064179e+02
1.877112964852267529e+00 5.191761104257592478e+02
1.877212986857108357e+00 5.191670927983499269e+02
1.877313008861949406e+00 5.191581090514044945e+02
1.877413030866790455e+00 5.191491595704262636e+02
1.877513052871631505e+00 5.191402447398791082e+02
1.877613074876472776e+00 5.191313649431766635e+02
1.877713096881313826e+00 5.191225205626640218e+02
1.877813118886154875e+00 5.191137119796054549e+02
1.877913140890995702e+00 5.191049395741702028e+02
1.878013162895836974e+00 5.190962037254170127e+02
1.878113184900678023e+00 5.190875048112804961e+02
1.878213206905519073e+00 5.190788432085557815e+02
1.878313228910360122e+00 5.190702192928865770e+02
1.878413250915201171e+00 5.190616334387478901e+02
1.878513272920042443e+00 5.190530860194347724e+02
1.878613294924883270e+00 5.190445774070461766e+02
1.878713316929724320e+00 5.190361079724711999e+02
1.878813338934565369e+00 5.190276780853766923e+02
1.878913360939406640e+00 5.190192881141902035e+02
1.879013382944247690e+00 5.190109384260899787e+02
1.879113404949088739e+00 5.190026293869874507e+02
1.879213426953929789e+00 5.189943613615154163e+02
1.879313448958770616e+00 5.189861347130126887e+02
1.879413470963611665e+00 5.189779498035129564e+02
1.879513492968452937e+00 5.189698069937277296e+02
1.879613514973293986e+00 5.189617066430363366e+02
1.879713536978135036e+00 5.189536491094690973e+02
1.879813558982976307e+00 5.189456347496940225e+02
1.879913580987817356e+00 5.189376639190064679e+02
1.880013602992658184e+00 5.189297369713125363e+02
1.880113624997499233e+00 5.189218542591166852e+02
1.880213647002340283e+00 5.189140161335075163e+02
1.880313669007181332e+00 5.189062229441467480e+02
1.880413691012022603e+00 5.188984750392534124e+02
1.880513713016863653e+00 5.188907727655916915e+02
1.880613735021704702e+00 5.188831164684587520e+02
1.880713757026545530e+00 5.188755064916695119e+02
1.880813779031386801e+00 5.188679431775456123e+02
1.880913801036227850e+00 5.188604268669009798e+02
1.881013823041068900e+00 5.188529578990305708e+02
1.881113845045909949e+00 5.188455366116943424e+02
1.881213867050750999e+00 5.188381633411089524e+02
1.881313889055592270e+00 5.188308384219308209e+02
1.881413911060433097e+00 5.188235621872464662e+02
1.881513933065274147e+00 5.188163349685572712e+02
1.881613955070115196e+00 5.188091570957689100e+02
1.881713977074956468e+00 5.188020288971785021e+02
1.881813999079797517e+00 5.187949506994605144e+02
1.881914021084638566e+00 5.187879228276568710e+02
1.882014043089479616e+00 5.187809456051618326e+02
1.882114065094320443e+00 5.187740193537129016e+02
1.882214087099161492e+00 5.187671443933759292e+02
1.882314109104002764e+00 5.187603210425332918e+02
1.882414131108843813e+00 5.187535496178737731e+02
1.882514153113684863e+00 5.187468304343781256e+02
1.882614175118526134e+00 5.187401638053081570e+02
1.882714197123367184e+00 5.187335500421954748e+02
1.882814219128208011e+00 5.187269894548279581e+02
1.882914241133049060e+00 5.187204823512399798e+02
1.883014263137890110e+00 5.187140290376979692e+02
1.883114285142731159e+00 5.187076298186922259e+02
1.883214307147572431e+00 5.187012849969230501e+02
1.883314329152413480e+00 5.186949948732884650e+02
1.883414351157254529e+00 5.186887597468753484e+02
1.883514373162095357e+00 5.186825799149465865e+02
1.883614395166936628e+00 5.186764556729290234e+02
1.883714417171777677e+00 5.186703873144034560e+02
1.883814439176618727e+00 5.186643751310931520e+02
1.883914461181459776e+00 5.186584194128527088e+02
1.884014483186300826e+00 5.186525204476560020e+02
1.884114505191142097e+00 5.186466785215870914e+02
1.884214527195982924e+00 5.186408939188274871e+02
1.884314549200823974e+00 5.186351669216471691e+02
1.884414571205665023e+00 5.186294978103919675e+02
1.884514593210506295e+00 5.186238868634732171e+02
1.884614615215347344e+00 5.186183343573592310e+02
1.884714637220188393e+00 5.186128405665614309e+02
1.884814659225029443e+00 5.186074057636263888e+02
1.884914681229870270e+00 5.186020302191237761e+02
1.885014703234711320e+00 5.185967142016381786e+02
1.885114725239552591e+00 5.185914579777569315e+02
1.885214747244393640e+00 5.185862618120595471e+02
1.885314769249234690e+00 5.185811259671093012e+02
1.885414791254075961e+00 5.185760507034425473e+02
1.885514813258917011e+00 5.185710362795584842e+02
1.885614835263757838e+00 5.185660829519092658e+02
1.885714857268598887e+00 5.185611909748905646e+02
1.885814879273439937e+00 5.185563606008315674e+02
1.885914901278280986e+00 5.185515920799851983e+02
1.886014923283122258e+00 5.185468856605178871e+02
1.886114945287963307e+00 5.185422415885027476e+02
1.886214967292804356e+00 5.185376601079075272e+02
1.886314989297645184e+00 5.185331414605855116e+02
1.886415011302486455e+00 5.185286858862669988e+02
1.886515033307327505e+00 5.185242936225492940e+02
1.886615055312168554e+00 5.185199649048897754e+02
1.886715077317009603e+00 5.185156999665933881e+02
1.886815099321850653e+00 5.185114990388070737e+02
1.886915121326691924e+00 5.185073623505086289e+02
1.887015143331532752e+00 5.185032901284980653e+02
1.887115165336373801e+00 5.184992825973913568e+02
1.887215187341214850e+00 5.184953399796089570e+02
1.887315209346056122e+00 5.184914624953665907e+02
1.887415231350897171e+00 5.184876503626712747e+02
1.887515253355738221e+00 5.184839037973088125e+02
1.887615275360579270e+00 5.184802230128359497e+02
1.887715297365420097e+00 5.184766082205748035e+02
1.887815319370261147e+00 5.184730596296016074e+02
1.887915341375102418e+00 5.184695774467409137e+02
1.888015363379943468e+00 5.184661618765544517e+02
1.888115385384784517e+00 5.184628131213393090e+02
1.888215407389625788e+00 5.184595313811131518e+02
1.888315429394466838e+00 5.184563168536101330e+02
1.888415451399307665e+00 5.184531697342740699e+02
1.888515473404148715e+00 5.184500902162490092e+02
1.888615495408989764e+00 5.184470784903719505e+02
1.888715517413830813e+00 5.184441347451664797e+02
1.888815539418672085e+00 5.184412591668341292e+02
1.888915561423513134e+00 5.184384519392490347e+02
1.889015583428354184e+00 5.184357132439487259e+02
1.889115605433195011e+00 5.184330432601290113e+02
1.889215627438036282e+00 5.184304421646352239e+02
1.889315649442877332e+00 5.184279101319575602e+02
1.889415671447718381e+00 5.184254473342217580e+02
1.889515693452559431e+00 5.184230539411836389e+02
1.889615715457400480e+00 5.184207301202239933e+02
1.889715737462241751e+00 5.184184760363397118e+02
1.889815759467082579e+00 5.184162918521383290e+02
1.889915781471923628e+00 5.184141777278317704e+02
1.890015803476764678e+00 5.184121338212302135e+02
1.890115825481605949e+00 5.184101602877357209e+02
1.890215847486446998e+00 5.184082572803361018e+02
1.890315869491288048e+00 5.184064249495993408e+02
1.890415891496129097e+00 5.184046634436676868e+02
1.890515913500969924e+00 5.184029729082504900e+02
1.890615935505810974e+00 5.184013534866217014e+02
1.890715957510652245e+00 5.183998053196096407e+02
1.890815979515493295e+00 5.183983285455968826e+02
1.890916001520334344e+00 5.183969233005100250e+02
1.891016023525175616e+00 5.183955897178173018e+02
1.891116045530016665e+00 5.183943279285219887e+02
1.891216067534857492e+00 5.183931380611579698e+02
1.891316089539698542e+00 5.183920202417839391e+02
1.891416111544539591e+00 5.183909745939802178e+02
1.891516133549380640e+00 5.183900012388409095e+02
1.891616155554221912e+00 5.183891002949720814e+02
1.891716177559062961e+00 5.183882718784848294e+02
1.891816199563903789e+00 5.183875161029916399e+02
1.891916221568744838e+00 5.183868330796032069e+02
1.892016243573586110e+00 5.183862229169210423e+02
1.892116265578427159e+00 5.183856857210367934e+02
1.892216287583268208e+00 5.183852215955237170e+02
1.892316309588109258e+00 5.183848306414363378e+02
1.892416331592950307e+00 5.183845129573053327e+02
1.892516353597791134e+00 5.183842686391317329e+02
1.892616375602632406e+00 5.183840977803859005e+02
1.892716397607473455e+00 5.183840004720025263e+02
1.892816419612314505e+00 5.183839768023758552e+02
1.892916441617155776e+00 5.183840268573585490e+02
1.893016463621996825e+00 5.183841507202552066e+02
1.893116485626837875e+00 5.183843484718221362e+02
1.893216507631678702e+00 5.183846201902626945e+02
1.893316529636519752e+00 5.183849659512225116e+02
1.893416551641360801e+00 5.183853858277891504e+02
1.893516573646202072e+00 5.183858798904872174e+02
1.893616595651043122e+00 5.183864482072771125e+02
1.893716617655884171e+00 5.183870908435499132e+02
1.893816639660725443e+00 5.183878078621264649e+02
1.893916661665566270e+00 5.183885993232555620e+02
1.894016683670407319e+00 5.183894652846087183e+02
1.894116705675248369e+00 5.183904058012790301e+02
1.894216727680089418e+00 5.183914209257802668e+02
1.894316749684930468e+00 5.183925107080425505e+02
1.894416771689771739e+00 5.183936751954117881e+02
1.894516793694612788e+00 5.183949144326463738e+02
1.894616815699453616e+00 5.183962284619162801e+02
1.894716837704294665e+00 5.183976173228002153e+02
1.894816859709135937e+00 5.183990810522846004e+02
1.894916881713976986e+00 5.184006196847624324e+02
1.895016903718818035e+00 5.184022332520305554e+02
1.895116925723659085e+00 5.184039217832888653e+02
1.895216947728500134e+00 5.184056853051386042e+02
1.895316969733340962e+00 5.184075238415808826e+02
1.895416991738182233e+00 5.184094374140173613e+02
1.895517013743023282e+00 5.184114260412468411e+02
1.895617035747864332e+00 5.184134897394649215e+02
1.895717057752705603e+00 5.184156285222649103e+02
1.895817079757546653e+00 5.184178424006331625e+02
1.895917101762387702e+00 5.184201313829528317e+02
1.896017123767228529e+00 5.184224954750008010e+02
1.896117145772069579e+00 5.184249346799476825e+02
1.896217167776910628e+00 5.184274489983567946e+02
1.896317189781751900e+00 5.184300384281850711e+02
1.896417211786592949e+00 5.184327029647822656e+02
1.896517233791433998e+00 5.184354426008908376e+02
1.896617255796275270e+00 5.184382573266467489e+02
1.896717277801116097e+00 5.184411471295775300e+02
1.896817299805957147e+00 5.184441119946038725e+02
1.896917321810798196e+00 5.184471519040407657e+02
1.897017343815639245e+00 5.184502668375968142e+02
1.897117365820480295e+00 5.184534567723740111e+02
1.897217387825321566e+00 5.184567216828701248e+02
1.897317409830162616e+00 5.184600615409777902e+02
1.897417431835003443e+00 5.184634763159858721e+02
1.897517453839844492e+00 5.184669659745810577e+02
1.897617475844685764e+00 5.184705304808471737e+02
1.897717497849526813e+00 5.184741697962684839e+02
1.897817519854367863e+00 5.184778838797283242e+02
1.897917541859208912e+00 5.184816726875124004e+02
1.898017563864049961e+00 5.184855361733093559e+02
1.898117585868890789e+00 5.184894742882122500e+02
1.898217607873732060e+00 5.184934869807194673e+02
1.898317629878573110e+00 5.184975741967379008e+02
1.898417651883414159e+00 5.185017358795836344e+02
1.898517673888255430e+00 5.185059719699833067e+02
1.898617695893096480e+00 5.185102824060779767e+02
1.898717717897937529e+00 5.185146671234225551e+02
1.898817739902778357e+00 5.185191260549893286e+02
1.898917761907619406e+00 5.185236591311723942e+02
1.899017783912460455e+00 5.185282662797840203e+02
1.899117805917301727e+00 5.185329474260639699e+02
1.899217827922142776e+00 5.185377024926764307e+02
1.899317849926983826e+00 5.185425313997166086e+02
1.899417871931825097e+00 5.185474340647114104e+02
1.899517893936665924e+00 5.185524104026218311e+02
1.899617915941506974e+00 5.185574603258482966e+02
1.899717937946348023e+00 5.185625837442306647e+02
1.899817959951189072e+00 5.185677805650523169e+02
1.899917981956030122e+00 5.185730506930455022e+02
1.900018003960871393e+00 5.185783940303906547e+02
1.900118025965712443e+00 5.185838104767236700e+02
1.900218047970553270e+00 5.185892999291363594e+02
1.900318069975394319e+00 5.185948622821822482e+02
1.900418091980235591e+00 5.186004974278780537e+02
1.900518113985076640e+00 5.186062052557099378e+02
1.900618135989917690e+00 5.186119856526352123e+02
1.900718157994758739e+00 5.186178385030871141e+02
1.900818179999599788e+00 5.186237636889790110e+02
1.900918202004440616e+00 5.186297610897076993e+02
1.901018224009281887e+00 5.186358305821594286e+02
1.901118246014122937e+00 5.186419720407116074e+02
1.901218268018963986e+00 5.186481853372399655e+02
1.901318290023805258e+00 5.186544703411209412e+02
1.901418312028646307e+00 5.186608269192366834e+02
1.901518334033487356e+00 5.186672549359809636e+02
1.901618356038328184e+00 5.186737542532621319e+02
1.901718378043169233e+00 5.186803247305097102e+02
1.901818400048010282e+00 5.186869662246776898e+02
1.901918422052851554e+00 5.186936785902516931e+02
1.902018444057692603e+00 5.187004616792509069e+02
1.902118466062533653e+00 5.187073153412379725e+02
1.902218488067374924e+00 5.187142394233180767e+02
1.902318510072215751e+00 5.187212337701512297e+02
1.902418532077056801e+00 5.187282982239523790e+02
1.902518554081897850e+00 5.187354326244994809e+02
1.902618576086738900e+00 5.187426368091396398e+02
1.902718598091579949e+00 5.187499106127925188e+02
1.902818620096421220e+00 5.187572538679582976e+02
1.902918642101262270e+00 5.187646664047235845e+02
1.903018664106103097e+00 5.187721480507659635e+02
1.903118686110944147e+00 5.187796986313614980e+02
1.903218708115785418e+00 5.187873179693909833e+02
1.903318730120626467e+00 5.187950058853440396e+02
1.903418752125467517e+00 5.188027621973292298e+02
1.903518774130308566e+00 5.188105867210774704e+02
1.903618796135149616e+00 5.188184792699493073e+02
1.903718818139990443e+00 5.188264396549437834e+02
1.903818840144831714e+00 5.188344676847011669e+02
1.903918862149672764e+00 5.188425631655134111e+02
1.904018884154513813e+00 5.188507259013288149e+02
1.904118906159355085e+00 5.188589556937598672e+02
1.904218928164196134e+00 5.188672523420923426e+02
1.904318950169037183e+00 5.188756156432871194e+02
1.904418972173878011e+00 5.188840453919927995e+02
1.904518994178719060e+00 5.188925413805516200e+02
1.904619016183560110e+00 5.189011033990045689e+02
1.904719038188401381e+00 5.189097312351022993e+02
1.904819060193242430e+00 5.189184246743105859e+02
1.904919082198083480e+00 5.189271834998177155e+02
1.905019104202924751e+00 5.189360074925448316e+02
1.905119126207765579e+00 5.189448964311501413e+02
1.905219148212606628e+00 5.189538500920400566e+02
1.905319170217447677e+00 5.189628682493761289e+02
1.905419192222288727e+00 5.189719506750819846e+02
1.905519214227129776e+00 5.189810971388533289e+02
1.905619236231971048e+00 5.189903074081648811e+02
1.905719258236812097e+00 5.189995812482798101e+02
1.905819280241652924e+00 5.190089184222566701e+02
1.905919302246493974e+00 5.190183186909604274e+02
1.906019324251335245e+00 5.190277818130682590e+02
1.906119346256176295e+00 5.190373075450798979e+02
1.906219368261017344e+00 5.190468956413260457e+02
1.906319390265858393e+00 5.190565458539771271e+02
1.906419412270699443e+00 5.190662579330517019e+02
1.906519434275540270e+00 5.190760316264266976e+02
1.906619456280381542e+00 5.190858666798462764e+02
1.906719478285222591e+00 5.190957628369294525e+02
1.906819500290063640e+00 5.191057198391805514e+02
1.906919522294904912e+00 5.191157374259984181e+02
1.907019544299745961e+00 5.191258153346865356e+02
1.907119566304587011e+00 5.191359533004614377e+02
1.907219588309427838e+00 5.191461510564608943e+02
1.907319610314268887e+00 5.191564083337577813e+02
1.907419632319109937e+00 5.191667248613645143e+02
1.907519654323951208e+00 5.191771003662490784e+02
1.907619676328792258e+00 5.191875345733362792e+02
1.907719698333633307e+00 5.191980272055279784e+02
1.907819720338474578e+00 5.192085779837033215e+02
1.907919742343315406e+00 5.192191866267361320e+02
1.908019764348156455e+00 5.192298528515011640e+02
1.908119786352997505e+00 5.192405763728859256e+02
1.908219808357838554e+00 5.192513569037988646e+02
1.908319830362679603e+00 5.192621941551828968e+02
1.908419852367520875e+00 5.192730878360233646e+02
1.908519874372361924e+00 5.192840376533604285e+02
1.908619896377202751e+00 5.192950433122969116e+02
1.908719918382043801e+00 5.193061045160125104e+02
1.908819940386885072e+00 5.193172209657702751e+02
1.908919962391726122e+00 5.193283923609330941e+02
1.909019984396567171e+00 5.193396183989685824e+02
1.909120006401408220e+00 5.193508987754628379e+02
1.909220028406249048e+00 5.193622331841331743e+02
1.909320050411090097e+00 5.193736213168356244e+02
1.909420072415931369e+00 5.193850628635779003e+02
1.909520094420772418e+00 5.193965575125314444e+02
1.909620116425613467e+00 5.194081049500407516e+02
1.909720138430454739e+00 5.194197048606356475e+02
1.909820160435295788e+00 5.194313569270428843e+02
1.909920182440136616e+00 5.194430608301985330e+02
1.910020204444977665e+00 5.194548162492568508e+02
1.910120226449818714e+00 5.194666228616039234e+02
1.910220248454659764e+00 5.194784803428694886e+02
1.910320270459501035e+00 5.194903883669367133e+02
1.910420292464342085e+00 5.195023466059572002e+02
1.910520314469183134e+00 5.195143547303587184e+02
1.910620336474023961e+00 5.195264124088613471e+02
1.910720358478865233e+00 5.195385193084865705e+02
1.910820380483706282e+00 5.195506750945704653e+02
1.910920402488547332e+00 5.195628794307747285e+02
1.911020424493388381e+00 5.195751319791008882e+02
1.911120446498229430e+00 5.195874323999008766e+02
1.911220468503070702e+00 5.195997803518890805e+02
1.911320490507911529e+00 5.196121754921562115e+02
1.911420512512752579e+00 5.196246174761804468e+02
1.911520534517593628e+00 5.196371059578407312e+02
1.911620556522434899e+00 5.196496405894285999e+02
1.911720578527275949e+00 5.196622210216600024e+02
1.911820600532116998e+00 5.196748469036911047e+02
1.911920622536958048e+00 5.196875178831270432e+02
1.912020644541798875e+00 5.197002336060373864e+02
1.912120666546639924e+00 5.197129937169676168e+02
1.912220688551481196e+00 5.197257978589525464e+02
1.912320710556322245e+00 5.197386456735289357e+02
1.912420732561163295e+00 5.197515368007484540e+02
1.912520754566004566e+00 5.197644708791912080e+02
1.912620776570845615e+00 5.197774475459789301e+02
1.912720798575686443e+00 5.197904664367861187e+02
1.912820820580527492e+00 5.198035271858562965e+02
1.912920842585368542e+00 5.198166294260126961e+02
1.913020864590209591e+00 5.198297727886730399e+02
1.913120886595050862e+00 5.198429569038622731e+02
1.913220908599891912e+00 5.198561814002252959e+02
1.913320930604732961e+00 5.198694459050424257e+02
1.913420952609573789e+00 5.198827500442406517e+02
1.913520974614415060e+00 5.198960934424079596e+02
1.913620996619256109e+00 5.199094757228085655e+02
1.913721018624097159e+00 5.199228965073928066e+02
1.913821040628938208e+00 5.199363554168143082e+02
1.913921062633779258e+00 5.199498520704426028e+02
1.914021084638620529e+00 5.199633860863759764e+02
1.914121106643461356e+00 5.199769570814569306e+02
1.914221128648302406e+00 5.199905646712837779e+02
1.914321150653143455e+00 5.200042084702272405e+02
1.914421172657984727e+00 5.200178880914423871e+02
1.914521194662825776e+00 5.200316031468835263e+02
1.914621216667666825e+00 5.200453532473176210e+02
1.914721238672507875e+00 5.200591380023387273e+02
1.914821260677348702e+00 5.200729570203830008e+02
1.914921282682189752e+00 5.200868099087408609e+02
1.915021304687031023e+00 5.201006962735730212e+02
1.915121326691872072e+00 5.201146157199236768e+02
1.915221348696713122e+00 5.201285678517343740e+02
1.915321370701554393e+00 5.201425522718604952e+02
1.915421392706395443e+00 5.201565685820835370e+02
1.915521414711236270e+00 5.201706163831258891e+02
1.915621436716077319e+00 5.201846952746656143e+02
1.915721458720918369e+00 5.201988048553506587e+02
1.915821480725759418e+00 5.202129447228135177e+02
1.915921502730600690e+00 5.202271144736868109e+02
1.916021524735441739e+00 5.202413137036155604e+02
1.916121546740282788e+00 5.202555420072727657e+02
1.916221568745123616e+00 5.202697989783752064e+02
1.916321590749964887e+00 5.202840842096974256e+02
1.916421612754805937e+00 5.202983972930849177e+02
1.916521634759646986e+00 5.203127378194716357e+02
1.916621656764488035e+00 5.203271053788926110e+02
1.916721678769329085e+00 5.203414995604989599e+02
1.916821700774170356e+00 5.203559199525744816e+02
1.916921722779011183e+00 5.203703661425483915e+02
1.917021744783852233e+00 5.203848377170108961e+02
1.917121766788693282e+00 5.203993342617285407e+02
1.917221788793534554e+00 5.204138553616596710e+02
1.917321810798375603e+00 5.204284006009671657e+02
1.917421832803216653e+00 5.204429695630366268e+02
1.917521854808057702e+00 5.204575618304883164e+02
1.917621876812898529e+00 5.204721769851942099e+02
1.917721898817739579e+00 5.204868146082922067e+02
1.917821920822580850e+00 5.205014742802025012e+02
1.917921942827421899e+00 5.205161555806399747e+02
1.918021964832262949e+00 5.205308580886332948e+02
1.918121986837104220e+00 5.205455813825354880e+02
1.918222008841945270e+00 5.205603250400433808e+02
1.918322030846786097e+00 5.205750886382109002e+02
1.918422052851627146e+00 5.205898717534632851e+02
1.918522074856468196e+00 5.206046739616143668e+02
1.918622096861309245e+00 5.206194948378812342e+02
1.918722118866150517e+00 5.206343339568986721e+02
1.918822140870991566e+00 5.206491908927350778e+02
1.918922162875832615e+00 5.206640652189081493e+02
1.919022184880673443e+00 5.206789565084002334e+02
1.919122206885514714e+00 5.206938643336728774e+02
1.919222228890355764e+00 5.207087882666832002e+02
1.919322250895196813e+00 5.207237278788984440e+02
1.919422272900037862e+00 5.207386827413122319e+02
1.919522294904878912e+00 5.207536524244594602e+02
1.919622316909720183e+00 5.207686364984322154e+02
1.919722338914561011e+00 5.207836345328938705e+02
1.919822360919402060e+00 5.207986460970969347e+02
1.919922382924243109e+00 5.208136707598965813e+02
1.920022404929084381e+00 5.208287080897673604e+02
1.920122426933925430e+00 5.208437576548178640e+02
1.920222448938766480e+00 5.208588190228061876e+02
1.920322470943607529e+00 5.208738917611566421e+02
1.920422492948448356e+00 5.208889754369739649e+02
1.920522514953289406e+00 5.209040696170602587e+02
1.920622536958130677e+00 5.209191738679287482e+02
1.920722558962971727e+00 5.209342877558212876e+02
1.920822580967812776e+00 5.209494108467230262e+02
1.920922602972654047e+00 5.209645427063769603e+02
1.921022624977495097e+00 5.209796829003018956e+02
1.921122646982335924e+00 5.209948309938062039e+02
1.921222668987176974e+00 5.210099865520036246e+02
1.921322690992018023e+00 5.210251491398302051e+02
1.921422712996859072e+00 5.210403183220581695e+02
1.921522735001700344e+00 5.210554936633127454e+02
1.921622757006541393e+00 5.210706747280867148e+02
1.921722779011382443e+00 5.210858610807581499e+02
1.921822801016223270e+00 5.211010522856032594e+02
1.921922823021064541e+00 5.211162479068136690e+02
1.922022845025905591e+00 5.211314475085116555e+02
1.922122867030746640e+00 5.211466506547667450e+02
1.922222889035587690e+00 5.211618569096096962e+02
1.922322911040428739e+00 5.211770658370487581e+02
1.922422933045270010e+00 5.211922770010862678e+02
1.922522955050110838e+00 5.212074899657321794e+02
1.922622977054951887e+00 5.212227042950221403e+02
1.922722999059792937e+00 5.212379195530317020e+02
1.922823021064634208e+00 5.212531353038912130e+02
1.922923043069475257e+00 5.212683511118036677e+02
1.923023065074316307e+00 5.212835665410580077e+02
1.923123087079157356e+00 5.212987811560465161e+02
1.923223109083998184e+00 5.213139945212791417e+02
1.923323131088839233e+00 5.213292062013993018e+02
1.923423153093680504e+00 5.213444157612007075e+02
1.923523175098521554e+00 5.213596227656403244e+02
1.923623197103362603e+00 5.213748267798570168e+02
1.923723219108203875e+00 5.213900273691846223e+02
1.923823241113044924e+00 5.214052240991691178e+02
1.923923263117885751e+00 5.214204165355826035e+02
1.924023285122726801e+00 5.214356042444414925e+02
1.924123307127567850e+00 5.214507867920184481e+02
1.924223329132408900e+00 5.214659637448600051e+02
1.924323351137250171e+00 5.214811346698020316e+02
1.924423373142091220e+00 5.214962991339851897e+02
1.924523395146932270e+00 5.215114567048690333e+02
1.924623417151773097e+00 5.215266069502491746e+02
1.924723439156614369e+00 5.215417494382719497e+02
1.924823461161455418e+00 5.215568837374499935e+02
1.924923483166296467e+00 5.215720094166765648e+02
1.925023505171137517e+00 5.215871260452429397e+02
1.925123527175978566e+00 5.216022331928520543e+02
1.925223549180819838e+00 5.216173304296345350e+02
1.925323571185660665e+00 5.216324173261639316e+02
1.925423593190501714e+00 5.216474934534712702e+02
1.925523615195342764e+00 5.216625583830626738e+02
1.925623637200184035e+00 5.216776116869318685e+02
1.925723659205025085e+00 5.216926529375762129e+02
1.925823681209866134e+00 5.217076817080128421e+02
1.925923703214707183e+00 5.217226975717924233e+02
1.926023725219548011e+00 5.217377001030167776e+02
1.926123747224389060e+00 5.217526888763508168e+02
1.926223769229230331e+00 5.217676634670395970e+02
1.926323791234071381e+00 5.217826234509225287e+02
1.926423813238912430e+00 5.217975684044503168e+02
1.926523835243753702e+00 5.218124979046968974e+02
1.926623857248594529e+00 5.218274115293775139e+02
1.926723879253435578e+00 5.218423088568622461e+02
1.926823901258276628e+00 5.218571894661896522e+02
1.926923923263117677e+00 5.218720529370840495e+02
1.927023945267958727e+00 5.218868988499700663e+02
1.927123967272799998e+00 5.219017267859858293e+02
1.927223989277641047e+00 5.219165363269996760e+02
1.927324011282481875e+00 5.219313270556239104e+02
1.927424033287322924e+00 5.219460985552293550e+02
1.927524055292164196e+00 5.219608504099612674e+02
1.927624077297005245e+00 5.219755822047535503e+02
1.927724099301846294e+00 5.219902935253423948e+02
1.927824121306687344e+00 5.220049839582825371e+02
1.927924143311528393e+00 5.220196530909599915e+02
1.928024165316369221e+00 5.220343005116098993e+02
1.928124187321210492e+00 5.220489258093274429e+02
1.928224209326051541e+00 5.220635285740836480e+02
1.928324231330892591e+00 5.220781083967406175e+02
1.928424253335733862e+00 5.220926648690657430e+02
1.928524275340574912e+00 5.221071975837446644e+02
1.928624297345415961e+00 5.221217061343985506e+02
1.928724319350256788e+00 5.221361901155953547e+02
1.928824341355097838e+00 5.221506491228651612e+02
1.928924363359938887e+00 5.221650827527157617e+02
1.929024385364780159e+00 5.221794906026448189e+02
1.929124407369621208e+00 5.221938722711549872e+02
1.929224429374462257e+00 5.222082273577693741e+02
1.929324451379303529e+00 5.222225554630424540e+02
1.929424473384144356e+00 5.222368561885773488e+02
1.929524495388985406e+00 5.222511291370375375e+02
1.929624517393826455e+00 5.222653739121622039e+02
1.929724539398667504e+00 5.222795901187796517e+02
1.929824561403508554e+00 5.222937773628203786e+02
1.929924583408349825e+00 5.223079352513333333e+02
1.930024605413190875e+00 5.223220633924963749e+02
1.930124627418031702e+00 5.223361613956329847e+02
1.930224649422872751e+00 5.223502288712236350e+02
1.930324671427714023e+00 5.223642654309211366e+02
1.930424693432555072e+00 5.223782706875641679e+02
1.930524715437396122e+00 5.223922442551884160e+02
1.930624737442237171e+00 5.224061857490439706e+02
1.930724759447078220e+00 5.224200947856052153e+02
1.930824781451919048e+00 5.224339709825865157e+02
1.930924803456760319e+00 5.224478139589540433e+02
1.931024825461601369e+00 5.224616233349416916e+02
1.931124847466442418e+00 5.224753987320596025e+02
1.931224869471283689e+00 5.224891397731126972e+02
1.931324891476124739e+00 5.225028460822099987e+02
1.931424913480965788e+00 5.225165172847803206e+02
1.931524935485806616e+00 5.225301530075823848e+02
1.931624957490647665e+00 5.225437528787208521e+02
1.931724979495488714e+00 5.225573165276580312e+02
1.931825001500329986e+00 5.225708435852251341e+02
1.931925023505171035e+00 5.225843336836388744e+02
1.932025045510012085e+00 5.225977864565104483e+02
1.932125067514853356e+00 5.226112015388603140e+02
1.932225089519694183e+00 5.226245785671305839e+02
1.932325111524535233e+00 5.226379171791970748e+02
1.932425133529376282e+00 5.226512170143823823e+02
1.932525155534217332e+00 5.226644777134683864e+02
1.932625177539058381e+00 5.226776989187079607e+02
1.932725199543899652e+00 5.226908802738386157e+02
1.932825221548740702e+00 5.227040214240942078e+02
1.932925243553581529e+00 5.227171220162163081e+02
1.933025265558422578e+00 5.227301816984678453e+02
1.933125287563263850e+00 5.227432001206443601e+02
1.933225309568104899e+00 5.227561769340863975e+02
1.933325331572945949e+00 5.227691117916917847e+02
1.933425353577786998e+00 5.227820043479272272e+02
1.933525375582628048e+00 5.227948542588394503e+02
1.933625397587468875e+00 5.228076611820694097e+02
1.933725419592310146e+00 5.228204247768612731e+02
1.933825441597151196e+00 5.228331447040754938e+02
1.933925463601992245e+00 5.228458206262015437e+02
1.934025485606833517e+00 5.228584522073660992e+02
1.934125507611674566e+00 5.228710391133490702e+02
1.934225529616515615e+00 5.228835810115917866e+02
1.934325551621356443e+00 5.228960775712088207e+02
1.934425573626197492e+00 5.229085284630004935e+02
1.934525595631038541e+00 5.229209333594637883e+02
1.934625617635879813e+00 5.229332919348024689e+02
1.934725639640720862e+00 5.229456038649391303e+02
1.934825661645561912e+00 5.229578688275272498e+02
1.934925683650403183e+00 5.229700865019590310e+02
1.935025705655244010e+00 5.229822565693799561e+02
1.935125727660085060e+00 5.229943787126978805e+02
1.935225749664926109e+00 5.230064526165931511e+02
1.935325771669767159e+00 5.230184779675304299e+02
1.935425793674608208e+00 5.230304544537690390e+02
1.935525815679449479e+00 5.230423817653743299e+02
1.935625837684290529e+00 5.230542595942263233e+02
1.935725859689131356e+00 5.230660876340316463e+02
1.935825881693972406e+00 5.230778655803335369e+02
1.935925903698813677e+00 5.230895931305223030e+02
1.936025925703654726e+00 5.231012699838447588e+02
1.936125947708495776e+00 5.231128958414152521e+02
1.936225969713336825e+00 5.231244704062248729e+02
1.936325991718177875e+00 5.231359933831529361e+02
1.936426013723018702e+00 5.231474644789753938e+02
1.936526035727859973e+00 5.231588834023756363e+02
1.936626057732701023e+00 5.231702498639533587e+02
1.936726079737542072e+00 5.231815635762354759e+02
1.936826101742383344e+00 5.231928242536838525e+02
1.936926123747224393e+00 5.232040316127076949e+02
1.937026145752065442e+00 5.232151853716711685e+02
1.937126167756906270e+00 5.232262852509015829e+02
1.937226189761747319e+00 5.232373309727020114e+02
1.937326211766588369e+00 5.232483222613577709e+02
1.937426233771429640e+00 5.232592588431464264e+02
1.937526255776270689e+00 5.232701404463480230e+02
1.937626277781111739e+00 5.232809668012523616e+02
1.937726299785953010e+00 5.232917376401682077e+02
1.937826321790793838e+00 5.233024526974340915e+02
1.937926343795634887e+00 5.233131117094245610e+02
1.938026365800475936e+00 5.233237144145592765e+02
1.938126387805316986e+00 5.233342605533149481e+02
1.938226409810158035e+00 5.233447498682289734e+02
1.938326431814999307e+00 5.233551821039102379e+02
1.938426453819840356e+00 5.233655570070487784e+02
1.938526475824681183e+00 5.233758743264211262e+02
1.938626497829522233e+00 5.233861338129030401e+02
1.938726519834363504e+00 5.233963352194709842e+02
1.938826541839204554e+00 5.234064783012166799e+02
1.938926563844045603e+00 5.234165628153521084e+02
1.939026585848886652e+00 5.234265885212165585e+02
1.939126607853727702e+00 5.234365551802870868e+02
1.939226629858568529e+00 5.234464625561836328e+02
1.939326651863409801e+00 5.234563104146780006e+02
1.939426673868250850e+00 5.234660985237022715e+02
1.939526695873091899e+00 5.234758266533535789e+02
1.939626717877933171e+00 5.234854945759051361e+02
1.939726739882774220e+00 5.234951020658099878e+02
1.939826761887615270e+00 5.235046488997104461e+02
1.939926783892456097e+00 5.235141348564451391e+02
1.940026805897297146e+00 5.235235597170552637e+02
1.940126827902138196e+00 5.235329232647914068e+02
1.940226849906979467e+00 5.235422252851218445e+02
1.940326871911820517e+00 5.235514655657379990e+02
1.940426893916661566e+00 5.235606438965620555e+02
1.940526915921502837e+00 5.235697600697521921e+02
1.940626937926343665e+00 5.235788138797115607e+02
1.940726959931184714e+00 5.235878051230922665e+02
1.940826981936025764e+00 5.235967335988026434e+02
1.940927003940866813e+00 5.236055991080153262e+02
1.941027025945707862e+00 5.236144014541698652e+02
1.941127047950549134e+00 5.236231404429823897e+02
1.941227069955390183e+00 5.236318158824483362e+02
1.941327091960231011e+00 5.236404275828522259e+02
1.941427113965072060e+00 5.236489753567701655e+02
1.941527135969913331e+00 5.236574590190771232e+02
1.941627157974754381e+00 5.236658783869527269e+02
1.941727179979595430e+00 5.236742332798859252e+02
1.941827201984436480e+00 5.236825235196813537e+02
1.941927223989277529e+00 5.236907489304646788e+02
1.942027245994118356e+00 5.236989093386879404e+02
1.942127267998959628e+00 5.237070045731333039e+02
1.942227290003800677e+00 5.237150344649220415e+02
1.942327312008641726e+00 5.237229988475137361e+02
1.942427334013482998e+00 5.237308975567175366e+02
1.942527356018324047e+00 5.237387304306924989e+02
1.942627378023165097e+00 5.237464973099540657e+02
1.942727400028005924e+00 5.237541980373791830e+02
1.942827422032846973e+00 5.237618324582094829e+02
1.942927444037688023e+00 5.237694004200579911e+02
1.943027466042529294e+00 5.237769017729114012e+02
1.943127488047370344e+00 5.237843363691350760e+02
1.943227510052211393e+00 5.237917040634778232e+02
1.943327532057052665e+00 5.237990047130767834e+02
1.943427554061893492e+00 5.238062381774577716e+02
1.943527576066734541e+00 5.238134043185451674e+02
1.943627598071575591e+00 5.238205030006604375e+02
1.943727620076416640e+00 5.238275340905281610e+02
1.943827642081257689e+00 5.238344974572803494e+02
1.943927664086098961e+00 5.238413929724592890e+02
1.944027686090939788e+00 5.238482205100206102e+02
1.944127708095780838e+00 5.238549799463371528e+02
1.944227730100621887e+00 5.238616711602031728e+02
1.944327752105463158e+00 5.238682940328357063e+02
1.944427774110304208e+00 5.238748484478794580e+02
1.944527796115145257e+00 5.238813342914090754e+02
1.944627818119986307e+00 5.238877514519319902e+02
1.944727840124827134e+00 5.238940998203917161e+02
1.944827862129668183e+00 5.239003792901701217e+02
1.944927884134509455e+00 5.239065897570907282e+02
1.945027906139350504e+00 5.239127311194207550e+02
1.945127928144191554e+00 5.239188032778743036e+02
1.945227950149032825e+00 5.239248061356136077e+02
1.945327972153873874e+00 5.239307395982525577e+02
1.945427994158714702e+00 5.239366035738580649e+02
1.945528016163555751e+00 5.239423979729527900e+02
1.945628038168396801e+00 5.239481227085168484e+02
1.945728060173237850e+00 5.239537776959900839e+02
1.945828082178079121e+00 5.239593628532734328e+02
1.945928104182920171e+00 5.239648781007311982e+02
1.946028126187761220e+00 5.239703233611909354e+02
1.946128148192602048e+00 5.239756985599492509e+02
1.946228170197443319e+00 5.239810036247679363e+02
1.946328192202284368e+00 5.239862384858795394e+02
1.946428214207125418e+00 5.239914030759864545e+02
1.946528236211966467e+00 5.239964973302627413e+02
1.946628258216807517e+00 5.240015211863550348e+02
1.946728280221648788e+00 5.240064745843841365e+02
1.946828302226489615e+00 5.240113574669456966e+02
1.946928324231330665e+00 5.240161697791099868e+02
1.947028346236171714e+00 5.240209114684244014e+02
1.947128368241012986e+00 5.240255824849125474e+02
1.947228390245854035e+00 5.240301827810754958e+02
1.947328412250695084e+00 5.240347123118924628e+02
1.947428434255536134e+00 5.240391710348203560e+02
1.947528456260376961e+00 5.240435589097955926e+02
1.947628478265218011e+00 5.240478758992312578e+02
1.947728500270059282e+00 5.240521219680216518e+02
1.947828522274900331e+00 5.240562970835372880e+02
1.947928544279741381e+00 5.240604012156287581e+02
1.948028566284582652e+00 5.240644343366244584e+02
1.948128588289423702e+00 5.240683964213303625e+02
1.948228610294264529e+00 5.240722874470311581e+02
1.948328632299105578e+00 5.240761073934878596e+02
1.948428654303946628e+00 5.240798562429375806e+02
1.948528676308787677e+00 5.240835339800948987e+02
1.948628698313628949e+00 5.240871405921479891e+02
1.948728720318469998e+00 5.240906760687599899e+02
1.948828742323311047e+00 5.240941404020665004e+02
1.948928764328151875e+00 5.240975335866764908e+02
1.949028786332993146e+00 5.241008556196693462e+02
1.949128808337834196e+00 5.241041065005947530e+02
1.949228830342675245e+00 5.241072862314701979e+02
1.949328852347516294e+00 5.241103948167808539e+02
1.949428874352357344e+00 5.241134322634775344e+02
1.949528896357198615e+00 5.241163985809743053e+02
1.949628918362039443e+00 5.241192937811479169e+02
1.949728940366880492e+00 5.241221178783365531e+02
1.949828962371721541e+00 5.241248708893352841e+02
1.949928984376562813e+00 5.241275528333970897e+02
1.950029006381403862e+00 5.241301637322286524e+02
1.950129028386244912e+00 5.241327036099896759e+02
1.950229050391085961e+00 5.241351724932899288e+02
1.950329072395926788e+00 5.241375704111869709e+02
1.950429094400767838e+00 5.241398973951835387e+02
1.950529116405609109e+00 5.241421534792247030e+02
1.950629138410450159e+00 5.241443386996968457e+02
1.950729160415291208e+00 5.241464530954233396e+02
1.950829182420132479e+00 5.241484967076620478e+02
1.950929204424973529e+00 5.241504695801028220e+02
1.951029226429814356e+00 5.241523717588652289e+02
1.951129248434655405e+00 5.241542032924928662e+02
1.951229270439496455e+00 5.241559642319523391e+02
1.951329292444337504e+00 5.241576546306309865e+02
1.951429314449178776e+00 5.241592745443310832e+02
1.951529336454019825e+00 5.241608240312665430e+02
1.951629358458860874e+00 5.241623031520630320e+02
1.951729380463701702e+00 5.241637119697479648e+02
1.951829402468542973e+00 5.241650505497536869e+02
1.951929424473384023e+00 5.241663189599086081e+02
1.952029446478225072e+00 5.241675172704354964e+02
1.952129468483066121e+00 5.241686455539486360e+02
1.952229490487907171e+00 5.241697038854451876e+02
1.952329512492748442e+00 5.241706923423073476e+02
1.952429534497589270e+00 5.241716110042925720e+02
1.952529556502430319e+00 5.241724599535336893e+02
1.952629578507271368e+00 5.241732392745296920e+02
1.952729600512112640e+00 5.241739490541466466e+02
1.952829622516953689e+00 5.241745893816085982e+02
1.952929644521794739e+00 5.241751603484949555e+02
1.953029666526635788e+00 5.241756620487368536e+02
1.953129688531476615e+00 5.241760945786074899e+02
1.953229710536317665e+00 5.241764580367245117e+02
1.953329732541158936e+00 5.241767525240388750e+02
1.953429754545999986e+00 5.241769781438322298e+02
1.953529776550841035e+00 5.241771350017105533e+02
1.953629798555682306e+00 5.241772232056015355e+02
1.953729820560523356e+00 5.241772428657452565e+02
1.953829842565364183e+00 5.241771940946930499e+02
1.953929864570205233e+00 5.241770770072978394e+02
1.954029886575046282e+00 5.241768917207110690e+02
1.954129908579887331e+00 5.241766383543763368e+02
1.954229930584728603e+00 5.241763170300237107e+02
1.954329952589569652e+00 5.241759278716634753e+02
1.954429974594410702e+00 5.241754710055797659e+02
1.954529996599251529e+00 5.241749465603262479e+02
1.954630018604092800e+00 5.241743546667187275e+02
1.954730040608933850e+00 5.241736954578277619e+02
1.954830062613774899e+00 5.241729690689762720e+02
1.954930084618615949e+00 5.241721756377265820e+02
1.955030106623456998e+00 5.241713153038816699e+02
1.955130128628298269e+00 5.241703882094725486e+02
1.955230150633139097e+00 5.241693944987554232e+02
1.955330172637980146e+00 5.241683343182019144e+02
1.955430194642821196e+00 5.241672078164955337e+02
1.955530216647662467e+00 5.241660151445215661e+02
1.955630238652503516e+00 5.241647564553627490e+02
1.955730260657344566e+00 5.241634319042900643e+02
1.955830282662185615e+00 5.241620416487575085e+02
1.955930304667026443e+00 5.241605858483940210e+02
1.956030326671867492e+00 5.241590646649957534e+02
1.956130348676708763e+00 5.241574782625195894e+02
1.956230370681549813e+00 5.241558268070745044e+02
1.956330392686390862e+00 5.241541104669165634e+02
1.956430414691232134e+00 5.241523294124372114e+02
1.956530436696073183e+00 5.241504838161603175e+02
1.956630458700914010e+00 5.241485738527305784e+02
1.956730480705755060e+00 5.241465996989072664e+02
1.956830502710596109e+00 5.241445615335576349e+02
1.956930524715437159e+00 5.241424595376456637e+02
1.957030546720278430e+00 5.241402938942268293e+02
1.957130568725119479e+00 5.241380647884395785e+02
1.957230590729960529e+00 5.241357724074950966e+02
1.957330612734801356e+00 5.241334169406716228e+02
1.957430634739642628e+00 5.241309985793049009e+02
1.957530656744483677e+00 5.241285175167789703e+02
1.957630678749324726e+00 5.241259739485185492e+02
1.957730700754165776e+00 5.241233680719811900e+02
1.957830722759006825e+00 5.241207000866475028e+02
1.957930744763848097e+00 5.241179701940122868e+02
1.958030766768688924e+00 5.241151785975758912e+02
1.958130788773529973e+00 5.241123255028360290e+02
1.958230810778371023e+00 5.241094111172782277e+02
1.958330832783212294e+00 5.241064356503674162e+02
1.958430854788053344e+00 5.241033993135375795e+02
1.958530876792894393e+00 5.241003023201830047e+02
1.958630898797735442e+00 5.240971448856507777e+02
1.958730920802576270e+00 5.240939272272282778e+02
1.958830942807417319e+00 5.240906495641374931e+02
1.958930964812258591e+00 5.240873121175222877e+02
1.959030986817099640e+00 5.240839151104405573e+02
1.959131008821940689e+00 5.240804587678544522e+02
1.959231030826781961e+00 5.240769433166205999e+02
1.959331052831623010e+00 5.240733689854802151e+02
1.959431074836463837e+00 5.240697360050492080e+02
1.959531096841304887e+00 5.240660446078095447e+02
1.959631118846145936e+00 5.240622950280971963e+02
1.959731140850986986e+00 5.240584875020942945e+02
1.959831162855828257e+00 5.240546222678169670e+02
1.959931184860669307e+00 5.240506995651069246e+02
1.960031206865510356e+00 5.240467196356210025e+02
1.960131228870351183e+00 5.240426827228195634e+02
1.960231250875192455e+00 5.240385890719578583e+02
1.960331272880033504e+00 5.240344389300754528e+02
1.960431294884874553e+00 5.240302325459831536e+02
1.960531316889715603e+00 5.240259701702575512e+02
1.960631338894556652e+00 5.240216520552243082e+02
1.960731360899397924e+00 5.240172784549538392e+02
1.960831382904238751e+00 5.240128496252448258e+02
1.960931404909079800e+00 5.240083658236175097e+02
1.961031426913920850e+00 5.240038273093015277e+02
1.961131448918762121e+00 5.239992343432231792e+02
1.961231470923603171e+00 5.239945871879995138e+02
1.961331492928444220e+00 5.239898861079203698e+02
1.961431514933285047e+00 5.239851313689432573e+02
1.961531536938126097e+00 5.239803232386799436e+02
1.961631558942967146e+00 5.239754619863840617e+02
1.961731580947808418e+00 5.239705478829419008e+02
1.961831602952649467e+00 5.239655812008602425e+02
1.961931624957490516e+00 5.239605622142549919e+02
1.962031646962331788e+00 5.239554911988395816e+02
1.962131668967172615e+00 5.239503684319149670e+02
1.962231690972013665e+00 5.239451941923548475e+02
1.962331712976854714e+00 5.239399687605978215e+02
1.962431734981695763e+00 5.239346924186324941e+02
1.962531756986536813e+00 5.239293654499895183e+02
1.962631778991378084e+00 5.239239881397257932e+02
1.962731800996219134e+00 5.239185607744154822e+02
1.962831823001059961e+00 5.239130836421367121e+02
1.962931845005901010e+00 5.239075570324606588e+02
1.963031867010742282e+00 5.239019812364385871e+02
1.963131889015583331e+00 5.238963565465911643e+02
1.963231911020424381e+00 5.238906832568948175e+02
1.963331933025265430e+00 5.238849616627709338e+02
1.963431955030106479e+00 5.238791920610728994e+02
1.963531977034947307e+00 5.238733747500743902e+02
1.963631999039788578e+00 5.238675100294574349e+02
1.963732021044629628e+00 5.238615982002983174e+02
1.963832043049470677e+00 5.238556395650576860e+02
1.963932065054311948e+00 5.238496344275656611e+02
1.964032087059152998e+00 5.238435830930128532e+02
1.964132109063994047e+00 5.238374858679334238e+02
1.964232131068834875e+00 5.238313430601962182e+02
1.964332153073675924e+00 5.238251549789903265e+02
1.964432175078516973e+00 5.238189219348125789e+02
1.964532197083358245e+00 5.238126442394558353e+02
1.964632219088199294e+00 5.238063222059956843e+02
1.964732241093040344e+00 5.237999561487770279e+02
1.964832263097881615e+00 5.237935463834019174e+02
1.964932285102722442e+00 5.237870932267175021e+02
1.965032307107563492e+00 5.237805969968015916e+02
1.965132329112404541e+00 5.237740580129499222e+02
1.965232351117245591e+00 5.237674765956655847e+02
1.965332373122086640e+00 5.237608530666411752e+02
1.965432395126927911e+00 5.237541877487515194e+02
1.965532417131768961e+00 5.237474809660370738e+02
1.965632439136609788e+00 5.237407330436897155e+02
1.965732461141450838e+00 5.237339443080433057e+02
1.965832483146292109e+00 5.237271150865576601e+02
1.965932505151133158e+00 5.237202457078058160e+02
1.966032527155974208e+00 5.237133365014622086e+02
1.966132549160815257e+00 5.237063877982867552e+02
1.966232571165656307e+00 5.236993999301143958e+02
1.966332593170497134e+00 5.236923732298391769e+02
1.966432615175338405e+00 5.236853080314020872e+02
1.966532637180179455e+00 5.236782046697782107e+02
1.966632659185020504e+00 5.236710634809605835e+02
1.966732681189861776e+00 5.236638848019516672e+02
1.966832703194702825e+00 5.236566689707425439e+02
1.966932725199543874e+00 5.236494163263070050e+02
1.967032747204384702e+00 5.236421272085826786e+02
1.967132769209225751e+00 5.236348019584593203e+02
1.967232791214066800e+00 5.236274409177653979e+02
1.967332813218908072e+00 5.236200444292524026e+02
1.967432835223749121e+00 5.236126128365831391e+02
1.967532857228590171e+00 5.236051464843189933e+02
1.967632879233431442e+00 5.235976457179017416e+02
1.967732901238272269e+00 5.235901108836449112e+02
1.967832923243113319e+00 5.235825423287158173e+02
1.967932945247954368e+00 5.235749404011236265e+02
1.968032967252795418e+00 5.235673054497070780e+02
1.968132989257636467e+00 5.235596378241147022e+02
1.968233011262477739e+00 5.235519378747992505e+02
1.968333033267318788e+00 5.235442059529955259e+02
1.968433055272159615e+00 5.235364424107124250e+02
1.968533077277000665e+00 5.235286476007159990e+02
1.968633099281841936e+00 5.235208218765163792e+02
1.968733121286682985e+00 5.235129655923514065e+02
1.968833143291524035e+00 5.235050791031767403e+02
1.968933165296365084e+00 5.234971627646486922e+02
1.969033187301206134e+00 5.234892169331101286e+02
1.969133209306046961e+00 5.234812419655779649e+02
1.969233231310888232e+00 5.234732382197274774e+02
1.969333253315729282e+00 5.234652060538793421e+02
1.969433275320570331e+00 5.234571458269831510e+02
1.969533297325411603e+00 5.234490578986069522e+02
1.969633319330252652e+00 5.234409426289196290e+02
1.969733341335093701e+00 5.234328003786770296e+02
1.969833363339934529e+00 5.234246315092105988e+02
1.969933385344775578e+00 5.234164363824085058e+02
1.970033407349616628e+00 5.234082153607062082e+02
1.970133429354457899e+00 5.233999688070678076e+02
1.970233451359298948e+00 5.233916970849743393e+02
1.970333473364139998e+00 5.233834005584089937e+02
1.970433495368981269e+00 5.233750795918422227e+02
1.970533517373822097e+00 5.233667345502169610e+02
1.970633539378663146e+00 5.233583657989352105e+02
1.970733561383504195e+00 5.233499737038443982e+02
1.970833583388345245e+00 5.233415586312194137e+02
1.970933605393186294e+00 5.233331209477530592e+02
1.971033627398027566e+00 5.233246610205380875e+02
1.971133649402868615e+00 5.233161792170534454e+02
1.971233671407709442e+00 5.233076759051509725e+02
1.971333693412550492e+00 5.232991514530394852e+02
1.971433715417391763e+00 5.232906062292723846e+02
1.971533737422232813e+00 5.232820406027296940e+02
1.971633759427073862e+00 5.232734549426080548e+02
1.971733781431914911e+00 5.232648496184015130e+02
1.971833803436755961e+00 5.232562249998919697e+02
1.971933825441596788e+00 5.232475814571292858e+02
1.972033847446438060e+00 5.232389193604225284e+02
1.972133869451279109e+00 5.232302390803209846e+02
1.972233891456120158e+00 5.232215409876007470e+02
1.972333913460961430e+00 5.232128254532525489e+02
1.972433935465802479e+00 5.232040928484638016e+02
1.972533957470643529e+00 5.231953435446066578e+02
1.972633979475484356e+00 5.231865779132224361e+02
1.972734001480325405e+00 5.231777963260065007e+02
1.972834023485166455e+00 5.231689991547959835e+02
1.972934045490007726e+00 5.231601867715525032e+02
1.973034067494848776e+00 5.231513595483500012e+02
1.973134089499689825e+00 5.231425178573578023e+02
1.973234111504531096e+00 5.231336620708294731e+02
1.973334133509371924e+00 5.231247925610850871e+02
1.973434155514212973e+00 5.231159097004983778e+02
1.973534177519054023e+00 5.231070138614815050e+02
1.973634199523895072e+00 5.230981054164730040e+02
1.973734221528736121e+00 5.230891847379183446e+02
1.973834243533577393e+00 5.230802521982604958e+02
1.973934265538418442e+00 5.230713081699229861e+02
1.974034287543259270e+00 5.230623530252958062e+02
1.974134309548100319e+00 5.230533871367210850e+02
1.974234331552941590e+00 5.230444108764788780e+02
1.974334353557782640e+00 5.230354246167723886e+02
1.974434375562623689e+00 5.230264287297125065e+02
1.974534397567464739e+00 5.230174235873071211e+02
1.974634419572305788e+00 5.230084095614416810e+02
1.974734441577146615e+00 5.229993870238689624e+02
1.974834463581987887e+00 5.229903563461925842e+02
1.974934485586828936e+00 5.229813178998526837e+02
1.975034507591669986e+00 5.229722720561126152e+02
1.975134529596511257e+00 5.229632191860440571e+02
1.975234551601352306e+00 5.229541596605124596e+02
1.975334573606193356e+00 5.229450938501624933e+02
1.975434595611034183e+00 5.229360221254054295e+02
1.975534617615875232e+00 5.229269448564027698e+02
1.975634639620716282e+00 5.229178624130533990e+02
1.975734661625557553e+00 5.229087751649778966e+02
1.975834683630398603e+00 5.228996834815071679e+02
1.975934705635239652e+00 5.228905877316648230e+02
1.976034727640080924e+00 5.228814882841552389e+02
1.976134749644921751e+00 5.228723855073488949e+02
1.976234771649762800e+00 5.228632797692669101e+02
1.976334793654603850e+00 5.228541714375693346e+02
1.976434815659444899e+00 5.228450608795401422e+02
1.976534837664285948e+00 5.228359484620709736e+02
1.976634859669127220e+00 5.228268345516511317e+02
1.976734881673968269e+00 5.228177195143492781e+02
1.976834903678809097e+00 5.228086037158033150e+02
1.976934925683650146e+00 5.227994875212039005e+02
1.977034947688491417e+00 5.227903712952804653e+02
1.977134969693332467e+00 5.227812554022888207e+02
1.977234991698173516e+00 5.227721402059967204e+02
1.977335013703014566e+00 5.227630260696693085e+02
1.977435035707855615e+00 5.227539133560549089e+02
1.977535057712696442e+00 5.227448024273737701e+02
1.977635079717537714e+00 5.227356936452999889e+02
1.977735101722378763e+00 5.227265873709518473e+02
1.977835123727219813e+00 5.227174839648766920e+02
1.977935145732061084e+00 5.227083837870360412e+02
1.978035167736902133e+00 5.226992871967923975e+02
1.978135189741743183e+00 5.226901945528975375e+02
1.978235211746584010e+00 5.226811062134752319e+02
1.978335233751425060e+00 5.226720225360126051e+02
1.978435255756266109e+00 5.226629438773405809e+02
1.978535277761107380e+00 5.226538705936261522e+02
1.978635299765948430e+00 5.226448030403543044e+02
1.978735321770789479e+00 5.226357415723171016e+02
1.978835343775630307e+00 5.226266865436002718e+02
1.978935365780471578e+00 5.226176383075685408e+02
1.979035387785312627e+00 5.226085972168535818e+02
1.979135409790153677e+00 5.225995636233385540e+02
1.979235431794994726e+00 5.225905378781470745e+02
1.979335453799835776e+00 5.225815203316304860e+02
1.979435475804677047e+00 5.225725113333512581e+02
1.979535497809517874e+00 5.225635112320728695e+02
1.979635519814358924e+00 5.225545203757458239e+02
1.979735541819199973e+00 5.225455391114935537e+02
1.979835563824041245e+00 5.225365677856015054e+02
1.979935585828882294e+00 5.225276067435011100e+02
1.980035607833723343e+00 5.225186563297606881e+02
1.980135629838564393e+00 5.225097168880682830e+02
1.980235651843405220e+00 5.225007887612218838e+02
1.980335673848246270e+00 5.224918722911147597e+02
1.980435695853087541e+00 5.224829678187243189e+02
1.980535717857928590e+00 5.224740756840975564e+02
1.980635739862769640e+00 5.224651962263392306e+02
1.980735761867610911e+00 5.224563297835993581e+02
1.980835783872451961e+00 5.224474766930609348e+02
1.980935805877292788e+00 5.224386372909249303e+02
1.981035827882133837e+00 5.224298119124009645e+02
1.981135849886974887e+00 5.224210008916923016e+02
1.981235871891815936e+00 5.224122045619855044e+02
1.981335893896657208e+00 5.224034232554361097e+02
1.981435915901498257e+00 5.223946573031572598e+02
1.981535937906339306e+00 5.223859070352069693e+02
1.981635959911180134e+00 5.223771727805763021e+02
1.981735981916021405e+00 5.223684548671774337e+02
1.981836003920862455e+00 5.223597536218288724e+02
1.981936025925703504e+00 5.223510693702477283e+02
1.982036047930544553e+00 5.223424024370344796e+02
1.982136069935385603e+00 5.223337531456613760e+02
1.982236091940226874e+00 5.223251218184610707e+02
1.982336113945067702e+00 5.223165087766135457e+02
1.982436135949908751e+00 5.223079143401373585e+02
1.982536157954749800e+00 5.222993388278730436e+02
1.982636179959591072e+00 5.222907825574748131e+02
1.982736201964432121e+00 5.222822458453989611e+02
1.982836223969273171e+00 5.222737290068896527e+02
1.982936245974114220e+00 5.222652323559692604e+02
1.983036267978955047e+00 5.222567562054260861e+02
1.983136289983796097e+00 5.222483008668037883e+02
1.983236311988637368e+00 5.222398666503879667e+02
1.983336333993478418e+00 5.222314538651974090e+02
1.983436355998319467e+00 5.222230628189704476e+02
1.983536378003160738e+00 5.222146938181546147e+02
1.983636400008001788e+00 5.222063471678957285e+02
1.983736422012842615e+00 5.221980231720258416e+02
1.983836444017683664e+00 5.221897221330532375e+02
1.983936466022524714e+00 5.221814443521508338e+02
1.984036488027365763e+00 5.221731901291437907e+02
1.984136510032207035e+00 5.221649597625015531e+02
1.984236532037048084e+00 5.221567535493247760e+02
1.984336554041889134e+00 5.221485717853341839e+02
1.984436576046729961e+00 5.221404147648618164e+02
1.984536598051571232e+00 5.221322827808388638e+02
1.984636620056412282e+00 5.221241761247845261e+02
1.984736642061253331e+00 5.221160950867975998e+02
1.984836664066094380e+00 5.221080399555432905e+02
1.984936686070935430e+00 5.221000110182451408e+02
1.985036708075776701e+00 5.220920085606727525e+02
1.985136730080617529e+00 5.220840328671328052e+02
1.985236752085458578e+00 5.220760842204580285e+02
1.985336774090299627e+00 5.220681629019964021e+02
1.985436796095140899e+00 5.220602691916037656e+02
1.985536818099981948e+00 5.220524033676294948e+02
1.985636840104822998e+00 5.220445657069108165e+02
1.985736862109664047e+00 5.220367564847595077e+02
1.985836884114504874e+00 5.220289759749537097e+02
1.985936906119345924e+00 5.220212244497274696e+02
1.986036928124187195e+00 5.220135021797622130e+02
1.986136950129028245e+00 5.220058094341749211e+02
1.986236972133869294e+00 5.219981464805101723e+02
1.986336994138710565e+00 5.219905135847303654e+02
1.986437016143551615e+00 5.219829110112056014e+02
1.986537038148392442e+00 5.219753390227045884e+02
1.986637060153233492e+00 5.219677978803858878e+02
1.986737082158074541e+00 5.219602878437876825e+02
1.986837104162915590e+00 5.219528091708187958e+02
1.986937126167756862e+00 5.219453621177501645e+02
1.987037148172597911e+00 5.219379469392050623e+02
1.987137170177438961e+00 5.219305638881505729e+02
1.987237192182279788e+00 5.219232132158886088e+02
1.987337214187121059e+00 5.219158951720459072e+02
1.987437236191962109e+00 5.219086100045675494e+02
1.987537258196803158e+00 5.219013579597063881e+02
1.987637280201644208e+00 5.218941392820144074e+02
1.987737302206485257e+00 5.218869542143362423e+02
1.987837324211326528e+00 5.218798029977969009e+02
1.987937346216167356e+00 5.218726858717968753e+02
1.988037368221008405e+00 5.218656030740027063e+02
1.988137390225849455e+00 5.218585548403382290e+02
1.988237412230690726e+00 5.218515414049754781e+02
1.988337434235531775e+00 5.218445630003294582e+02
1.988437456240372825e+00 5.218376198570468887e+02
1.988537478245213874e+00 5.218307122039999513e+02
1.988637500250054702e+00 5.218238402682787864e+02
1.988737522254895751e+00 5.218170042751814890e+02
1.988837544259737022e+00 5.218102044482091060e+02
1.988937566264578072e+00 5.218034410090552910e+02
1.989037588269419121e+00 5.217967141776015296e+02
1.989137610274260393e+00 5.217900241719065662e+02
1.989237632279101442e+00 5.217833712082014017e+02
1.989337654283942269e+00 5.217767555008809950e+02
1.989437676288783319e+00 5.217701772624957357e+02
1.989537698293624368e+00 5.217636367037462151e+02
1.989637720298465418e+00 5.217571340334760635e+02
1.989737742303306689e+00 5.217506694586621734e+02
1.989837764308147738e+00 5.217442431844111752e+02
1.989937786312988788e+00 5.217378554139504558e+02
1.990037808317829615e+00 5.217315063486207691e+02
1.990137830322670887e+00 5.217251961878720294e+02
1.990237852327511936e+00 5.217189251292548988e+02
1.990337874332352985e+00 5.217126933684129426e+02
1.990437896337194035e+00 5.217065010990793326e+02
1.990537918342035084e+00 5.217003485130665013e+02
1.990637940346876356e+00 5.216942358002638684e+02
1.990737962351717183e+00 5.216881631486288597e+02
1.990837984356558232e+00 5.216821307441809950e+02
1.990938006361399282e+00 5.216761387709962037e+02
1.991038028366240553e+00 5.216701874112018231e+02
1.991138050371081603e+00 5.216642768449679579e+02
1.991238072375922652e+00 5.216584072505037284e+02
1.991338094380763701e+00 5.216525788040518137e+02
1.991438116385604529e+00 5.216467916798808346e+02
1.991538138390445578e+00 5.216410460502809201e+02
1.991638160395286850e+00 5.216353420855579088e+02
1.991738182400127899e+00 5.216296799540285747e+02
1.991838204404968948e+00 5.216240598220131233e+02
1.991938226409810220e+00 5.216184818538331456e+02
1.992038248414651269e+00 5.216129462118035462e+02
1.992138270419492097e+00 5.216074530562279961e+02
1.992238292424333146e+00 5.216020025453954077e+02
1.992338314429174195e+00 5.215965948355730006e+02
1.992438336434015245e+00 5.215912300810025499e+02
1.992538358438856516e+00 5.215859084338952698e+02
1.992638380443697566e+00 5.215806300444269255e+02
1.992738402448538615e+00 5.215753950607336265e+02
1.992838424453379442e+00 5.215702036289070520e+02
1.992938446458220714e+00 5.215650558929897898e+02
1.993038468463061763e+00 5.215599519949711294e+02
1.993138490467902812e+00 5.215548920747811508e+02
1.993238512472743862e+00 5.215498762702911790e+02
1.993338534477584911e+00 5.215449047173040071e+02
1.993438556482426183e+00 5.215399775495528729e+02
1.993538578487267010e+00 5.215350948986979347e+02
1.993638600492108059e+00 5.215302568943199049e+02
1.993738622496949109e+00 5.215254636639190267e+02
1.993838644501790380e+00 5.215207153329090488e+02
1.993938666506631430e+00 5.215160120246155202e+02
1.994038688511472479e+00 5.215113538602705603e+02
1.994138710516313528e+00 5.215067409590111538e+02
1.994238732521154356e+00 5.215021734378743758e+02
1.994338754525995405e+00 5.214976514117937541e+02
1.994438776530836677e+00 5.214931749935980179e+02
1.994538798535677726e+00 5.214887442940063238e+02
1.994638820540518775e+00 5.214843594216262090e+02
1.994738842545360047e+00 5.214800204829490440e+02
1.994838864550201096e+00 5.214757275823498048e+02
1.994938886555041924e+00 5.214714808220816167e+02
1.995038908559882973e+00 5.214672803022750713e+02
1.995138930564724022e+00 5.214631261209342483e+02
1.995238952569565072e+00 5.214590183739348959e+02
1.995338974574406343e+00 5.214549571550222709e+02
1.995438996579247393e+00 5.214509425558082967e+02
1.995539018584088442e+00 5.214469746657694031e+02
1.995639040588929269e+00 5.214430535722440254e+02
1.995739062593770541e+00 5.214391793604316945e+02
1.995839084598611590e+00 5.214353521133887170e+02
1.995939106603452640e+00 5.214315719120305630e+02
1.996039128608293689e+00 5.214278388351244757e+02
1.996139150613134738e+00 5.214241529592927691e+02
1.996239172617975566e+00 5.214205143590075977e+02
1.996339194622816837e+00 5.214169231065909571e+02
1.996439216627657887e+00 5.214133792722140015e+02
1.996539238632498936e+00 5.214098829238937469e+02
1.996639260637340207e+00 5.214064341274931849e+02
1.996739282642181257e+00 5.214030329467196907e+02
1.996839304647022306e+00 5.213996794431243416e+02
1.996939326651863134e+00 5.213963736760993015e+02
1.997039348656704183e+00 5.213931157028787311e+02
1.997139370661545232e+00 5.213899055785373093e+02
1.997239392666386504e+00 5.213867433559895517e+02
1.997339414671227553e+00 5.213836290859884457e+02
1.997439436676068603e+00 5.213805628171251101e+02
1.997539458680909874e+00 5.213775445958294767e+02
1.997639480685750701e+00 5.213745744663685855e+02
1.997739502690591751e+00 5.213716524708459019e+02
1.997839524695432800e+00 5.213687786492029090e+02
1.997939546700273850e+00 5.213659530392174020e+02
1.998039568705114899e+00 5.213631756765032605e+02
1.998139590709956170e+00 5.213604465945122683e+02
1.998239612714797220e+00 5.213577658245314979e+02
1.998339634719638047e+00 5.213551333956869485e+02
1.998439656724479097e+00 5.213525493349402495e+02
1.998539678729320368e+00 5.213500136670917300e+02
1.998639700734161417e+00 5.213475264147783719e+02
1.998739722739002467e+00 5.213450875984776758e+02
1.998839744743843516e+00 5.213426972365056145e+02
1.998939766748684566e+00 5.213403553450173149e+02
1.999039788753525393e+00 5.213380619380108101e+02
1.999139810758366664e+00 5.213358170273234009e+02
1.999239832763207714e+00 5.213336206226369995e+02
1.999339854768048763e+00 5.213314727314759693e+02
1.999439876772890035e+00 5.213293733592099670e+02
1.999539898777731084e+00 5.213273225090556480e+02
1.999639920782572133e+00 5.213253201820757567e+02
1.999739942787412961e+00 5.213233663771825377e+02
1.999839964792254010e+00 5.213214610911389855e+02
1.999939986797095060e+00 5.213196043185589588e+02
2.000040008801936331e+00 4.880320902948210460e+02
2.000140030806777602e+00 4.878883682814722533e+02
2.000240052811618430e+00 4.877445681086970808e+02
2.000340074816459701e+00 4.876006921011841655e+02
2.000440096821300529e+00 4.874567425848281914e+02
2.000540118826141356e+00 4.873127218866655994e+02
2.000640140830982627e+00 4.871686323348073415e+02
2.000740162835823899e+00 4.870244762583739657e+02
2.000840184840664726e+00 4.868802559874289386e+02
2.000940206845505998e+00 4.867359738529145261e+02
2.001040228850347269e+00 4.865916321865848317e+02
2.001140250855187652e+00 4.864472333209409953e+02
2.001240272860028924e+00 4.863027795891643450e+02
2.001340294864870195e+00 4.861582733250514821e+02
2.001440316869711022e+00 4.860137168629485132e+02
2.001540338874552294e+00 4.858691125376855098e+02
2.001640360879393565e+00 4.857244626845107405e+02
2.001740382884234393e+00 4.855797696390239366e+02
2.001840404889075220e+00 4.854350357371121163e+02
2.001940426893916491e+00 4.852902633148840437e+02
2.002040448898757319e+00 4.851454547086027560e+02
2.002140470903598590e+00 4.850006122546207621e+02
2.002240492908439862e+00 4.848557382893171166e+02
2.002340514913280689e+00 4.847108351490268205e+02
2.002440536918121960e+00 4.845659051699801125e+02
2.002540558922962788e+00 4.844209506882334040e+02
2.002640580927804059e+00 4.842759740396052166e+02
2.002740602932644887e+00 4.841309775596121767e+02
2.002840624937486158e+00 4.839859635834008600e+02
2.002940646942326985e+00 4.838409344456841268e+02
2.003040668947168257e+00 4.836958924806754112e+02
2.003140690952009528e+00 4.835508400220236922e+02
2.003240712956850356e+00 4.834057794027467025e+02
2.003340734961691183e+00 4.832607129551682874e+02
2.003440756966532454e+00 4.831156430108517270e+02
2.003540778971373726e+00 4.829705719005347646e+02
2.003640800976214553e+00 4.828255019540637250e+02
2.003740822981055825e+00 4.826804355003308160e+02
2.003840844985896652e+00 4.825353748672063148e+02
2.003940866990737923e+00 4.823903223814768921e+02
2.004040888995578751e+00 4.822452803687766050e+02
2.004140911000420022e+00 4.821002511535271537e+02
2.004240933005260850e+00 4.819552370588691019e+02
2.004340955010102121e+00 4.818102404065987798e+02
2.004440977014943392e+00 4.816652635171033694e+02
2.004540999019784220e+00 4.815203087092983196e+02
2.004641021024625047e+00 4.813753783005595324e+02
2.004741043029466319e+00 4.812304746066613461e+02
2.004841065034307590e+00 4.810855999417127009e+02
2.004941087039148417e+00 4.809407566180904041e+02
2.005041109043989689e+00 4.807959469463778532e+02
2.005141131048830516e+00 4.806511732353000639e+02
2.005241153053671788e+00 4.805064377916584135e+02
2.005341175058512615e+00 4.803617429202677158e+02
2.005441197063353886e+00 4.802170909238936929e+02
2.005541219068194714e+00 4.800724841031883443e+02
2.005641241073035985e+00 4.799279247566250888e+02
2.005741263077877257e+00 4.797834151804378280e+02
2.005841285082718084e+00 4.796389576685550651e+02
2.005941307087559355e+00 4.794945545125390254e+02
2.006041329092400183e+00 4.793502080015208549e+02
2.006141351097241010e+00 4.792059204221378650e+02
2.006241373102082282e+00 4.790616940584707208e+02
2.006341395106923553e+00 4.789175311919814249e+02
2.006441417111764380e+00 4.787734341014487427e+02
2.006541439116605652e+00 4.786294050629077219e+02
2.006641461121446923e+00 4.784854463495860273e+02
2.006741483126287307e+00 4.783415602318404467e+02
2.006841505131128578e+00 4.781977489770980583e+02
2.006941527135969849e+00 4.780540148497899509e+02
2.007041549140810677e+00 4.779103601112922775e+02
2.007141571145651948e+00 4.777667870198632158e+02
2.007241593150493220e+00 4.776232978305819756e+02
2.007341615155334047e+00 4.774798947952841104e+02
2.007441637160174874e+00 4.773365801625059817e+02
2.007541659165016146e+00 4.771933561774167742e+02
2.007641681169856973e+00 4.770502250817619370e+02
2.007741703174698245e+00 4.769071891138008255e+02
2.007841725179539516e+00 4.767642505082438902e+02
2.007941747184380343e+00 4.766214114961955488e+02
2.008041769189221615e+00 4.764786743050894984e+02
2.008141791194062442e+00 4.763360411586319856e+02
2.008241813198903714e+00 4.761935142767382558e+02
2.008341835203744541e+00 4.760510958754738908e+02
2.008441857208585812e+00 4.759087881669956914e+02
2.008541879213426640e+00 4.757665933594900594e+02
2.008641901218267911e+00 4.756245136571130843e+02
2.008741923223109183e+00 4.754825512599331887e+02
2.008841945227950010e+00 4.753407083638692256e+02
2.008941967232790837e+00 4.751989871606330098e+02
2.009041989237632109e+00 4.750573898376686088e+02
2.009142011242473380e+00 4.749159185780954999e+02
2.009242033247314208e+00 4.747745755606475768e+02
2.009342055252155479e+00 4.746333629596157948e+02
2.009442077256996306e+00 4.744922829447905883e+02
2.009542099261837578e+00 4.743513376814005369e+02
2.009642121266678405e+00 4.742105293300583071e+02
2.009742143271519677e+00 4.740698600466998300e+02
2.009842165276360504e+00 4.739293319825279696e+02
2.009942187281201775e+00 4.737889472839541440e+02
2.010042209286043047e+00 4.736487080925417104e+02
2.010142231290883874e+00 4.735086165449476425e+02
2.010242253295724701e+00 4.733686747728687578e+02
2.010342275300565973e+00 4.732288849029797007e+02
2.010442297305407244e+00 4.730892490568806465e+02
2.010542319310248072e+00 4.729497693510401177e+02
2.010642341315089343e+00 4.728104478967370596e+02
2.010742363319930170e+00 4.726712868000059302e+02
2.010842385324771442e+00 4.725322881615815049e+02
2.010942407329612269e+00 4.723934540768422039e+02
2.011042429334453541e+00 4.722547866357554085e+02
2.011142451339294368e+00 4.721162879228213569e+02
2.011242473344135639e+00 4.719779600170189724e+02
2.011342495348976911e+00 4.718398049917514072e+02
2.011442517353817738e+00 4.717018249147896540e+02
2.011542539358659010e+00 4.715640218482207047e+02
2.011642561363499837e+00 4.714263978483909341e+02
2.011742583368340664e+00 4.712889549658534634e+02
2.011842605373181936e+00 4.711516952453150680e+02
2.011942627378023207e+00 4.710146207255808122e+02
2.012042649382864035e+00 4.708777334395019807e+02
2.012142671387705306e+00 4.707410354139231004e+02
2.012242693392546578e+00 4.706045286696280527e+02
2.012342715397386961e+00 4.704682152212885740e+02
2.012442737402228232e+00 4.703320970774118450e+02
2.012542759407069504e+00 4.701961762402866043e+02
2.012642781411910331e+00 4.700604547059337506e+02
2.012742803416751602e+00 4.699249344640523987e+02
2.012842825421592874e+00 4.697896174979697435e+02
2.012942847426433701e+00 4.696545057845895599e+02
2.013042869431274529e+00 4.695196012943401911e+02
2.013142891436115800e+00 4.693849059911249810e+02
2.013242913440956627e+00 4.692504218322716838e+02
2.013342935445797899e+00 4.691161507684816456e+02
2.013442957450639170e+00 4.689820947437799532e+02
2.013542979455479998e+00 4.688482556954642746e+02
2.013643001460320825e+00 4.687146355540588729e+02
2.013743023465162096e+00 4.685812362432607188e+02
2.013843045470003368e+00 4.684480596798948682e+02
2.013943067474844195e+00 4.683151077738608592e+02
2.014043089479685467e+00 4.681823824280895678e+02
2.014143111484526294e+00 4.680498855384893204e+02
2.014243133489367565e+00 4.679176189939028063e+02
2.014343155494208393e+00 4.677855846760555210e+02
2.014443177499049664e+00 4.676537844595102342e+02
2.014543199503890492e+00 4.675222202116196968e+02
2.014643221508731763e+00 4.673908937924779252e+02
2.014743243513573034e+00 4.672598070548752958e+02
2.014843265518413862e+00 4.671289618442511937e+02
2.014943287523255133e+00 4.669983599986482545e+02
2.015043309528095961e+00 4.668680033486653542e+02
2.015143331532937232e+00 4.667378937174129305e+02
2.015243353537778059e+00 4.666080329204673944e+02
2.015343375542619331e+00 4.664784227658248597e+02
2.015443397547460158e+00 4.663490650538585669e+02
2.015543419552301430e+00 4.662199615772719881e+02
2.015643441557142701e+00 4.660911141210548863e+02
2.015743463561983528e+00 4.659625244624408538e+02
2.015843485566824356e+00 4.658341943708608142e+02
2.015943507571665627e+00 4.657061256079029476e+02
2.016043529576506899e+00 4.655783199272661363e+02
2.016143551581347726e+00 4.654507790747189233e+02
2.016243573586188997e+00 4.653235047880559705e+02
2.016343595591029825e+00 4.651964987970562220e+02
2.016443617595870652e+00 4.650697628234412377e+02
2.016543639600711924e+00 4.649432985808316516e+02
2.016643661605553195e+00 4.648171077747082904e+02
2.016743683610394022e+00 4.646911921023672107e+02
2.016843705615235294e+00 4.645655532528832055e+02
2.016943727620076565e+00 4.644401929070656934e+02
2.017043749624917393e+00 4.643151127374196676e+02
2.017143771629758220e+00 4.641903144081049959e+02
2.017243793634599491e+00 4.640657995748989606e+02
2.017343815639440319e+00 4.639415698851526031e+02
2.017443837644281590e+00 4.638176269777558787e+02
2.017543859649122862e+00 4.636939724830962177e+02
2.017643881653963689e+00 4.635706080230199859e+02
2.017743903658804960e+00 4.634475352107954222e+02
2.017843925663645788e+00 4.633247556510737013e+02
2.017943947668486615e+00 4.632022709398516440e+02
2.018043969673327886e+00 4.630800826644354515e+02
2.018143991678169158e+00 4.629581924033997211e+02
2.018244013683009985e+00 4.628366017265563528e+02
2.018344035687851257e+00 4.627153121949140768e+02
2.018444057692692528e+00 4.625943253606430403e+02
2.018544079697533355e+00 4.624736427670391663e+02
2.018644101702374183e+00 4.623532659484910141e+02
2.018744123707215454e+00 4.622331964304393637e+02
2.018844145712056282e+00 4.621134357293479979e+02
2.018944167716897553e+00 4.619939853526648790e+02
2.019044189721738825e+00 4.618748467987907134e+02
2.019144211726579652e+00 4.617560215570425726e+02
2.019244233731420479e+00 4.616375111076230837e+02
2.019344255736261751e+00 4.615193169215831404e+02
2.019444277741103022e+00 4.614014404607945607e+02
2.019544299745943849e+00 4.612838831779114344e+02
2.019644321750785121e+00 4.611666465163424959e+02
2.019744343755625948e+00 4.610497319102159963e+02
2.019844365760467220e+00 4.609331407843493480e+02
2.019944387765308047e+00 4.608168745542172928e+02
2.020044409770149318e+00 4.607009346259218319e+02
2.020144431774990146e+00 4.605853223961607341e+02
2.020244453779831417e+00 4.604700392521965568e+02
2.020344475784672689e+00 4.603550865718276555e+02
2.020444497789513516e+00 4.602404657233573175e+02
2.020544519794354787e+00 4.601261780655661369e+02
2.020644541799195615e+00 4.600122249476812044e+02
2.020744563804036886e+00 4.598986077093474591e+02
2.020844585808877714e+00 4.597853276806007443e+02
2.020944607813718985e+00 4.596723861818376236e+02
2.021044629818559812e+00 4.595597845237894035e+02
2.021144651823401084e+00 4.594475240074942803e+02
2.021244673828242355e+00 4.593356059242692595e+02
2.021344695833083183e+00 4.592240315556842916e+02
2.021444717837924010e+00 4.591128021735366360e+02
2.021544739842765281e+00 4.590019190398227238e+02
2.021644761847606553e+00 4.588913834067136008e+02
2.021744783852447380e+00 4.587811965165297465e+02
2.021844805857288652e+00 4.586713596017162899e+02
2.021944827862129479e+00 4.585618738848166345e+02
2.022044849866970306e+00 4.584527405784496636e+02
2.022144871871811578e+00 4.583439608852849005e+02
2.022244893876652849e+00 4.582355359980194862e+02
2.022344915881493677e+00 4.581274670993544191e+02
2.022444937886334948e+00 4.580197553619707946e+02
2.022544959891176219e+00 4.579124019485084887e+02
2.022644981896017047e+00 4.578054080115426814e+02
2.022745003900857874e+00 4.576987746935632231e+02
2.022845025905699146e+00 4.575925031269503620e+02
2.022945047910539973e+00 4.574865944339571797e+02
2.023045069915381244e+00 4.573810497266855464e+02
2.023145091920222516e+00 4.572758701070665666e+02
2.023245113925063343e+00 4.571710566668409683e+02
2.023345135929904615e+00 4.570666104875383553e+02
2.023445157934745442e+00 4.569625326404567431e+02
2.023545179939586269e+00 4.568588241866465296e+02
2.023645201944427541e+00 4.567554861768879846e+02
2.023745223949268812e+00 4.566525196516741403e+02
2.023845245954109640e+00 4.565499256411945908e+02
2.023945267958950911e+00 4.564477051653138915e+02
2.024045289963792182e+00 4.563458592335564958e+02
2.024145311968633010e+00 4.562443888450895884e+02
2.024245333973473837e+00 4.561432949887057475e+02
2.024345355978315109e+00 4.560425786428072001e+02
2.024445377983155936e+00 4.559422407753876882e+02
2.024545399987997207e+00 4.558422823440199068e+02
2.024645421992838479e+00 4.557427042958377683e+02
2.024745443997679306e+00 4.556435075675223061e+02
2.024845466002520133e+00 4.555446930852867240e+02
2.024945488007361405e+00 4.554462617648624700e+02
2.025045510012202676e+00 4.553482145114845707e+02
2.025145532017043504e+00 4.552505522198789549e+02
2.025245554021884775e+00 4.551532757742486979e+02
2.025345576026725603e+00 4.550563860482606628e+02
2.025445598031566874e+00 4.549598839050344736e+02
2.025545620036407701e+00 4.548637701971289289e+02
2.025645642041248973e+00 4.547680457665294398e+02
2.025745664046089800e+00 4.546727114446395035e+02
2.025845686050931072e+00 4.545777680522668334e+02
2.025945708055772343e+00 4.544832163996134682e+02
2.026045730060613170e+00 4.543890572862661656e+02
2.026145752065454442e+00 4.542952915011851474e+02
2.026245774070295269e+00 4.542019198226946628e+02
2.026345796075136541e+00 4.541089430184737239e+02
2.026445818079977368e+00 4.540163618455487722e+02
2.026545840084818639e+00 4.539241770502820259e+02
2.026645862089659467e+00 4.538323893683653978e+02
2.026745884094500738e+00 4.537409995248115706e+02
2.026845906099342010e+00 4.536500082339470055e+02
2.026945928104182837e+00 4.535594161994048932e+02
2.027045950109023664e+00 4.534692241141170825e+02
2.027145972113864936e+00 4.533794326603094760e+02
2.027245994118706207e+00 4.532900425094938441e+02
2.027346016123547034e+00 4.532010543224643584e+02
2.027446038128388306e+00 4.531124687492890075e+02
2.027546060133229133e+00 4.530242864293085745e+02
2.027646082138069961e+00 4.529365079911287353e+02
2.027746104142911232e+00 4.528491340526159092e+02
2.027846126147752503e+00 4.527621652208951559e+02
2.027946148152593331e+00 4.526756020923456276e+02
2.028046170157434602e+00 4.525894452525962492e+02
2.028146192162275874e+00 4.525036952765245815e+02
2.028246214167116701e+00 4.524183527282521027e+02
2.028346236171957528e+00 4.523334181611444365e+02
2.028446258176798800e+00 4.522488921178073156e+02
2.028546280181639627e+00 4.521647751300862978e+02
2.028646302186480899e+00 4.520810677190659135e+02
2.028746324191322170e+00 4.519977703950677892e+02
2.028846346196162997e+00 4.519148836576497956e+02
2.028946368201004269e+00 4.518324079956079231e+02
2.029046390205845096e+00 4.517503438869750880e+02
2.029146412210685924e+00 4.516686917990227812e+02
2.029246434215527195e+00 4.515874521882593058e+02
2.029346456220368466e+00 4.515066255004360301e+02
2.029446478225209294e+00 4.514262121705435788e+02
2.029546500230050565e+00 4.513462126228174043e+02
2.029646522234891837e+00 4.512666272707398321e+02
2.029746544239732664e+00 4.511874565170410278e+02
2.029846566244573491e+00 4.511087007537039426e+02
2.029946588249414763e+00 4.510303603619670412e+02
2.030046610254255590e+00 4.509524357123268601e+02
2.030146632259096862e+00 4.508749271645446015e+02
2.030246654263938133e+00 4.507978350676490891e+02
2.030346676268778960e+00 4.507211597599407469e+02
2.030446698273619788e+00 4.506449015689987618e+02
2.030546720278461059e+00 4.505690608116867111e+02
2.030646742283302331e+00 4.504936377941547789e+02
2.030746764288143158e+00 4.504186328118508413e+02
2.030846786292984429e+00 4.503440461495234786e+02
2.030946808297825257e+00 4.502698780812312975e+02
2.031046830302666528e+00 4.501961288703478203e+02
2.031146852307507356e+00 4.501227987695710340e+02
2.031246874312348627e+00 4.500498880209311778e+02
2.031346896317189454e+00 4.499773968557976218e+02
2.031446918322030726e+00 4.499053254948881886e+02
2.031546940326871997e+00 4.498336741482797265e+02
2.031646962331712825e+00 4.497624430154153288e+02
2.031746984336553652e+00 4.496916322851139398e+02
2.031847006341394923e+00 4.496212421355820652e+02
2.031947028346236195e+00 4.495512727344227528e+02
2.032047050351077022e+00 4.494817242386475300e+02
2.032147072355918294e+00 4.494125967946855553e+02
2.032247094360759121e+00 4.493438905383965221e+02
2.032347116365600392e+00 4.492756055950819700e+02
2.032447138370441220e+00 4.492077420794975069e+02
2.032547160375282491e+00 4.491403000958641769e+02
2.032647182380123319e+00 4.490732797378825012e+02
2.032747204384964590e+00 4.490066810887453812e+02
2.032847226389805861e+00 4.489405042211497516e+02
2.032947248394646689e+00 4.488747491973135197e+02
2.033047270399487960e+00 4.488094160689857404e+02
2.033147292404328788e+00 4.487445048774649194e+02
2.033247314409169615e+00 4.486800156536100417e+02
2.033347336414010886e+00 4.486159484178583625e+02
2.033447358418852158e+00 4.485523031802401306e+02
2.033547380423692985e+00 4.484890799403935944e+02
2.033647402428534257e+00 4.484262786875812594e+02
2.033747424433375528e+00 4.483638994007057477e+02
2.033847446438215911e+00 4.483019420483295221e+02
2.033947468443057183e+00 4.482404065886872218e+02
2.034047490447898454e+00 4.481792929697069212e+02
2.034147512452739281e+00 4.481186011290253646e+02
2.034247534457580553e+00 4.480583309940070649e+02
2.034347556462421824e+00 4.479984824817623235e+02
2.034447578467262652e+00 4.479390554991666704e+02
2.034547600472103479e+00 4.478800499428783723e+02
2.034647622476944751e+00 4.478214656993582707e+02
2.034747644481785578e+00 4.477633026448909277e+02
2.034847666486626849e+00 4.477055606456017358e+02
2.034947688491468121e+00 4.476482395574796556e+02
2.035047710496308948e+00 4.475913392263963146e+02
2.035147732501150220e+00 4.475348594881269833e+02
2.035247754505991047e+00 4.474788001683726861e+02
2.035347776510832318e+00 4.474231610827807231e+02
2.035447798515673146e+00 4.473679420369680315e+02
2.035547820520514417e+00 4.473131428265398313e+02
2.035647842525355244e+00 4.472587632371167956e+02
2.035747864530196516e+00 4.472048030443541506e+02
2.035847886535037787e+00 4.471512620139657201e+02
2.035947908539878615e+00 4.470981399017488229e+02
2.036047930544719442e+00 4.470454364536050775e+02
2.036147952549560713e+00 4.469931514055670050e+02
2.036247974554401985e+00 4.469412844838208798e+02
2.036347996559242812e+00 4.468898354047314569e+02
2.036448018564084084e+00 4.468388038748678355e+02
2.036548040568924911e+00 4.467881895910275034e+02
2.036648062573766182e+00 4.467379922402616330e+02
2.036748084578607010e+00 4.466882114999021951e+02
2.036848106583448281e+00 4.466388470375870270e+02
2.036948128588289109e+00 4.465898985112866058e+02
2.037048150593130380e+00 4.465413655693293435e+02
2.037148172597971651e+00 4.464932478504321693e+02
2.037248194602812479e+00 4.464455449837232663e+02
2.037348216607653306e+00 4.463982565887724832e+02
2.037448238612494578e+00 4.463513822756184481e+02
2.037548260617335849e+00 4.463049216447971617e+02
2.037648282622176676e+00 4.462588742873683145e+02
2.037748304627017948e+00 4.462132397849482572e+02
2.037848326631858775e+00 4.461680177097335331e+02
2.037948348636700047e+00 4.461232076245348139e+02
2.038048370641540874e+00 4.460788090828037866e+02
2.038148392646382145e+00 4.460348216286642469e+02
2.038248414651222973e+00 4.459912447969410323e+02
2.038348436656064244e+00 4.459480781131915705e+02
2.038448458660905516e+00 4.459053210937366316e+02
2.038548480665746343e+00 4.458629732456900570e+02
2.038648502670587614e+00 4.458210340669905918e+02
2.038748524675428442e+00 4.457795030464346269e+02
2.038848546680269269e+00 4.457383796637048476e+02
2.038948568685110541e+00 4.456976633894062161e+02
2.039048590689951812e+00 4.456573536850954156e+02
2.039148612694792639e+00 4.456174500033145591e+02
2.039248634699633911e+00 4.455779517876235332e+02
2.039348656704475182e+00 4.455388584726327963e+02
2.039448678709315566e+00 4.455001694840394180e+02
2.039548700714156837e+00 4.454618842386561255e+02
2.039648722718998108e+00 4.454240021444493891e+02
2.039748744723838936e+00 4.453865226005709701e+02
2.039848766728680207e+00 4.453494449973936753e+02
2.039948788733521479e+00 4.453127687165462589e+02
2.040048810738362306e+00 4.452764931309462213e+02
