1.800096021124647283e+00 5.205556177097555519e+02
1.800196043129488332e+00 5.205781116227673238e+02
1.800296065134329382e+00 5.206005512739949381e+02
1.800396087139170653e+00 5.206229363661187790e+02
1.800496109144011703e+00 5.206452666039407404e+02
1.800596131148852752e+00 5.206675416943917298e+02
1.800696153153693579e+00 5.206897613465358745e+02
1.800796175158534629e+00 5.207119252715781386e+02
1.800896197163375678e+00 5.207340331828719400e+02
1.800996219168216950e+00 5.207560847959217654e+02
1.801096241173057999e+00 5.207780798283931745e+02
1.801196263177899048e+00 5.208000180001159833e+02
1.801296285182740320e+00 5.208218990330910856e+02
1.801396307187581147e+00 5.208437226514946587e+02
1.801496329192422197e+00 5.208654885816895330e+02
1.801596351197263246e+00 5.208871965522217806e+02
1.801696373202104295e+00 5.209088462938339035e+02
1.801796395206945345e+00 5.209304375394671069e+02
1.801896417211786616e+00 5.209519700242667568e+02
1.801996439216627666e+00 5.209734434855868130e+02
1.802096461221468493e+00 5.209948576629986974e+02
1.802196483226309542e+00 5.210162122982916344e+02
1.802296505231150814e+00 5.210375071354807233e+02
1.802396527235991863e+00 5.210587419208119400e+02
1.802496549240832913e+00 5.210799164027639563e+02
1.802596571245673962e+00 5.211010303320566663e+02
1.802696593250515011e+00 5.211220834616538014e+02
1.802796615255355839e+00 5.211430755467677045e+02
1.802896637260197110e+00 5.211640063448644469e+02
1.802996659265038160e+00 5.211848756156674654e+02
1.803096681269879209e+00 5.212056831211627923e+02
1.803196703274720480e+00 5.212264286256026935e+02
1.803296725279561530e+00 5.212471118955090787e+02
1.803396747284402579e+00 5.212677326996796410e+02
1.803496769289243407e+00 5.212882908091897889e+02
1.803596791294084456e+00 5.213087859973979903e+02
1.803696813298925505e+00 5.213292180399488416e+02
1.803796835303766777e+00 5.213495867147763647e+02
1.803896857308607826e+00 5.213698918021079862e+02
1.803996879313448876e+00 5.213901330844698805e+02
1.804096901318290147e+00 5.214103103466870834e+02
1.804196923323130974e+00 5.214304233758895180e+02
1.804296945327972024e+00 5.214504719615149497e+02
1.804396967332813073e+00 5.214704558953092146e+02
1.804496989337654123e+00 5.214903749713346315e+02
1.804597011342495172e+00 5.215102289859686380e+02
1.804697033347336443e+00 5.215300177379076558e+02
1.804797055352177271e+00 5.215497410281718658e+02
1.804897077357018320e+00 5.215693986601054348e+02
1.804997099361859370e+00 5.215889904393810639e+02
1.805097121366700641e+00 5.216085161740013518e+02
1.805197143371541690e+00 5.216279756743018652e+02
1.805297165376382740e+00 5.216473687529537528e+02
1.805397187381223789e+00 5.216666952249651104e+02
1.805497209386064617e+00 5.216859549076840494e+02
1.805597231390905666e+00 5.217051476208015401e+02
1.805697253395746937e+00 5.217242731863511835e+02
1.805797275400587987e+00 5.217433314287131907e+02
1.805897297405429036e+00 5.217623221746155195e+02
1.805997319410270308e+00 5.217812452531358076e+02
1.806097341415111357e+00 5.218001004957036457e+02
1.806197363419952184e+00 5.218188877360998958e+02
1.806297385424793234e+00 5.218376068104612386e+02
1.806397407429634283e+00 5.218562575572804008e+02
1.806497429434475332e+00 5.218748398174061549e+02
1.806597451439316604e+00 5.218933534340469578e+02
1.806697473444157653e+00 5.219117982527700406e+02
1.806797495448998703e+00 5.219301741215039101e+02
1.806897517453839530e+00 5.219484808905388036e+02
1.806997539458680802e+00 5.219667184125270296e+02
1.807097561463521851e+00 5.219848865424854694e+02
1.807197583468362900e+00 5.220029851377937575e+02
1.807297605473203950e+00 5.220210140581978067e+02
1.807397627478044999e+00 5.220389731658074197e+02
1.807497649482886271e+00 5.220568623251001554e+02
1.807597671487727098e+00 5.220746814029182588e+02
1.807697693492568147e+00 5.220924302684705935e+02
1.807797715497409197e+00 5.221101087933332110e+02
1.807897737502250468e+00 5.221277168514490086e+02
1.807997759507091518e+00 5.221452543191275026e+02
1.808097781511932567e+00 5.221627210750459653e+02
1.808197803516773616e+00 5.221801170002468098e+02
1.808297825521614444e+00 5.221974419781394090e+02
1.808397847526455493e+00 5.222146958945000961e+02
1.808497869531296764e+00 5.222318786374696629e+02
1.808597891536137814e+00 5.222489900975552928e+02
1.808697913540978863e+00 5.222660301676277186e+02
1.808797935545820135e+00 5.222829987429219045e+02
1.808897957550661184e+00 5.222998957210370463e+02
1.808997979555502011e+00 5.223167210019328195e+02
1.809098001560343061e+00 5.223334744879323353e+02
1.809198023565184110e+00 5.223501560837171382e+02
1.809298045570025160e+00 5.223667656963299351e+02
1.809398067574866431e+00 5.223833032351699330e+02
1.809498089579707480e+00 5.223997686119944319e+02
1.809598111584548530e+00 5.224161617409154132e+02
1.809698133589389357e+00 5.224324825383997677e+02
1.809798155594230629e+00 5.224487309232650887e+02
1.809898177599071678e+00 5.224649068166816051e+02
1.809998199603912727e+00 5.224810101421679747e+02
1.810098221608753777e+00 5.224970408255913981e+02
1.810198243613594826e+00 5.225129987951622752e+02
1.810298265618436098e+00 5.225288839814368202e+02
1.810398287623276925e+00 5.225446963173108088e+02
1.810498309628117974e+00 5.225604357380209422e+02
1.810598331632959024e+00 5.225761021811410956e+02
1.810698353637800295e+00 5.225916955865778846e+02
1.810798375642641345e+00 5.226072158965735071e+02
1.810898397647482394e+00 5.226226630556972168e+02
1.810998419652323443e+00 5.226380370108482794e+02
1.811098441657164271e+00 5.226533377112485823e+02
1.811198463662005320e+00 5.226685651084435449e+02
1.811298485666846592e+00 5.226837191562976841e+02
1.811398507671687641e+00 5.226987998109909768e+02
1.811498529676528690e+00 5.227138070310178364e+02
1.811598551681369962e+00 5.227287407771833614e+02
1.811698573686211011e+00 5.227436010125978783e+02
1.811798595691051839e+00 5.227583877026786467e+02
1.811898617695892888e+00 5.227731008151411061e+02
1.811998639700733937e+00 5.227877403199992159e+02
1.812098661705574987e+00 5.228023061895612500e+02
1.812198683710416258e+00 5.228167983984245666e+02
1.812298705715257308e+00 5.228312169234737894e+02
1.812398727720098357e+00 5.228455617438770560e+02
1.812498749724939184e+00 5.228598328410807881e+02
1.812598771729780456e+00 5.228740301988073043e+02
1.812698793734621505e+00 5.228881538030503862e+02
1.812798815739462555e+00 5.229022036420707309e+02
1.812898837744303604e+00 5.229161797063923132e+02
1.812998859749144653e+00 5.229300819887980651e+02
1.813098881753985925e+00 5.229439104843268069e+02
1.813198903758826752e+00 5.229576651902659705e+02
1.813298925763667802e+00 5.229713461061490989e+02
1.813398947768508851e+00 5.229849532337534583e+02
1.813498969773350122e+00 5.229984865770896931e+02
1.813598991778191172e+00 5.230119461424038718e+02
1.813699013783032221e+00 5.230253319381677102e+02
1.813799035787873271e+00 5.230386439750749332e+02
1.813899057792714098e+00 5.230518822660391152e+02
1.813999079797555147e+00 5.230650468261841297e+02
1.814099101802396419e+00 5.230781376728440364e+02
1.814199123807237468e+00 5.230911548255527350e+02
1.814299145812078518e+00 5.231040983060429426e+02
1.814399167816919789e+00 5.231169681382394856e+02
1.814499189821760838e+00 5.231297643482529338e+02
1.814599211826601666e+00 5.231424869643761895e+02
1.814699233831442715e+00 5.231551360170761882e+02
1.814799255836283765e+00 5.231677115389920800e+02
1.814899277841124814e+00 5.231802135649246566e+02
1.814999299845966085e+00 5.231926421318355551e+02
1.815099321850807135e+00 5.232049972788383911e+02
1.815199343855648184e+00 5.232172790471944381e+02
1.815299365860489011e+00 5.232294874803042148e+02
1.815399387865330283e+00 5.232416226237050978e+02
1.815499409870171332e+00 5.232536845250614306e+02
1.815599431875012382e+00 5.232656732341616816e+02
1.815699453879853431e+00 5.232775888029096905e+02
1.815799475884694480e+00 5.232894312853195515e+02
1.815899497889535752e+00 5.233012007375089070e+02
1.815999519894376579e+00 5.233128972176923526e+02
1.816099541899217629e+00 5.233245207861754125e+02
1.816199563904058678e+00 5.233360715053470358e+02
1.816299585908899950e+00 5.233475494396735712e+02
1.816399607913740999e+00 5.233589546556913774e+02
1.816499629918582048e+00 5.233702872220012523e+02
1.816599651923423098e+00 5.233815472092604750e+02
1.816699673928263925e+00 5.233927346901750752e+02
1.816799695933104974e+00 5.234038497394946035e+02
1.816899717937946246e+00 5.234148924340040594e+02
1.816999739942787295e+00 5.234258628525169570e+02
1.817099761947628345e+00 5.234367610758672527e+02
1.817199783952469616e+00 5.234475871869025241e+02
1.817299805957310666e+00 5.234583412704780585e+02
1.817399827962151493e+00 5.234690234134469620e+02
1.817499849966992542e+00 5.234796337046532244e+02
1.817599871971833592e+00 5.234901722349264901e+02
1.817699893976674641e+00 5.235006390970710299e+02
1.817799915981515912e+00 5.235110343858594888e+02
1.817899937986356962e+00 5.235213581980256095e+02
1.817999959991198011e+00 5.235316106322560472e+02
1.818099981996038839e+00 5.235417917891817297e+02
1.818200004000880110e+00 5.235519017713713765e+02
1.818300026005721159e+00 5.235619406833205858e+02
1.818400048010562209e+00 5.235719086314479682e+02
1.818500070015403258e+00 5.235818057240829830e+02
1.818600092020244308e+00 5.235916320714600261e+02
1.818700114025085579e+00 5.236013877857093348e+02
1.818800136029926406e+00 5.236110729808488031e+02
1.818900158034767456e+00 5.236206877727751134e+02
1.819000180039608505e+00 5.236302322792560062e+02
1.819100202044449777e+00 5.236397066199209576e+02
1.819200224049290826e+00 5.236491109162533348e+02
1.819300246054131875e+00 5.236584452915805059e+02
1.819400268058972925e+00 5.236677098710672453e+02
1.819500290063813752e+00 5.236769047817040246e+02
1.819600312068654802e+00 5.236860301523018961e+02
1.819700334073496073e+00 5.236950861134787374e+02
1.819800356078337122e+00 5.237040727976552716e+02
1.819900378083178172e+00 5.237129903390418804e+02
1.820000400088019443e+00 5.237218388736325778e+02
1.820100422092860493e+00 5.237306185391950066e+02
1.820200444097701320e+00 5.237393294752597512e+02
1.820300466102542369e+00 5.237479718231126071e+02
1.820400488107383419e+00 5.237565457257853723e+02
1.820500510112224468e+00 5.237650513280445921e+02
1.820600532117065740e+00 5.237734887763854204e+02
1.820700554121906789e+00 5.237818582190193410e+02
1.820800576126747838e+00 5.237901598058649597e+02
1.820900598131588666e+00 5.237983936885395906e+02
1.821000620136429937e+00 5.238065600203490249e+02
1.821100642141270987e+00 5.238146589562778672e+02
1.821200664146112036e+00 5.238226906529794178e+02
1.821300686150953085e+00 5.238306552687663498e+02
1.821400708155794135e+00 5.238385529636004776e+02
1.821500730160635406e+00 5.238463838990834347e+02
1.821600752165476234e+00 5.238541482384464416e+02
1.821700774170317283e+00 5.238618461465401879e+02
1.821800796175158332e+00 5.238694777898238044e+02
1.821900818179999604e+00 5.238770433363566781e+02
1.822000840184840653e+00 5.238845429557877651e+02
1.822100862189681703e+00 5.238919768193443360e+02
1.822200884194522530e+00 5.238993450998216304e+02
1.822300906199363579e+00 5.239066479715752394e+02
1.822400928204204629e+00 5.239138856105070090e+02
1.822500950209045900e+00 5.239210581940577640e+02
1.822600972213886950e+00 5.239281659011944612e+02
1.822700994218727999e+00 5.239352089124016629e+02
1.822801016223569270e+00 5.239421874096698275e+02
1.822901038228410098e+00 5.239491015764840540e+02
1.823001060233251147e+00 5.239559515978169202e+02
1.823101082238092197e+00 5.239627376601126798e+02
1.823201104242933246e+00 5.239694599512813511e+02
1.823301126247774295e+00 5.239761186606837100e+02
1.823401148252615567e+00 5.239827139791242416e+02
1.823501170257456616e+00 5.239892460988381799e+02
1.823601192262297443e+00 5.239957152134809348e+02
1.823701214267138493e+00 5.240021215181179741e+02
1.823801236271979764e+00 5.240084652092117494e+02
1.823901258276820814e+00 5.240147464846136245e+02
1.824001280281661863e+00 5.240209655435508012e+02
1.824101302286502913e+00 5.240271225866163149e+02
1.824201324291343962e+00 5.240332178157565295e+02
1.824301346296184789e+00 5.240392514342609047e+02
1.824401368301026061e+00 5.240452236467519924e+02
1.824501390305867110e+00 5.240511346591711117e+02
1.824601412310708159e+00 5.240569846787700499e+02
1.824701434315549431e+00 5.240627739140988979e+02
1.824801456320390480e+00 5.240685025749933175e+02
1.824901478325231530e+00 5.240741708725649914e+02
1.825001500330072357e+00 5.240797790191884360e+02
1.825101522334913406e+00 5.240853272284924742e+02
1.825201544339754456e+00 5.240908157153446609e+02
1.825301566344595727e+00 5.240962446958436658e+02
1.825401588349436777e+00 5.241016143873046076e+02
1.825501610354277826e+00 5.241069250082499593e+02
1.825601632359119098e+00 5.241121767783960195e+02
1.825701654363959925e+00 5.241173699186423391e+02
1.825801676368800974e+00 5.241225046510593302e+02
1.825901698373642024e+00 5.241275811988776923e+02
1.826001720378483073e+00 5.241325997864751116e+02
1.826101742383324122e+00 5.241375606393664839e+02
1.826201764388165394e+00 5.241424639841889075e+02
1.826301786393006443e+00 5.241473100486938392e+02
1.826401808397847271e+00 5.241520990617323150e+02
1.826501830402688320e+00 5.241568312532432401e+02
1.826601852407529591e+00 5.241615068542439531e+02
1.826701874412370641e+00 5.241661260968160150e+02
1.826801896417211690e+00 5.241706892140923628e+02
1.826901918422052740e+00 5.241751964402479871e+02
1.827001940426893789e+00 5.241796480104862894e+02
1.827101962431734616e+00 5.241840441610280550e+02
1.827201984436575888e+00 5.241883851290972416e+02
1.827302006441416937e+00 5.241926711529114300e+02
1.827402028446257987e+00 5.241969024716685226e+02
1.827502050451099258e+00 5.242010793255341241e+02
1.827602072455940307e+00 5.242052019556304003e+02
1.827702094460781357e+00 5.242092706040235726e+02
1.827802116465622184e+00 5.242132855137101615e+02
1.827902138470463234e+00 5.242172469286085743e+02
1.828002160475304283e+00 5.242211550935422792e+02
1.828102182480145554e+00 5.242250102542307104e+02
1.828202204484986604e+00 5.242288126572756255e+02
1.828302226489827653e+00 5.242325625501491686e+02
1.828402248494668925e+00 5.242362601811815921e+02
1.828502270499509752e+00 5.242399057995487510e+02
1.828602292504350801e+00 5.242434996552594839e+02
1.828702314509191851e+00 5.242470419991440167e+02
1.828802336514032900e+00 5.242505330828405476e+02
1.828902358518873950e+00 5.242539731587850156e+02
1.829002380523715221e+00 5.242573624801938195e+02
1.829102402528556270e+00 5.242607013010576793e+02
1.829202424533397098e+00 5.242639898761244694e+02
1.829302446538238147e+00 5.242672284608893278e+02
1.829402468543079419e+00 5.242704173115802178e+02
1.829502490547920468e+00 5.242735566851470139e+02
1.829602512552761517e+00 5.242766468392488832e+02
1.829702534557602567e+00 5.242796880322403013e+02
1.829802556562443616e+00 5.242826805231592289e+02
1.829902578567284444e+00 5.242856245717168804e+02
1.830002600572125715e+00 5.242885204382810116e+02
1.830102622576966764e+00 5.242913683838661427e+02
1.830202644581807814e+00 5.242941686701213939e+02
1.830302666586649085e+00 5.242969215593150238e+02
1.830402688591490135e+00 5.242996273143252211e+02
1.830502710596331184e+00 5.243022861986250973e+02
1.830602732601172011e+00 5.243048984762710916e+02
1.830702754606013061e+00 5.243074644118903507e+02
1.830802776610854110e+00 5.243099842706682239e+02
1.830902798615695382e+00 5.243124583183347340e+02
1.831002820620536431e+00 5.243148868211534364e+02
1.831102842625377480e+00 5.243172700459072075e+02
1.831202864630218752e+00 5.243196082598865360e+02
1.831302886635059579e+00 5.243219017308770162e+02
1.831402908639900629e+00 5.243241507271466162e+02
1.831502930644741678e+00 5.243263555174323756e+02
1.831602952649582727e+00 5.243285163709281278e+02
1.831702974654423777e+00 5.243306335572722219e+02
1.831802996659265048e+00 5.243327073465347894e+02
1.831903018664106098e+00 5.243347380092041021e+02
1.832003040668946925e+00 5.243367258161764539e+02
1.832103062673787974e+00 5.243386710387402445e+02
1.832203084678629246e+00 5.243405739485647246e+02
1.832303106683470295e+00 5.243424348176889680e+02
1.832403128688311345e+00 5.243442539185061833e+02
1.832503150693152394e+00 5.243460315237538225e+02
1.832603172697993443e+00 5.243477679065001666e+02
1.832703194702834271e+00 5.243494633401296596e+02
1.832803216707675542e+00 5.243511180983330178e+02
1.832903238712516591e+00 5.243527324550940421e+02
1.833003260717357641e+00 5.243543066846754073e+02
1.833103282722198912e+00 5.243558410616079755e+02
1.833203304727039962e+00 5.243573358606765851e+02
1.833303326731881011e+00 5.243587913569090233e+02
1.833403348736721838e+00 5.243602078255628385e+02
1.833503370741562888e+00 5.243615855421113565e+02
1.833603392746403937e+00 5.243629247822334492e+02
1.833703414751245209e+00 5.243642258217995504e+02
1.833803436756086258e+00 5.243654889368588101e+02
1.833903458760927307e+00 5.243667144036286345e+02
1.834003480765768579e+00 5.243679024984787702e+02
1.834103502770609406e+00 5.243690534979222093e+02
1.834203524775450456e+00 5.243701676786001826e+02
1.834303546780291505e+00 5.243712453172709047e+02
1.834403568785132554e+00 5.243722866907969546e+02
1.834503590789973604e+00 5.243732920761329979e+02
1.834603612794814875e+00 5.243742617503116890e+02
1.834703634799655925e+00 5.243751959904338946e+02
1.834803656804496752e+00 5.243760950736542554e+02
1.834903678809337801e+00 5.243769592771691350e+02
1.835003700814179073e+00 5.243777888782053651e+02
1.835103722819020122e+00 5.243785841540058072e+02
1.835203744823861172e+00 5.243793453818190073e+02
1.835303766828702221e+00 5.243800728388860080e+02
1.835403788833543270e+00 5.243807668024264785e+02
1.835503810838384098e+00 5.243814275496304163e+02
1.835603832843225369e+00 5.243820553576415477e+02
1.835703854848066419e+00 5.243826505035472110e+02
1.835803876852907468e+00 5.243832132643660771e+02
1.835903898857748739e+00 5.243837439170345078e+02
1.836003920862589789e+00 5.243842427383964377e+02
1.836103942867430838e+00 5.243847100051899588e+02
1.836203964872271666e+00 5.243851459940354971e+02
1.836303986877112715e+00 5.243855509814220568e+02
1.836404008881953764e+00 5.243859252436986935e+02
1.836504030886795036e+00 5.243862690570582572e+02
1.836604052891636085e+00 5.243865826975277287e+02
1.836704074896477135e+00 5.243868664409563962e+02
1.836804096901318406e+00 5.243871205630023269e+02
1.836904118906159233e+00 5.243873453391217936e+02
1.837004140911000283e+00 5.243875410445550642e+02
1.837104162915841332e+00 5.243877079543184436e+02
1.837204184920682382e+00 5.243878463431872206e+02
1.837304206925523431e+00 5.243879564856882780e+02
1.837404228930364702e+00 5.243880386560858824e+02
1.837504250935205752e+00 5.243880931283688369e+02
1.837604272940046579e+00 5.243881201762434330e+02
1.837704294944887629e+00 5.243881200731136687e+02
1.837804316949728900e+00 5.243880930920782930e+02
1.837904338954569949e+00 5.243880395059122748e+02
1.838004360959410999e+00 5.243879595870587309e+02
1.838104382964252048e+00 5.243878536076159662e+02
1.838204404969093098e+00 5.243877218393263320e+02
1.838304426973933925e+00 5.243875645535638341e+02
1.838404448978775196e+00 5.243873820213234467e+02
1.838504470983616246e+00 5.243871745132087199e+02
1.838604492988457295e+00 5.243869422994205252e+02
1.838704514993298567e+00 5.243866856497470508e+02
1.838804536998139616e+00 5.243864048335491361e+02
1.838904559002980665e+00 5.243861001197518590e+02
1.839004581007821493e+00 5.243857717768322573e+02
1.839104603012662542e+00 5.243854200728061414e+02
1.839204625017503592e+00 5.243850452752204774e+02
1.839304647022344863e+00 5.243846476511378114e+02
1.839404669027185912e+00 5.243842274671287669e+02
1.839504691032026962e+00 5.243837849892587428e+02
1.839604713036867789e+00 5.243833204830776822e+02
1.839704735041709061e+00 5.243828342136074525e+02
1.839804757046550110e+00 5.243823264453316142e+02
1.839904779051391159e+00 5.243817974421867802e+02
1.840004801056232209e+00 5.243812474675467001e+02
1.840104823061073258e+00 5.243806767842156660e+02
1.840204845065914530e+00 5.243800856544150975e+02
1.840304867070755357e+00 5.243794743397727416e+02
1.840404889075596406e+00 5.243788431013141462e+02
1.840504911080437456e+00 5.243781921994487902e+02
1.840604933085278727e+00 5.243775218939606475e+02
1.840704955090119777e+00 5.243768324439980688e+02
1.840804977094960826e+00 5.243761241080622995e+02
1.840904999099801875e+00 5.243753971439961106e+02
1.841005021104642703e+00 5.243746518089753863e+02
1.841105043109483752e+00 5.243738883594959361e+02
1.841205065114325024e+00 5.243731070513650820e+02
1.841305087119166073e+00 5.243723081396905172e+02
1.841405109124007122e+00 5.243714918788685964e+02
1.841505131128848394e+00 5.243706585225767185e+02
1.841605153133689443e+00 5.243698083237592300e+02
1.841705175138530270e+00 5.243689415346212854e+02
1.841805197143371320e+00 5.243680584066140682e+02
1.841905219148212369e+00 5.243671591904299021e+02
1.842005241153053419e+00 5.243662441359865625e+02
1.842105263157894690e+00 5.243653134924225014e+02
1.842205285162735739e+00 5.243643675080817275e+02
1.842305307167576789e+00 5.243634064305064157e+02
1.842405329172417616e+00 5.243624305064278133e+02
1.842505351177258888e+00 5.243614399817549838e+02
1.842605373182099937e+00 5.243604351015643488e+02
1.842705395186940986e+00 5.243594161100908195e+02
1.842805417191782036e+00 5.243583832507183615e+02
1.842905439196623085e+00 5.243573367659693076e+02
1.843005461201464357e+00 5.243562768974956043e+02
1.843105483206305184e+00 5.243552038860677840e+02
1.843205505211146233e+00 5.243541179715679164e+02
1.843305527215987283e+00 5.243530193929768757e+02
1.843405549220828554e+00 5.243519083883674057e+02
1.843505571225669604e+00 5.243507851948930920e+02
1.843605593230510653e+00 5.243496500487807452e+02
1.843705615235351702e+00 5.243485031853198279e+02
1.843805637240192530e+00 5.243473448388525640e+02
1.843905659245033579e+00 5.243461752427665488e+02
1.844005681249874851e+00 5.243449946294840629e+02
1.844105703254715900e+00 5.243438032304543412e+02
1.844205725259556949e+00 5.243426012761430002e+02
1.844305747264398221e+00 5.243413889960243068e+02
1.844405769269239270e+00 5.243401666185716294e+02
1.844505791274080098e+00 5.243389343712490245e+02
1.844605813278921147e+00 5.243376924805014596e+02
1.844705835283762196e+00 5.243364411717473104e+02
1.844805857288603246e+00 5.243351806693691515e+02
1.844905879293444517e+00 5.243339111967050030e+02
1.845005901298285567e+00 5.243326329760392355e+02
1.845105923303126616e+00 5.243313462285950663e+02
1.845205945307967443e+00 5.243300511745255790e+02
1.845305967312808715e+00 5.243287480329058781e+02
1.845405989317649764e+00 5.243274370217228579e+02
1.845506011322490814e+00 5.243261183578688360e+02
1.845606033327331863e+00 5.243247922571351864e+02
1.845706055332172912e+00 5.243234589341972196e+02
1.845806077337014184e+00 5.243221186026137275e+02
1.845906099341855011e+00 5.243207714748153876e+02
1.846006121346696061e+00 5.243194177620964638e+02
1.846106143351537110e+00 5.243180576746083261e+02
1.846206165356378381e+00 5.243166914213500149e+02
1.846306187361219431e+00 5.243153192101618743e+02
1.846406209366060480e+00 5.243139412477171390e+02
1.846506231370901530e+00 5.243125577395139771e+02
1.846606253375742357e+00 5.243111688898687817e+02
1.846706275380583406e+00 5.243097749019075309e+02
1.846806297385424678e+00 5.243083759775589670e+02
1.846906319390265727e+00 5.243069723175467516e+02
1.847006341395106777e+00 5.243055641213828721e+02
1.847106363399948048e+00 5.243041515873588878e+02
1.847206385404789097e+00 5.243027349125404726e+02
1.847306407409629925e+00 5.243013142927595709e+02
1.847406429414470974e+00 5.242998899226058711e+02
1.847506451419312024e+00 5.242984619954218033e+02
1.847606473424153073e+00 5.242970307032948085e+02
1.847706495428994344e+00 5.242955962370496081e+02
1.847806517433835394e+00 5.242941587862426331e+02
1.847906539438676443e+00 5.242927185391544072e+02
1.848006561443517271e+00 5.242912756827836347e+02
1.848106583448358542e+00 5.242898304028391294e+02
1.848206605453199591e+00 5.242883828837346982e+02
1.848306627458040641e+00 5.242869333085820926e+02
1.848406649462881690e+00 5.242854818591843014e+02
1.848506671467722740e+00 5.242840287160281605e+02
1.848606693472564011e+00 5.242825740582816252e+02
1.848706715477404838e+00 5.242811180637827420e+02
1.848806737482245888e+00 5.242796609090374886e+02
1.848906759487086937e+00 5.242782027692110205e+02
1.849006781491928209e+00 5.242767438181232365e+02
1.849106803496769258e+00 5.242752842282409347e+02
1.849206825501610307e+00 5.242738241706750841e+02
1.849306847506451357e+00 5.242723638151710475e+02
1.849406869511292184e+00 5.242709033301058525e+02
1.849506891516133233e+00 5.242694428824810302e+02
1.849606913520974505e+00 5.242679826379179531e+02
1.849706935525815554e+00 5.242665227606505596e+02
1.849806957530656604e+00 5.242650634135218297e+02
1.849906979535497875e+00 5.242636047579770775e+02
1.850007001540338925e+00 5.242621469540591761e+02
1.850107023545179752e+00 5.242606901604028735e+02
1.850207045550020801e+00 5.242592345342309272e+02
1.850307067554861851e+00 5.242577802313452366e+02
1.850407089559702900e+00 5.242563274061272978e+02
1.850507111564544172e+00 5.242548762115285399e+02
1.850607133569385221e+00 5.242534267990675971e+02
1.850707155574226270e+00 5.242519793188242829e+02
1.850807177579067098e+00 5.242505339194372027e+02
1.850907199583908369e+00 5.242490907480953410e+02
1.851007221588749418e+00 5.242476499505362426e+02
1.851107243593590468e+00 5.242462116710410100e+02
1.851207265598431517e+00 5.242447760524288469e+02
1.851307287603272567e+00 5.242433432360530787e+02
1.851407309608113838e+00 5.242419133617974012e+02
1.851507331612954665e+00 5.242404865680701960e+02
1.851607353617795715e+00 5.242390629918021432e+02
1.851707375622636764e+00 5.242376427684396276e+02
1.851807397627478036e+00 5.242362260319447387e+02
1.851907419632319085e+00 5.242348129147862892e+02
1.852007441637160134e+00 5.242334035479387921e+02
1.852107463642001184e+00 5.242319980608791639e+02
1.852207485646842011e+00 5.242305965815808122e+02
1.852307507651683061e+00 5.242291992365117039e+02
1.852407529656524332e+00 5.242278061506297036e+02
1.852507551661365381e+00 5.242264174473795038e+02
1.852607573666206431e+00 5.242250332486887601e+02
1.852707595671047702e+00 5.242236536749655897e+02
1.852807617675888752e+00 5.242222788450939106e+02
1.852907639680729579e+00 5.242209088764311673e+02
1.853007661685570628e+00 5.242195438848043523e+02
1.853107683690411678e+00 5.242181839845088689e+02
1.853207705695252727e+00 5.242168292883021650e+02
1.853307727700093999e+00 5.242154799074035054e+02
1.853407749704935048e+00 5.242141359514902206e+02
1.853507771709776097e+00 5.242127975286950914e+02
1.853607793714616925e+00 5.242114647456022567e+02
1.853707815719458196e+00 5.242101377072474406e+02
1.853807837724299246e+00 5.242088165171114724e+02
1.853907859729140295e+00 5.242075012771224465e+02
1.854007881733981344e+00 5.242061920876485601e+02
1.854107903738822394e+00 5.242048890474987957e+02
1.854207925743663665e+00 5.242035922539198509e+02
1.854307947748504493e+00 5.242023018025932970e+02
1.854407969753345542e+00 5.242010177876345551e+02
1.854507991758186591e+00 5.241997403015903956e+02
1.854608013763027863e+00 5.241984694354360954e+02
1.854708035767868912e+00 5.241972052785748701e+02
1.854808057772709962e+00 5.241959479188351452e+02
1.854908079777551011e+00 5.241946974424687369e+02
1.855008101782391838e+00 5.241934539341502841e+02
1.855108123787232888e+00 5.241922174769738376e+02
1.855208145792074159e+00 5.241909881524532011e+02
1.855308167796915209e+00 5.241897660405189754e+02
1.855408189801756258e+00 5.241885512195182173e+02
1.855508211806597529e+00 5.241873437662117112e+02
1.855608233811438579e+00 5.241861437557761292e+02
1.855708255816279406e+00 5.241849512617968685e+02
1.855808277821120456e+00 5.241837663562733951e+02
1.855908299825961505e+00 5.241825891096150372e+02
1.856008321830802554e+00 5.241814195906384839e+02
1.856108343835643826e+00 5.241802578665715373e+02
1.856208365840484875e+00 5.241791040030467457e+02
1.856308387845325925e+00 5.241779580641062921e+02
1.856408409850166752e+00 5.241768201121966513e+02
1.856508431855008023e+00 5.241756902081715452e+02
1.856608453859849073e+00 5.241745684112888739e+02
1.856708475864690122e+00 5.241734547792115109e+02
1.856808497869531172e+00 5.241723493680069623e+02
1.856908519874372221e+00 5.241712522321477081e+02
1.857008541879213048e+00 5.241701634245088144e+02
1.857108563884054320e+00 5.241690829963708893e+02
1.857208585888895369e+00 5.241680109974170136e+02
1.857308607893736419e+00 5.241669474757354692e+02
1.857408629898577690e+00 5.241658924778178061e+02
1.857508651903418739e+00 5.241648460485596388e+02
1.857608673908259789e+00 5.241638082312626921e+02
1.857708695913100616e+00 5.241627790676319592e+02
1.857808717917941665e+00 5.241617585977780891e+02
1.857908739922782715e+00 5.241607468602177278e+02
1.858008761927623986e+00 5.241597438918740863e+02
1.858108783932465036e+00 5.241587497280773960e+02
1.858208805937306085e+00 5.241577644025642257e+02
1.858308827942147357e+00 5.241567879474822576e+02
1.858408849946988184e+00 5.241558203933864206e+02
1.858508871951829233e+00 5.241548617692418475e+02
1.858608893956670283e+00 5.241539121024266024e+02
1.858708915961511332e+00 5.241529714187304307e+02
1.858808937966352381e+00 5.241520397423563509e+02
1.858908959971193653e+00 5.241511170959215633e+02
1.859008981976034702e+00 5.241502035004616573e+02
1.859109003980875530e+00 5.241492989754270866e+02
1.859209025985716579e+00 5.241484035386885125e+02
1.859309047990557850e+00 5.241475172065365769e+02
1.859409069995398900e+00 5.241466399936851985e+02
1.859509092000239949e+00 5.241457719132703232e+02
1.859609114005080999e+00 5.241449129768550392e+02
1.859709136009922048e+00 5.241440631944288953e+02
1.859809158014762875e+00 5.241432225744101743e+02
1.859909180019604147e+00 5.241423911236489630e+02
1.860009202024445196e+00 5.241415688474291983e+02
1.860109224029286246e+00 5.241407557494687808e+02
1.860209246034127517e+00 5.241399518319234403e+02
1.860309268038968566e+00 5.241391570953899190e+02
1.860409290043809616e+00 5.241383715389055169e+02
1.860509312048650443e+00 5.241375951599529799e+02
1.860609334053491493e+00 5.241368279544617508e+02
1.860709356058332542e+00 5.241360699168100155e+02
1.860809378063173813e+00 5.241353210398299325e+02
1.860909400068014863e+00 5.241345813148063826e+02
1.861009422072855912e+00 5.241338507314835624e+02
1.861109444077697184e+00 5.241331292780647573e+02
1.861209466082538011e+00 5.241324169412171159e+02
1.861309488087379060e+00 5.241317137060743789e+02
1.861409510092220110e+00 5.241310195562385843e+02
1.861509532097061159e+00 5.241303344737857515e+02
1.861609554101902209e+00 5.241296584392657678e+02
1.861709576106743480e+00 5.241289914317086414e+02
1.861809598111584529e+00 5.241283334286262061e+02
1.861909620116425357e+00 5.241276844060156463e+02
1.862009642121266406e+00 5.241270443383625661e+02
1.862109664126107678e+00 5.241264131986471284e+02
1.862209686130948727e+00 5.241257909583438277e+02
1.862309708135789776e+00 5.241251775874272880e+02
1.862409730140630826e+00 5.241245730543761283e+02
1.862509752145471875e+00 5.241239773261758046e+02
1.862609774150312703e+00 5.241233903683237259e+02
1.862709796155153974e+00 5.241228121448323236e+02
1.862809818159995023e+00 5.241222426182320078e+02
1.862909840164836073e+00 5.241216817495775331e+02
1.863009862169677344e+00 5.241211294984512961e+02
1.863109884174518394e+00 5.241205858229673140e+02
1.863209906179359443e+00 5.241200506797740672e+02
1.863309928184200270e+00 5.241195240240620024e+02
1.863409950189041320e+00 5.241190058095650102e+02
1.863509972193882369e+00 5.241184959885667922e+02
1.863609994198723641e+00 5.241179945119040440e+02
1.863710016203564690e+00 5.241175013289731623e+02
1.863810038208405739e+00 5.241170163877312689e+02
1.863910060213247011e+00 5.241165396347048500e+02
1.864010082218087838e+00 5.241160710149927127e+02
1.864110104222928888e+00 5.241156104722700775e+02
1.864210126227769937e+00 5.241151579487959680e+02
1.864310148232610986e+00 5.241147133854152571e+02
1.864410170237452036e+00 5.241142767215651475e+02
1.864510192242293307e+00 5.241138478952816513e+02
1.864610214247134357e+00 5.241134268432025465e+02
1.864710236251975184e+00 5.241130135005738566e+02
1.864810258256816233e+00 5.241126078012540574e+02
1.864910280261657505e+00 5.241122096777211254e+02
1.865010302266498554e+00 5.241118190610774263e+02
1.865110324271339604e+00 5.241114358810530121e+02
1.865210346276180653e+00 5.241110600660155114e+02
1.865310368281021702e+00 5.241106915429719493e+02
1.865410390285862530e+00 5.241103302375751127e+02
1.865510412290703801e+00 5.241099760741318505e+02
1.865610434295544851e+00 5.241096289756055739e+02
1.865710456300385900e+00 5.241092888636237603e+02
1.865810478305227171e+00 5.241089556584840921e+02
1.865910500310068221e+00 5.241086292791603682e+02
1.866010522314909270e+00 5.241083096433072797e+02
1.866110544319750097e+00 5.241079966672685941e+02
1.866210566324591147e+00 5.241076902660807946e+02
1.866310588329432196e+00 5.241073903534821739e+02
1.866410610334273468e+00 5.241070968419171550e+02
1.866510632339114517e+00 5.241068096425425438e+02
1.866610654343955567e+00 5.241065286652352597e+02
1.866710676348796838e+00 5.241062538185984749e+02
1.866810698353637665e+00 5.241059850099667301e+02
1.866910720358478715e+00 5.241057221454138926e+02
1.867010742363319764e+00 5.241054651297592955e+02
1.867110764368160813e+00 5.241052138665759230e+02
1.867210786373001863e+00 5.241049682581938214e+02
1.867310808377843134e+00 5.241047282057098755e+02
1.867410830382684184e+00 5.241044936089931525e+02
1.867510852387525011e+00 5.241042643666933145e+02
1.867610874392366060e+00 5.241040403762453934e+02
1.867710896397207332e+00 5.241038215338786586e+02
1.867810918402048381e+00 5.241036077346234379e+02
1.867910940406889431e+00 5.241033988723166885e+02
1.868010962411730480e+00 5.241031948396113194e+02
1.868110984416571529e+00 5.241029955279819887e+02
1.868211006421412357e+00 5.241028008277330628e+02
1.868311028426253628e+00 5.241026106280056638e+02
1.868411050431094678e+00 5.241024248167851738e+02
1.868511072435935727e+00 5.241022432809083966e+02
1.868611094440776998e+00 5.241020659060720845e+02
1.868711116445618048e+00 5.241018925768383951e+02
1.868811138450459097e+00 5.241017231766448958e+02
1.868911160455299925e+00 5.241015575878107029e+02
1.869011182460140974e+00 5.241013956915440986e+02
1.869111204464982023e+00 5.241012373679523080e+02
1.869211226469823295e+00 5.241010824960455921e+02
1.869311248474664344e+00 5.241009309537490708e+02
1.869411270479505394e+00 5.241007826179074982e+02
1.869511292484346665e+00 5.241006373642956078e+02
1.869611314489187492e+00 5.241004950676243652e+02
1.869711336494028542e+00 5.241003556015493814e+02
1.869811358498869591e+00 5.241002188386797798e+02
1.869911380503710641e+00 5.241000846505855861e+02
1.870011402508551690e+00 5.240999529078061414e+02
1.870111424513392961e+00 5.240998234798574913e+02
1.870211446518234011e+00 5.240996962352429591e+02
1.870311468523074838e+00 5.240995710414591713e+02
1.870411490527915888e+00 5.240994477650049248e+02
1.870511512532757159e+00 5.240993262713896002e+02
1.870611534537598208e+00 5.240992064251440752e+02
1.870711556542439258e+00 5.240990880898227715e+02
1.870811578547280307e+00 5.240989711280203665e+02
1.870911600552121357e+00 5.240988554013752037e+02
1.871011622556962184e+00 5.240987407705774785e+02
1.871111644561803455e+00 5.240986270953827670e+02
1.871211666566644505e+00 5.240985142346141856e+02
1.871311688571485554e+00 5.240984020461755790e+02
1.871411710576326826e+00 5.240982903870609562e+02
1.871511732581167875e+00 5.240981791133588104e+02
1.871611754586008924e+00 5.240980680802650795e+02
1.871711776590849752e+00 5.240979571420903085e+02
1.871811798595690801e+00 5.240978461522688576e+02
1.871911820600531851e+00 5.240977349633693620e+02
1.872011842605373122e+00 5.240976234270992791e+02
1.872111864610214171e+00 5.240975113943202359e+02
1.872211886615055221e+00 5.240973987150517814e+02
1.872311908619896492e+00 5.240972852384835505e+02
1.872411930624737320e+00 5.240971708129833360e+02
1.872511952629578369e+00 5.240970552861058422e+02
1.872611974634419418e+00 5.240969385046038269e+02
1.872711996639260468e+00 5.240968203144348081e+02
1.872812018644101517e+00 5.240967005607731153e+02
1.872912040648942789e+00 5.240965790880154600e+02
1.873012062653783838e+00 5.240964557397944645e+02
1.873112084658624665e+00 5.240963303589867337e+02
1.873212106663465715e+00 5.240962027877188802e+02
1.873312128668306986e+00 5.240960728673836684e+02
1.873412150673148036e+00 5.240959404386427423e+02
1.873512172677989085e+00 5.240958053414408369e+02
1.873612194682830134e+00 5.240956674150135086e+02
1.873712216687671184e+00 5.240955264978964578e+02
1.873812238692512011e+00 5.240953824279356468e+02
1.873912260697353283e+00 5.240952350422971904e+02
1.874012282702194332e+00 5.240950841774764513e+02
1.874112304707035381e+00 5.240949296693094084e+02
1.874212326711876653e+00 5.240947713529794783e+02
1.874312348716717702e+00 5.240946090630296794e+02
1.874412370721558529e+00 5.240944426333713864e+02
1.874512392726399579e+00 5.240942718972955845e+02
1.874612414731240628e+00 5.240940966874799187e+02
1.874712436736081678e+00 5.240939168360017675e+02
1.874812458740922949e+00 5.240937321743457460e+02
1.874912480745763999e+00 5.240935425334143929e+02
1.875012502750605048e+00 5.240933477435402210e+02
1.875112524755445875e+00 5.240931476344910607e+02
1.875212546760287147e+00 5.240929420354854074e+02
1.875312568765128196e+00 5.240927307751979924e+02
1.875412590769969245e+00 5.240925136817721750e+02
1.875512612774810295e+00 5.240922905828307421e+02
1.875612634779651344e+00 5.240920613054838668e+02
1.875712656784492616e+00 5.240918256763395675e+02
1.875812678789333443e+00 5.240915835215160996e+02
1.875912700794174492e+00 5.240913346666496864e+02
1.876012722799015542e+00 5.240910789369055465e+02
1.876112744803856813e+00 5.240908161569886943e+02
1.876212766808697863e+00 5.240905461511531485e+02
1.876312788813538912e+00 5.240902687432126186e+02
1.876412810818379961e+00 5.240899837565509642e+02
1.876512832823220789e+00 5.240896910141326543e+02
1.876612854828061838e+00 5.240893903385127715e+02
1.876712876832903110e+00 5.240890815518467889e+02
1.876812898837744159e+00 5.240887644759015984e+02
1.876912920842585208e+00 5.240884389320664241e+02
1.877012942847426480e+00 5.240881047413618035e+02
1.877112964852267529e+00 5.240877617244511839e+02
1.877212986857108357e+00 5.240874097016505857e+02
1.877313008861949406e+00 5.240870484929387203e+02
1.877413030866790455e+00 5.240866779179697232e+02
1.877513052871631505e+00 5.240862977960795206e+02
1.877613074876472776e+00 5.240859079463008356e+02
1.877713096881313826e+00 5.240855081873700101e+02
1.877813118886154875e+00 5.240850983377396233e+02
1.877913140890995702e+00 5.240846782155880419e+02
1.878013162895836974e+00 5.240842476388305613e+02
1.878113184900678023e+00 5.240838064251292963e+02
1.878213206905519073e+00 5.240833543919039812e+02
1.878313228910360122e+00 5.240828913563426568e+02
1.878413250915201171e+00 5.240824171354122427e+02
1.878513272920042443e+00 5.240819315458689971e+02
1.878613294924883270e+00 5.240814344042686344e+02
1.878713316929724320e+00 5.240809255269778077e+02
1.878813338934565369e+00 5.240804047301836590e+02
1.878913360939406640e+00 5.240798718299054144e+02
1.879013382944247690e+00 5.240793266420048440e+02
1.879113404949088739e+00 5.240787689821961521e+02
1.879213426953929789e+00 5.240781986660566645e+02
1.879313448958770616e+00 5.240776155090384236e+02
1.879413470963611665e+00 5.240770193264779664e+02
1.879513492968452937e+00 5.240764099336070103e+02
1.879613514973293986e+00 5.240757871455640498e+02
1.879713536978135036e+00 5.240751507774024276e+02
1.879813558982976307e+00 5.240745006441047735e+02
1.879913580987817356e+00 5.240738365605903937e+02
1.880013602992658184e+00 5.240731583417270940e+02
1.880113624997499233e+00 5.240724658023428901e+02
1.880213647002340283e+00 5.240717587572343064e+02
1.880313669007181332e+00 5.240710370211793361e+02
1.880413691012022603e+00 5.240703004089466504e+02
1.880513713016863653e+00 5.240695487353067392e+02
1.880613735021704702e+00 5.240687818150422572e+02
1.880713757026545530e+00 5.240679994629593921e+02
1.880813779031386801e+00 5.240672014938979828e+02
1.880913801036227850e+00 5.240663877227423200e+02
1.881013823041068900e+00 5.240655579644306954e+02
1.881113845045909949e+00 5.240647120339682488e+02
1.881213867050750999e+00 5.240638497464356078e+02
1.881313889055592270e+00 5.240629709170011665e+02
1.881413911060433097e+00 5.240620753609293843e+02
1.881513933065274147e+00 5.240611628935938597e+02
1.881613955070115196e+00 5.240602333304871081e+02
1.881713977074956468e+00 5.240592864872301107e+02
1.881813999079797517e+00 5.240583221795841382e+02
1.881914021084638566e+00 5.240573402234616651e+02
1.882014043089479616e+00 5.240563404349353505e+02
1.882114065094320443e+00 5.240553226302499752e+02
1.882214087099161492e+00 5.240542866258327876e+02
1.882314109104002764e+00 5.240532322383028259e+02
1.882414131108843813e+00 5.240521592844836505e+02
1.882514153113684863e+00 5.240510675814127808e+02
1.882614175118526134e+00 5.240499569463512444e+02
1.882714197123367184e+00 5.240488271967958553e+02
1.882814219128208011e+00 5.240476781504883093e+02
1.882914241133049060e+00 5.240465096254265518e+02
1.883014263137890110e+00 5.240453214398748969e+02
1.883114285142731159e+00 5.240441134123748270e+02
1.883214307147572431e+00 5.240428853617553386e+02
1.883314329152413480e+00 5.240416371071428330e+02
1.883414351157254529e+00 5.240403684679718026e+02
1.883514373162095357e+00 5.240390792639960864e+02
1.883614395166936628e+00 5.240377693152985330e+02
1.883714417171777677e+00 5.240364384423008914e+02
1.883814439176618727e+00 5.240350864657750662e+02
1.883914461181459776e+00 5.240337132068539177e+02
1.884014483186300826e+00 5.240323184870395608e+02
1.884114505191142097e+00 5.240309021282158710e+02
1.884214527195982924e+00 5.240294639526578067e+02
1.884314549200823974e+00 5.240280037830414130e+02
1.884414571205665023e+00 5.240265214424547366e+02
1.884514593210506295e+00 5.240250167544080568e+02
1.884614615215347344e+00 5.240234895428435493e+02
1.884714637220188393e+00 5.240219396321456315e+02
1.884814659225029443e+00 5.240203668471519904e+02
1.884914681229870270e+00 5.240187710131625636e+02
1.885014703234711320e+00 5.240171519559504532e+02
1.885114725239552591e+00 5.240155095017721578e+02
1.885214747244393640e+00 5.240138434773764402e+02
1.885314769249234690e+00 5.240121537100160367e+02
1.885414791254075961e+00 5.240104400274572072e+02
1.885514813258917011e+00 5.240087022579883751e+02
1.885614835263757838e+00 5.240069402304334290e+02
1.885714857268598887e+00 5.240051537741567245e+02
1.885814879273439937e+00 5.240033427190795692e+02
1.885914901278280986e+00 5.240015068956827236e+02
1.886014923283122258e+00 5.239996461350225445e+02
1.886114945287963307e+00 5.239977602687381477e+02
1.886214967292804356e+00 5.239958491290607299e+02
1.886314989297645184e+00 5.239939125488257332e+02
1.886415011302486455e+00 5.239919503614792120e+02
1.886515033307327505e+00 5.239899624010906791e+02
1.886615055312168554e+00 5.239879485023619736e+02
1.886715077317009603e+00 5.239859085006359010e+02
1.886815099321850653e+00 5.239838422319074880e+02
1.886915121326691924e+00 5.239817495328327368e+02
1.887015143331532752e+00 5.239796302407386293e+02
1.887115165336373801e+00 5.239774841936315397e+02
1.887215187341214850e+00 5.239753112302097406e+02
1.887315209346056122e+00 5.239731111898685185e+02
1.887415231350897171e+00 5.239708839127144984e+02
1.887515253355738221e+00 5.239686292395715554e+02
1.887615275360579270e+00 5.239663470119917292e+02
1.887715297365420097e+00 5.239640370722650005e+02
1.887815319370261147e+00 5.239616992634267945e+02
1.887915341375102418e+00 5.239593334292699183e+02
1.888015363379943468e+00 5.239569394143511545e+02
1.888115385384784517e+00 5.239545170640044489e+02
1.888215407389625788e+00 5.239520662243448896e+02
1.888315429394466838e+00 5.239495867422818947e+02
1.888415451399307665e+00 5.239470784655275111e+02
1.888515473404148715e+00 5.239445412426050552e+02
1.888615495408989764e+00 5.239419749228579803e+02
1.888715517413830813e+00 5.239393793564589714e+02
1.888815539418672085e+00 5.239367543944202907e+02
1.888915561423513134e+00 5.239340998886013949e+02
1.889015583428354184e+00 5.239314156917182572e+02
1.889115605433195011e+00 5.239287016573526898e+02
1.889215627438036282e+00 5.239259576399590514e+02
1.889315649442877332e+00 5.239231834948775486e+02
1.889415671447718381e+00 5.239203790783387831e+02
1.889515693452559431e+00 5.239175442474736428e+02
1.889615715457400480e+00 5.239146788603239884e+02
1.889715737462241751e+00 5.239117827758482235e+02
1.889815759467082579e+00 5.239088558539324367e+02
1.889915781471923628e+00 5.239058979553974496e+02
1.890015803476764678e+00 5.239029089420077980e+02
1.890115825481605949e+00 5.238998886764816234e+02
1.890215847486446998e+00 5.238968370224960154e+02
1.890315869491288048e+00 5.238937538446991766e+02
1.890415891496129097e+00 5.238906390087149703e+02
1.890515913500969924e+00 5.238874923811553117e+02
1.890615935505810974e+00 5.238843138296244888e+02
1.890715957510652245e+00 5.238811032227296209e+02
1.890815979515493295e+00 5.238778604300894131e+02
1.890916001520334344e+00 5.238745853223408631e+02
1.891016023525175616e+00 5.238712777711474473e+02
1.891116045530016665e+00 5.238679376492082156e+02
1.891216067534857492e+00 5.238645648302648397e+02
1.891316089539698542e+00 5.238611591891103672e+02
1.891416111544539591e+00 5.238577206015960428e+02
1.891516133549380640e+00 5.238542489446401760e+02
1.891616155554221912e+00 5.238507440962363262e+02
1.891716177559062961e+00 5.238472059354597832e+02
1.891816199563903789e+00 5.238436343424749566e+02
1.891916221568744838e+00 5.238400291985458352e+02
1.892016243573586110e+00 5.238363903860408755e+02
1.892116265578427159e+00 5.238327177884410730e+02
1.892216287583268208e+00 5.238290112903489444e+02
1.892316309588109258e+00 5.238252707774940973e+02
1.892416331592950307e+00 5.238214961367419846e+02
1.892516353597791134e+00 5.238176872561008395e+02
1.892616375602632406e+00 5.238138440247289509e+02
1.892716397607473455e+00 5.238099663329415989e+02
1.892816419612314505e+00 5.238060540722196947e+02
1.892916441617155776e+00 5.238021071352152376e+02
1.893016463621996825e+00 5.237981254157585909e+02
1.893116485626837875e+00 5.237941088088674633e+02
1.893216507631678702e+00 5.237900572107514563e+02
1.893316529636519752e+00 5.237859705188204771e+02
1.893416551641360801e+00 5.237818486316920144e+02
1.893516573646202072e+00 5.237776914491955722e+02
1.893616595651043122e+00 5.237734988723831293e+02
1.893716617655884171e+00 5.237692708035322084e+02
1.893816639660725443e+00 5.237650071461555399e+02
1.893916661665566270e+00 5.237607078050064047e+02
1.894016683670407319e+00 5.237563726860844326e+02
1.894116705675248369e+00 5.237520016966432195e+02
1.894216727680089418e+00 5.237475947451976026e+02
1.894316749684930468e+00 5.237431517415270719e+02
1.894416771689771739e+00 5.237386725966855465e+02
1.894516793694612788e+00 5.237341572230055817e+02
1.894616815699453616e+00 5.237296055341065539e+02
1.894716837704294665e+00 5.237250174448962525e+02
1.894816859709135937e+00 5.237203928715840675e+02
1.894916881713976986e+00 5.237157317316807621e+02
1.895016903718818035e+00 5.237110339440082498e+02
1.895116925723659085e+00 5.237062994287035735e+02
1.895216947728500134e+00 5.237015281072254993e+02
1.895316969733340962e+00 5.236967199023606554e+02
1.895416991738182233e+00 5.236918747382289894e+02
1.895517013743023282e+00 5.236869925402892250e+02
1.895617035747864332e+00 5.236820732353453423e+02
1.895717057752705603e+00 5.236771167515514662e+02
1.895817079757546653e+00 5.236721230184161868e+02
1.895917101762387702e+00 5.236670919668113129e+02
1.896017123767228529e+00 5.236620235289751690e+02
1.896117145772069579e+00 5.236569176385169158e+02
1.896217167776910628e+00 5.236517742304241665e+02
1.896317189781751900e+00 5.236465932410662845e+02
1.896417211786592949e+00 5.236413746082012040e+02
1.896517233791433998e+00 5.236361182709792956e+02
1.896617255796275270e+00 5.236308241699497330e+02
1.896717277801116097e+00 5.236254922470627662e+02
1.896817299805957147e+00 5.236201224456782484e+02
1.896917321810798196e+00 5.236147147105676822e+02
1.897017343815639245e+00 5.236092689879209274e+02
1.897117365820480295e+00 5.236037852253484743e+02
1.897217387825321566e+00 5.235982633718900843e+02
1.897317409830162616e+00 5.235927033780147895e+02
1.897417431835003443e+00 5.235871051956288511e+02
1.897517453839844492e+00 5.235814687780783743e+02
1.897617475844685764e+00 5.235757940801549921e+02
1.897717497849526813e+00 5.235700810580995039e+02
1.897817519854367863e+00 5.235643296696053994e+02
1.897917541859208912e+00 5.235585398738248841e+02
1.898017563864049961e+00 5.235527116313724036e+02
1.898117585868890789e+00 5.235468449043271448e+02
1.898217607873732060e+00 5.235409396562390612e+02
1.898317629878573110e+00 5.235349958521312601e+02
1.898417651883414159e+00 5.235290134585063697e+02
1.898517673888255430e+00 5.235229924433472206e+02
1.898617695893096480e+00 5.235169327761229852e+02
1.898717717897937529e+00 5.235108344277915648e+02
1.898817739902778357e+00 5.235046973708030009e+02
1.898917761907619406e+00 5.234985215791056135e+02
1.899017783912460455e+00 5.234923070281448645e+02
1.899117805917301727e+00 5.234860536948719982e+02
1.899217827922142776e+00 5.234797615577430179e+02
1.899317849926983826e+00 5.234734305967244836e+02
1.899417871931825097e+00 5.234670607932964685e+02
1.899517893936665924e+00 5.234606521304541502e+02
1.899617915941506974e+00 5.234542045927141771e+02
1.899717937946348023e+00 5.234477181661130771e+02
1.899817959951189072e+00 5.234411928382144197e+02
1.899917981956030122e+00 5.234346285981094979e+02
1.900018003960871393e+00 5.234280254364202847e+02
1.900118025965712443e+00 5.234213833453029565e+02
1.900218047970553270e+00 5.234147023184501677e+02
1.900318069975394319e+00 5.234079823510930964e+02
1.900418091980235591e+00 5.234012234400049692e+02
1.900518113985076640e+00 5.233944255835033346e+02
1.900618135989917690e+00 5.233875887814515409e+02
1.900718157994758739e+00 5.233807130352627155e+02
1.900818179999599788e+00 5.233737983478997648e+02
1.900918202004440616e+00 5.233668447238798080e+02
1.901018224009281887e+00 5.233598521692754275e+02
1.901118246014122937e+00 5.233528206917160333e+02
1.901218268018963986e+00 5.233457503003905913e+02
1.901318290023805258e+00 5.233386410060509206e+02
1.901418312028646307e+00 5.233314928210090784e+02
1.901518334033487356e+00 5.233243057591447496e+02
1.901618356038328184e+00 5.233170798359033142e+02
1.901718378043169233e+00 5.233098150682991445e+02
1.901818400048010282e+00 5.233025114749143540e+02
1.901918422052851554e+00 5.232951690759055055e+02
1.902018444057692603e+00 5.232877878929991766e+02
1.902118466062533653e+00 5.232803679494991229e+02
1.902218488067374924e+00 5.232729092702812750e+02
1.902318510072215751e+00 5.232654118818007873e+02
1.902418532077056801e+00 5.232578758120891962e+02
1.902518554081897850e+00 5.232503010907580574e+02
1.902618576086738900e+00 5.232426877489976960e+02
1.902718598091579949e+00 5.232350358195799345e+02
1.902818620096421220e+00 5.232273453368583205e+02
1.902918642101262270e+00 5.232196163367685813e+02
1.903018664106103097e+00 5.232118488568296470e+02
1.903118686110944147e+00 5.232040429361449014e+02
1.903218708115785418e+00 5.231961986154012720e+02
1.903318730120626467e+00 5.231883159368711631e+02
1.903418752125467517e+00 5.231803949444124555e+02
1.903518774130308566e+00 5.231724356834681657e+02
1.903618796135149616e+00 5.231644382010683785e+02
1.903718818139990443e+00 5.231564025458287688e+02
1.903818840144831714e+00 5.231483287679506020e+02
1.903918862149672764e+00 5.231402169192238034e+02
1.904018884154513813e+00 5.231320670530224106e+02
1.904118906159355085e+00 5.231238792243080979e+02
1.904218928164196134e+00 5.231156534896301764e+02
1.904318950169037183e+00 5.231073899071211599e+02
1.904418972173878011e+00 5.230990885365010854e+02
1.904518994178719060e+00 5.230907494390754664e+02
1.904619016183560110e+00 5.230823726777347247e+02
1.904719038188401381e+00 5.230739583169539628e+02
1.904819060193242430e+00 5.230655064227919411e+02
1.904919082198083480e+00 5.230570170628908500e+02
1.905019104202924751e+00 5.230484903064758555e+02
1.905119126207765579e+00 5.230399262243538487e+02
1.905219148212606628e+00 5.230313248889126498e+02
1.905319170217447677e+00 5.230226863741206671e+02
1.905419192222288727e+00 5.230140107555253053e+02
1.905519214227129776e+00 5.230052981102518288e+02
1.905619236231971048e+00 5.229965485170021111e+02
1.905719258236812097e+00 5.229877620560553169e+02
1.905819280241652924e+00 5.229789388092628997e+02
1.905919302246493974e+00 5.229700788600514443e+02
1.906019324251335245e+00 5.229611822934182328e+02
1.906119346256176295e+00 5.229522491959314721e+02
1.906219368261017344e+00 5.229432796557272241e+02
1.906319390265858393e+00 5.229342737625096333e+02
1.906419412270699443e+00 5.229252316075468343e+02
1.906519434275540270e+00 5.229161532836718607e+02
1.906619456280381542e+00 5.229070388852795759e+02
1.906719478285222591e+00 5.228978885083241721e+02
1.906819500290063640e+00 5.228887022503174649e+02
1.906919522294904912e+00 5.228794802103276425e+02
1.907019544299745961e+00 5.228702224889766512e+02
1.907119566304587011e+00 5.228609291884383765e+02
1.907219588309427838e+00 5.228516004124344363e+02
1.907319610314268887e+00 5.228422362662348633e+02
1.907419632319109937e+00 5.228328368566535573e+02
1.907519654323951208e+00 5.228234022920487405e+02
1.907619676328792258e+00 5.228139326823136344e+02
1.907719698333633307e+00 5.228044281388829404e+02
1.907819720338474578e+00 5.227948887747224944e+02
1.907919742343315406e+00 5.227853147043315403e+02
1.908019764348156455e+00 5.227757060437379550e+02
1.908119786352997505e+00 5.227660629104949521e+02
1.908219808357838554e+00 5.227563854236780116e+02
1.908319830362679603e+00 5.227466737038830615e+02
1.908419852367520875e+00 5.227369278732235216e+02
1.908519874372361924e+00 5.227271480553258698e+02
1.908619896377202751e+00 5.227173343753258905e+02
1.908719918382043801e+00 5.227074869598691294e+02
1.908819940386885072e+00 5.226976059371015708e+02
1.908919962391726122e+00 5.226876914366721394e+02
1.909019984396567171e+00 5.226777435897248552e+02
1.909120006401408220e+00 5.226677625288981517e+02
1.909220028406249048e+00 5.226577483883197601e+02
1.909320050411090097e+00 5.226477013036025028e+02
1.909420072415931369e+00 5.226376214118424741e+02
1.909520094420772418e+00 5.226275088516132428e+02
1.909620116425613467e+00 5.226173637629632367e+02
1.909720138430454739e+00 5.226071862874103999e+02
1.909820160435295788e+00 5.225969765679404873e+02
1.909920182440136616e+00 5.225867347490001293e+02
1.910020204444977665e+00 5.225764609764954685e+02
1.910120226449818714e+00 5.225661553977846552e+02
1.910220248454659764e+00 5.225558181616769389e+02
1.910320270459501035e+00 5.225454494184256191e+02
1.910420292464342085e+00 5.225350493197259993e+02
1.910520314469183134e+00 5.225246180187082246e+02
1.910620336474023961e+00 5.225141556699348939e+02
1.910720358478865233e+00 5.225036624293958312e+02
1.910820380483706282e+00 5.224931384545024002e+02
1.910920402488547332e+00 5.224825839040840947e+02
1.911020424493388381e+00 5.224719989383831944e+02
1.911120446498229430e+00 5.224613837190489676e+02
1.911220468503070702e+00 5.224507384091346012e+02
1.911320490507911529e+00 5.224400631730903797e+02
1.911420512512752579e+00 5.224293581767605019e+02
1.911520534517593628e+00 5.224186235873750093e+02
1.911620556522434899e+00 5.224078595735478530e+02
1.911720578527275949e+00 5.223970663052689360e+02
1.911820600532116998e+00 5.223862439539014986e+02
1.911920622536958048e+00 5.223753926921738184e+02
1.912020644541798875e+00 5.223645126941751187e+02
1.912120666546639924e+00 5.223536041353507926e+02
1.912220688551481196e+00 5.223426671924960374e+02
1.912320710556322245e+00 5.223317020437490328e+02
1.912420732561163295e+00 5.223207088685876442e+02
1.912520754566004566e+00 5.223096878478213512e+02
1.912620776570845615e+00 5.222986391635879500e+02
1.912720798575686443e+00 5.222875629993446864e+02
1.912820820580527492e+00 5.222764595398640495e+02
1.912920842585368542e+00 5.222653289712282003e+02
1.913020864590209591e+00 5.222541714808213555e+02
1.913120886595050862e+00 5.222429872573253533e+02
1.913220908599891912e+00 5.222317764907111268e+02
1.913320930604732961e+00 5.222205393722352937e+02
1.913420952609573789e+00 5.222092760944318570e+02
1.913520974614415060e+00 5.221979868511058385e+02
1.913620996619256109e+00 5.221866718373294134e+02
1.913721018624097159e+00 5.221753312494302008e+02
1.913821040628938208e+00 5.221639652849908089e+02
1.913921062633779258e+00 5.221525741428378069e+02
1.914021084638620529e+00 5.221411580230364962e+02
1.914121106643461356e+00 5.221297171268854527e+02
1.914221128648302406e+00 5.221182516569066365e+02
1.914321150653143455e+00 5.221067618168428908e+02
1.914421172657984727e+00 5.220952478116457769e+02
1.914521194662825776e+00 5.220837098474742106e+02
1.914621216667666825e+00 5.220721481316830932e+02
1.914721238672507875e+00 5.220605628728176271e+02
1.914821260677348702e+00 5.220489542806076315e+02
1.914921282682189752e+00 5.220373225659582204e+02
1.915021304687031023e+00 5.220256679409433218e+02
1.915121326691872072e+00 5.220139906188001078e+02
1.915221348696713122e+00 5.220022908139176252e+02
1.915321370701554393e+00 5.219905687418345224e+02
1.915421392706395443e+00 5.219788246192265433e+02
1.915521414711236270e+00 5.219670586639035719e+02
1.915621436716077319e+00 5.219552710947982632e+02
1.915721458720918369e+00 5.219434621319611551e+02
1.915821480725759418e+00 5.219316319965510047e+02
1.915921502730600690e+00 5.219197809108300135e+02
1.916021524735441739e+00 5.219079090981513218e+02
1.916121546740282788e+00 5.218960167829563943e+02
1.916221568745123616e+00 5.218841041907629688e+02
1.916321590749964887e+00 5.218721715481602814e+02
1.916421612754805937e+00 5.218602190827986078e+02
1.916521634759646986e+00 5.218482470233825552e+02
1.916621656764488035e+00 5.218362555996636729e+02
1.916721678769329085e+00 5.218242450424304479e+02
1.916821700774170356e+00 5.218122155835012563e+02
1.916921722779011183e+00 5.218001674557165188e+02
1.917021744783852233e+00 5.217881008929296058e+02
1.917121766788693282e+00 5.217760161299983110e+02
1.917221788793534554e+00 5.217639134027781438e+02
1.917321810798375603e+00 5.217517929481116425e+02
1.917421832803216653e+00 5.217396550038223495e+02
1.917521854808057702e+00 5.217274998087036693e+02
1.917621876812898529e+00 5.217153276025126161e+02
1.917721898817739579e+00 5.217031386259602641e+02
1.917821920822580850e+00 5.216909331207026526e+02
1.917921942827421899e+00 5.216787113293323728e+02
1.918021964832262949e+00 5.216664734953708376e+02
1.918121986837104220e+00 5.216542198632580494e+02
1.918222008841945270e+00 5.216419506783449833e+02
1.918322030846786097e+00 5.216296661868836964e+02
1.918422052851627146e+00 5.216173666360190282e+02
1.918522074856468196e+00 5.216050522737793926e+02
1.918622096861309245e+00 5.215927233490679100e+02
1.918722118866150517e+00 5.215803801116536533e+02
1.918822140870991566e+00 5.215680228121617574e+02
1.918922162875832615e+00 5.215556517020645515e+02
1.919022184880673443e+00 5.215432670336745105e+02
1.919122206885514714e+00 5.215308690601308399e+02
1.919222228890355764e+00 5.215184580353939054e+02
1.919322250895196813e+00 5.215060342142336367e+02
1.919422272900037862e+00 5.214935978522225923e+02
1.919522294904878912e+00 5.214811492057241367e+02
1.919622316909720183e+00 5.214686885318844816e+02
1.919722338914561011e+00 5.214562160886222273e+02
1.919822360919402060e+00 5.214437321346198360e+02
1.919922382924243109e+00 5.214312369293143092e+02
1.920022404929084381e+00 5.214187307328866154e+02
1.920122426933925430e+00 5.214062138062522536e+02
1.920222448938766480e+00 5.213936864110526130e+02
1.920322470943607529e+00 5.213811488096439462e+02
1.920422492948448356e+00 5.213686012650889552e+02
1.920522514953289406e+00 5.213560440411459922e+02
1.920622536958130677e+00 5.213434774022597367e+02
1.920722558962971727e+00 5.213309016135517595e+02
1.920822580967812776e+00 5.213183169408100639e+02
1.920922602972654047e+00 5.213057236504794218e+02
1.921022624977495097e+00 5.212931220096514835e+02
1.921122646982335924e+00 5.212805122860546589e+02
1.921222668987176974e+00 5.212678947480447960e+02
1.921322690992018023e+00 5.212552696645946071e+02
1.921422712996859072e+00 5.212426373052829831e+02
1.921522735001700344e+00 5.212299979402866938e+02
1.921622757006541393e+00 5.212173518403682237e+02
1.921722779011382443e+00 5.212046992768673590e+02
1.921822801016223270e+00 5.211920405216903873e+02
1.921922823021064541e+00 5.211793758472995250e+02
1.922022845025905591e+00 5.211667055267018895e+02
1.922122867030746640e+00 5.211540298334429053e+02
1.922222889035587690e+00 5.211413490415914112e+02
1.922322911040428739e+00 5.211286634257322703e+02
1.922422933045270010e+00 5.211159732609548882e+02
1.922522955050110838e+00 5.211032788228427535e+02
1.922622977054951887e+00 5.210905803874642288e+02
1.922722999059792937e+00 5.210778782313609554e+02
1.922823021064634208e+00 5.210651726315377346e+02
1.922923043069475257e+00 5.210524638654521823e+02
1.923023065074316307e+00 5.210397522110039290e+02
1.923123087079157356e+00 5.210270379465246151e+02
1.923223109083998184e+00 5.210143213507669770e+02
1.923323131088839233e+00 5.210016027028943881e+02
1.923423153093680504e+00 5.209888822824703993e+02
1.923523175098521554e+00 5.209761603694472569e+02
1.923623197103362603e+00 5.209634372441571486e+02
1.923723219108203875e+00 5.209507131872989021e+02
1.923823241113044924e+00 5.209379884799300271e+02
1.923923263117885751e+00 5.209252634034543235e+02
1.924023285122726801e+00 5.209125382396116493e+02
1.924123307127567850e+00 5.208998132704673480e+02
1.924223329132408900e+00 5.208870887784006527e+02
1.924323351137250171e+00 5.208743650460947947e+02
1.924423373142091220e+00 5.208616423565265450e+02
1.924523395146932270e+00 5.208489209929534809e+02
1.924623417151773097e+00 5.208362012389060283e+02
1.924723439156614369e+00 5.208234833781737052e+02
1.924823461161455418e+00 5.208107676947963682e+02
1.924923483166296467e+00 5.207980544730523889e+02
1.925023505171137517e+00 5.207853439974476260e+02
1.925123527175978566e+00 5.207726365527048529e+02
1.925223549180819838e+00 5.207599324237527298e+02
1.925323571185660665e+00 5.207472318957159132e+02
1.925423593190501714e+00 5.207345352539005034e+02
1.925523615195342764e+00 5.207218427837883610e+02
1.925623637200184035e+00 5.207091547710224404e+02
1.925723659205025085e+00 5.206964715013956493e+02
1.925823681209866134e+00 5.206837932608424353e+02
1.925923703214707183e+00 5.206711203354250301e+02
1.926023725219548011e+00 5.206584530113244682e+02
1.926123747224389060e+00 5.206457915748285359e+02
1.926223769229230331e+00 5.206331363123201754e+02
1.926323791234071381e+00 5.206204875102674805e+02
1.926423813238912430e+00 5.206078454552121002e+02
1.926523835243753702e+00 5.205952104337588935e+02
1.926623857248594529e+00 5.205825827325634236e+02
1.926723879253435578e+00 5.205699626383220675e+02
1.926823901258276628e+00 5.205573504377601921e+02
1.926923923263117677e+00 5.205447464176207859e+02
1.927023945267958727e+00 5.205321508646554776e+02
1.927123967272799998e+00 5.205195640656098703e+02
1.927223989277641047e+00 5.205069863072153566e+02
1.927324011282481875e+00 5.204944178761764988e+02
1.927424033287322924e+00 5.204818590591604561e+02
1.927524055292164196e+00 5.204693101427857300e+02
1.927624077297005245e+00 5.204567714136104541e+02
1.927724099301846294e+00 5.204442431581222763e+02
1.927824121306687344e+00 5.204317256627264214e+02
1.927924143311528393e+00 5.204192192137338679e+02
1.928024165316369221e+00 5.204067240973524804e+02
1.928124187321210492e+00 5.203942405996730258e+02
1.928224209326051541e+00 5.203817690066603063e+02
1.928324231330892591e+00 5.203693096041399713e+02
1.928424253335733862e+00 5.203568626777894224e+02
1.928524275340574912e+00 5.203444285131247398e+02
1.928624297345415961e+00 5.203320073954909049e+02
1.928724319350256788e+00 5.203195996100495222e+02
1.928824341355097838e+00 5.203072054417687013e+02
1.928924363359938887e+00 5.202948251754110061e+02
1.929024385364780159e+00 5.202824590955229951e+02
1.929124407369621208e+00 5.202701074864222619e+02
1.929224429374462257e+00 5.202577706321906135e+02
1.929324451379303529e+00 5.202454488166565625e+02
1.929424473384144356e+00 5.202331423233904388e+02
1.929524495388985406e+00 5.202208514356883597e+02
1.929624517393826455e+00 5.202085764365642717e+02
1.929724539398667504e+00 5.201963176087377860e+02
1.929824561403508554e+00 5.201840752346209911e+02
1.929924583408349825e+00 5.201718495963120859e+02
1.930024605413190875e+00 5.201596409755792365e+02
1.930124627418031702e+00 5.201474496538522772e+02
1.930224649422872751e+00 5.201352759122119096e+02
1.930324671427714023e+00 5.201231200313752652e+02
1.930424693432555072e+00 5.201109822916902203e+02
1.930524715437396122e+00 5.200988629731183437e+02
1.930624737442237171e+00 5.200867623552294390e+02
1.930724759447078220e+00 5.200746807171858563e+02
1.930824781451919048e+00 5.200626183377341931e+02
1.930924803456760319e+00 5.200505754951933568e+02
1.931024825461601369e+00 5.200385524674444468e+02
1.931124847466442418e+00 5.200265495319169986e+02
1.931224869471283689e+00 5.200145669655811389e+02
1.931324891476124739e+00 5.200026050449359900e+02
1.931424913480965788e+00 5.199906640459973914e+02
1.931524935485806616e+00 5.199787442442872134e+02
1.931624957490647665e+00 5.199668459148230113e+02
1.931724979495488714e+00 5.199549693321079076e+02
1.931825001500329986e+00 5.199431147701177451e+02
1.931925023505171035e+00 5.199312825022905145e+02
1.932025045510012085e+00 5.199194728015178271e+02
1.932125067514853356e+00 5.199076859401305910e+02
1.932225089519694183e+00 5.198959221898909391e+02
1.932325111524535233e+00 5.198841818219799507e+02
1.932425133529376282e+00 5.198724651069868514e+02
1.932525155534217332e+00 5.198607723148993500e+02
1.932625177539058381e+00 5.198491037150914735e+02
1.932725199543899652e+00 5.198374595763132220e+02
1.932825221548740702e+00 5.198258401666807913e+02
1.932925243553581529e+00 5.198142457536646361e+02
1.933025265558422578e+00 5.198026766040791244e+02
1.933125287563263850e+00 5.197911329840719645e+02
1.933225309568104899e+00 5.197796151591138596e+02
1.933325331572945949e+00 5.197681233939873664e+02
1.933425353577786998e+00 5.197566579527765498e+02
1.933525375582628048e+00 5.197452190988562961e+02
1.933625397587468875e+00 5.197338070948817403e+02
1.933725419592310146e+00 5.197224222027773521e+02
1.933825441597151196e+00 5.197110646837279546e+02
1.933925463601992245e+00 5.196997347981664461e+02
1.934025485606833517e+00 5.196884328057637958e+02
1.934125507611674566e+00 5.196771589654188119e+02
1.934225529616515615e+00 5.196659135352490466e+02
1.934325551621356443e+00 5.196546967725768127e+02
1.934425573626197492e+00 5.196435089339228171e+02
1.934525595631038541e+00 5.196323502749941099e+02
1.934625617635879813e+00 5.196212210506732845e+02
1.934725639640720862e+00 5.196101215150083590e+02
1.934825661645561912e+00 5.195990519212041363e+02
1.934925683650403183e+00 5.195880125216093575e+02
1.935025705655244010e+00 5.195770035677089709e+02
1.935125727660085060e+00 5.195660253101126500e+02
1.935225749664926109e+00 5.195550779985445615e+02
1.935325771669767159e+00 5.195441618818341567e+02
1.935425793674608208e+00 5.195332772079049164e+02
1.935525815679449479e+00 5.195224242237658245e+02
1.935625837684290529e+00 5.195116031754999995e+02
1.935725859689131356e+00 5.195008143082553715e+02
1.935825881693972406e+00 5.194900578662351336e+02
1.935925903698813677e+00 5.194793340926868268e+02
1.936025925703654726e+00 5.194686432298930185e+02
1.936125947708495776e+00 5.194579855191614115e+02
1.936225969713336825e+00 5.194473612008156351e+02
1.936325991718177875e+00 5.194367705141844453e+02
1.936426013723018702e+00 5.194262136975927433e+02
1.936526035727859973e+00 5.194156909883515709e+02
1.936626057732701023e+00 5.194052026227487886e+02
1.936726079737542072e+00 5.193947488360385023e+02
1.936826101742383344e+00 5.193843298624326508e+02
1.936926123747224393e+00 5.193739459350919105e+02
1.937026145752065442e+00 5.193635972861134178e+02
1.937126167756906270e+00 5.193532841465247429e+02
1.937226189761747319e+00 5.193430067462722945e+02
1.937326211766588369e+00 5.193327653142123381e+02
1.937426233771429640e+00 5.193225600781022422e+02
1.937526255776270689e+00 5.193123912645907012e+02
1.937626277781111739e+00 5.193022590992082996e+02
1.937726299785953010e+00 5.192921638063584169e+02
1.937826321790793838e+00 5.192821056093092693e+02
1.937926343795634887e+00 5.192720847301826552e+02
1.938026365800475936e+00 5.192621013899455420e+02
1.938126387805316986e+00 5.192521558084022217e+02
1.938226409810158035e+00 5.192422482041840794e+02
1.938326431814999307e+00 5.192323787947410665e+02
1.938426453819840356e+00 5.192225477963321509e+02
1.938526475824681183e+00 5.192127554240172458e+02
1.938626497829522233e+00 5.192030018916493646e+02
1.938726519834363504e+00 5.191932874118615473e+02
1.938826541839204554e+00 5.191836121960637911e+02
1.938926563844045603e+00 5.191739764544305444e+02
1.939026585848886652e+00 5.191643803958933177e+02
1.939126607853727702e+00 5.191548242281321563e+02
1.939226629858568529e+00 5.191453081575663191e+02
1.939326651863409801e+00 5.191358323893462057e+02
1.939426673868250850e+00 5.191263971273463085e+02
1.939526695873091899e+00 5.191170025741530480e+02
1.939626717877933171e+00 5.191076489310615898e+02
1.939726739882774220e+00 5.190983363980623153e+02
1.939826761887615270e+00 5.190890651738358201e+02
1.939926783892456097e+00 5.190798354557443872e+02
1.940026805897297146e+00 5.190706474398226646e+02
1.940126827902138196e+00 5.190615013207697075e+02
1.940226849906979467e+00 5.190523972919423841e+02
1.940326871911820517e+00 5.190433355453451441e+02
1.940426893916661566e+00 5.190343162716238794e+02
1.940526915921502837e+00 5.190253396600570568e+02
1.940626937926343665e+00 5.190164058985476458e+02
1.940726959931184714e+00 5.190075151736167527e+02
1.940826981936025764e+00 5.189986676703935018e+02
1.940927003940866813e+00 5.189898635726101475e+02
1.941027025945707862e+00 5.189811030625911599e+02
1.941127047950549134e+00 5.189723863212489050e+02
1.941227069955390183e+00 5.189637135280736402e+02
1.941327091960231011e+00 5.189550848611268066e+02
1.941427113965072060e+00 5.189465004970339805e+02
1.941527135969913331e+00 5.189379606109774841e+02
1.941627157974754381e+00 5.189294653766889951e+02
1.941727179979595430e+00 5.189210149664403389e+02
1.941827201984436480e+00 5.189126095510391679e+02
1.941927223989277529e+00 5.189042492998207763e+02
1.942027245994118356e+00 5.188959343806400284e+02
1.942127267998959628e+00 5.188876649598655604e+02
1.942227290003800677e+00 5.188794412023725044e+02
1.942327312008641726e+00 5.188712632715333939e+02
1.942427334013482998e+00 5.188631313292162304e+02
1.942527356018324047e+00 5.188550455357715236e+02
1.942627378023165097e+00 5.188470060500304726e+02
1.942727400028005924e+00 5.188390130292959839e+02
1.942827422032846973e+00 5.188310666293357372e+02
1.942927444037688023e+00 5.188231670043772965e+02
1.943027466042529294e+00 5.188153143070996975e+02
1.943127488047370344e+00 5.188075086886276495e+02
1.943227510052211393e+00 5.187997502985258507e+02
1.943327532057052665e+00 5.187920392847917128e+02
1.943427554061893492e+00 5.187843757938493354e+02
1.943527576066734541e+00 5.187767599705433668e+02
1.943627598071575591e+00 5.187691919581330922e+02
1.943727620076416640e+00 5.187616718982853854e+02
1.943827642081257689e+00 5.187541999310692518e+02
1.943927664086098961e+00 5.187467761949515079e+02
1.944027686090939788e+00 5.187394008267859817e+02
1.944127708095780838e+00 5.187320739618135121e+02
1.944227730100621887e+00 5.187247957336525133e+02
1.944327752105463158e+00 5.187175662742945406e+02
1.944427774110304208e+00 5.187103857140972423e+02
1.944527796115145257e+00 5.187032541817819720e+02
1.944627818119986307e+00 5.186961718044233294e+02
1.944727840124827134e+00 5.186891387074481372e+02
1.944827862129668183e+00 5.186821550146271420e+02
1.944927884134509455e+00 5.186752208480719446e+02
1.945027906139350504e+00 5.186683363282278378e+02
1.945127928144191554e+00 5.186615015738691454e+02
1.945227950149032825e+00 5.186547167020945608e+02
1.945327972153873874e+00 5.186479818283207806e+02
1.945427994158714702e+00 5.186412970662790940e+02
1.945528016163555751e+00 5.186346625280094713e+02
1.945628038168396801e+00 5.186280783238557888e+02
1.945728060173237850e+00 5.186215445624607128e+02
1.945828082178079121e+00 5.186150613507621756e+02
1.945928104182920171e+00 5.186086287939868953e+02
1.946028126187761220e+00 5.186022469956458281e+02
1.946128148192602048e+00 5.185959160575323494e+02
1.946228170197443319e+00 5.185896360797139550e+02
1.946328192202284368e+00 5.185834071605304416e+02
1.946428214207125418e+00 5.185772293965883364e+02
1.946528236211966467e+00 5.185711028827572591e+02
1.946628258216807517e+00 5.185650277121645786e+02
1.946728280221648788e+00 5.185590039761931394e+02
1.946828302226489615e+00 5.185530317644756906e+02
1.946928324231330665e+00 5.185471111648902252e+02
1.947028346236171714e+00 5.185412422635586154e+02
1.947128368241012986e+00 5.185354251448396781e+02
1.947228390245854035e+00 5.185296598913275830e+02
1.947328412250695084e+00 5.185239465838474189e+02
1.947428434255536134e+00 5.185182853014500779e+02
1.947528456260376961e+00 5.185126761214122553e+02
1.947628478265218011e+00 5.185071191192280367e+02
1.947728500270059282e+00 5.185016143686098076e+02
1.947828522274900331e+00 5.184961619414818870e+02
1.947928544279741381e+00 5.184907619079789356e+02
1.948028566284582652e+00 5.184854143364422043e+02
1.948128588289423702e+00 5.184801192934148730e+02
1.948228610294264529e+00 5.184748768436420505e+02
1.948328632299105578e+00 5.184696870500647492e+02
1.948428654303946628e+00 5.184645499738182934e+02
1.948528676308787677e+00 5.184594656742292500e+02
1.948628698313628949e+00 5.184544342088126996e+02
1.948728720318469998e+00 5.184494556332689399e+02
1.948828742323311047e+00 5.184445300014806435e+02
1.948928764328151875e+00 5.184396573655119482e+02
1.949028786332993146e+00 5.184348377756035688e+02
1.949128808337834196e+00 5.184300712801722284e+02
1.949228830342675245e+00 5.184253579258064519e+02
1.949328852347516294e+00 5.184206977572661117e+02
1.949428874352357344e+00 5.184160908174783344e+02
1.949528896357198615e+00 5.184115371475369329e+02
1.949628918362039443e+00 5.184070367866999050e+02
1.949728940366880492e+00 5.184025897723855678e+02
1.949828962371721541e+00 5.183981961401731269e+02
1.949928984376562813e+00 5.183938559237996060e+02
1.950029006381403862e+00 5.183895691551578011e+02
1.950129028386244912e+00 5.183853358642946887e+02
1.950229050391085961e+00 5.183811560794106299e+02
1.950329072395926788e+00 5.183770298268566421e+02
1.950429094400767838e+00 5.183729571311323525e+02
1.950529116405609109e+00 5.183689380148863393e+02
1.950629138410450159e+00 5.183649724989132892e+02
1.950729160415291208e+00 5.183610606021538842e+02
1.950829182420132479e+00 5.183572023416923003e+02
1.950929204424973529e+00 5.183533977327548428e+02
1.951029226429814356e+00 5.183496467887116523e+02
1.951129248434655405e+00 5.183459495210709065e+02
1.951229270439496455e+00 5.183423059394830261e+02
1.951329292444337504e+00 5.183387160517354459e+02
1.951429314449178776e+00 5.183351798637553429e+02
1.951529336454019825e+00 5.183316973796056573e+02
1.951629358458860874e+00 5.183282686014873661e+02
1.951729380463701702e+00 5.183248935297364142e+02
1.951829402468542973e+00 5.183215721628258734e+02
1.951929424473384023e+00 5.183183044973621918e+02
1.952029446478225072e+00 5.183150905280881489e+02
1.952129468483066121e+00 5.183119302478808095e+02
1.952229490487907171e+00 5.183088236477500459e+02
1.952329512492748442e+00 5.183057707168422894e+02
1.952429534497589270e+00 5.183027714424360965e+02
1.952529556502430319e+00 5.182998258099462419e+02
1.952629578507271368e+00 5.182969338029187156e+02
1.952729600512112640e+00 5.182940954030373177e+02
1.952829622516953689e+00 5.182913105901179733e+02
1.952929644521794739e+00 5.182885793421124845e+02
1.953029666526635788e+00 5.182859016351083028e+02
1.953129688531476615e+00 5.182832774433277336e+02
1.953229710536317665e+00 5.182807067391299825e+02
1.953329732541158936e+00 5.182781894930117232e+02
1.953429754545999986e+00 5.182757256736059617e+02
1.953529776550841035e+00 5.182733152476846499e+02
1.953629798555682306e+00 5.182709581801595959e+02
1.953729820560523356e+00 5.182686544340813271e+02
1.953829842565364183e+00 5.182664039706427275e+02
1.953929864570205233e+00 5.182642067491780153e+02
1.954029886575046282e+00 5.182620627271652438e+02
1.954129908579887331e+00 5.182599718602261873e+02
1.954229930584728603e+00 5.182579341021286155e+02
1.954329952589569652e+00 5.182559494047883391e+02
1.954429974594410702e+00 5.182540177182675052e+02
1.954529996599251529e+00 5.182521389907802813e+02
1.954630018604092800e+00 5.182503131686927418e+02
1.954730040608933850e+00 5.182485401965209348e+02
1.954830062613774899e+00 5.182468200169405463e+02
1.954930084618615949e+00 5.182451525707797373e+02
1.955030106623456998e+00 5.182435377970277841e+02
1.955130128628298269e+00 5.182419756328334870e+02
1.955230150633139097e+00 5.182404660135089216e+02
1.955330172637980146e+00 5.182390088725300075e+02
1.955430194642821196e+00 5.182376041415404870e+02
1.955530216647662467e+00 5.182362517503520394e+02
1.955630238652503516e+00 5.182349516269491687e+02
1.955730260657344566e+00 5.182337036974877265e+02
1.955830282662185615e+00 5.182325078863023009e+02
1.955930304667026443e+00 5.182313641159053077e+02
1.956030326671867492e+00 5.182302723069900594e+02
1.956130348676708763e+00 5.182292323784348582e+02
1.956230370681549813e+00 5.182282442473032233e+02
1.956330392686390862e+00 5.182273078288496890e+02
1.956430414691232134e+00 5.182264230365212825e+02
1.956530436696073183e+00 5.182255897819599113e+02
1.956630458700914010e+00 5.182248079750058878e+02
1.956730480705755060e+00 5.182240775237013395e+02
1.956830502710596109e+00 5.182233983342939609e+02
1.956930524715437159e+00 5.182227703112386052e+02
1.957030546720278430e+00 5.182221933572012631e+02
1.957130568725119479e+00 5.182216673730642924e+02
1.957230590729960529e+00 5.182211922579267593e+02
1.957330612734801356e+00 5.182207679091104637e+02
1.957430634739642628e+00 5.182203942221623265e+02
1.957530656744483677e+00 5.182200710908581414e+02
1.957630678749324726e+00 5.182197984072073496e+02
1.957730700754165776e+00 5.182195760614556548e+02
1.957830722759006825e+00 5.182194039420894569e+02
1.957930744763848097e+00 5.182192819358398310e+02
1.958030766768688924e+00 5.182192099276867339e+02
1.958130788773529973e+00 5.182191878008625281e+02
1.958230810778371023e+00 5.182192154368575530e+02
1.958330832783212294e+00 5.182192927154217159e+02
1.958430854788053344e+00 5.182194195145718822e+02
1.958530876792894393e+00 5.182195957105939215e+02
1.958630898797735442e+00 5.182198211780500969e+02
1.958730920802576270e+00 5.182200957897784974e+02
1.958830942807417319e+00 5.182204194169039511e+02
1.958930964812258591e+00 5.182207919288377980e+02
1.959030986817099640e+00 5.182212131932847115e+02
1.959131008821940689e+00 5.182216830762478139e+02
1.959231030826781961e+00 5.182222014420319738e+02
1.959331052831623010e+00 5.182227681532502856e+02
1.959431074836463837e+00 5.182233830708289588e+02
1.959531096841304887e+00 5.182240460540118647e+02
1.959631118846145936e+00 5.182247569603651982e+02
1.959731140850986986e+00 5.182255156457842986e+02
1.959831162855828257e+00 5.182263219644964920e+02
1.959931184860669307e+00 5.182271757690702998e+02
1.960031206865510356e+00 5.182280769104164619e+02
1.960131228870351183e+00 5.182290252377964634e+02
1.960231250875192455e+00 5.182300205988271955e+02
1.960331272880033504e+00 5.182310628394869809e+02
1.960431294884874553e+00 5.182321518041189847e+02
1.960531316889715603e+00 5.182332873354416733e+02
1.960631338894556652e+00 5.182344692745488146e+02
1.960731360899397924e+00 5.182356974609207327e+02
1.960831382904238751e+00 5.182369717324273779e+02
1.960931404909079800e+00 5.182382919253342379e+02
1.961031426913920850e+00 5.182396578743092732e+02
1.961131448918762121e+00 5.182410694124297379e+02
1.961231470923603171e+00 5.182425263711866137e+02
1.961331492928444220e+00 5.182440285804924542e+02
1.961431514933285047e+00 5.182455758686863874e+02
1.961531536938126097e+00 5.182471680625428689e+02
1.961631558942967146e+00 5.182488049872749798e+02
1.961731580947808418e+00 5.182504864665436344e+02
1.961831602952649467e+00 5.182522123224621282e+02
1.961931624957490516e+00 5.182539823756053465e+02
1.962031646962331788e+00 5.182557964450134023e+02
1.962131668967172615e+00 5.182576543482015268e+02
1.962231690972013665e+00 5.182595559011641626e+02
1.962331712976854714e+00 5.182615009183840584e+02
1.962431734981695763e+00 5.182634892128374986e+02
1.962531756986536813e+00 5.182655205960031708e+02
1.962631778991378084e+00 5.182675948778677366e+02
1.962731800996219134e+00 5.182697118669339034e+02
1.962831823001059961e+00 5.182718713702269042e+02
1.962931845005901010e+00 5.182740731933026836e+02
1.963031867010742282e+00 5.182763171402543776e+02
1.963131889015583331e+00 5.182786030137206126e+02
1.963231911020424381e+00 5.182809306148920996e+02
1.963331933025265430e+00 5.182832997435198195e+02
1.963431955030106479e+00 5.182857101979218442e+02
1.963531977034947307e+00 5.182881617749927727e+02
1.963631999039788578e+00 5.182906542702089610e+02
1.963732021044629628e+00 5.182931874776375025e+02
1.963832043049470677e+00 5.182957611899452104e+02
1.963932065054311948e+00 5.182983751984038463e+02
1.964032087059152998e+00 5.183010292929004663e+02
1.964132109063994047e+00 5.183037232619449242e+02
1.964232131068834875e+00 5.183064568926765787e+02
1.964332153073675924e+00 5.183092299708737301e+02
1.964432175078516973e+00 5.183120422809608954e+02
1.964532197083358245e+00 5.183148936060183587e+02
1.964632219088199294e+00 5.183177837277895605e+02
1.964732241093040344e+00 5.183207124266887149e+02
1.964832263097881615e+00 5.183236794818104727e+02
1.964932285102722442e+00 5.183266846709382207e+02
1.965032307107563492e+00 5.183297277705513579e+02
1.965132329112404541e+00 5.183328085558347311e+02
1.965232351117245591e+00 5.183359268006890943e+02
1.965332373122086640e+00 5.183390822777348603e+02
1.965432395126927911e+00 5.183422747583260843e+02
1.965532417131768961e+00 5.183455040125564892e+02
1.965632439136609788e+00 5.183487698092681057e+02
1.965732461141450838e+00 5.183520719160613908e+02
1.965832483146292109e+00 5.183554100993037537e+02
1.965932505151133158e+00 5.183587841241372871e+02
1.966032527155974208e+00 5.183621937544895673e+02
1.966132549160815257e+00 5.183656387530826350e+02
1.966232571165656307e+00 5.183691188814403858e+02
1.966332593170497134e+00 5.183726338998990286e+02
1.966432615175338405e+00 5.183761835676162946e+02
1.966532637180179455e+00 5.183797676425805321e+02
1.966632659185020504e+00 5.183833858816194606e+02
1.966732681189861776e+00 5.183870380404113121e+02
1.966832703194702825e+00 5.183907238734909697e+02
1.966932725199543874e+00 5.183944431342636108e+02
1.967032747204384702e+00 5.183981955750109591e+02
1.967132769209225751e+00 5.184019809469015172e+02
1.967232791214066800e+00 5.184057990000026166e+02
1.967332813218908072e+00 5.184096494832851931e+02
1.967432835223749121e+00 5.184135321446375428e+02
1.967532857228590171e+00 5.184174467308748717e+02
1.967632879233431442e+00 5.184213929877470264e+02
1.967732901238272269e+00 5.184253706599491807e+02
1.967832923243113319e+00 5.184293794911327495e+02
1.967932945247954368e+00 5.184334192239123240e+02
1.968032967252795418e+00 5.184374895998817010e+02
1.968132989257636467e+00 5.184415903596153612e+02
1.968233011262477739e+00 5.184457212426867727e+02
1.968333033267318788e+00 5.184498819876719153e+02
1.968433055272159615e+00 5.184540723321641735e+02
1.968533077277000665e+00 5.184582920127816124e+02
1.968633099281841936e+00 5.184625407651795967e+02
1.968733121286682985e+00 5.184668183240567032e+02
1.968833143291524035e+00 5.184711244231714318e+02
1.968933165296365084e+00 5.184754587953462988e+02
1.969033187301206134e+00 5.184798211724829571e+02
1.969133209306046961e+00 5.184842112855687901e+02
1.969233231310888232e+00 5.184886288646906678e+02
1.969333253315729282e+00 5.184930736390426773e+02
1.969433275320570331e+00 5.184975453369388561e+02
1.969533297325411603e+00 5.185020436858226276e+02
1.969633319330252652e+00 5.185065684122773746e+02
1.969733341335093701e+00 5.185111192420367843e+02
1.969833363339934529e+00 5.185156958999968992e+02
1.969933385344775578e+00 5.185202981102245303e+02
1.970033407349616628e+00 5.185249255959721495e+02
1.970133429354457899e+00 5.185295780796827785e+02
1.970233451359298948e+00 5.185342552830055638e+02
1.970333473364139998e+00 5.185389569268048717e+02
1.970433495368981269e+00 5.185436827311715433e+02
1.970533517373822097e+00 5.185484324154321030e+02
1.970633539378663146e+00 5.185532056981634241e+02
1.970733561383504195e+00 5.185580022971990957e+02
1.970833583388345245e+00 5.185628219296440875e+02
1.970933605393186294e+00 5.185676643118847551e+02
1.971033627398027566e+00 5.185725291595983890e+02
1.971133649402868615e+00 5.185774161877669712e+02
1.971233671407709442e+00 5.185823251106857015e+02
1.971333693412550492e+00 5.185872556419760713e+02
1.971433715417391763e+00 5.185922074945958684e+02
1.971533737422232813e+00 5.185971803808512277e+02
1.971633759427073862e+00 5.186021740124073176e+02
1.971733781431914911e+00 5.186071881002997088e+02
1.971833803436755961e+00 5.186122223549459704e+02
1.971933825441596788e+00 5.186172764861563564e+02
1.972033847446438060e+00 5.186223502031466523e+02
1.972133869451279109e+00 5.186274432145467017e+02
1.972233891456120158e+00 5.186325552284156402e+02
1.972333913460961430e+00 5.186376859522498535e+02
1.972433935465802479e+00 5.186428350929969611e+02
1.972533957470643529e+00 5.186480023570651383e+02
1.972633979475484356e+00 5.186531874503366453e+02
1.972734001480325405e+00 5.186583900781774901e+02
1.972834023485166455e+00 5.186636099454508440e+02
1.972934045490007726e+00 5.186688467565272731e+02
1.973034067494848776e+00 5.186741002152962210e+02
1.973134089499689825e+00 5.186793700251789687e+02
1.973234111504531096e+00 5.186846558891395489e+02
1.973334133509371924e+00 5.186899575096952049e+02
1.973434155514212973e+00 5.186952745889300331e+02
1.973534177519054023e+00 5.187006068285055562e+02
1.973634199523895072e+00 5.187059539296731145e+02
1.973734221528736121e+00 5.187113155932840982e+02
1.973834243533577393e+00 5.187166915198043853e+02
1.973934265538418442e+00 5.187220814093233230e+02
1.974034287543259270e+00 5.187274849615668018e+02
1.974134309548100319e+00 5.187329018759094197e+02
1.974234331552941590e+00 5.187383318513857375e+02
1.974334353557782640e+00 5.187437745867019885e+02
1.974434375562623689e+00 5.187492297802481289e+02
1.974534397567464739e+00 5.187546971301105714e+02
1.974634419572305788e+00 5.187601763340820753e+02
1.974734441577146615e+00 5.187656670896758442e+02
1.974834463581987887e+00 5.187711690941359848e+02
1.974934485586828936e+00 5.187766820444492168e+02
1.975034507591669986e+00 5.187822056373588566e+02
1.975134529596511257e+00 5.187877395693743665e+02
1.975234551601352306e+00 5.187932835367839743e+02
1.975334573606193356e+00 5.187988372356685431e+02
1.975434595611034183e+00 5.188044003619105524e+02
1.975534617615875232e+00 5.188099726112080816e+02
1.975634639620716282e+00 5.188155536790858378e+02
1.975734661625557553e+00 5.188211432609077747e+02
1.975834683630398603e+00 5.188267410518897123e+02
1.975934705635239652e+00 5.188323467471093409e+02
1.976034727640080924e+00 5.188379600415204322e+02
1.976134749644921751e+00 5.188435806299635260e+02
1.976234771649762800e+00 5.188492082071783216e+02
1.976334793654603850e+00 5.188548424678156152e+02
1.976434815659444899e+00 5.188604831064506016e+02
1.976534837664285948e+00 5.188661298175926504e+02
1.976634859669127220e+00 5.188717822956994041e+02
1.976734881673968269e+00 5.188774402351873505e+02
1.976834903678809097e+00 5.188831033304454650e+02
1.976934925683650146e+00 5.188887712758456701e+02
1.977034947688491417e+00 5.188944437657565913e+02
1.977134969693332467e+00 5.189001204945532209e+02
1.977234991698173516e+00 5.189058011566330606e+02
1.977335013703014566e+00 5.189114854464228301e+02
1.977435035707855615e+00 5.189171730583958606e+02
1.977535057712696442e+00 5.189228636870803939e+02
1.977635079717537714e+00 5.189285570270725430e+02
1.977735101722378763e+00 5.189342527730500478e+02
1.977835123727219813e+00 5.189399506197834171e+02
1.977935145732061084e+00 5.189456502621466143e+02
1.978035167736902133e+00 5.189513513951310415e+02
1.978135189741743183e+00 5.189570537138566806e+02
1.978235211746584010e+00 5.189627569135839167e+02
1.978335233751425060e+00 5.189684606897287722e+02
1.978435255756266109e+00 5.189741647378680227e+02
1.978535277761107380e+00 5.189798687537589785e+02
1.978635299765948430e+00 5.189855724333459648e+02
1.978735321770789479e+00 5.189912754727763513e+02
1.978835343775630307e+00 5.189969775684102160e+02
1.978935365780471578e+00 5.190026784168320546e+02
1.979035387785312627e+00 5.190083777148647641e+02
1.979135409790153677e+00 5.190140751595806705e+02
1.979235431794994726e+00 5.190197704483131247e+02
1.979335453799835776e+00 5.190254632786690081e+02
1.979435475804677047e+00 5.190311533485413520e+02
1.979535497809517874e+00 5.190368403561190007e+02
1.979635519814358924e+00 5.190425239999024143e+02
1.979735541819199973e+00 5.190482039787121948e+02
1.979835563824041245e+00 5.190538799917027291e+02
1.979935585828882294e+00 5.190595517383738979e+02
1.980035607833723343e+00 5.190652189185827865e+02
1.980135629838564393e+00 5.190708812325556210e+02
1.980235651843405220e+00 5.190765383809003879e+02
1.980335673848246270e+00 5.190821900646172935e+02
1.980435695853087541e+00 5.190878359851119512e+02
1.980535717857928590e+00 5.190934758442078873e+02
1.980635739862769640e+00 5.190991093441552948e+02
1.980735761867610911e+00 5.191047361876466084e+02
1.980835783872451961e+00 5.191103560778267365e+02
1.980935805877292788e+00 5.191159687183035203e+02
1.981035827882133837e+00 5.191215738131625130e+02
1.981135849886974887e+00 5.191271710669753929e+02
1.981235871891815936e+00 5.191327601848157656e+02
1.981335893896657208e+00 5.191383408722655304e+02
1.981435915901498257e+00 5.191439128354327295e+02
1.981535937906339306e+00 5.191494757809585963e+02
1.981635959911180134e+00 5.191550294160308567e+02
1.981735981916021405e+00 5.191605734483964625e+02
1.981836003920862455e+00 5.191661075863712540e+02
1.981936025925703504e+00 5.191716315388524663e+02
1.982036047930544553e+00 5.191771450153322576e+02
1.982136069935385603e+00 5.191826477259050989e+02
1.982236091940226874e+00 5.191881393812828946e+02
1.982336113945067702e+00 5.191936196928052141e+02
1.982436135949908751e+00 5.191990883724511150e+02
1.982536157954749800e+00 5.192045451328506260e+02
1.982636179959591072e+00 5.192099896872953195e+02
1.982736201964432121e+00 5.192154217497518403e+02
1.982836223969273171e+00 5.192208410348711141e+02
1.982936245974114220e+00 5.192262472580003987e+02
1.983036267978955047e+00 5.192316401351957893e+02
1.983136289983796097e+00 5.192370193832322229e+02
1.983236311988637368e+00 5.192423847196155293e+02
1.983336333993478418e+00 5.192477358625935722e+02
1.983436355998319467e+00 5.192530725311668220e+02
1.983536378003160738e+00 5.192583944451009756e+02
1.983636400008001788e+00 5.192637013249373013e+02
1.983736422012842615e+00 5.192689928920030979e+02
1.983836444017683664e+00 5.192742688684247696e+02
1.983936466022524714e+00 5.192795289771374883e+02
1.984036488027365763e+00 5.192847729418963354e+02
1.984136510032207035e+00 5.192900004872877844e+02
1.984236532037048084e+00 5.192952113387416375e+02
1.984336554041889134e+00 5.193004052225383020e+02
1.984436576046729961e+00 5.193055818658261842e+02
1.984536598051571232e+00 5.193107409966262367e+02
1.984636620056412282e+00 5.193158823438461695e+02
1.984736642061253331e+00 5.193210056372918189e+02
1.984836664066094380e+00 5.193261106076747637e+02
1.984936686070935430e+00 5.193311969866268782e+02
1.985036708075776701e+00 5.193362645067085168e+02
1.985136730080617529e+00 5.193413129014212473e+02
1.985236752085458578e+00 5.193463419052166046e+02
1.985336774090299627e+00 5.193513512535065502e+02
1.985436796095140899e+00 5.193563406826777964e+02
1.985536818099981948e+00 5.193613099300976046e+02
1.985636840104822998e+00 5.193662587341265180e+02
1.985736862109664047e+00 5.193711868341306399e+02
1.985836884114504874e+00 5.193760939704876591e+02
1.985936906119345924e+00 5.193809798846015156e+02
1.986036928124187195e+00 5.193858443189119498e+02
1.986136950129028245e+00 5.193906870169015519e+02
1.986236972133869294e+00 5.193955077231107680e+02
1.986336994138710565e+00 5.194003061831451760e+02
1.986437016143551615e+00 5.194050821436859451e+02
1.986537038148392442e+00 5.194098353525021139e+02
1.986637060153233492e+00 5.194145655584576389e+02
1.986737082158074541e+00 5.194192725115250369e+02
1.986837104162915590e+00 5.194239559627909557e+02
1.986937126167756862e+00 5.194286156644704988e+02
1.987037148172597911e+00 5.194332513699151832e+02
1.987137170177438961e+00 5.194378628336230577e+02
1.987237192182279788e+00 5.194424498112489346e+02
1.987337214187121059e+00 5.194470120596121205e+02
1.987437236191962109e+00 5.194515493367109684e+02
1.987537258196803158e+00 5.194560614017278795e+02
1.987637280201644208e+00 5.194605480150412404e+02
1.987737302206485257e+00 5.194650089382352007e+02
1.987837324211326528e+00 5.194694439341075167e+02
1.987937346216167356e+00 5.194738527666818300e+02
1.988037368221008405e+00 5.194782352012146021e+02
1.988137390225849455e+00 5.194825910042067107e+02
1.988237412230690726e+00 5.194869199434107259e+02
1.988337434235531775e+00 5.194912217878430738e+02
1.988437456240372825e+00 5.194954963077898356e+02
1.988537478245213874e+00 5.194997432748193660e+02
1.988637500250054702e+00 5.195039624617895697e+02
1.988737522254895751e+00 5.195081536428573372e+02
1.988837544259737022e+00 5.195123165934886629e+02
1.988937566264578072e+00 5.195164510904659210e+02
1.989037588269419121e+00 5.195205569118986659e+02
1.989137610274260393e+00 5.195246338372321588e+02
1.989237632279101442e+00 5.195286816472549845e+02
1.989337654283942269e+00 5.195327001241099651e+02
1.989437676288783319e+00 5.195366890513017779e+02
1.989537698293624368e+00 5.195406482137047988e+02
1.989637720298465418e+00 5.195445773975750399e+02
1.989737742303306689e+00 5.195484763905545833e+02
1.989837764308147738e+00 5.195523449816834045e+02
1.989937786312988788e+00 5.195561829614066482e+02
1.990037808317829615e+00 5.195599901215830414e+02
1.990137830322670887e+00 5.195637662554935332e+02
1.990237852327511936e+00 5.195675111578500491e+02
1.990337874332352985e+00 5.195712246248034489e+02
1.990437896337194035e+00 5.195749064539513711e+02
1.990537918342035084e+00 5.195785564443472140e+02
1.990637940346876356e+00 5.195821743965076394e+02
1.990737962351717183e+00 5.195857601124216671e+02
1.990837984356558232e+00 5.195893133955571557e+02
1.990938006361399282e+00 5.195928340508704650e+02
1.991038028366240553e+00 5.195963218848131646e+02
1.991138050371081603e+00 5.195997767053410143e+02
1.991238072375922652e+00 5.196031983219194217e+02
1.991338094380763701e+00 5.196065865455342418e+02
1.991438116385604529e+00 5.196099411886983717e+02
1.991538138390445578e+00 5.196132620654580023e+02
1.991638160395286850e+00 5.196165489914017144e+02
1.991738182400127899e+00 5.196198017836674126e+02
1.991838204404968948e+00 5.196230202609502840e+02
1.991938226409810220e+00 5.196262042435090507e+02
1.992038248414651269e+00 5.196293535531752923e+02
1.992138270419492097e+00 5.196324680133583342e+02
1.992238292424333146e+00 5.196355474490533197e+02
1.992338314429174195e+00 5.196385916868500772e+02
1.992438336434015245e+00 5.196416005549369856e+02
1.992538358438856516e+00 5.196445738831113204e+02
1.992638380443697566e+00 5.196475115027831180e+02
1.992738402448538615e+00 5.196504132469843853e+02
1.992838424453379442e+00 5.196532789503752383e+02
1.992938446458220714e+00 5.196561084492499276e+02
1.993038468463061763e+00 5.196589015815445691e+02
1.993138490467902812e+00 5.196616581868421463e+02
1.993238512472743862e+00 5.196643781063824008e+02
1.993338534477584911e+00 5.196670611830639928e+02
1.993438556482426183e+00 5.196697072614542776e+02
1.993538578487267010e+00 5.196723161877943085e+02
1.993638600492108059e+00 5.196748878100049751e+02
1.993738622496949109e+00 5.196774219776939390e+02
1.993838644501790380e+00 5.196799185421616585e+02
1.993938666506631430e+00 5.196823773564063913e+02
1.994038688511472479e+00 5.196847982751316977e+02
1.994138710516313528e+00 5.196871811547516700e+02
1.994238732521154356e+00 5.196895258533982087e+02
1.994338754525995405e+00 5.196918322309234100e+02
1.994438776530836677e+00 5.196941001489085465e+02
1.994538798535677726e+00 5.196963294706689567e+02
1.994638820540518775e+00 5.196985200612601830e+02
1.994738842545360047e+00 5.197006717874813830e+02
1.994838864550201096e+00 5.197027845178829466e+02
1.994938886555041924e+00 5.197048581227708155e+02
1.995038908559882973e+00 5.197068924742128502e+02
1.995138930564724022e+00 5.197088874460432635e+02
1.995238952569565072e+00 5.197108429138681913e+02
1.995338974574406343e+00 5.197127587550696717e+02
1.995438996579247393e+00 5.197146348488133754e+02
1.995539018584088442e+00 5.197164710760512207e+02
1.995639040588929269e+00 5.197182673195268308e+02
1.995739062593770541e+00 5.197200234637805352e+02
1.995839084598611590e+00 5.197217393951543727e+02
1.995939106603452640e+00 5.197234150017973207e+02
1.996039128608293689e+00 5.197250501736683646e+02
1.996139150613134738e+00 5.197266448025425234e+02
1.996239172617975566e+00 5.197281987820144877e+02
1.996339194622816837e+00 5.197297120075033945e+02
1.996439216627657887e+00 5.197311843762577155e+02
1.996539238632498936e+00 5.197326157873578723e+02
1.996639260637340207e+00 5.197340061417226025e+02
1.996739282642181257e+00 5.197353553421110064e+02
1.996839304647022306e+00 5.197366632931287995e+02
1.996939326651863134e+00 5.197379299012303591e+02
1.997039348656704183e+00 5.197391550747234987e+02
1.997139370661545232e+00 5.197403387237732204e+02
1.997239392666386504e+00 5.197414807604061480e+02
1.997339414671227553e+00 5.197425810985122325e+02
1.997439436676068603e+00 5.197436396538505505e+02
1.997539458680909874e+00 5.197446563440524869e+02
1.997639480685750701e+00 5.197456310886235542e+02
1.997739502690591751e+00 5.197465638089480535e+02
1.997839524695432800e+00 5.197474544282933948e+02
1.997939546700273850e+00 5.197483028718115747e+02
1.998039568705114899e+00 5.197491090665423599e+02
1.998139590709956170e+00 5.197498729414179479e+02
1.998239612714797220e+00 5.197505944272642182e+02
1.998339634719638047e+00 5.197512734568056203e+02
1.998439656724479097e+00 5.197519099646659697e+02
1.998539678729320368e+00 5.197525038873731091e+02
1.998639700734161417e+00 5.197530551633591358e+02
1.998739722739002467e+00 5.197535637329659721e+02
1.998839744743843516e+00 5.197540295384462752e+02
1.998939766748684566e+00 5.197544525239661652e+02
1.999039788753525393e+00 5.197548326356080679e+02
1.999139810758366664e+00 5.197551698213717373e+02
1.999239832763207714e+00 5.197554640311784624e+02
1.999339854768048763e+00 5.197557152168712946e+02
1.999439876772890035e+00 5.197559233322187993e+02
1.999539898777731084e+00 5.197560883329167609e+02
1.999639920782572133e+00 5.197562101765882971e+02
1.999739942787412961e+00 5.197562888227886333e+02
1.999839964792254010e+00 5.197563242330046478e+02
1.999939986797095060e+00 5.197563163706577143e+02
2.000040008801936331e+00 4.915280695386685466e+02
2.000140030806777602e+00 4.914291665605290405e+02
2.000240052811618430e+00 4.913302738507019853e+02
2.000340074816459701e+00 4.912313929612077459e+02
2.000440096821300529e+00 4.911325254442205051e+02
2.000540118826141356e+00 4.910336728520331917e+02
2.000640140830982627e+00 4.909348367370176334e+02
2.000740162835823899e+00 4.908360186515866985e+02
2.000840184840664726e+00 4.907372201481543925e+02
2.000940206845505998e+00 4.906384427791010125e+02
2.001040228850347269e+00 4.905396880967309130e+02
2.001140250855187652e+00 4.904409576532369215e+02
2.001240272860028924e+00 4.903422530006614579e+02
2.001340294864870195e+00 4.902435756908557778e+02
2.001440316869711022e+00 4.901449272754464914e+02
2.001540338874552294e+00 4.900463093057921924e+02
2.001640360879393565e+00 4.899477233329482715e+02
2.001740382884234393e+00 4.898491709076276379e+02
2.001840404889075220e+00 4.897506535801616678e+02
2.001940426893916491e+00 4.896521729004639951e+02
2.002040448898757319e+00 4.895537304179890725e+02
2.002140470903598590e+00 4.894553276816962466e+02
2.002240492908439862e+00 4.893569662400119000e+02
2.002340514913280689e+00 4.892586476407880127e+02
2.002440536918121960e+00 4.891603734312675442e+02
2.002540558922962788e+00 4.890621451580435632e+02
2.002640580927804059e+00 4.889639643670218447e+02
2.002740602932644887e+00 4.888658326033828985e+02
2.002840624937486158e+00 4.887677514115442818e+02
2.002940646942326985e+00 4.886697223351200705e+02
2.003040668947168257e+00 4.885717469168852176e+02
2.003140690952009528e+00 4.884738266987366160e+02
2.003240712956850356e+00 4.883759632216529099e+02
2.003340734961691183e+00 4.882781580256601046e+02
2.003440756966532454e+00 4.881804126497900143e+02
2.003540778971373726e+00 4.880827286320445637e+02
2.003640800976214553e+00 4.879851075093552595e+02
2.003740822981055825e+00 4.878875508175482310e+02
2.003840844985896652e+00 4.877900600913026210e+02
2.003940866990737923e+00 4.876926368641168210e+02
2.004040888995578751e+00 4.875952826682655541e+02
2.004140911000420022e+00 4.874979990347665648e+02
2.004240933005260850e+00 4.874007874933396351e+02
2.004340955010102121e+00 4.873036495723693520e+02
2.004440977014943392e+00 4.872065867988683863e+02
2.004540999019784220e+00 4.871096006984392375e+02
2.004641021024625047e+00 4.870126927952346705e+02
2.004741043029466319e+00 4.869158646119216769e+02
2.004841065034307590e+00 4.868191176696446973e+02
2.004941087039148417e+00 4.867224534879854900e+02
2.005041109043989689e+00 4.866258735849269783e+02
2.005141131048830516e+00 4.865293794768159614e+02
2.005241153053671788e+00 4.864329726783242336e+02
2.005341175058512615e+00 4.863366547024113515e+02
2.005441197063353886e+00 4.862404270602889937e+02
2.005541219068194714e+00 4.861442912613809426e+02
2.005641241073035985e+00 4.860482488132879553e+02
2.005741263077877257e+00 4.859523012217477458e+02
2.005841285082718084e+00 4.858564499906012202e+02
2.005941307087559355e+00 4.857606966217518334e+02
2.006041329092400183e+00 4.856650426151309148e+02
2.006141351097241010e+00 4.855694894686590715e+02
2.006241373102082282e+00 4.854740386782091264e+02
2.006341395106923553e+00 4.853786917375703069e+02
2.006441417111764380e+00 4.852834501384102737e+02
2.006541439116605652e+00 4.851883153702377740e+02
2.006641461121446923e+00 4.850932889203673426e+02
2.006741483126287307e+00 4.849983722738806478e+02
2.006841505131128578e+00 4.849035669135912485e+02
2.006941527135969849e+00 4.848088743200071349e+02
2.007041549140810677e+00 4.847142959712937795e+02
2.007141571145651948e+00 4.846198333432390086e+02
2.007241593150493220e+00 4.845254879092148599e+02
2.007341615155334047e+00 4.844312611401416007e+02
2.007441637160174874e+00 4.843371545044525419e+02
2.007541659165016146e+00 4.842431694680556689e+02
2.007641681169856973e+00 4.841493074942988528e+02
2.007741703174698245e+00 4.840555700439342104e+02
2.007841725179539516e+00 4.839619585750795068e+02
2.007941747184380343e+00 4.838684745431852434e+02
2.008041769189221615e+00 4.837751194009960045e+02
2.008141791194062442e+00 4.836818945985167488e+02
2.008241813198903714e+00 4.835888015829749520e+02
2.008341835203744541e+00 4.834958417987869552e+02
2.008441857208585812e+00 4.834030166875202781e+02
2.008541879213426640e+00 4.833103276878603083e+02
2.008641901218267911e+00 4.832177762355717618e+02
2.008741923223109183e+00 4.831253637634668507e+02
2.008841945227950010e+00 4.830330917013664589e+02
2.008941967232790837e+00 4.829409614760675709e+02
2.009041989237632109e+00 4.828489745113063236e+02
2.009142011242473380e+00 4.827571322277246963e+02
2.009242033247314208e+00 4.826654360428325390e+02
2.009342055252155479e+00 4.825738873709761947e+02
2.009442077256996306e+00 4.824824876233018358e+02
2.009542099261837578e+00 4.823912382077187431e+02
2.009642121266678405e+00 4.823001405288696333e+02
2.009742143271519677e+00 4.822091959880913805e+02
2.009842165276360504e+00 4.821184059833826723e+02
2.009942187281201775e+00 4.820277719093697897e+02
2.010042209286043047e+00 4.819372951572698298e+02
2.010142231290883874e+00 4.818469771148609766e+02
2.010242253295724701e+00 4.817568191664446999e+02
2.010342275300565973e+00 4.816668226928122749e+02
2.010442297305407244e+00 4.815769890712120969e+02
2.010542319310248072e+00 4.814873196753154048e+02
2.010642341315089343e+00 4.813978158751818341e+02
2.010742363319930170e+00 4.813084790372261068e+02
2.010842385324771442e+00 4.812193105241850617e+02
2.010942407329612269e+00 4.811303116950841172e+02
2.011042429334453541e+00 4.810414839052032789e+02
2.011142451339294368e+00 4.809528285060441704e+02
2.011242473344135639e+00 4.808643468452970069e+02
2.011342495348976911e+00 4.807760402668081952e+02
2.011442517353817738e+00 4.806879101105463974e+02
2.011542539358659010e+00 4.805999577125704150e+02
2.011642561363499837e+00 4.805121844049961055e+02
2.011742583368340664e+00 4.804245915159635842e+02
2.011842605373181936e+00 4.803371803696057327e+02
2.011942627378023207e+00 4.802499522860153434e+02
2.012042649382864035e+00 4.801629085812119797e+02
2.012142671387705306e+00 4.800760505671118494e+02
2.012242693392546578e+00 4.799893795514927319e+02
2.012342715397386961e+00 4.799028968379649882e+02
2.012442737402228232e+00 4.798166037259392169e+02
2.012542759407069504e+00 4.797305015105928874e+02
2.012642781411910331e+00 4.796445914828405535e+02
2.012742803416751602e+00 4.795588749293020214e+02
2.012842825421592874e+00 4.794733531322696081e+02
2.012942847426433701e+00 4.793880273696797190e+02
2.013042869431274529e+00 4.793028989150790267e+02
2.013142891436115800e+00 4.792179690375944574e+02
2.013242913440956627e+00 4.791332390019038598e+02
2.013342935445797899e+00 4.790487100682026380e+02
2.013442957450639170e+00 4.789643834921758980e+02
2.013542979455479998e+00 4.788802605249645694e+02
2.013643001460320825e+00 4.787963424131392571e+02
2.013743023465162096e+00 4.787126303986666471e+02
2.013843045470003368e+00 4.786291257188817099e+02
2.013943067474844195e+00 4.785458296064546175e+02
2.014043089479685467e+00 4.784627432893657328e+02
2.014143111484526294e+00 4.783798679908708209e+02
2.014243133489367565e+00 4.782972049294762087e+02
2.014343155494208393e+00 4.782147553189048494e+02
2.014443177499049664e+00 4.781325203680702316e+02
2.014543199503890492e+00 4.780505012810468770e+02
2.014643221508731763e+00 4.779686992570395887e+02
2.014743243513573034e+00 4.778871154903557681e+02
2.014843265518413862e+00 4.778057511703773912e+02
2.014943287523255133e+00 4.777246074815307111e+02
2.015043309528095961e+00 4.776436856032593710e+02
2.015143331532937232e+00 4.775629867099939929e+02
2.015243353537778059e+00 4.774825119711271100e+02
2.015343375542619331e+00 4.774022625509826412e+02
2.015443397547460158e+00 4.773222396087878678e+02
2.015543419552301430e+00 4.772424442986482518e+02
2.015643441557142701e+00 4.771628777695157737e+02
2.015743463561983528e+00 4.770835411651661389e+02
2.015843485566824356e+00 4.770044356241670584e+02
2.015943507571665627e+00 4.769255622798549439e+02
2.016043529576506899e+00 4.768469222603041544e+02
2.016143551581347726e+00 4.767685166883035208e+02
2.016243573586188997e+00 4.766903466813265595e+02
2.016343595591029825e+00 4.766124133515074845e+02
2.016443617595870652e+00 4.765347178056134112e+02
2.016543639600711924e+00 4.764572611450175827e+02
2.016643661605553195e+00 4.763800444656752688e+02
2.016743683610394022e+00 4.763030688580948890e+02
2.016843705615235294e+00 4.762263354073151618e+02
2.016943727620076565e+00 4.761498451928768532e+02
2.017043749624917393e+00 4.760735992887990164e+02
2.017143771629758220e+00 4.759975987635523893e+02
2.017243793634599491e+00 4.759218446800361448e+02
2.017343815639440319e+00 4.758463380955493562e+02
2.017443837644281590e+00 4.757710800617701352e+02
2.017543859649122862e+00 4.756960716247282335e+02
2.017643881653963689e+00 4.756213138247806000e+02
2.017743903658804960e+00 4.755468076965883029e+02
2.017843925663645788e+00 4.754725542690910061e+02
2.017943947668486615e+00 4.753985545654836642e+02
2.018043969673327886e+00 4.753248096031924206e+02
2.018143991678169158e+00 4.752513203938498236e+02
2.018244013683009985e+00 4.751780879432728852e+02
2.018344035687851257e+00 4.751051132514384108e+02
2.018444057692692528e+00 4.750323973124602617e+02
2.018544079697533355e+00 4.749599411145653107e+02
2.018644101702374183e+00 4.748877456400725237e+02
2.018744123707215454e+00 4.748158118653675501e+02
2.018844145712056282e+00 4.747441407608820896e+02
2.018944167716897553e+00 4.746727332910706991e+02
2.019044189721738825e+00 4.746015904143879425e+02
2.019144211726579652e+00 4.745307130832678695e+02
2.019244233731420479e+00 4.744601022441003124e+02
2.019344255736261751e+00 4.743897588372087171e+02
2.019444277741103022e+00 4.743196837968326918e+02
2.019544299745943849e+00 4.742498780510999268e+02
2.019644321750785121e+00 4.741803425220122108e+02
2.019744343755625948e+00 4.741110781254168387e+02
2.019844365760467220e+00 4.740420857709917755e+02
2.019944387765308047e+00 4.739733663622213271e+02
2.020044409770149318e+00 4.739049207963785193e+02
2.020144431774990146e+00 4.738367499645011094e+02
2.020244453779831417e+00 4.737688547513743629e+02
2.020344475784672689e+00 4.737012360355093392e+02
2.020444497789513516e+00 4.736338946891237924e+02
2.020544519794354787e+00 4.735668315781219349e+02
2.020644541799195615e+00 4.735000475620753377e+02
2.020744563804036886e+00 4.734335434942028655e+02
2.020844585808877714e+00 4.733673202213537365e+02
2.020944607813718985e+00 4.733013785839847287e+02
2.021044629818559812e+00 4.732357194161445477e+02
2.021144651823401084e+00 4.731703435454541591e+02
2.021244673828242355e+00 4.731052517930882004e+02
2.021344695833083183e+00 4.730404449737563937e+02
2.021444717837924010e+00 4.729759238956866625e+02
2.021544739842765281e+00 4.729116893606067151e+02
2.021644761847606553e+00 4.728477421637240923e+02
2.021744783852447380e+00 4.727840830937122973e+02
2.021844805857288652e+00 4.727207129326921518e+02
2.021944827862129479e+00 4.726576324562121272e+02
2.022044849866970306e+00 4.725948424332364084e+02
2.022144871871811578e+00 4.725323436261214738e+02
2.022244893876652849e+00 4.724701367906061478e+02
2.022344915881493677e+00 4.724082226757903982e+02
2.022444937886334948e+00 4.723466020241221486e+02
2.022544959891176219e+00 4.722852755713784063e+02
2.022644981896017047e+00 4.722242440466520748e+02
2.022745003900857874e+00 4.721635081723346730e+02
2.022845025905699146e+00 4.721030686641010448e+02
2.022945047910539973e+00 4.720429262308940110e+02
2.023045069915381244e+00 4.719830815749106137e+02
2.023145091920222516e+00 4.719235353915842097e+02
2.023245113925063343e+00 4.718642883695736714e+02
2.023345135929904615e+00 4.718053411907453096e+02
2.023445157934745442e+00 4.717466945301592887e+02
2.023545179939586269e+00 4.716883490560588825e+02
2.023645201944427541e+00 4.716303054298504662e+02
2.023745223949268812e+00 4.715725643060948187e+02
2.023845245954109640e+00 4.715151263324913202e+02
2.023945267958950911e+00 4.714579921498651061e+02
2.024045289963792182e+00 4.714011623921528553e+02
2.024145311968633010e+00 4.713446376863907972e+02
2.024245333973473837e+00 4.712884186527024895e+02
2.024345355978315109e+00 4.712325059042850626e+02
2.024445377983155936e+00 4.711769000473963729e+02
2.024545399987997207e+00 4.711216016813435772e+02
2.024645421992838479e+00 4.710666113984718777e+02
2.024745443997679306e+00 4.710119297841507660e+02
2.024845466002520133e+00 4.709575574167636205e+02
2.024945488007361405e+00 4.709034948676963381e+02
2.025045510012202676e+00 4.708497427013248284e+02
2.025145532017043504e+00 4.707963014750059756e+02
2.025245554021884775e+00 4.707431717390645645e+02
2.025345576026725603e+00 4.706903540367842425e+02
2.025445598031566874e+00 4.706378489043958666e+02
2.025545620036407701e+00 4.705856568710684655e+02
2.025645642041248973e+00 4.705337784588980412e+02
2.025745664046089800e+00 4.704822141828975646e+02
2.025845686050931072e+00 4.704309645509888469e+02
2.025945708055772343e+00 4.703800300639913416e+02
2.026045730060613170e+00 4.703294112156140159e+02
2.026145752065454442e+00 4.702791084924450615e+02
2.026245774070295269e+00 4.702291223739437100e+02
2.026345796075136541e+00 4.701794533324317058e+02
2.026445818079977368e+00 4.701301018330850070e+02
2.026545840084818639e+00 4.700810683339246339e+02
2.026645862089659467e+00 4.700323532858089948e+02
2.026745884094500738e+00 4.699839571324259850e+02
2.026845906099342010e+00 4.699358803102850857e+02
2.026945928104182837e+00 4.698881232487105422e+02
2.027045950109023664e+00 4.698406863698328948e+02
2.027145972113864936e+00 4.697935700885830670e+02
2.027245994118706207e+00 4.697467748126845208e+02
2.027346016123547034e+00 4.697003009426475728e+02
2.027446038128388306e+00 4.696541488717613788e+02
2.027546060133229133e+00 4.696083189860893299e+02
2.027646082138069961e+00 4.695628116644621741e+02
2.027746104142911232e+00 4.695176272784710250e+02
2.027846126147752503e+00 4.694727661924638937e+02
2.027946148152593331e+00 4.694282287635380726e+02
2.028046170157434602e+00 4.693840153415370651e+02
2.028146192162275874e+00 4.693401262690427984e+02
2.028246214167116701e+00 4.692965618813728952e+02
2.028346236171957528e+00 4.692533225065753868e+02
2.028446258176798800e+00 4.692104084654230292e+02
2.028546280181639627e+00 4.691678200714113700e+02
2.028646302186480899e+00 4.691255576307528941e+02
2.028746324191322170e+00 4.690836214423731008e+02
2.028846346196162997e+00 4.690420117979072074e+02
2.028946368201004269e+00 4.690007289816978187e+02
2.029046390205845096e+00 4.689597732707895830e+02
2.029146412210685924e+00 4.689191449349273739e+02
2.029246434215527195e+00 4.688788442365533911e+02
2.029346456220368466e+00 4.688388714308042040e+02
2.029446478225209294e+00 4.687992267655077967e+02
2.029546500230050565e+00 4.687599104811824304e+02
2.029646522234891837e+00 4.687209228110336880e+02
2.029746544239732664e+00 4.686822639809527686e+02
2.029846566244573491e+00 4.686439342095156917e+02
2.029946588249414763e+00 4.686059337079805118e+02
2.030046610254255590e+00 4.685682626802857840e+02
2.030146632259096862e+00 4.685309213230518139e+02
2.030246654263938133e+00 4.684939098255781573e+02
2.030346676268778960e+00 4.684572283698416300e+02
2.030446698273619788e+00 4.684208771304991501e+02
2.030546720278461059e+00 4.683848562748855784e+02
2.030646742283302331e+00 4.683491659630124104e+02
2.030746764288143158e+00 4.683138063475707895e+02
2.030846786292984429e+00 4.682787775739294034e+02
2.030946808297825257e+00 4.682440797801368149e+02
2.031046830302666528e+00 4.682097130969207228e+02
2.031146852307507356e+00 4.681756776476898381e+02
2.031246874312348627e+00 4.681419735485352476e+02
2.031346896317189454e+00 4.681086009082312103e+02
2.031446918322030726e+00 4.680755598282362371e+02
2.031546940326871997e+00 4.680428504026962173e+02
2.031646962331712825e+00 4.680104727184458966e+02
2.031746984336553652e+00 4.679784268550101274e+02
2.031847006341394923e+00 4.679467128846071091e+02
2.031947028346236195e+00 4.679153308721496956e+02
2.032047050351077022e+00 4.678842808752522160e+02
2.032147072355918294e+00 4.678535629442271784e+02
2.032247094360759121e+00 4.678231771220931705e+02
2.032347116365600392e+00 4.677931234445767359e+02
2.032447138370441220e+00 4.677634019401160117e+02
2.032547160375282491e+00 4.677340126298636278e+02
2.032647182380123319e+00 4.677049555276926185e+02
2.032747204384964590e+00 4.676762306401988099e+02
2.032847226389805861e+00 4.676478379667051968e+02
2.032947248394646689e+00 4.676197774992684799e+02
2.033047270399487960e+00 4.675920492226814531e+02
2.033147292404328788e+00 4.675646531144790288e+02
2.033247314409169615e+00 4.675375891449438654e+02
2.033347336414010886e+00 4.675108572771105742e+02
2.033447358418852158e+00 4.674844574667719712e+02
2.033547380423692985e+00 4.674583896624851604e+02
2.033647402428534257e+00 4.674326538055764217e+02
2.033747424433375528e+00 4.674072498301475207e+02
2.033847446438215911e+00 4.673821776630845761e+02
2.033947468443057183e+00 4.673574372240598791e+02
2.034047490447898454e+00 4.673330284255425227e+02
2.034147512452739281e+00 4.673089511728045409e+02
2.034247534457580553e+00 4.672852053639259111e+02
2.034347556462421824e+00 4.672617908898047858e+02
2.034447578467262652e+00 4.672387076341632905e+02
2.034547600472103479e+00 4.672159554735559936e+02
2.034647622476944751e+00 4.671935342773758748e+02
2.034747644481785578e+00 4.671714439078660348e+02
2.034847666486626849e+00 4.671496842201242998e+02
2.034947688491468121e+00 4.671282550621141354e+02
2.035047710496308948e+00 4.671071562746723203e+02
2.035147732501150220e+00 4.670863876915179844e+02
2.035247754505991047e+00 4.670659491392609652e+02
2.035347776510832318e+00 4.670458404374123802e+02
2.035447798515673146e+00 4.670260613983940630e+02
2.035547820520514417e+00 4.670066118275453846e+02
2.035647842525355244e+00 4.669874915231372938e+02
2.035747864530196516e+00 4.669687002763793657e+02
2.035847886535037787e+00 4.669502378714308861e+02
2.035947908539878615e+00 4.669321040854114244e+02
2.036047930544719442e+00 4.669142986884102697e+02
2.036147952549560713e+00 4.668968214435001300e+02
2.036247974554401985e+00 4.668796721067437261e+02
2.036347996559242812e+00 4.668628504272086275e+02
2.036448018564084084e+00 4.668463561469772003e+02
2.036548040568924911e+00 4.668301890011579189e+02
2.036648062573766182e+00 4.668143487178977011e+02
2.036748084578607010e+00 4.667988350183918556e+02
2.036848106583448281e+00 4.667836476168997137e+02
2.036948128588289109e+00 4.667687862207541230e+02
2.037048150593130380e+00 4.667542505303733265e+02
2.037148172597971651e+00 4.667400402392769934e+02
2.037248194602812479e+00 4.667261550340963936e+02
2.037348216607653306e+00 4.667125945945859371e+02
2.037448238612494578e+00 4.666993585936407953e+02
2.037548260617335849e+00 4.666864466973070762e+02
2.037648282622176676e+00 4.666738585647951822e+02
2.037748304627017948e+00 4.666615938484957269e+02
2.037848326631858775e+00 4.666496521939909599e+02
2.037948348636700047e+00 4.666380332400716497e+02
2.038048370641540874e+00 4.666267366187476568e+02
2.038148392646382145e+00 4.666157619552657820e+02
2.038248414651222973e+00 4.666051088681229544e+02
2.038348436656064244e+00 4.665947769690808400e+02
2.038448458660905516e+00 4.665847658631814170e+02
2.038548480665746343e+00 4.665750751487611296e+02
2.038648502670587614e+00 4.665657044174678845e+02
2.038748524675428442e+00 4.665566532542753180e+02
2.038848546680269269e+00 4.665479212374976896e+02
2.038948568685110541e+00 4.665395079388088106e+02
2.039048590689951812e+00 4.665314129232546634e+02
2.039148612694792639e+00 4.665236357492711363e+02
2.039248634699633911e+00 4.665161759687001677e+02
2.039348656704475182e+00 4.665090331268072532e+02
2.039448678709315566e+00 4.665022067622973623e+02
2.039548700714156837e+00 4.664956964073302288e+02
2.039648722718998108e+00 4.664895015875407580e+02
2.039748744723838936e+00 4.664836218220532373e+02
2.039848766728680207e+00 4.664780566235015158e+02
2.039948788733521479e+00 4.664728054980438401e+02
2.040048810738362306e+00 4.664678679453818404e+02
