1.800032007681843460e+00 5.169638129334222185e+02
1.800132031687604828e+00 5.169550343862015325e+02
1.800232055693366195e+00 5.169462606397864874e+02
1.800332079699127563e+00 5.169374918791488653e+02
1.800432103704888931e+00 5.169287282896983697e+02
1.800532127710650299e+00 5.169199700572771690e+02
1.800632151716411666e+00 5.169112173681548938e+02
1.800732175722173256e+00 5.169024704090222713e+02
1.800832199727934846e+00 5.168937293669854398e+02
1.800932223733695992e+00 5.168849944295628802e+02
1.801032247739457581e+00 5.168762657846782531e+02
1.801132271745218727e+00 5.168675436206552831e+02
1.801232295750980317e+00 5.168588281262124156e+02
1.801332319756741462e+00 5.168501194904572458e+02
1.801432343762503052e+00 5.168414179028793569e+02
1.801532367768264198e+00 5.168327235533490693e+02
1.801632391774025788e+00 5.168240366321069814e+02
1.801732415779786933e+00 5.168153573297613548e+02
1.801832439785548523e+00 5.168066858372817478e+02
1.801932463791309669e+00 5.167980223459940134e+02
1.802032487797071258e+00 5.167893670475712042e+02
1.802132511802832404e+00 5.167807201340343681e+02
1.802232535808593994e+00 5.167720817977398156e+02
1.802332559814355140e+00 5.167634522313782099e+02
1.802432583820116729e+00 5.167548316279668370e+02
1.802532607825878319e+00 5.167462201808431246e+02
1.802632631831639687e+00 5.167376180836615731e+02
1.802732655837401055e+00 5.167290255303846607e+02
1.802832679843162422e+00 5.167204427152795461e+02
1.802932703848923790e+00 5.167118698329098834e+02
1.803032727854685158e+00 5.167033070781319566e+02
1.803132751860446525e+00 5.166947546460877447e+02
1.803232775866207893e+00 5.166862127321990101e+02
1.803332799871969261e+00 5.166776815321610457e+02
1.803432823877730629e+00 5.166691612419371040e+02
1.803532847883491996e+00 5.166606520577530546e+02
1.803632871889253364e+00 5.166521541760894252e+02
1.803732895895014732e+00 5.166436677936778779e+02
1.803832919900776099e+00 5.166351931074914319e+02
1.803932943906537467e+00 5.166267303147426446e+02
1.804032967912298835e+00 5.166182796128754262e+02
1.804132991918060203e+00 5.166098411995567403e+02
1.804233015923821570e+00 5.166014152726750126e+02
1.804333039929582938e+00 5.165930020303305810e+02
1.804433063935344528e+00 5.165846016708296702e+02
1.804533087941105896e+00 5.165762143926798444e+02
1.804633111946867263e+00 5.165678403945828450e+02
1.804733135952628631e+00 5.165594798754274279e+02
1.804833159958389999e+00 5.165511330342843621e+02
1.804933183964151366e+00 5.165428000703996076e+02
1.805033207969912734e+00 5.165344811831882907e+02
1.805133231975674102e+00 5.165261765722276550e+02
1.805233255981435470e+00 5.165178864372511498e+02
1.805333279987196837e+00 5.165096109781425184e+02
1.805433303992958205e+00 5.165013503949281812e+02
1.805533327998719573e+00 5.164931048877715511e+02
1.805633352004480940e+00 5.164848746569683726e+02
1.805733376010242308e+00 5.164766599029350118e+02
1.805833400016003676e+00 5.164684608262086840e+02
1.805933424021765044e+00 5.164602776274359712e+02
1.806033448027526411e+00 5.164521105073688432e+02
1.806133472033287779e+00 5.164439596668572676e+02
1.806233496039049369e+00 5.164358253068418207e+02
1.806333520044810736e+00 5.164277076283493670e+02
1.806433544050572104e+00 5.164196068324845328e+02
1.806533568056333472e+00 5.164115231204241354e+02
1.806633592062094840e+00 5.164034566934097938e+02
1.806733616067856207e+00 5.163954077527422442e+02
1.806833640073617575e+00 5.163873764997742910e+02
1.806933664079378943e+00 5.163793631359033043e+02
1.807033688085140311e+00 5.163713678625663306e+02
1.807133712090901678e+00 5.163633908812328173e+02
1.807233736096663046e+00 5.163554323933963133e+02
1.807333760102424414e+00 5.163474926005698080e+02
1.807433784108185781e+00 5.163395717042785691e+02
1.807533808113947149e+00 5.163316699060526389e+02
1.807633832119708517e+00 5.163237874074209230e+02
1.807733856125469885e+00 5.163159244099042553e+02
1.807833880131231252e+00 5.163080811150080081e+02
1.807933904136992620e+00 5.163002577242165216e+02
1.808033928142753988e+00 5.162924544389856010e+02
1.808133952148515800e+00 5.162846714607353533e+02
1.808233976154276945e+00 5.162769089908447313e+02
1.808334000160038535e+00 5.162691672306427790e+02
1.808434024165799681e+00 5.162614463814035162e+02
1.808534048171561270e+00 5.162537466443386620e+02
1.808634072177322416e+00 5.162460682205905869e+02
1.808734096183084006e+00 5.162384113112249224e+02
1.808834120188845151e+00 5.162307761172249911e+02
1.808934144194606741e+00 5.162231628394838481e+02
1.809034168200367887e+00 5.162155716787980282e+02
1.809134192206129477e+00 5.162080028358608388e+02
1.809234216211890622e+00 5.162004565112542878e+02
1.809334240217652212e+00 5.161929329054445361e+02
1.809434264223413358e+00 5.161854322187712114e+02
1.809534288229174948e+00 5.161779546514449066e+02
1.809634312234936093e+00 5.161705004035375168e+02
1.809734336240697683e+00 5.161630696749746221e+02
1.809834360246458829e+00 5.161556626655320770e+02
1.809934384252220640e+00 5.161482795748253238e+02
1.810034408257982008e+00 5.161409206023046181e+02
1.810134432263743376e+00 5.161335859472483207e+02
1.810234456269504744e+00 5.161262758087527800e+02
1.810334480275266111e+00 5.161189903857306263e+02
1.810434504281027479e+00 5.161117298768984938e+02
1.810534528286788847e+00 5.161044944807741786e+02
1.810634552292550215e+00 5.160972843956675433e+02
1.810734576298311582e+00 5.160900998196732417e+02
1.810834600304072950e+00 5.160829409506657157e+02
1.810934624309834318e+00 5.160758079862896466e+02
1.811034648315595685e+00 5.160687011239566573e+02
1.811134672321357053e+00 5.160616205608332621e+02
1.811234696327118421e+00 5.160545664938377968e+02
1.811334720332879789e+00 5.160475391196332566e+02
1.811434744338641156e+00 5.160405386346180876e+02
1.811534768344402524e+00 5.160335652349209568e+02
1.811634792350163892e+00 5.160266191163938174e+02
1.811734816355925259e+00 5.160197004746025868e+02
1.811834840361686849e+00 5.160128095048245314e+02
1.811934864367448217e+00 5.160059464020366704e+02
1.812034888373209585e+00 5.159991113609111153e+02
1.812134912378970952e+00 5.159923045758091575e+02
1.812234936384732320e+00 5.159855262407714918e+02
1.812334960390493688e+00 5.159787765495125313e+02
1.812434984396255055e+00 5.159720556954149515e+02
1.812535008402016423e+00 5.159653638715199122e+02
1.812635032407777791e+00 5.159587012705228517e+02
1.812735056413539159e+00 5.159520680847632548e+02
1.812835080419300526e+00 5.159454645062212421e+02
1.812935104425061894e+00 5.159388907265079069e+02
1.813035128430823262e+00 5.159323469368597443e+02
1.813135152436584629e+00 5.159258333281311479e+02
1.813235176442345997e+00 5.159193500907880434e+02
1.813335200448107365e+00 5.159128974148987936e+02
1.813435224453868733e+00 5.159064754901311289e+02
1.813535248459630100e+00 5.159000845057414608e+02
1.813635272465391690e+00 5.158937246505703342e+02
1.813735296471153058e+00 5.158873961130337875e+02
1.813835320476914426e+00 5.158810990811170996e+02
1.813935344482675793e+00 5.158748337423689918e+02
1.814035368488437161e+00 5.158686002838931017e+02
1.814135392494198529e+00 5.158623988923413890e+02
1.814235416499959896e+00 5.158562297539075416e+02
1.814335440505721264e+00 5.158500930543198137e+02
1.814435464511482632e+00 5.158439889788351138e+02
1.814535488517244000e+00 5.158379177122308192e+02
1.814635512523005367e+00 5.158318794387982962e+02
1.814735536528766735e+00 5.158258743423352826e+02
1.814835560534528103e+00 5.158199026061419090e+02
1.814935584540289470e+00 5.158139644130087618e+02
1.815035608546050838e+00 5.158080599452156321e+02
1.815135632551812206e+00 5.158021893845209433e+02
1.815235656557573574e+00 5.157963529121565216e+02
1.815335680563334941e+00 5.157905507088186141e+02
1.815435704569096753e+00 5.157847829546651610e+02
1.815535728574857899e+00 5.157790498293045403e+02
1.815635752580619489e+00 5.157733515117918159e+02
1.815735776586380634e+00 5.157676881806204392e+02
1.815835800592142224e+00 5.157620600137162228e+02
1.815935824597903370e+00 5.157564671884299514e+02
1.816035848603664959e+00 5.157509098815311290e+02
1.816135872609426105e+00 5.157453882692013849e+02
1.816235896615187695e+00 5.157399025270268567e+02
1.816335920620948841e+00 5.157344528299917101e+02
1.816435944626710430e+00 5.157290393524727961e+02
1.816535968632471576e+00 5.157236622682311236e+02
1.816635992638233166e+00 5.157183217504067443e+02
1.816736016643994311e+00 5.157130179715099985e+02
1.816836040649755901e+00 5.157077511034170811e+02
1.816936064655517047e+00 5.157025213173621978e+02
1.817036088661278637e+00 5.156973287839325621e+02
1.817136112667039782e+00 5.156921736730577095e+02
1.817236136672801372e+00 5.156870561540075641e+02
1.817336160678562962e+00 5.156819763953834581e+02
1.817436184684324330e+00 5.156769345651125604e+02
1.817536208690085697e+00 5.156719308304391234e+02
1.817636232695847065e+00 5.156669653579218675e+02
1.817736256701608433e+00 5.156620383134239773e+02
1.817836280707369800e+00 5.156571498621075307e+02
1.817936304713131168e+00 5.156523001684275869e+02
1.818036328718892536e+00 5.156474893961260477e+02
1.818136352724653904e+00 5.156427177082234721e+02
1.818236376730415271e+00 5.156379852670152104e+02
1.818336400736176639e+00 5.156332922340621963e+02
1.818436424741938007e+00 5.156286387701866261e+02
1.818536448747699374e+00 5.156240250354643422e+02
1.818636472753460742e+00 5.156194511892191485e+02
1.818736496759222110e+00 5.156149173900165579e+02
1.818836520764983478e+00 5.156104237956571978e+02
1.818936544770744845e+00 5.156059705631696488e+02
1.819036568776506213e+00 5.156015578488063511e+02
1.819136592782267803e+00 5.155971858080351922e+02
1.819236616788029171e+00 5.155928545955331401e+02
1.819336640793790538e+00 5.155885643651824921e+02
1.819436664799551906e+00 5.155843152700631435e+02
1.819536688805313274e+00 5.155801074624448574e+02
1.819636712811074641e+00 5.155759410937837401e+02
1.819736736816836009e+00 5.155718163147151927e+02
1.819836760822597377e+00 5.155677332750464075e+02
1.819936784828358745e+00 5.155636921237521619e+02
1.820036808834120112e+00 5.155596930089676562e+02
1.820136832839881480e+00 5.155557360779844203e+02
1.820236856845642848e+00 5.155518214772398551e+02
1.820336880851404215e+00 5.155479493523163228e+02
1.820436904857165583e+00 5.155441198479325067e+02
1.820536928862926951e+00 5.155403331079360214e+02
1.820636952868688319e+00 5.155365892753017079e+02
1.820736976874449686e+00 5.155328884921218560e+02
1.820837000880211054e+00 5.155292308996026804e+02
1.820937024885972422e+00 5.155256166380562490e+02
1.821037048891734011e+00 5.155220458468969582e+02
1.821137072897495379e+00 5.155185186646342572e+02
1.821237096903256747e+00 5.155150352288675322e+02
1.821337120909018115e+00 5.155115956762803080e+02
1.821437144914779482e+00 5.155082001426330862e+02
1.821537168920540850e+00 5.155048487627600480e+02
1.821637192926302218e+00 5.155015416705618918e+02
1.821737216932063586e+00 5.154982789990010588e+02
1.821837240937824953e+00 5.154950608800934333e+02
1.821937264943586321e+00 5.154918874449066379e+02
1.822037288949347689e+00 5.154887588235523026e+02
1.822137312955109056e+00 5.154856751451804939e+02
1.822237336960870424e+00 5.154826365379745994e+02
1.822337360966631792e+00 5.154796431291459839e+02
1.822437384972393160e+00 5.154766950449279648e+02
1.822537408978154527e+00 5.154737924105708089e+02
1.822637432983915895e+00 5.154709353503365037e+02
1.822737456989677263e+00 5.154681239874927314e+02
1.822837480995438852e+00 5.154653584443075260e+02
1.822937505001200442e+00 5.154626388420454077e+02
1.823037529006961588e+00 5.154599653009602207e+02
1.823137553012723178e+00 5.154573379402905857e+02
1.823237577018484323e+00 5.154547568782556937e+02
1.823337601024245913e+00 5.154522222320471201e+02
1.823437625030007059e+00 5.154497341178276884e+02
1.823537649035768649e+00 5.154472926507239663e+02
1.823637673041529794e+00 5.154448979448201271e+02
1.823737697047291384e+00 5.154425501131561305e+02
1.823837721053052530e+00 5.154402492677193095e+02
1.823937745058814119e+00 5.154379955194419836e+02
1.824037769064575265e+00 5.154357889781940685e+02
1.824137793070336855e+00 5.154336297527815987e+02
1.824237817076098001e+00 5.154315179509370637e+02
1.824337841081859590e+00 5.154294536793182715e+02
1.824437865087620736e+00 5.154274370435031187e+02
1.824537889093382326e+00 5.154254681479819737e+02
1.824637913099143471e+00 5.154235470961568808e+02
1.824737937104905283e+00 5.154216739903334883e+02
1.824837961110666651e+00 5.154198489317188887e+02
1.824937985116428019e+00 5.154180720204146837e+02
1.825038009122189386e+00 5.154163433554131188e+02
1.825138033127950754e+00 5.154146630345939002e+02
1.825238057133712122e+00 5.154130311547177143e+02
1.825338081139473490e+00 5.154114478114222493e+02
1.825438105145234857e+00 5.154099130992184428e+02
1.825538129150996225e+00 5.154084271114845706e+02
1.825638153156757593e+00 5.154069899404638591e+02
1.825738177162518960e+00 5.154056016772574367e+02
1.825838201168280328e+00 5.154042624118227423e+02
1.825938225174041696e+00 5.154029722329669312e+02
1.826038249179803064e+00 5.154017312283436922e+02
1.826138273185564431e+00 5.154005394844492685e+02
1.826238297191325799e+00 5.153993970866172276e+02
1.826338321197087167e+00 5.153983041190155063e+02
1.826438345202848534e+00 5.153972606646403847e+02
1.826538369208610124e+00 5.153962668053148946e+02
1.826638393214371492e+00 5.153953226216826806e+02
1.826738417220132860e+00 5.153944281932051581e+02
1.826838441225894227e+00 5.153935835981563969e+02
1.826938465231655595e+00 5.153927889136209615e+02
1.827038489237416963e+00 5.153920442154878856e+02
1.827138513243178330e+00 5.153913495784480574e+02
1.827238537248939698e+00 5.153907050759908088e+02
1.827338561254701066e+00 5.153901107803980040e+02
1.827438585260462434e+00 5.153895667627424473e+02
1.827538609266223801e+00 5.153890730928844732e+02
1.827638633271985169e+00 5.153886298394652385e+02
1.827738657277746537e+00 5.153882370699067224e+02
1.827838681283507904e+00 5.153878948504046775e+02
1.827938705289269272e+00 5.153876032459284033e+02
1.828038729295030640e+00 5.153873623202152885e+02
1.828138753300792008e+00 5.153871721357669458e+02
1.828238777306553375e+00 5.153870327538465972e+02
1.828338801312314743e+00 5.153869442344768004e+02
1.828438825318076333e+00 5.153869066364337641e+02
1.828538849323837701e+00 5.153869200172448473e+02
1.828638873329599068e+00 5.153869844331863987e+02
1.828738897335360436e+00 5.153870999392792100e+02
1.828838921341121804e+00 5.153872665892859004e+02
1.828938945346883171e+00 5.153874844357077336e+02
1.829038969352644539e+00 5.153877535297800705e+02
1.829138993358405907e+00 5.153880739214733921e+02
1.829239017364167275e+00 5.153884456594846597e+02
1.829339041369928642e+00 5.153888687912397017e+02
1.829439065375690010e+00 5.153893433628846878e+02
1.829539089381451378e+00 5.153898694192894254e+02
1.829639113387212745e+00 5.153904470040390606e+02
1.829739137392974113e+00 5.153910761594356700e+02
1.829839161398735481e+00 5.153917569264904159e+02
1.829939185404496849e+00 5.153924893449266165e+02
1.830039209410258216e+00 5.153932734531724691e+02
1.830139233416019584e+00 5.153941092883607098e+02
1.830239257421781396e+00 5.153949968863256572e+02
1.830339281427542542e+00 5.153959362816001430e+02
1.830439305433304131e+00 5.153969275074130110e+02
1.830539329439065277e+00 5.153979705956878661e+02
1.830639353444826867e+00 5.153990655770387548e+02
1.830739377450588012e+00 5.154002124807691416e+02
1.830839401456349602e+00 5.154014113348687260e+02
1.830939425462110748e+00 5.154026621660120782e+02
1.831039449467872338e+00 5.154039649995565924e+02
1.831139473473633483e+00 5.154053198595374852e+02
1.831239497479395073e+00 5.154067267686700689e+02
1.831339521485156219e+00 5.154081857483437261e+02
1.831439545490917808e+00 5.154096968186219101e+02
1.831539569496678954e+00 5.154112599982403253e+02
1.831639593502440544e+00 5.154128753046028351e+02
1.831739617508201690e+00 5.154145427537823707e+02
1.831839641513963279e+00 5.154162623605170666e+02
1.831939665519724425e+00 5.154180341382079860e+02
1.832039689525486015e+00 5.154198580989209404e+02
1.832139713531247605e+00 5.154217342533789861e+02
1.832239737537008972e+00 5.154236626109664030e+02
1.832339761542770340e+00 5.154256431797227833e+02
1.832439785548531708e+00 5.154276759663438270e+02
1.832539809554293075e+00 5.154297609761790682e+02
1.832639833560054443e+00 5.154318982132307383e+02
1.832739857565815811e+00 5.154340876801509239e+02
1.832839881571577179e+00 5.154363293782417941e+02
1.832939905577338546e+00 5.154386233074541224e+02
1.833039929583099914e+00 5.154409694663837627e+02
1.833139953588861282e+00 5.154433678522743776e+02
1.833239977594622649e+00 5.154458184610108447e+02
1.833340001600384017e+00 5.154483212871239175e+02
1.833440025606145385e+00 5.154508763237848825e+02
1.833540049611906753e+00 5.154534835628051042e+02
1.833640073617668120e+00 5.154561429946371618e+02
1.833740097623429488e+00 5.154588546083709844e+02
1.833840121629190856e+00 5.154616183917347598e+02
1.833940145634952446e+00 5.154644343310950489e+02
1.834040169640713813e+00 5.154673024114520103e+02
1.834140193646475181e+00 5.154702226164412195e+02
1.834240217652236549e+00 5.154731949283349195e+02
1.834340241657997916e+00 5.154762193280366773e+02
1.834440265663759284e+00 5.154792957950841128e+02
1.834540289669520652e+00 5.154824243076473067e+02
1.834640313675282020e+00 5.154856048425278914e+02
1.834740337681043387e+00 5.154888373751589370e+02
1.834840361686804755e+00 5.154921218796044968e+02
1.834940385692566123e+00 5.154954583285582430e+02
1.835040409698327490e+00 5.154988466933455129e+02
1.835140433704088858e+00 5.155022869439197848e+02
1.835240457709850226e+00 5.155057790488640421e+02
1.835340481715611594e+00 5.155093229753920241e+02
1.835440505721372961e+00 5.155129186893439055e+02
1.835540529727134329e+00 5.155165661551918674e+02
1.835640553732895697e+00 5.155202653360340719e+02
1.835740577738657064e+00 5.155240161935986407e+02
1.835840601744418654e+00 5.155278186882429736e+02
1.835940625750180022e+00 5.155316727789520428e+02
1.836040649755941390e+00 5.155355784233400982e+02
1.836140673761702757e+00 5.155395355776511224e+02
1.836240697767464125e+00 5.155435441967575798e+02
1.836340721773225493e+00 5.155476042341617813e+02
1.836440745778986861e+00 5.155517156419961111e+02
1.836540769784748228e+00 5.155558783710224589e+02
1.836640793790509596e+00 5.155600923706334697e+02
1.836740817796270964e+00 5.155643575888535679e+02
1.836840841802032331e+00 5.155686739723370238e+02
1.836940865807793699e+00 5.155730414663723877e+02
1.837040889813555067e+00 5.155774600148789659e+02
1.837140913819316435e+00 5.155819295604098897e+02
1.837240937825077802e+00 5.155864500441532527e+02
1.837340961830839170e+00 5.155910214059292684e+02
1.837440985836600538e+00 5.155956435841976599e+02
1.837541009842361905e+00 5.156003165160506114e+02
1.837641033848123495e+00 5.156050401372203851e+02
1.837741057853885085e+00 5.156098143820746600e+02
1.837841081859646231e+00 5.156146391836234670e+02
1.837941105865407820e+00 5.156195144735139593e+02
1.838041129871168966e+00 5.156244401820370058e+02
1.838141153876930556e+00 5.156294162381241222e+02
1.838241177882691701e+00 5.156344425693519042e+02
1.838341201888453291e+00 5.156395191019404365e+02
1.838441225894214437e+00 5.156446457607565890e+02
1.838541249899976027e+00 5.156498224693150405e+02
1.838641273905737172e+00 5.156550491497775965e+02
1.838741297911498762e+00 5.156603257229587598e+02
1.838841321917259908e+00 5.156656521083227744e+02
1.838941345923021498e+00 5.156710282239878325e+02
1.839041369928782643e+00 5.156764539867273243e+02
1.839141393934544233e+00 5.156819293119702934e+02
1.839241417940305379e+00 5.156874541138049608e+02
1.839341441946066968e+00 5.156930283049772470e+02
1.839441465951828114e+00 5.156986517968972521e+02
1.839541489957589926e+00 5.157043244996369822e+02
1.839641513963351294e+00 5.157100463219339872e+02
1.839741537969112661e+00 5.157158171711931800e+02
1.839841561974874029e+00 5.157216369534882006e+02
1.839941585980635397e+00 5.157275055735645992e+02
1.840041609986396764e+00 5.157334229348402914e+02
1.840141633992158132e+00 5.157393889394094231e+02
1.840241657997919500e+00 5.157454034880427116e+02
1.840341682003680868e+00 5.157514664801909703e+02
1.840441706009442235e+00 5.157575778139872682e+02
1.840541730015203603e+00 5.157637373862485219e+02
1.840641754020964971e+00 5.157699450924785651e+02
1.840741778026726339e+00 5.157762008268698537e+02
1.840841802032487706e+00 5.157825044823067628e+02
1.840941826038249074e+00 5.157888559503674060e+02
1.841041850044010442e+00 5.157952551213254537e+02
1.841141874049771809e+00 5.158017018841559320e+02
1.841241898055533177e+00 5.158081961265327209e+02
1.841341922061294767e+00 5.158147377348366263e+02
1.841441946067056135e+00 5.158213265941540158e+02
1.841541970072817502e+00 5.158279625882825030e+02
1.841641994078578870e+00 5.158346455997301518e+02
1.841742018084340238e+00 5.158413755097240028e+02
1.841842042090101605e+00 5.158481521982063214e+02
1.841942066095862973e+00 5.158549755438434659e+02
1.842042090101624341e+00 5.158618454240244091e+02
1.842142114107385709e+00 5.158687617148669915e+02
1.842242138113147076e+00 5.158757242912197398e+02
1.842342162118908444e+00 5.158827330266644822e+02
1.842442186124669812e+00 5.158897877935202132e+02
1.842542210130431179e+00 5.158968884628468459e+02
1.842642234136192547e+00 5.159040349044472578e+02
1.842742258141953915e+00 5.159112269868719522e+02
1.842842282147715283e+00 5.159184645774212186e+02
1.842942306153476650e+00 5.159257475421495656e+02
1.843042330159238018e+00 5.159330757458684502e+02
1.843142354164999386e+00 5.159404490521518483e+02
1.843242378170760976e+00 5.159478673233356858e+02
1.843342402176522343e+00 5.159553304205254562e+02
1.843442426182283711e+00 5.159628382035981531e+02
1.843542450188045079e+00 5.159703905312060215e+02
1.843642474193806446e+00 5.159779872607803100e+02
1.843742498199567814e+00 5.159856282485368411e+02
1.843842522205329182e+00 5.159933133494758977e+02
1.843942546211090550e+00 5.160010424173912043e+02
1.844042570216851917e+00 5.160088153048686763e+02
1.844142594222613285e+00 5.160166318632946059e+02
1.844242618228374653e+00 5.160244919428570256e+02
1.844342642234136020e+00 5.160323953925525302e+02
1.844442666239897388e+00 5.160403420601872995e+02
1.844542690245658756e+00 5.160483317923823279e+02
1.844642714251420124e+00 5.160563644345785406e+02
1.844742738257181491e+00 5.160644398310413408e+02
1.844842762262942859e+00 5.160725578248627698e+02
1.844942786268704227e+00 5.160807182579676464e+02
1.845042810274466039e+00 5.160889209711174317e+02
1.845142834280227184e+00 5.160971658039153454e+02
1.845242858285988774e+00 5.161054525948082983e+02
1.845342882291749920e+00 5.161137811810958738e+02
1.845442906297511509e+00 5.161221513989305549e+02
1.845542930303272655e+00 5.161305630833239775e+02
1.845642954309034245e+00 5.161390160681544330e+02
1.845742978314795391e+00 5.161475101861647090e+02
1.845843002320556980e+00 5.161560452689733438e+02
1.845943026326318126e+00 5.161646211470779235e+02
1.846043050332079716e+00 5.161732376498567874e+02
1.846143074337840861e+00 5.161818946055780088e+02
1.846243098343602451e+00 5.161905918414009875e+02
1.846343122349363597e+00 5.161993291833842932e+02
1.846443146355125187e+00 5.162081064564877124e+02
1.846543170360886332e+00 5.162169234845798655e+02
1.846643194366647922e+00 5.162257800904417309e+02
1.846743218372409068e+00 5.162346760957725564e+02
1.846843242378170658e+00 5.162436113211944075e+02
1.846943266383932247e+00 5.162525855862573962e+02
1.847043290389693615e+00 5.162615987094462753e+02
1.847143314395454983e+00 5.162706505081830528e+02
1.847243338401216350e+00 5.162797407988357463e+02
1.847343362406977718e+00 5.162888693967199742e+02
1.847443386412739086e+00 5.162980361161080509e+02
1.847543410418500454e+00 5.163072407702310329e+02
1.847643434424261821e+00 5.163164831712874729e+02
1.847743458430023189e+00 5.163257631304455799e+02
1.847843482435784557e+00 5.163350804578517455e+02
1.847943506441545924e+00 5.163444349626349776e+02
1.848043530447307292e+00 5.163538264529115622e+02
1.848143554453068660e+00 5.163632547357923386e+02
1.848243578458830028e+00 5.163727196173877019e+02
1.848343602464591395e+00 5.163822209028126053e+02
1.848443626470352763e+00 5.163917583961948594e+02
1.848543650476114131e+00 5.164013319006772917e+02
1.848643674481875498e+00 5.164109412184267285e+02
1.848743698487637088e+00 5.164205861506387691e+02
1.848843722493398456e+00 5.164302664975430162e+02
1.848943746499159824e+00 5.164399820584105782e+02
1.849043770504921191e+00 5.164497326315588452e+02
1.849143794510682559e+00 5.164595180143575135e+02
1.849243818516443927e+00 5.164693380032365440e+02
1.849343842522205295e+00 5.164791923936895728e+02
1.849443866527966662e+00 5.164890809802819831e+02
1.849543890533728030e+00 5.164990035566567030e+02
1.849643914539489398e+00 5.165089599155397764e+02
1.849743938545250765e+00 5.165189498487474111e+02
1.849843962551012133e+00 5.165289731471918913e+02
1.849943986556773501e+00 5.165390296008888527e+02
1.850044010562534869e+00 5.165491189989614895e+02
1.850144034568296236e+00 5.165592411296493083e+02
1.850244058574057604e+00 5.165693957803143803e+02
1.850344082579818972e+00 5.165795827374438431e+02
1.850444106585580339e+00 5.165898017866642249e+02
1.850544130591341707e+00 5.166000527127396253e+02
1.850644154597103297e+00 5.166103352995846762e+02
1.850744178602864665e+00 5.166206493302667013e+02
1.850844202608626032e+00 5.166309945870157208e+02
1.850944226614387400e+00 5.166413708512284302e+02
1.851044250620148768e+00 5.166517779034767273e+02
1.851144274625910136e+00 5.166622155235148739e+02
1.851244298631671503e+00 5.166726834902838164e+02
1.851344322637432871e+00 5.166831815819198255e+02
1.851444346643194239e+00 5.166937095757621137e+02
1.851544370648955606e+00 5.167042672483571550e+02
1.851644394654716974e+00 5.167148543754678940e+02
1.851744418660478342e+00 5.167254707320792022e+02
1.851844442666239710e+00 5.167361160924074284e+02
1.851944466672001077e+00 5.167467902299028992e+02
1.852044490677762445e+00 5.167574929172609473e+02
1.852144514683523813e+00 5.167682239264274813e+02
1.852244538689285180e+00 5.167789830286060351e+02
1.852344562695046548e+00 5.167897699942649297e+02
1.852444586700808138e+00 5.168005845931451177e+02
1.852544610706569728e+00 5.168114265942656402e+02
1.852644634712330873e+00 5.168222957659327221e+02
1.852744658718092463e+00 5.168331918757462518e+02
1.852844682723853609e+00 5.168441146906078529e+02
1.852944706729615199e+00 5.168550639767252051e+02
1.853044730735376344e+00 5.168660394996235254e+02
1.853144754741137934e+00 5.168770410241500031e+02
1.853244778746899080e+00 5.168880683144830073e+02
1.853344802752660669e+00 5.168991211341377721e+02
1.853444826758421815e+00 5.169101992459745816e+02
1.853544850764183405e+00 5.169213024122069555e+02
1.853644874769944551e+00 5.169324303944083567e+02
1.853744898775706140e+00 5.169435829535194671e+02
1.853844922781467286e+00 5.169547598498566003e+02
1.853944946787228876e+00 5.169659608431178413e+02
1.854044970792990021e+00 5.169771856923928226e+02
1.854144994798751611e+00 5.169884341561687506e+02
1.854245018804512757e+00 5.169997059923375673e+02
1.854345042810274569e+00 5.170110009582044768e+02
1.854445066816035936e+00 5.170223188104969267e+02
1.854545090821797304e+00 5.170336593053694969e+02
1.854645114827558672e+00 5.170450221984143582e+02
1.854745138833320039e+00 5.170564072446660475e+02
1.854845162839081407e+00 5.170678141986122682e+02
1.854945186844842775e+00 5.170792428142004837e+02
1.855045210850604143e+00 5.170906928448443978e+02
1.855145234856365510e+00 5.171021640434347546e+02
1.855245258862126878e+00 5.171136561623438865e+02
1.855345282867888246e+00 5.171251689534365141e+02
1.855445306873649614e+00 5.171367021680756579e+02
1.855545330879410981e+00 5.171482555571305966e+02
1.855645354885172349e+00 5.171598288709869848e+02
1.855745378890933717e+00 5.171714218595527655e+02
1.855845402896695084e+00 5.171830342722660134e+02
1.855945426902456452e+00 5.171946658581048268e+02
1.856045450908217820e+00 5.172063163655930111e+02
1.856145474913979410e+00 5.172179855428103110e+02
1.856245498919740777e+00 5.172296731373985494e+02
1.856345522925502145e+00 5.172413788965717458e+02
1.856445546931263513e+00 5.172531025671215730e+02
1.856545570937024880e+00 5.172648438954287258e+02
1.856645594942786248e+00 5.172766026274682645e+02
1.856745618948547616e+00 5.172883785088201876e+02
1.856845642954308984e+00 5.173001712846734108e+02
1.856945666960070351e+00 5.173119806998402055e+02
1.857045690965831719e+00 5.173238064987590406e+02
1.857145714971593087e+00 5.173356484255054966e+02
1.857245738977354454e+00 5.173475062237997690e+02
1.857345762983115822e+00 5.173593796370148539e+02
1.857445786988877190e+00 5.173712684081843918e+02
1.857545810994638558e+00 5.173831722800127864e+02
1.857645835000399925e+00 5.173950909948812296e+02
1.857745859006161293e+00 5.174070242948580471e+02
1.857845883011922661e+00 5.174189719217044967e+02
1.857945907017684029e+00 5.174309336168851132e+02
1.858045931023445618e+00 5.174429091215769176e+02
1.858145955029206986e+00 5.174548981766744191e+02
1.858245979034968354e+00 5.174669005228014385e+02
1.858346003040729721e+00 5.174789159003180430e+02
1.858446027046491089e+00 5.174909440493277089e+02
1.858546051052252457e+00 5.175029847096875528e+02
1.858646075058013825e+00 5.175150376210181093e+02
1.858746099063775192e+00 5.175271025227071959e+02
1.858846123069536560e+00 5.175391791539224187e+02
1.858946147075297928e+00 5.175512672536182208e+02
1.859046171081059295e+00 5.175633665605446367e+02
1.859146195086820663e+00 5.175754768132542267e+02
1.859246219092582031e+00 5.175875977501136731e+02
1.859346243098343399e+00 5.175997291093093509e+02
1.859446267104104766e+00 5.176118706288576732e+02
1.859546291109866134e+00 5.176240220466124811e+02
1.859646315115627502e+00 5.176361831002742520e+02
1.859746339121388869e+00 5.176483535273986263e+02
1.859846363127150681e+00 5.176605330654039108e+02
1.859946387132911827e+00 5.176727214515815376e+02
1.860046411138673417e+00 5.176849184231029994e+02
1.860146435144434562e+00 5.176971237170293989e+02
1.860246459150196152e+00 5.177093370703182700e+02
1.860346483155957298e+00 5.177215582198350603e+02
1.860446507161718888e+00 5.177337869023593839e+02
1.860546531167480033e+00 5.177460228545946848e+02
1.860646555173241623e+00 5.177582658131761946e+02
1.860746579179002769e+00 5.177705155146798006e+02
1.860846603184764358e+00 5.177827716956310269e+02
1.860946627190525504e+00 5.177950340925126511e+02
1.861046651196287094e+00 5.178073024417753913e+02
1.861146675202048240e+00 5.178195764798437040e+02
1.861246699207809829e+00 5.178318559431261292e+02
1.861346723213570975e+00 5.178441405680237040e+02
1.861446747219332565e+00 5.178564300909390568e+02
1.861546771225093710e+00 5.178687242482831152e+02
1.861646795230855300e+00 5.178810227764862475e+02
1.861746819236616890e+00 5.178933254120058791e+02
1.861846843242378258e+00 5.179056318913336554e+02
1.861946867248139625e+00 5.179179419510064690e+02
1.862046891253900993e+00 5.179302553276133949e+02
1.862146915259662361e+00 5.179425717578058084e+02
1.862246939265423729e+00 5.179548909783043200e+02
1.862346963271185096e+00 5.179672127259083254e+02
1.862446987276946464e+00 5.179795367375043043e+02
1.862547011282707832e+00 5.179918627500759385e+02
1.862647035288469199e+00 5.180041905007108198e+02
1.862747059294230567e+00 5.180165197266086352e+02
1.862847083299991935e+00 5.180288501650920807e+02
1.862947107305753303e+00 5.180411815536145923e+02
1.863047131311514670e+00 5.180535136297680765e+02
1.863147155317276038e+00 5.180658461312921190e+02
1.863247179323037406e+00 5.180781787960827387e+02
1.863347203328798773e+00 5.180905113622011413e+02
1.863447227334560141e+00 5.181028435678815640e+02
1.863547251340321731e+00 5.181151751515411661e+02
1.863647275346083099e+00 5.181275058517874186e+02
1.863747299351844466e+00 5.181398354074265171e+02
1.863847323357605834e+00 5.181521635574736138e+02
1.863947347363367202e+00 5.181644900411595245e+02
1.864047371369128570e+00 5.181768145979409610e+02
1.864147395374889937e+00 5.181891369675078067e+02
1.864247419380651305e+00 5.182014568897923255e+02
1.864347443386412673e+00 5.182137741049773467e+02
1.864447467392174040e+00 5.182260883535049061e+02
1.864547491397935408e+00 5.182383993760851126e+02
1.864647515403696776e+00 5.182507069137051303e+02
1.864747539409458144e+00 5.182630107076361128e+02
1.864847563415219511e+00 5.182753104994426394e+02
1.864947587420980879e+00 5.182876060309916966e+02
1.865047611426742247e+00 5.182998970444608631e+02
1.865147635432503614e+00 5.183121832823466093e+02
1.865247659438264982e+00 5.183244644874720279e+02
1.865347683444026350e+00 5.183367404029971794e+02
1.865447707449787940e+00 5.183490107724257996e+02
1.865547731455549307e+00 5.183612753396143944e+02
1.865647755461310675e+00 5.183735338487814488e+02
1.865747779467072043e+00 5.183857860445142478e+02
1.865847803472833411e+00 5.183980316717781989e+02
1.865947827478594778e+00 5.184102704759263816e+02
1.866047851484356146e+00 5.184225022027050045e+02
1.866147875490117514e+00 5.184347265982645467e+02
1.866247899495878881e+00 5.184469434091676021e+02
1.866347923501640249e+00 5.184591523823947909e+02
1.866447947507401617e+00 5.184713532653570383e+02
1.866547971513162985e+00 5.184835458059012581e+02
1.866647995518924352e+00 5.184957297523185389e+02
1.866748019524685720e+00 5.185079048533540345e+02
1.866848043530447088e+00 5.185200708582145808e+02
1.866948067536208455e+00 5.185322275165758583e+02
1.867048091541969823e+00 5.185443745785913734e+02
1.867148115547731191e+00 5.185565117949028036e+02
1.867248139553492781e+00 5.185686389166440904e+02
1.867348163559254370e+00 5.185807556954532629e+02
1.867448187565015516e+00 5.185928618834774397e+02
1.867548211570777106e+00 5.186049572333852211e+02
1.867648235576538251e+00 5.186170414983703267e+02
1.867748259582299841e+00 5.186291144321623960e+02
1.867848283588060987e+00 5.186411757890351737e+02
1.867948307593822577e+00 5.186532253238119665e+02
1.868048331599583722e+00 5.186652627918772396e+02
1.868148355605345312e+00 5.186772879491834374e+02
1.868248379611106458e+00 5.186893005522565545e+02
1.868348403616868048e+00 5.187013003582078454e+02
1.868448427622629193e+00 5.187132871247403045e+02
1.868548451628390783e+00 5.187252606101552601e+02
1.868648475634151929e+00 5.187372205733624924e+02
1.868748499639913518e+00 5.187491667738879642e+02
1.868848523645674664e+00 5.187610989718787096e+02
1.868948547651436254e+00 5.187730169281159078e+02
1.869048571657197400e+00 5.187849204040174982e+02
1.869148595662959211e+00 5.187968091616498896e+02
1.869248619668720579e+00 5.188086829637336450e+02
1.869348643674481947e+00 5.188205415736522355e+02
1.869448667680243314e+00 5.188323847554590884e+02
1.869548691686004682e+00 5.188442122738864555e+02
1.869648715691766050e+00 5.188560238943517788e+02
1.869748739697527418e+00 5.188678193829662177e+02
1.869848763703288785e+00 5.188795985065431751e+02
1.869948787709050153e+00 5.188913610326029584e+02
1.870048811714811521e+00 5.189031067293842625e+02
1.870148835720572889e+00 5.189148353658488304e+02
1.870248859726334256e+00 5.189265467116907757e+02
1.870348883732095624e+00 5.189382405373430629e+02
1.870448907737856992e+00 5.189499166139855788e+02
1.870548931743618359e+00 5.189615747135529773e+02
1.870648955749379727e+00 5.189732146087403635e+02
1.870748979755141095e+00 5.189848360730135255e+02
1.870849003760902463e+00 5.189964388806141642e+02
1.870949027766664052e+00 5.190080228065683059e+02
1.871049051772425420e+00 5.190195876266922141e+02
1.871149075778186788e+00 5.190311331176034173e+02
1.871249099783948155e+00 5.190426590567224139e+02
1.871349123789709523e+00 5.190541652222854054e+02
1.871449147795470891e+00 5.190656513933477072e+02
1.871549171801232259e+00 5.190771173497935251e+02
1.871649195806993626e+00 5.190885628723407308e+02
1.871749219812754994e+00 5.190999877425504110e+02
1.871849243818516362e+00 5.191113917428323248e+02
1.871949267824277729e+00 5.191227746564532026e+02
1.872049291830039097e+00 5.191341362675419759e+02
1.872149315835800465e+00 5.191454763610993268e+02
1.872249339841561833e+00 5.191567947230028039e+02
1.872349363847323200e+00 5.191680911400144396e+02
1.872449387853084568e+00 5.191793653997879119e+02
1.872549411858845936e+00 5.191906172908742292e+02
1.872649435864607304e+00 5.192018466027307113e+02
1.872749459870368671e+00 5.192130531257257644e+02
1.872849483876130261e+00 5.192242366511482032e+02
1.872949507881891629e+00 5.192353969712099797e+02
1.873049531887652996e+00 5.192465338790566420e+02
1.873149555893414364e+00 5.192576471687742696e+02
1.873249579899175732e+00 5.192687366353919742e+02
1.873349603904937100e+00 5.192798020748927001e+02
1.873449627910698467e+00 5.192908432842177717e+02
1.873549651916459835e+00 5.193018600612748514e+02
1.873649675922221203e+00 5.193128522049432831e+02
1.873749699927982570e+00 5.193238195150811407e+02
1.873849723933743938e+00 5.193347617925305713e+02
1.873949747939505306e+00 5.193456788391262080e+02
1.874049771945266674e+00 5.193565704577002862e+02
1.874149795951028041e+00 5.193674364520896916e+02
1.874249819956789409e+00 5.193782766271406217e+02
1.874349843962550777e+00 5.193890907887175672e+02
1.874449867968312144e+00 5.193998787437064948e+02
1.874549891974073512e+00 5.194106403000246246e+02
1.874649915979835324e+00 5.194213752666231585e+02
1.874749939985596470e+00 5.194320834534946698e+02
1.874849963991358059e+00 5.194427646716809477e+02
1.874949987997119205e+00 5.194534187332754982e+02
1.875050012002880795e+00 5.194640454514334351e+02
1.875150036008641941e+00 5.194746446403746631e+02
1.875250060014403530e+00 5.194852161153906991e+02
1.875350084020164676e+00 5.194957596928508110e+02
1.875450108025926266e+00 5.195062751902075888e+02
1.875550132031687411e+00 5.195167624260031971e+02
1.875650156037449001e+00 5.195272212198743773e+02
1.875750180043210147e+00 5.195376513925588142e+02
1.875850204048971737e+00 5.195480527659009340e+02
1.875950228054732882e+00 5.195584251628567927e+02
1.876050252060494472e+00 5.195687684075001016e+02
1.876150276066255618e+00 5.195790823250285939e+02
1.876250300072017207e+00 5.195893667417678898e+02
1.876350324077778353e+00 5.195996214851791137e+02
1.876450348083539943e+00 5.196098463838618500e+02
1.876550372089301533e+00 5.196200412675618736e+02
1.876650396095062900e+00 5.196302059671755842e+02
1.876750420100824268e+00 5.196403403147539848e+02
1.876850444106585636e+00 5.196504441435106401e+02
1.876950468112347004e+00 5.196605172878246321e+02
1.877050492118108371e+00 5.196705595832469271e+02
1.877150516123869739e+00 5.196805708665057182e+02
1.877250540129631107e+00 5.196905509755104049e+02
1.877350564135392474e+00 5.197004997493568226e+02
1.877450588141153842e+00 5.197104170283341773e+02
1.877550612146915210e+00 5.197203026539273196e+02
1.877650636152676578e+00 5.197301564688232247e+02
1.877750660158437945e+00 5.197399783169161083e+02
1.877850684164199313e+00 5.197497680433110645e+02
1.877950708169960681e+00 5.197595254943292957e+02
1.878050732175722048e+00 5.197692505175141378e+02
1.878150756181483416e+00 5.197789429616341295e+02
1.878250780187244784e+00 5.197886026766881287e+02
1.878350804193006374e+00 5.197982295139102007e+02
1.878450828198767741e+00 5.198078233257737111e+02
1.878550852204529109e+00 5.198173839659972373e+02
1.878650876210290477e+00 5.198269112895466151e+02
1.878750900216051845e+00 5.198364051526409639e+02
1.878850924221813212e+00 5.198458654127575755e+02
1.878950948227574580e+00 5.198552919286353244e+02
1.879050972233335948e+00 5.198646845602781923e+02
1.879150996239097315e+00 5.198740431689618617e+02
1.879251020244858683e+00 5.198833676172350806e+02
1.879351044250620051e+00 5.198926577689260284e+02
1.879451068256381419e+00 5.199019134891456133e+02
1.879551092262142786e+00 5.199111346442905415e+02
1.879651116267904154e+00 5.199203211020500248e+02
1.879751140273665522e+00 5.199294727314057809e+02
1.879851164279426889e+00 5.199385894026401047e+02
1.879951188285188257e+00 5.199476709873357549e+02
1.880051212290949625e+00 5.199567173583836848e+02
1.880151236296710993e+00 5.199657283899839513e+02
1.880251260302472582e+00 5.199747039576496945e+02
1.880351284308233950e+00 5.199836439382123672e+02
1.880451308313995318e+00 5.199925482098240082e+02
1.880551332319756686e+00 5.200014166519609944e+02
1.880651356325518053e+00 5.200102491454280198e+02
1.880751380331279421e+00 5.200190455723608238e+02
1.880851404337040789e+00 5.200278058162305115e+02
1.880951428342802156e+00 5.200365297618466229e+02
1.881051452348563524e+00 5.200452172953589525e+02
1.881151476354324892e+00 5.200538683042632329e+02
1.881251500360086260e+00 5.200624826774030680e+02
1.881351524365847627e+00 5.200710603049724341e+02
1.881451548371608995e+00 5.200796010785212502e+02
1.881551572377370363e+00 5.200881048909540141e+02
1.881651596383131730e+00 5.200965716365382150e+02
1.881751620388893098e+00 5.201050012109027421e+02
1.881851644394654466e+00 5.201133935110435687e+02
1.881951668400415834e+00 5.201217484353253440e+02
1.882051692406177423e+00 5.201300658834842352e+02
1.882151716411939013e+00 5.201383457566312245e+02
1.882251740417700159e+00 5.201465879572542690e+02
1.882351764423461749e+00 5.201547923892212566e+02
1.882451788429222894e+00 5.201629589577830757e+02
1.882551812434984484e+00 5.201710875695741834e+02
1.882651836440745630e+00 5.201791781326174942e+02
1.882751860446507219e+00 5.201872305563256305e+02
1.882851884452268365e+00 5.201952447515024005e+02
1.882951908458029955e+00 5.202032206303490511e+02
1.883051932463791101e+00 5.202111581064586971e+02
1.883151956469552690e+00 5.202190570948281447e+02
1.883251980475313836e+00 5.202269175118533440e+02
1.883352004481075426e+00 5.202347392753338227e+02
1.883452028486836571e+00 5.202425223044733684e+02
1.883552052492598161e+00 5.202502665198854856e+02
1.883652076498359307e+00 5.202579718435905534e+02
1.883752100504120897e+00 5.202656381990211685e+02
1.883852124509882042e+00 5.202732655110230553e+02
1.883952148515643854e+00 5.202808537058566571e+02
1.884052172521405222e+00 5.202884027111983869e+02
1.884152196527166589e+00 5.202959124561434692e+02
1.884252220532927957e+00 5.203033828712068498e+02
1.884352244538689325e+00 5.203108138883246738e+02
1.884452268544450693e+00 5.203182054408562180e+02
1.884552292550212060e+00 5.203255574635846870e+02
1.884652316555973428e+00 5.203328698927200548e+02
1.884752340561734796e+00 5.203401426658981563e+02
1.884852364567496164e+00 5.203473757221838696e+02
1.884952388573257531e+00 5.203545690020717984e+02
1.885052412579018899e+00 5.203617224474872955e+02
1.885152436584780267e+00 5.203688360017880541e+02
1.885252460590541634e+00 5.203759096097643351e+02
1.885352484596303002e+00 5.203829432176398768e+02
1.885452508602064370e+00 5.203899367730756467e+02
1.885552532607825738e+00 5.203968902251663167e+02
1.885652556613587105e+00 5.204038035244444700e+02
1.885752580619348695e+00 5.204106766228801462e+02
1.885852604625110063e+00 5.204175094738817506e+02
1.885952628630871430e+00 5.204243020322967368e+02
1.886052652636632798e+00 5.204310542544121745e+02
1.886152676642394166e+00 5.204377660979556595e+02
1.886252700648155534e+00 5.204444375220958818e+02
1.886352724653916901e+00 5.204510684874425124e+02
1.886452748659678269e+00 5.204576589560466573e+02
1.886552772665439637e+00 5.204642088914015403e+02
1.886652796671201004e+00 5.204707182584435259e+02
1.886752820676962372e+00 5.204771870235510960e+02
1.886852844682723740e+00 5.204836151545454186e+02
1.886952868688485108e+00 5.204900026206903476e+02
1.887052892694246475e+00 5.204963493926941283e+02
1.887152916700007843e+00 5.205026554427067822e+02
1.887252940705769211e+00 5.205089207443226087e+02
1.887352964711530579e+00 5.205151452725766603e+02
1.887452988717291946e+00 5.205213290039498588e+02
1.887553012723053314e+00 5.205274719163636519e+02
1.887653036728814904e+00 5.205335739891826279e+02
1.887753060734576271e+00 5.205396352032134928e+02
1.887853084740337639e+00 5.205456555407042742e+02
1.887953108746099007e+00 5.205516349853452311e+02
1.888053132751860375e+00 5.205575735222662388e+02
1.888153156757621742e+00 5.205634711380389490e+02
1.888253180763383110e+00 5.205693278206734931e+02
1.888353204769144478e+00 5.205751435596196188e+02
1.888453228774905845e+00 5.205809183457661220e+02
1.888553252780667213e+00 5.205866521714384589e+02
1.888653276786428581e+00 5.205923450303998834e+02
1.888753300792189949e+00 5.205979969178486044e+02
1.888853324797951316e+00 5.206036078304188095e+02
1.888953348803712684e+00 5.206091777661787319e+02
1.889053372809474052e+00 5.206147067246297411e+02
1.889153396815235419e+00 5.206201947067049787e+02
1.889253420820996787e+00 5.206256417147679940e+02
1.889353444826758155e+00 5.206310477526137674e+02
1.889453468832519967e+00 5.206364128254634807e+02
1.889553492838281112e+00 5.206417369399671315e+02
1.889653516844042702e+00 5.206470201042002373e+02
1.889753540849803848e+00 5.206522623276623563e+02
1.889853564855565438e+00 5.206574636212754967e+02
1.889953588861326583e+00 5.206626239973838892e+02
1.890053612867088173e+00 5.206677434697522813e+02
1.890153636872849319e+00 5.206728220535621858e+02
1.890253660878610908e+00 5.206778597654115401e+02
1.890353684884372054e+00 5.206828566233142510e+02
1.890453708890133644e+00 5.206878126466962158e+02
1.890553732895894790e+00 5.206927278563950949e+02
1.890653756901656379e+00 5.206976022746576973e+02
1.890753780907417525e+00 5.207024359251371379e+02
1.890853804913179115e+00 5.207072288328932927e+02
1.890953828918940260e+00 5.207119810243877964e+02
1.891053852924701850e+00 5.207166925274840423e+02
1.891153876930462996e+00 5.207213633714443404e+02
1.891253900936224586e+00 5.207259935869273022e+02
1.891353924941986175e+00 5.207305832059860222e+02
1.891453948947747543e+00 5.207351322620653491e+02
1.891553972953508911e+00 5.207396407899998394e+02
1.891653996959270279e+00 5.207441088260118249e+02
1.891754020965031646e+00 5.207485364077080021e+02
1.891854044970793014e+00 5.207529235740755666e+02
1.891954068976554382e+00 5.207572703654830093e+02
1.892054092982315749e+00 5.207615768236753411e+02
1.892154116988077117e+00 5.207658429917717058e+02
1.892254140993838485e+00 5.207700689142619694e+02
1.892354164999599853e+00 5.207742546370042191e+02
1.892454189005361220e+00 5.207784002072232852e+02
1.892554213011122588e+00 5.207825056735050566e+02
1.892654237016883956e+00 5.207865710857975046e+02
1.892754261022645323e+00 5.207905964954026103e+02
1.892854285028406691e+00 5.207945819549780708e+02
1.892954309034168059e+00 5.207985275185305909e+02
1.893054333039929427e+00 5.208024332414136097e+02
1.893154357045691016e+00 5.208062991803265049e+02
1.893254381051452384e+00 5.208101253933075441e+02
1.893354405057213752e+00 5.208139119397330887e+02
1.893454429062975120e+00 5.208176588803137292e+02
1.893554453068736487e+00 5.208213662770887140e+02
1.893654477074497855e+00 5.208250341934266316e+02
1.893754501080259223e+00 5.208286626940173392e+02
1.893854525086020590e+00 5.208322518448712799e+02
1.893954549091781958e+00 5.208358017133153908e+02
1.894054573097543326e+00 5.208393123679882137e+02
1.894154597103304694e+00 5.208427838788367126e+02
1.894254621109066061e+00 5.208462163171136581e+02
1.894354645114827429e+00 5.208496097553713753e+02
1.894454669120588797e+00 5.208529642674594697e+02
1.894554693126350164e+00 5.208562799285216443e+02
1.894654717132111532e+00 5.208595568149900146e+02
1.894754741137872900e+00 5.208627950045797661e+02
1.894854765143634268e+00 5.208659945762889265e+02
1.894954789149395635e+00 5.208691556103917719e+02
1.895054813155157225e+00 5.208722781884339383e+02
1.895154837160918593e+00 5.208753623932299206e+02
1.895254861166679961e+00 5.208784083088577290e+02
1.895354885172441328e+00 5.208814160206546831e+02
1.895454909178202696e+00 5.208843856152129774e+02
1.895554933183964064e+00 5.208873171803751347e+02
1.895654957189725431e+00 5.208902108052296853e+02
1.895754981195486799e+00 5.208930665801075293e+02
1.895855005201248167e+00 5.208958845965731825e+02
1.895955029207009535e+00 5.208986649474270507e+02
1.896055053212770902e+00 5.209014077266947425e+02
1.896155077218532270e+00 5.209041130296243409e+02
1.896255101224293638e+00 5.209067809526823112e+02
1.896355125230055005e+00 5.209094115935477021e+02
1.896455149235816373e+00 5.209120050511073714e+02
1.896555173241577741e+00 5.209145614254515522e+02
1.896655197247339109e+00 5.209170808178683956e+02
1.896755221253100476e+00 5.209195633308386277e+02
1.896855245258862066e+00 5.209220090680305475e+02
1.896955269264623656e+00 5.209244181342962747e+02
1.897055293270384801e+00 5.209267906356641333e+02
1.897155317276146391e+00 5.209291266793348996e+02
1.897255341281907537e+00 5.209314263736775956e+02
1.897355365287669127e+00 5.209336898282213042e+02
1.897455389293430272e+00 5.209359171536516442e+02
1.897555413299191862e+00 5.209381084618052000e+02
1.897655437304953008e+00 5.209402638656642921e+02
1.897755461310714598e+00 5.209423834793506103e+02
1.897855485316475743e+00 5.209444674181196433e+02
1.897955509322237333e+00 5.209465157983564723e+02
1.898055533327998479e+00 5.209485287375681537e+02
1.898155557333760068e+00 5.209505063543801953e+02
1.898255581339521214e+00 5.209524487685283702e+02
1.898355605345282804e+00 5.209543561008542838e+02
1.898455629351043950e+00 5.209562284733005981e+02
1.898555653356805539e+00 5.209580660089036428e+02
1.898655677362566685e+00 5.209598688317864799e+02
1.898755701368328497e+00 5.209616370671562890e+02
1.898855725374089864e+00 5.209633708412949318e+02
1.898955749379851232e+00 5.209650702815555405e+02
1.899055773385612600e+00 5.209667355163538787e+02
1.899155797391373968e+00 5.209683666751649298e+02
1.899255821397135335e+00 5.209699638885143713e+02
1.899355845402896703e+00 5.209715272879739132e+02
1.899455869408658071e+00 5.209730570061544768e+02
1.899555893414419439e+00 5.209745531766994873e+02
1.899655917420180806e+00 5.209760159342800989e+02
1.899755941425942174e+00 5.209774454145861000e+02
1.899855965431703542e+00 5.209788417543215928e+02
1.899955989437464909e+00 5.209802050911989681e+02
1.900056013443226277e+00 5.209815355639302652e+02
1.900156037448987645e+00 5.209828333122218282e+02
1.900256061454749013e+00 5.209840984767688497e+02
1.900356085460510380e+00 5.209853311992462750e+02
1.900456109466271748e+00 5.209865316223042555e+02
1.900556133472033338e+00 5.209876998895600764e+02
1.900656157477794705e+00 5.209888361455925860e+02
1.900756181483556073e+00 5.209899405359342381e+02
1.900856205489317441e+00 5.209910132070659756e+02
1.900956229495078809e+00 5.209920543064071126e+02
1.901056253500840176e+00 5.209930639823127194e+02
1.901156277506601544e+00 5.209940423840633912e+02
1.901256301512362912e+00 5.209949896618600178e+02
1.901356325518124279e+00 5.209959059668161672e+02
1.901456349523885647e+00 5.209967914509503544e+02
1.901556373529647015e+00 5.209976462671806985e+02
1.901656397535408383e+00 5.209984705693162823e+02
1.901756421541169750e+00 5.209992645120505586e+02
1.901856445546931118e+00 5.210000282509540739e+02
1.901956469552692486e+00 5.210007619424676477e+02
1.902056493558453854e+00 5.210014657438939594e+02
1.902156517564215221e+00 5.210021398133928869e+02
1.902256541569976589e+00 5.210027843099696838e+02
1.902356565575737957e+00 5.210033993934733871e+02
1.902456589581499546e+00 5.210039852245832890e+02
1.902556613587260914e+00 5.210045419648067764e+02
1.902656637593022282e+00 5.210050697764688721e+02
1.902756661598783650e+00 5.210055688227057544e+02
1.902856685604545017e+00 5.210060392674563445e+02
1.902956709610306385e+00 5.210064812754566219e+02
1.903056733616067753e+00 5.210068950122297338e+02
1.903156757621829120e+00 5.210072806440796285e+02
1.903256781627590488e+00 5.210076383380838934e+02
1.903356805633351856e+00 5.210079682620848871e+02
1.903456829639113224e+00 5.210082705846828048e+02
1.903556853644874591e+00 5.210085454752272653e+02
1.903656877650635959e+00 5.210087931038101488e+02
1.903756901656397327e+00 5.210090136412580932e+02
1.903856925662158694e+00 5.210092072591232863e+02
1.903956949667920062e+00 5.210093741296775534e+02
1.904056973673681430e+00 5.210095144259014432e+02
1.904156997679442798e+00 5.210096283214804771e+02
1.904257021685204609e+00 5.210097159907943478e+02
1.904357045690965755e+00 5.210097776089080526e+02
1.904457069696727345e+00 5.210098133515671179e+02
1.904557093702488491e+00 5.210098233951864586e+02
1.904657117708250080e+00 5.210098079168452614e+02
1.904757141714011226e+00 5.210097670942756167e+02
1.904857165719772816e+00 5.210097011058575163e+02
1.904957189725533961e+00 5.210096101306074843e+02
1.905057213731295551e+00 5.210094943481742575e+02
1.905157237737056697e+00 5.210093539388269619e+02
1.905257261742818287e+00 5.210091890834492006e+02
1.905357285748579432e+00 5.210089999635293907e+02
1.905457309754341022e+00 5.210087867611542833e+02
1.905557333760102168e+00 5.210085496589975946e+02
1.905657357765863757e+00 5.210082888403157995e+02
1.905757381771624903e+00 5.210080044889367628e+02
1.905857405777386493e+00 5.210076967892507582e+02
1.905957429783147639e+00 5.210073659262054662e+02
1.906057453788909228e+00 5.210070120852950595e+02
1.906157477794670818e+00 5.210066354525517909e+02
1.906257501800432186e+00 5.210062362145386032e+02
1.906357525806193554e+00 5.210058145583400346e+02
1.906457549811954921e+00 5.210053706715521002e+02
1.906557573817716289e+00 5.210049047422781996e+02
1.906657597823477657e+00 5.210044169591168384e+02
1.906757621829239024e+00 5.210039075111528746e+02
1.906857645835000392e+00 5.210033765879501289e+02
1.906957669840761760e+00 5.210028243795447906e+02
1.907057693846523128e+00 5.210022510764322305e+02
1.907157717852284495e+00 5.210016568695633623e+02
1.907257741858045863e+00 5.210010419503300909e+02
1.907357765863807231e+00 5.210004065105629252e+02
1.907457789869568598e+00 5.209997507425173353e+02
1.907557813875329966e+00 5.209990748388698876e+02
1.907657837881091334e+00 5.209983789927022144e+02
1.907757861886852702e+00 5.209976633975007871e+02
1.907857885892614069e+00 5.209969282471415681e+02
1.907957909898375659e+00 5.209961737358844402e+02
1.908057933904137027e+00 5.209954000583641118e+02
1.908157957909898395e+00 5.209946074095802260e+02
1.908257981915659762e+00 5.209937959848887203e+02
1.908358005921421130e+00 5.209929659799939827e+02
1.908458029927182498e+00 5.209921175909395288e+02
1.908558053932943865e+00 5.209912510140982249e+02
1.908658077938705233e+00 5.209903664461650123e+02
1.908758101944466601e+00 5.209894640841459932e+02
1.908858125950227969e+00 5.209885441253509271e+02
1.908958149955989336e+00 5.209876067673849320e+02
1.909058173961750704e+00 5.209866522081373432e+02
1.909158197967512072e+00 5.209856806457742096e+02
1.909258221973273439e+00 5.209846922787298809e+02
1.909358245979034807e+00 5.209836873056960940e+02
1.909458269984796175e+00 5.209826659256148105e+02
1.909558293990557543e+00 5.209816283376680985e+02
1.909658317996318910e+00 5.209805747412694927e+02
1.909758342002080278e+00 5.209795053360553538e+02
1.909858366007841868e+00 5.209784203218748644e+02
1.909958390013603236e+00 5.209773198987818432e+02
1.910058414019364603e+00 5.209762042670256506e+02
1.910158438025125971e+00 5.209750736270409561e+02
1.910258462030887339e+00 5.209739281794405770e+02
1.910358486036648706e+00 5.209727681250044498e+02
1.910458510042410074e+00 5.209715936646723549e+02
1.910558534048171442e+00 5.209704049995327750e+02
1.910658558053932810e+00 5.209692023308160742e+02
1.910758582059694177e+00 5.209679858598836972e+02
1.910858606065455545e+00 5.209667557882193023e+02
1.910958630071216913e+00 5.209655123174198934e+02
1.911058654076978280e+00 5.209642556491869527e+02
1.911158678082739648e+00 5.209629859853170046e+02
1.911258702088501016e+00 5.209617035276925208e+02
1.911358726094262384e+00 5.209604084782723703e+02
1.911458750100023751e+00 5.209591010390834072e+02
1.911558774105785119e+00 5.209577814122105792e+02
1.911658798111546709e+00 5.209564497997889703e+02
1.911758822117308299e+00 5.209551064039919765e+02
1.911858846123069444e+00 5.209537514270260772e+02
1.911958870128831034e+00 5.209523850711181012e+02
1.912058894134592180e+00 5.209510075385078380e+02
1.912158918140353769e+00 5.209496190314384876e+02
1.912258942146114915e+00 5.209482197521480202e+02
1.912358966151876505e+00 5.209468099028583765e+02
1.912458990157637650e+00 5.209453896857680775e+02
1.912559014163399240e+00 5.209439593030422202e+02
1.912659038169160386e+00 5.209425189568034966e+02
1.912759062174921976e+00 5.209410688491230985e+02
1.912859086180683121e+00 5.209396091820103720e+02
1.912959110186444711e+00 5.209381401574063375e+02
1.913059134192205857e+00 5.209366619771715250e+02
1.913159158197967447e+00 5.209351748430779026e+02
1.913259182203728592e+00 5.209336789568013728e+02
1.913359206209490182e+00 5.209321745199096085e+02
1.913459230215251328e+00 5.209306617338550041e+02
1.913559254221013139e+00 5.209291407999646708e+02
1.913659278226774507e+00 5.209276119194329340e+02
1.913759302232535875e+00 5.209260752933081449e+02
1.913859326238297243e+00 5.209245311224885882e+02
1.913959350244058610e+00 5.209229796077090668e+02
1.914059374249819978e+00 5.209214209495349905e+02
1.914159398255581346e+00 5.209198553483514615e+02
1.914259422261342714e+00 5.209182830043530430e+02
1.914359446267104081e+00 5.209167041175385293e+02
1.914459470272865449e+00 5.209151188876973038e+02
1.914559494278626817e+00 5.209135275144044499e+02
1.914659518284388184e+00 5.209119301970076776e+02
1.914759542290149552e+00 5.209103271346202746e+02
1.914859566295910920e+00 5.209087185261132618e+02
1.914959590301672288e+00 5.209071045701031153e+02
1.915059614307433655e+00 5.209054854649452864e+02
1.915159638313195023e+00 5.209038614087252199e+02
1.915259662318956391e+00 5.209022325992461901e+02
1.915359686324717980e+00 5.209005992340242983e+02
1.915459710330479348e+00 5.208989615102772177e+02
1.915559734336240716e+00 5.208973196249150988e+02
1.915659758342002084e+00 5.208956737745323835e+02
1.915759782347763451e+00 5.208940241553983697e+02
1.915859806353524819e+00 5.208923709634480019e+02
1.915959830359286187e+00 5.208907143942741413e+02
1.916059854365047554e+00 5.208890546431160828e+02
1.916159878370808922e+00 5.208873919048537573e+02
1.916259902376570290e+00 5.208857263739963628e+02
1.916359926382331658e+00 5.208840582446744065e+02
1.916459950388093025e+00 5.208823877106306099e+02
1.916559974393854393e+00 5.208807149652114958e+02
1.916659998399615761e+00 5.208790402013577250e+02
1.916760022405377129e+00 5.208773636115954560e+02
1.916860046411138496e+00 5.208756853880278186e+02
1.916960070416899864e+00 5.208740057223269559e+02
1.917060094422661232e+00 5.208723248057218598e+02
1.917160118428422599e+00 5.208706428289934820e+02
1.917260142434184189e+00 5.208689599824641618e+02
1.917360166439945557e+00 5.208672764559887582e+02
1.917460190445706925e+00 5.208655924389465781e+02
1.917560214451468292e+00 5.208639081202312582e+02
1.917660238457229660e+00 5.208622236882440575e+02
1.917760262462991028e+00 5.208605393308831708e+02
1.917860286468752395e+00 5.208588552355374759e+02
1.917960310474513763e+00 5.208571715890741416e+02
1.918060334480275131e+00 5.208554885778347625e+02
1.918160358486036499e+00 5.208538063876220576e+02
1.918260382491797866e+00 5.208521252036946407e+02
1.918360406497559234e+00 5.208504452107571296e+02
1.918460430503320602e+00 5.208487665929515060e+02
1.918560454509081969e+00 5.208470895338483615e+02
1.918660478514843337e+00 5.208454142164393943e+02
1.918760502520604705e+00 5.208437408231279733e+02
1.918860526526366073e+00 5.208420695357210661e+02
1.918960550532127440e+00 5.208404005354204855e+02
1.919060574537889252e+00 5.208387340028154995e+02
1.919160598543650398e+00 5.208370701178727131e+02
1.919260622549411988e+00 5.208354090599291339e+02
1.919360646555173133e+00 5.208337510076821673e+02
1.919460670560934723e+00 5.208320961391850688e+02
1.919560694566695869e+00 5.208304446318327336e+02
1.919660718572457458e+00 5.208287966623591956e+02
1.919760742578218604e+00 5.208271524068251210e+02
1.919860766583980194e+00 5.208255120406117840e+02
1.919960790589741340e+00 5.208238757384134487e+02
1.920060814595502929e+00 5.208222436742265700e+02
1.920160838601264075e+00 5.208206160213433122e+02
1.920260862607025665e+00 5.208189929523450701e+02
1.920360886612786810e+00 5.208173746390908718e+02
1.920460910618548400e+00 5.208157612527111269e+02
1.920560934624309546e+00 5.208141529636001223e+02
1.920660958630071136e+00 5.208125499414070418e+02
1.920760982635832281e+00 5.208109523550283484e+02
1.920861006641593871e+00 5.208093603726005085e+02
1.920961030647355461e+00 5.208077741614903289e+02
1.921061054653116829e+00 5.208061938882883624e+02
1.921161078658878196e+00 5.208046197188014048e+02
1.921261102664639564e+00 5.208030518180429453e+02
1.921361126670400932e+00 5.208014903502280504e+02
1.921461150676162299e+00 5.207999354787623361e+02
1.921561174681923667e+00 5.207983873662365113e+02
1.921661198687685035e+00 5.207968461744185333e+02
1.921761222693446403e+00 5.207953120642451950e+02
1.921861246699207770e+00 5.207937851958141664e+02
1.921961270704969138e+00 5.207922657283775152e+02
1.922061294710730506e+00 5.207907538203328386e+02
1.922161318716491873e+00 5.207892496292176929e+02
1.922261342722253241e+00 5.207877533117002713e+02
1.922361366728014609e+00 5.207862650235717865e+02
1.922461390733775977e+00 5.207847849197403320e+02
1.922561414739537344e+00 5.207833131542223555e+02
1.922661438745298712e+00 5.207818498801365195e+02
1.922761462751060302e+00 5.207803952496955162e+02
1.922861486756821670e+00 5.207789494141981095e+02
1.922961510762583037e+00 5.207775125240232228e+02
1.923061534768344405e+00 5.207760847286219814e+02
1.923161558774105773e+00 5.207746661765106637e+02
1.923261582779867140e+00 5.207732570152633116e+02
1.923361606785628508e+00 5.207718573915054776e+02
1.923461630791389876e+00 5.207704674509055849e+02
1.923561654797151244e+00 5.207690873381686743e+02
1.923661678802912611e+00 5.207677171970307199e+02
1.923761702808673979e+00 5.207663571702487388e+02
1.923861726814435347e+00 5.207650073995972662e+02
1.923961750820196714e+00 5.207636680258581237e+02
1.924061774825958082e+00 5.207623391888165543e+02
1.924161798831719450e+00 5.207610210272517861e+02
1.924261822837480818e+00 5.207597136789322576e+02
1.924361846843242185e+00 5.207584172806078868e+02
1.924461870849003553e+00 5.207571319680035913e+02
1.924561894854764921e+00 5.207558578758121257e+02
1.924661918860526510e+00 5.207545951376890798e+02
1.924761942866287878e+00 5.207533438862442381e+02
1.924861966872049246e+00 5.207521042530363502e+02
1.924961990877810614e+00 5.207508763685659687e+02
1.925062014883571981e+00 5.207496603622696512e+02
1.925162038889333349e+00 5.207484563625132523e+02
1.925262062895094717e+00 5.207472644965853306e+02
1.925362086900856085e+00 5.207460848906912361e+02
1.925462110906617452e+00 5.207449176699456075e+02
1.925562134912378820e+00 5.207437629583686203e+02
1.925662158918140188e+00 5.207426208788772328e+02
1.925762182923901555e+00 5.207414915532807527e+02
1.925862206929662923e+00 5.207403751022729921e+02
1.925962230935424291e+00 5.207392716454286301e+02
1.926062254941185659e+00 5.207381813011950271e+02
1.926162278946947026e+00 5.207371041868876773e+02
1.926262302952708394e+00 5.207360404186827054e+02
1.926362326958469762e+00 5.207349901116125466e+02
1.926462350964231351e+00 5.207339533795594662e+02
1.926562374969992941e+00 5.207329303352501029e+02
1.926662398975754087e+00 5.207319210902487612e+02
1.926762422981515677e+00 5.207309257549529775e+02
1.926862446987276822e+00 5.207299444385871539e+02
1.926962470993038412e+00 5.207289772491960775e+02
1.927062494998799558e+00 5.207280242936423065e+02
1.927162519004561148e+00 5.207270856775967331e+02
1.927262543010322293e+00 5.207261615055363109e+02
1.927362567016083883e+00 5.207252518807370052e+02
1.927462591021845029e+00 5.207243569052687917e+02
1.927562615027606618e+00 5.207234766799899717e+02
1.927662639033367764e+00 5.207226113045436477e+02
1.927762663039129354e+00 5.207217608773493112e+02
1.927862687044890500e+00 5.207209254956009090e+02
1.927962711050652089e+00 5.207201052552596821e+02
1.928062735056413235e+00 5.207193002510497308e+02
1.928162759062174825e+00 5.207185105764535820e+02
1.928262783067935970e+00 5.207177363237053669e+02
1.928362807073697782e+00 5.207169775837882071e+02
1.928462831079459150e+00 5.207162344464276202e+02
1.928562855085220518e+00 5.207155070000879959e+02
1.928662879090981885e+00 5.207147953319667977e+02
1.928762903096743253e+00 5.207140995279897879e+02
1.928862927102504621e+00 5.207134196728071629e+02
1.928962951108265989e+00 5.207127558497888913e+02
1.929062975114027356e+00 5.207121081410185752e+02
1.929162999119788724e+00 5.207114766272908355e+02
1.929263023125550092e+00 5.207108613881074461e+02
1.929363047131311459e+00 5.207102625016693764e+02
1.929463071137072827e+00 5.207096800448758813e+02
1.929563095142834195e+00 5.207091140933188171e+02
1.929663119148595563e+00 5.207085647212779804e+02
1.929763143154356930e+00 5.207080320017187205e+02
1.929863167160118298e+00 5.207075160062845498e+02
1.929963191165879666e+00 5.207070168052971439e+02
1.930063215171641033e+00 5.207065344677491794e+02
1.930163239177402623e+00 5.207060690613003544e+02
1.930263263183163991e+00 5.207056206522768207e+02
1.930363287188925359e+00 5.207051893056623157e+02
1.930463311194686726e+00 5.207047750850986176e+02
1.930563335200448094e+00 5.207043780528791785e+02
1.930663359206209462e+00 5.207039982699474194e+02
1.930763383211970829e+00 5.207036357958904773e+02
1.930863407217732197e+00 5.207032906889373862e+02
1.930963431223493565e+00 5.207029630059566898e+02
1.931063455229254933e+00 5.207026528024499612e+02
1.931163479235016300e+00 5.207023601325496429e+02
1.931263503240777668e+00 5.207020850490168868e+02
1.931363527246539036e+00 5.207018276032360973e+02
1.931463551252300404e+00 5.207015878452143625e+02
1.931563575258061771e+00 5.207013658235747471e+02
1.931663599263823139e+00 5.207011615855556101e+02
1.931763623269584507e+00 5.207009751770081039e+02
1.931863647275345874e+00 5.207008066423896935e+02
1.931963671281107464e+00 5.207006560247651805e+02
1.932063695286868832e+00 5.207005233658012457e+02
1.932163719292630200e+00 5.207004087057640618e+02
1.932263743298391567e+00 5.207003120835170193e+02
1.932363767304152935e+00 5.207002335365173167e+02
1.932463791309914303e+00 5.207001731008136858e+02
1.932563815315675670e+00 5.207001308110435502e+02
1.932663839321437038e+00 5.207001067004308652e+02
1.932763863327198406e+00 5.207001008007821383e+02
1.932863887332959774e+00 5.207001131424860887e+02
1.932963911338721141e+00 5.207001437545095541e+02
1.933063935344482509e+00 5.207001926643958996e+02
1.933163959350243877e+00 5.207002598982619475e+02
1.933263983356005244e+00 5.207003454807971821e+02
1.933364007361766612e+00 5.207004494352599977e+02
1.933464031367527980e+00 5.207005717834770167e+02
1.933564055373289348e+00 5.207007125458392238e+02
1.933664079379050715e+00 5.207008717413017393e+02
1.933764103384812083e+00 5.207010493873800669e+02
1.933864127390573895e+00 5.207012455001506623e+02
1.933964151396335041e+00 5.207014600942468405e+02
1.934064175402096630e+00 5.207016931828577526e+02
1.934164199407857776e+00 5.207019447777270216e+02
1.934264223413619366e+00 5.207022148891509232e+02
1.934364247419380511e+00 5.207025035259757715e+02
1.934464271425142101e+00 5.207028106955980320e+02
1.934564295430903247e+00 5.207031364039625032e+02
1.934664319436664837e+00 5.207034806555598152e+02
1.934764343442425982e+00 5.207038434534251792e+02
1.934864367448187572e+00 5.207042247991392969e+02
1.934964391453948718e+00 5.207046246928238133e+02
1.935064415459710307e+00 5.207050431331422260e+02
1.935164439465471453e+00 5.207054801172997713e+02
1.935264463471233043e+00 5.207059356410385362e+02
1.935364487476994189e+00 5.207064096986405275e+02
1.935464511482755778e+00 5.207069022829243750e+02
1.935564535488516924e+00 5.207074133852454452e+02
1.935664559494278736e+00 5.207079429954945908e+02
1.935764583500040104e+00 5.207084911020970139e+02
1.935864607505801471e+00 5.207090576920137437e+02
1.935964631511562839e+00 5.207096427507375438e+02
1.936064655517324207e+00 5.207102462622945040e+02
1.936164679523085574e+00 5.207108682092441541e+02
1.936264703528846942e+00 5.207115085726766210e+02
1.936364727534608310e+00 5.207121673322146762e+02
1.936464751540369678e+00 5.207128444660119158e+02
1.936564775546131045e+00 5.207135399507531019e+02
1.936664799551892413e+00 5.207142537616537084e+02
1.936764823557653781e+00 5.207149858724599198e+02
1.936864847563415148e+00 5.207157362554481779e+02
1.936964871569176516e+00 5.207165048814259762e+02
1.937064895574937884e+00 5.207172917197315201e+02
1.937164919580699252e+00 5.207180967382332710e+02
1.937264943586460619e+00 5.207189199033301747e+02
1.937364967592221987e+00 5.207197611799531387e+02
1.937464991597983355e+00 5.207206205315634406e+02
1.937565015603744945e+00 5.207214979201554570e+02
1.937665039609506312e+00 5.207223933062543892e+02
1.937765063615267680e+00 5.207233066489181965e+02
1.937865087621029048e+00 5.207242379057388462e+02
1.937965111626790415e+00 5.207251870328409495e+02
1.938065135632551783e+00 5.207261539848835810e+02
1.938165159638313151e+00 5.207271387150617556e+02
1.938265183644074519e+00 5.207281411751056339e+02
1.938365207649835886e+00 5.207291613152818854e+02
1.938465231655597254e+00 5.207301990843956219e+02
1.938565255661358622e+00 5.207312544297885779e+02
1.938665279667119989e+00 5.207323272973453641e+02
1.938765303672881357e+00 5.207334176314875549e+02
1.938865327678642725e+00 5.207345253751808514e+02
1.938965351684404093e+00 5.207356504699336028e+02
1.939065375690165460e+00 5.207367928557980576e+02
1.939165399695926828e+00 5.207379524713713863e+02
1.939265423701688196e+00 5.207391292537992058e+02
1.939365447707449785e+00 5.207403231387745564e+02
1.939465471713211153e+00 5.207415340605413121e+02
1.939565495718972521e+00 5.207427619518933852e+02
1.939665519724733889e+00 5.207440067441790461e+02
1.939765543730495256e+00 5.207452683673016054e+02
1.939865567736256624e+00 5.207465467497194140e+02
1.939965591742017992e+00 5.207478418184518887e+02
1.940065615747779360e+00 5.207491534990759874e+02
1.940165639753540727e+00 5.207504817157324624e+02
1.940265663759302095e+00 5.207518263911260874e+02
1.940365687765063463e+00 5.207531874465280453e+02
1.940465711770824830e+00 5.207545648017778603e+02
1.940565735776586198e+00 5.207559583752849903e+02
1.940665759782347566e+00 5.207573680840338284e+02
1.940765783788108934e+00 5.207587938435817705e+02
1.940865807793870301e+00 5.207602355680641040e+02
1.940965831799631669e+00 5.207616931701979865e+02
1.941065855805393037e+00 5.207631665612807410e+02
1.941165879811154404e+00 5.207646556511962217e+02
1.941265903816915994e+00 5.207661603484149282e+02
1.941365927822677584e+00 5.207676805599985528e+02
1.941465951828438730e+00 5.207692161916015721e+02
1.941565975834200319e+00 5.207707671474740891e+02
1.941665999839961465e+00 5.207723333304647895e+02
1.941766023845723055e+00 5.207739146420252609e+02
1.941866047851484200e+00 5.207755109822094255e+02
1.941966071857245790e+00 5.207771222496803603e+02
1.942066095863006936e+00 5.207787483417125713e+02
1.942166119868768526e+00 5.207803891541923349e+02
1.942266143874529671e+00 5.207820445816252004e+02
1.942366167880291261e+00 5.207837145171347402e+02
1.942466191886052407e+00 5.207853988524709621e+02
1.942566215891813997e+00 5.207870974780084907e+02
1.942666239897575142e+00 5.207888102827540706e+02
1.942766263903336732e+00 5.207905371543479305e+02
1.942866287909097878e+00 5.207922779790677623e+02
1.942966311914859467e+00 5.207940326418331551e+02
1.943066335920621057e+00 5.207958010262077551e+02
1.943166359926382425e+00 5.207975830144044949e+02
1.943266383932143793e+00 5.207993784872888909e+02
1.943366407937905160e+00 5.208011873243824539e+02
1.943466431943666528e+00 5.208030094038673496e+02
1.943566455949427896e+00 5.208048446025894691e+02
1.943666479955189264e+00 5.208066927960637713e+02
1.943766503960950631e+00 5.208085538584765573e+02
1.943866527966711999e+00 5.208104276626920637e+02
1.943966551972473367e+00 5.208123140802543958e+02
1.944066575978234734e+00 5.208142129813926431e+02
1.944166599983996102e+00 5.208161242350256543e+02
1.944266623989757470e+00 5.208180477087662439e+02
1.944366647995518838e+00 5.208199832689244886e+02
1.944466672001280205e+00 5.208219307805140943e+02
1.944566696007041573e+00 5.208238901072563749e+02
1.944666720012802941e+00 5.208258611115829808e+02
1.944766744018564308e+00 5.208278436546443118e+02
1.944866768024325676e+00 5.208298375963090621e+02
1.944966792030087266e+00 5.208318427951749072e+02
1.945066816035848634e+00 5.208338591085692997e+02
1.945166840041610001e+00 5.208358863925551532e+02
1.945266864047371369e+00 5.208379245019368682e+02
1.945366888053132737e+00 5.208399732902639698e+02
1.945466912058894104e+00 5.208420326098372470e+02
1.945566936064655472e+00 5.208441023117129589e+02
1.945666960070416840e+00 5.208461822457092012e+02
1.945766984076178208e+00 5.208482722604103401e+02
1.945867008081939575e+00 5.208503722031717871e+02
1.945967032087700943e+00 5.208524819201272749e+02
1.946067056093462311e+00 5.208546012561903353e+02
1.946167080099223679e+00 5.208567300550661230e+02
1.946267104104985046e+00 5.208588681592492549e+02
1.946367128110746414e+00 5.208610154100364298e+02
1.946467152116507782e+00 5.208631716475266558e+02
1.946567176122269149e+00 5.208653367106304586e+02
1.946667200128030517e+00 5.208675104370738609e+02
1.946767224133792107e+00 5.208696926634042939e+02
1.946867248139553475e+00 5.208718832249974184e+02
1.946967272145314842e+00 5.208740819560614455e+02
1.947067296151076210e+00 5.208762886896449800e+02
1.947167320156837578e+00 5.208785032576405456e+02
1.947267344162598945e+00 5.208807254907928836e+02
1.947367368168360313e+00 5.208829552187046374e+02
1.947467392174121681e+00 5.208851922698408998e+02
1.947567416179883049e+00 5.208874364715379670e+02
1.947667440185644416e+00 5.208896876500062945e+02
1.947767464191405784e+00 5.208919456303406150e+02
1.947867488197167152e+00 5.208942102365227811e+02
1.947967512202928519e+00 5.208964812914307458e+02
1.948067536208689887e+00 5.208987586168436792e+02
1.948167560214451255e+00 5.209010420334477658e+02
1.948267584220212623e+00 5.209033313608459821e+02
1.948367608225973990e+00 5.209056264175603701e+02
1.948467632231735358e+00 5.209079270210418144e+02
1.948567656237496726e+00 5.209102329876758404e+02
1.948667680243258538e+00 5.209125441327887529e+02
1.948767704249019683e+00 5.209148602706551401e+02
1.948867728254781273e+00 5.209171812145038984e+02
1.948967752260542419e+00 5.209195067765271006e+02
1.949067776266304008e+00 5.209218367678844288e+02
1.949167800272065154e+00 5.209241709987118156e+02
1.949267824277826744e+00 5.209265092781276962e+02
1.949367848283587890e+00 5.209288514142403983e+02
1.949467872289349479e+00 5.209311972141559863e+02
1.949567896295110625e+00 5.209335464839833776e+02
1.949667920300872215e+00 5.209358990288443465e+02
1.949767944306633360e+00 5.209382546528780722e+02
1.949867968312394950e+00 5.209406131592508018e+02
1.949967992318156096e+00 5.209429743501617622e+02
1.950068016323917686e+00 5.209453380268503224e+02
1.950168040329678831e+00 5.209477039896053157e+02
1.950268064335440421e+00 5.209500720377710650e+02
1.950368088341201567e+00 5.209524419697545454e+02
1.950468112346963379e+00 5.209548135830337969e+02
1.950568136352724746e+00 5.209571866741658823e+02
1.950668160358486114e+00 5.209595610387938223e+02
1.950768184364247482e+00 5.209619364716551217e+02
1.950868208370008849e+00 5.209643127665880229e+02
1.950968232375770217e+00 5.209666897165411683e+02
1.951068256381531585e+00 5.209690671135806497e+02
1.951168280387292953e+00 5.209714447488966016e+02
1.951268304393054320e+00 5.209738224128144566e+02
1.951368328398815688e+00 5.209761998947989241e+02
1.951468352404577056e+00 5.209785769834657003e+02
1.951568376410338423e+00 5.209809534665862429e+02
1.951668400416099791e+00 5.209833291310989125e+02
1.951768424421861159e+00 5.209857037631143157e+02
1.951868448427622527e+00 5.209880771479263331e+02
1.951968472433383894e+00 5.209904490700176893e+02
1.952068496439145262e+00 5.209928193130697309e+02
1.952168520444906630e+00 5.209951876599717480e+02
1.952268544450667997e+00 5.209975538928250671e+02
1.952368568456429587e+00 5.209999177929574898e+02
1.952468592462190955e+00 5.210022791409269303e+02
1.952568616467952323e+00 5.210046377165323293e+02
1.952668640473713690e+00 5.210069932988205892e+02
1.952768664479475058e+00 5.210093456660964648e+02
1.952868688485236426e+00 5.210116945959314307e+02
1.952968712490997794e+00 5.210140398651701616e+02
1.953068736496759161e+00 5.210163812499416736e+02
1.953168760502520529e+00 5.210187185256652356e+02
1.953268784508281897e+00 5.210210514670632165e+02
1.953368808514043264e+00 5.210233798481663143e+02
1.953468832519804632e+00 5.210257034423228788e+02
1.953568856525566000e+00 5.210280220222082335e+02
1.953668880531327368e+00 5.210303353598349076e+02
1.953768904537088735e+00 5.210326432265593439e+02
1.953868928542850103e+00 5.210349453930932668e+02
1.953968952548611471e+00 5.210372416295086850e+02
1.954068976554372838e+00 5.210395317052513064e+02
1.954169000560134428e+00 5.210418153891475868e+02
1.954269024565895796e+00 5.210440924494134833e+02
1.954369048571657164e+00 5.210463626536644597e+02
1.954469072577418531e+00 5.210486257689232161e+02
1.954569096583179899e+00 5.210508815616315133e+02
1.954669120588941267e+00 5.210531297976573342e+02
1.954769144594702635e+00 5.210553702423023879e+02
1.954869168600464002e+00 5.210576026603177979e+02
1.954969192606225370e+00 5.210598268159046711e+02
1.955069216611986738e+00 5.210620424727309228e+02
1.955169240617748105e+00 5.210642493939360520e+02
1.955269264623509473e+00 5.210664473421435332e+02
1.955369288629270841e+00 5.210686360794678649e+02
1.955469312635032209e+00 5.210708153675259382e+02
1.955569336640793576e+00 5.210729849674439720e+02
1.955669360646554944e+00 5.210751446398712687e+02
1.955769384652316312e+00 5.210772941449843074e+02
1.955869408658077679e+00 5.210794332425016364e+02
1.955969432663839047e+00 5.210815616916893305e+02
1.956069456669600637e+00 5.210836792513736100e+02
1.956169480675362227e+00 5.210857856799481169e+02
1.956269504681123372e+00 5.210878807353856246e+02
1.956369528686884962e+00 5.210899641752462230e+02
1.956469552692646108e+00 5.210920357566873236e+02
1.956569576698407698e+00 5.210940952364754821e+02
1.956669600704168843e+00 5.210961423709926521e+02
1.956769624709930433e+00 5.210981769162483488e+02
1.956869648715691579e+00 5.211001986278889717e+02
1.956969672721453168e+00 5.211022072612081502e+02
1.957069696727214314e+00 5.211042025711550423e+02
1.957169720732975904e+00 5.211061843123464996e+02
1.957269744738737050e+00 5.211081522390751388e+02
1.957369768744498639e+00 5.211101061053198009e+02
1.957469792750259785e+00 5.211120456647565788e+02
1.957569816756021375e+00 5.211139706707666619e+02
1.957669840761782520e+00 5.211158808764488413e+02
1.957769864767544110e+00 5.211177760346278092e+02
1.957869888773305700e+00 5.211196558978642770e+02
1.957969912779067068e+00 5.211215202184665714e+02
1.958069936784828435e+00 5.211233687484987058e+02
1.958169960790589803e+00 5.211252012397923181e+02
1.958269984796351171e+00 5.211270174439553102e+02
1.958370008802112539e+00 5.211288171123835582e+02
1.958470032807873906e+00 5.211305999962688702e+02
1.958570056813635274e+00 5.211323658466112647e+02
1.958670080819396642e+00 5.211341144142295434e+02
1.958770104825158009e+00 5.211358454497679986e+02
1.958870128830919377e+00 5.211375587037114201e+02
1.958970152836680745e+00 5.211392539263920298e+02
1.959070176842442113e+00 5.211409308680006234e+02
1.959170200848203480e+00 5.211425892785968017e+02
1.959270224853964848e+00 5.211442289081204535e+02
1.959370248859726216e+00 5.211458495064006229e+02
1.959470272865487583e+00 5.211474508231657410e+02
1.959570296871248951e+00 5.211490326080557907e+02
1.959670320877010319e+00 5.211505946106306055e+02
1.959770344882771909e+00 5.211521365803813524e+02
1.959870368888533276e+00 5.211536582667406492e+02
1.959970392894294644e+00 5.211551594190937067e+02
1.960070416900056012e+00 5.211566397867870819e+02
1.960170440905817379e+00 5.211580991191403882e+02
1.960270464911578747e+00 5.211595371654569817e+02
1.960370488917340115e+00 5.211609536750337384e+02
1.960470512923101483e+00 5.211623483971709447e+02
1.960570536928862850e+00 5.211637210811849172e+02
1.960670560934624218e+00 5.211650714764152781e+02
1.960770584940385586e+00 5.211663993322390525e+02
1.960870608946146953e+00 5.211677043980786266e+02
1.960970632951908321e+00 5.211689864234132301e+02
1.961070656957669689e+00 5.211702451577883721e+02
1.961170680963431057e+00 5.211714803508282330e+02
1.961270704969192424e+00 5.211726917522457825e+02
1.961370728974953792e+00 5.211738791118514200e+02
1.961470752980715160e+00 5.211750421795652528e+02
1.961570776986476750e+00 5.211761807054282372e+02
1.961670800992238117e+00 5.211772944396109324e+02
1.961770824997999485e+00 5.211783831324250968e+02
1.961870849003760853e+00 5.211794465343344882e+02
1.961970873009522220e+00 5.211804843959645268e+02
1.962070897015283588e+00 5.211814964681138918e+02
1.962170921021044956e+00 5.211824825017647527e+02
1.962270945026806324e+00 5.211834422480932290e+02
1.962370969032567691e+00 5.211843754584793942e+02
1.962470993038329059e+00 5.211852818845190995e+02
1.962571017044090427e+00 5.211861612780346604e+02
1.962671041049851794e+00 5.211870133910837239e+02
1.962771065055613162e+00 5.211878379759714335e+02
1.962871089061374530e+00 5.211886347852597510e+02
1.962971113067135898e+00 5.211894035717812130e+02
1.963071137072897265e+00 5.211901440886440469e+02
1.963171161078658633e+00 5.211908560892488822e+02
1.963271185084420001e+00 5.211915393272943220e+02
1.963371209090181368e+00 5.211921935567906985e+02
1.963471233095943180e+00 5.211928185320693956e+02
1.963571257101704326e+00 5.211934140077937627e+02
1.963671281107465916e+00 5.211939797389700288e+02
1.963771305113227061e+00 5.211945154809566247e+02
1.963871329118988651e+00 5.211950209894768022e+02
1.963971353124749797e+00 5.211954960206264786e+02
1.964071377130511387e+00 5.211959403308890160e+02
1.964171401136272532e+00 5.211963536771413601e+02
1.964271425142034122e+00 5.211967358166668873e+02
1.964371449147795268e+00 5.211970865071659773e+02
1.964471473153556857e+00 5.211974055067655627e+02
1.964571497159318003e+00 5.211976925740318620e+02
1.964671521165079593e+00 5.211979474679782243e+02
1.964771545170840739e+00 5.211981699480769521e+02
1.964871569176602328e+00 5.211983597742699885e+02
1.964971593182363474e+00 5.211985167069800582e+02
1.965071617188125064e+00 5.211986405071198760e+02
1.965171641193886209e+00 5.211987309361024927e+02
1.965271665199648021e+00 5.211987877558545961e+02
1.965371689205409389e+00 5.211988107288221954e+02
1.965471713211170757e+00 5.211987996179865377e+02
1.965571737216932124e+00 5.211987541868710423e+02
1.965671761222693492e+00 5.211986741995519878e+02
1.965771785228454860e+00 5.211985594206704491e+02
1.965871809234216228e+00 5.211984096154423014e+02
1.965971833239977595e+00 5.211982245496674295e+02
1.966071857245738963e+00 5.211980039897423467e+02
1.966171881251500331e+00 5.211977477026686074e+02
1.966271905257261698e+00 5.211974554560642900e+02
1.966371929263023066e+00 5.211971270181738873e+02
1.966471953268784434e+00 5.211967621578792205e+02
1.966571977274545802e+00 5.211963606447097845e+02
1.966672001280307169e+00 5.211959222488515024e+02
1.966772025286068537e+00 5.211954467411603673e+02
1.966872049291829905e+00 5.211949338931696047e+02
1.966972073297591272e+00 5.211943834771012689e+02
1.967072097303352640e+00 5.211937952658759059e+02
1.967172121309114230e+00 5.211931690331258551e+02
1.967272145314875598e+00 5.211925045532003651e+02
1.967372169320636965e+00 5.211918016011800319e+02
1.967472193326398333e+00 5.211910599528837338e+02
1.967572217332159701e+00 5.211902793848837518e+02
1.967672241337921069e+00 5.211894596745097488e+02
1.967772265343682436e+00 5.211886005998642304e+02
1.967872289349443804e+00 5.211877019398291395e+02
1.967972313355205172e+00 5.211867634740777930e+02
1.968072337360966539e+00 5.211857849830859095e+02
1.968172361366727907e+00 5.211847662481378620e+02
1.968272385372489275e+00 5.211837070513417984e+02
1.968372409378250643e+00 5.211826071756352121e+02
1.968472433384012010e+00 5.211814664047983570e+02
1.968572457389773378e+00 5.211802845234622055e+02
1.968672481395534746e+00 5.211790613171194764e+02
1.968772505401296113e+00 5.211777965721336159e+02
1.968872529407057481e+00 5.211764900757500527e+02
1.968972553412819071e+00 5.211751416161049519e+02
1.969072577418580439e+00 5.211737509822360153e+02
1.969172601424341806e+00 5.211723179640914623e+02
1.969272625430103174e+00 5.211708423525410581e+02
1.969372649435864542e+00 5.211693239393841850e+02
1.969472673441625910e+00 5.211677625173616661e+02
1.969572697447387277e+00 5.211661578801642918e+02
1.969672721453148645e+00 5.211645098224425965e+02
1.969772745458910013e+00 5.211628181398176594e+02
1.969872769464671380e+00 5.211610826288888347e+02
1.969972793470432748e+00 5.211593030872446661e+02
1.970072817476194116e+00 5.211574793134740275e+02
1.970172841481955484e+00 5.211556111071726036e+02
1.970272865487716851e+00 5.211536982689542583e+02
1.970372889493478219e+00 5.211517406004606983e+02
1.970472913499239587e+00 5.211497379043711362e+02
1.970572937505000954e+00 5.211476899844101354e+02
1.970672961510762322e+00 5.211455966453594328e+02
1.970772985516523690e+00 5.211434576930653293e+02
1.970873009522285280e+00 5.211412729344488071e+02
1.970973033528046869e+00 5.211390421775165578e+02
1.971073057533808015e+00 5.211367652313682584e+02
1.971173081539569605e+00 5.211344419062054385e+02
1.971273105545330750e+00 5.211320720133428495e+02
1.971373129551092340e+00 5.211296553652166494e+02
1.971473153556853486e+00 5.211271917753932712e+02
1.971573177562615076e+00 5.211246810585789717e+02
1.971673201568376221e+00 5.211221230306299503e+02
1.971773225574137811e+00 5.211195175085592837e+02
1.971873249579898957e+00 5.211168643105484080e+02
1.971973273585660547e+00 5.211141632559535992e+02
1.972073297591421692e+00 5.211114141653184788e+02
1.972173321597183282e+00 5.211086168603786746e+02
1.972273345602944428e+00 5.211057711640744401e+02
1.972373369608706017e+00 5.211028769005581580e+02
1.972473393614467163e+00 5.210999338952024118e+02
1.972573417620228753e+00 5.210969419746105586e+02
1.972673441625990343e+00 5.210939009666244601e+02
1.972773465631751710e+00 5.210908107003315308e+02
1.972873489637513078e+00 5.210876710060780397e+02
1.972973513643274446e+00 5.210844817154739985e+02
1.973073537649035814e+00 5.210812426614020296e+02
1.973173561654797181e+00 5.210779536780272565e+02
1.973273585660558549e+00 5.210746146008068536e+02
1.973373609666319917e+00 5.210712252664950483e+02
1.973473633672081284e+00 5.210677855131548313e+02
1.973573657677842652e+00 5.210642951801655727e+02
1.973673681683604020e+00 5.210607541082305261e+02
1.973773705689365388e+00 5.210571621393861506e+02
1.973873729695126755e+00 5.210535191170090457e+02
1.973973753700888123e+00 5.210498248858276611e+02
1.974073777706649491e+00 5.210460792919262758e+02
1.974173801712410858e+00 5.210422821827554571e+02
1.974273825718172226e+00 5.210384334071404737e+02
1.974373849723933594e+00 5.210345328152882303e+02
1.974473873729694962e+00 5.210305802587957942e+02
1.974573897735456551e+00 5.210265755906597178e+02
1.974673921741217919e+00 5.210225186652812681e+02
1.974773945746979287e+00 5.210184093384769994e+02
1.974873969752740654e+00 5.210142474674860296e+02
1.974973993758502022e+00 5.210100329109757240e+02
1.975074017764263390e+00 5.210057655290535195e+02
1.975174041770024758e+00 5.210014451832705618e+02
1.975274065775786125e+00 5.209970717366322788e+02
1.975374089781547493e+00 5.209926450536048605e+02
1.975474113787308861e+00 5.209881650001229900e+02
1.975574137793070228e+00 5.209836314435978011e+02
1.975674161798831596e+00 5.209790442529235861e+02
1.975774185804592964e+00 5.209744032984863225e+02
1.975874209810354332e+00 5.209697084521708348e+02
1.975974233816115699e+00 5.209649595873665930e+02
1.976074257821877067e+00 5.209601565789781716e+02
1.976174281827638435e+00 5.209552993034304791e+02
1.976274305833399803e+00 5.209503876386747834e+02
1.976374329839161392e+00 5.209454214641984890e+02
1.976474353844922760e+00 5.209404006610319584e+02
1.976574377850684128e+00 5.209353251117532864e+02
1.976674401856445495e+00 5.209301947004989870e+02
1.976774425862206863e+00 5.209250093129655852e+02
1.976874449867968231e+00 5.209197688364238275e+02
1.976974473873729599e+00 5.209144731597189093e+02
1.977074497879490966e+00 5.209091221732810482e+02
1.977174521885252334e+00 5.209037157691307129e+02
1.977274545891013702e+00 5.208982538408871505e+02
1.977374569896775069e+00 5.208927362837723649e+02
1.977474593902536437e+00 5.208871629946196435e+02
1.977574617908297805e+00 5.208815338718809471e+02
1.977674641914059173e+00 5.208758488156297517e+02
1.977774665919820540e+00 5.208701077275719626e+02
1.977874689925581908e+00 5.208643105110502347e+02
1.977974713931343276e+00 5.208584570710495427e+02
1.978074737937104643e+00 5.208525473142044575e+02
1.978174761942866011e+00 5.208465811488064219e+02
1.978274785948627823e+00 5.208405584848070475e+02
1.978374809954388969e+00 5.208344792338280058e+02
1.978474833960150558e+00 5.208283433091644383e+02
1.978574857965911704e+00 5.208221506257910960e+02
1.978674881971673294e+00 5.208159011003697287e+02
1.978774905977434440e+00 5.208095946512540877e+02
1.978874929983196029e+00 5.208032311984961780e+02
1.978974953988957175e+00 5.207968106638511472e+02
1.979074977994718765e+00 5.207903329707847888e+02
1.979175002000479910e+00 5.207837980444776349e+02
1.979275026006241500e+00 5.207772058118306404e+02
1.979375050012002646e+00 5.207705562014723455e+02
1.979475074017764236e+00 5.207638491437628545e+02
1.979575098023525381e+00 5.207570845707997478e+02
1.979675122029286971e+00 5.207502624164235385e+02
1.979775146035048117e+00 5.207433826162233572e+02
1.979875170040809707e+00 5.207364451075418401e+02
1.979975194046570852e+00 5.207294498294797904e+02
1.980075218052332664e+00 5.207223967229032269e+02
1.980175242058094032e+00 5.207152857304464533e+02
1.980275266063855399e+00 5.207081167965179702e+02
1.980375290069616767e+00 5.207008898673060457e+02
1.980475314075378135e+00 5.206936048907816712e+02
1.980575338081139503e+00 5.206862618167072014e+02
1.980675362086900870e+00 5.206788605966364685e+02
1.980775386092662238e+00 5.206714011839226259e+02
1.980875410098423606e+00 5.206638835337237197e+02
1.980975434104184973e+00 5.206563076030026878e+02
1.981075458109946341e+00 5.206486733505380471e+02
1.981175482115707709e+00 5.206409807369221880e+02
1.981275506121469077e+00 5.206332297245718337e+02
1.981375530127230444e+00 5.206254202777278124e+02
1.981475554132991812e+00 5.206175523624617654e+02
1.981575578138753180e+00 5.206096259466789888e+02
1.981675602144514547e+00 5.206016410001244594e+02
1.981775626150275915e+00 5.205935974943854490e+02
1.981875650156037283e+00 5.205854954028956172e+02
1.981975674161798873e+00 5.205773347009399004e+02
1.982075698167560240e+00 5.205691153656589449e+02
1.982175722173321608e+00 5.205608373760500172e+02
1.982275746179082976e+00 5.205525007129747337e+02
1.982375770184844344e+00 5.205441053591600848e+02
1.982475794190605711e+00 5.205356512992032094e+02
1.982575818196367079e+00 5.205271385195746916e+02
1.982675842202128447e+00 5.205185670086224263e+02
1.982775866207889814e+00 5.205099367565754847e+02
1.982875890213651182e+00 5.205012477555463875e+02
1.982975914219412550e+00 5.204924999995348571e+02
1.983075938225173918e+00 5.204836934844320240e+02
1.983175962230935285e+00 5.204748282080227000e+02
1.983275986236696653e+00 5.204659041699893578e+02
1.983376010242458021e+00 5.204569213719144045e+02
1.983476034248219388e+00 5.204478798172832512e+02
1.983576058253980756e+00 5.204387795114886330e+02
1.983676082259742124e+00 5.204296204618315187e+02
1.983776106265503714e+00 5.204204026775255443e+02
1.983876130271265081e+00 5.204111261696991733e+02
1.983976154277026449e+00 5.204017909513981976e+02
1.984076178282787817e+00 5.203923970375894896e+02
1.984176202288549185e+00 5.203829444451605468e+02
1.984276226294310552e+00 5.203734331929277914e+02
1.984376250300071920e+00 5.203638633016321364e+02
1.984476274305833288e+00 5.203542347939460342e+02
1.984576298311594655e+00 5.203445476944748407e+02
1.984676322317356023e+00 5.203348020297571566e+02
1.984776346323117391e+00 5.203249978282708526e+02
1.984876370328878759e+00 5.203151351204305683e+02
1.984976394334640126e+00 5.203052139385929422e+02
1.985076418340401494e+00 5.202952343170577478e+02
1.985176442346162862e+00 5.202851962920695996e+02
1.985276466351924229e+00 5.202750999018203402e+02
1.985376490357685597e+00 5.202649451864489265e+02
1.985476514363446965e+00 5.202547321880463187e+02
1.985576538369208333e+00 5.202444609506542292e+02
1.985676562374969922e+00 5.202341315202683063e+02
1.985776586380731512e+00 5.202237439448399527e+02
1.985876610386492658e+00 5.202132982742749618e+02
1.985976634392254248e+00 5.202027945604386332e+02
1.986076658398015393e+00 5.201922328571550906e+02
1.986176682403776983e+00 5.201816132202078506e+02
1.986276706409538129e+00 5.201709357073420961e+02
1.986376730415299718e+00 5.201602003782669499e+02
1.986476754421060864e+00 5.201494072946528604e+02
1.986576778426822454e+00 5.201385565201362624e+02
1.986676802432583600e+00 5.201276481203190087e+02
1.986776826438345189e+00 5.201166821627683703e+02
1.986876850444106335e+00 5.201056587170181729e+02
1.986976874449867925e+00 5.200945778545712983e+02
1.987076898455629070e+00 5.200834396488969560e+02
1.987176922461390660e+00 5.200722441754351166e+02
1.987276946467151806e+00 5.200609915115933291e+02
1.987376970472913396e+00 5.200496817367491076e+02
1.987476994478674985e+00 5.200383149322499321e+02
1.987577018484436353e+00 5.200268911814131343e+02
1.987677042490197721e+00 5.200154105695271483e+02
1.987777066495959088e+00 5.200038731838501462e+02
1.987877090501720456e+00 5.199922791136102660e+02
1.987977114507481824e+00 5.199806284500068614e+02
1.988077138513243192e+00 5.199689212862095928e+02
1.988177162519004559e+00 5.199571577173578589e+02
1.988277186524765927e+00 5.199453378405614785e+02
1.988377210530527295e+00 5.199334617548993265e+02
1.988477234536288663e+00 5.199215295614193337e+02
1.988577258542050030e+00 5.199095413631389420e+02
1.988677282547811398e+00 5.198974972650433983e+02
1.988777306553572766e+00 5.198853973740851870e+02
1.988877330559334133e+00 5.198732417991848251e+02
1.988977354565095501e+00 5.198610306512277930e+02
1.989077378570856869e+00 5.198487640430658985e+02
1.989177402576618237e+00 5.198364420895150033e+02
1.989277426582379604e+00 5.198240649073552504e+02
1.989377450588141194e+00 5.198116326153289037e+02
1.989477474593902562e+00 5.197991453341398937e+02
1.989577498599663929e+00 5.197866031864512024e+02
1.989677522605425297e+00 5.197740062968880466e+02
1.989777546611186665e+00 5.197613547920299197e+02
1.989877570616948033e+00 5.197486488004151397e+02
1.989977594622709400e+00 5.197358884525364147e+02
1.990077618628470768e+00 5.197230738808395927e+02
1.990177642634232136e+00 5.197102052197225248e+02
1.990277666639993503e+00 5.196972826055338146e+02
1.990377690645754871e+00 5.196843061765705443e+02
1.990477714651516239e+00 5.196712760730758873e+02
1.990577738657277607e+00 5.196581924372387675e+02
1.990677762663038974e+00 5.196450554131899935e+02
1.990777786668800342e+00 5.196318651470027135e+02
1.990877810674561710e+00 5.196186217866880952e+02
1.990977834680323078e+00 5.196053254821936207e+02
1.991077858686084445e+00 5.195919763854030862e+02
1.991177882691846035e+00 5.195785746501304629e+02
1.991277906697607403e+00 5.195651204321205796e+02
1.991377930703368770e+00 5.195516138890458251e+02
1.991477954709130138e+00 5.195380551805038749e+02
1.991577978714891506e+00 5.195244444680132574e+02
1.991678002720652874e+00 5.195107819150144906e+02
1.991778026726414241e+00 5.194970676868637156e+02
1.991878050732175609e+00 5.194833019508309917e+02
1.991978074737936977e+00 5.194694848760987043e+02
1.992078098743698344e+00 5.194556166337583818e+02
1.992178122749459712e+00 5.194416973968056936e+02
1.992278146755221080e+00 5.194277273401390858e+02
1.992378170760982448e+00 5.194137066405573933e+02
1.992478194766743815e+00 5.193996354767542698e+02
1.992578218772505183e+00 5.193855140293172781e+02
1.992678242778266551e+00 5.193713424807232286e+02
1.992778266784027918e+00 5.193571210153348829e+02
1.992878290789789286e+00 5.193428498193982250e+02
1.992978314795550654e+00 5.193285290810375727e+02
1.993078338801312466e+00 5.193141589902544411e+02
1.993178362807073611e+00 5.192997397389195839e+02
1.993278386812835201e+00 5.192852715207745860e+02
1.993378410818596347e+00 5.192707545314240178e+02
1.993478434824357937e+00 5.192561889683324807e+02
1.993578458830119082e+00 5.192415750308222187e+02
1.993678482835880672e+00 5.192269129200670932e+02
1.993778506841641818e+00 5.192122028390897412e+02
1.993878530847403407e+00 5.191974449927565729e+02
1.993978554853164553e+00 5.191826395877747018e+02
1.994078578858926143e+00 5.191677868326859198e+02
1.994178602864687289e+00 5.191528869378643094e+02
1.994278626870448878e+00 5.191379401155111282e+02
1.994378650876210024e+00 5.191229465796482145e+02
1.994478674881971614e+00 5.191079065461167374e+02
1.994578698887732759e+00 5.190928202325707161e+02
1.994678722893494349e+00 5.190776878584736096e+02
1.994778746899255495e+00 5.190625096450904721e+02
1.994878770905017307e+00 5.190472858154873848e+02
1.994978794910778674e+00 5.190320165945225881e+02
1.995078818916540042e+00 5.190167022088447766e+02
1.995178842922301410e+00 5.190013428868865049e+02
1.995278866928062778e+00 5.189859388588582760e+02
1.995378890933824145e+00 5.189704903567449037e+02
1.995478914939585513e+00 5.189549976143005097e+02
1.995578938945346881e+00 5.189394608670404523e+02
1.995678962951108248e+00 5.189238803522400758e+02
1.995778986956869616e+00 5.189082563089252744e+02
1.995879010962630984e+00 5.188925889778702185e+02
1.995979034968392352e+00 5.188768786015889418e+02
1.996079058974153719e+00 5.188611254243328403e+02
1.996179082979915087e+00 5.188453296920827142e+02
1.996279106985676455e+00 5.188294916525428562e+02
1.996379130991437822e+00 5.188136115551367311e+02
1.996479154997199190e+00 5.187976896510006100e+02
1.996579179002960558e+00 5.187817261929756114e+02
1.996679203008721926e+00 5.187657214356064515e+02
1.996779227014483515e+00 5.187496756351293925e+02
1.996879251020244883e+00 5.187335890494706518e+02
1.996979275026006251e+00 5.187174619382381024e+02
1.997079299031767619e+00 5.187012945627152476e+02
1.997179323037528986e+00 5.186850871858555365e+02
1.997279347043290354e+00 5.186688400722759980e+02
1.997379371049051722e+00 5.186525534882490547e+02
1.997479395054813089e+00 5.186362277016978624e+02
1.997579419060574457e+00 5.186198629821897157e+02
1.997679443066335825e+00 5.186034596009277493e+02
1.997779467072097193e+00 5.185870178307457081e+02
1.997879491077858560e+00 5.185705379461011262e+02
1.997979515083619928e+00 5.185540202230683917e+02
1.998079539089381296e+00 5.185374649393295385e+02
1.998179563095142663e+00 5.185208723741723134e+02
1.998279587100904031e+00 5.185042428084774428e+02
1.998379611106665399e+00 5.184875765247162462e+02
1.998479635112426767e+00 5.184708738069402898e+02
1.998579659118188356e+00 5.184541349407761572e+02
1.998679683123949724e+00 5.184373602134166958e+02
1.998779707129711092e+00 5.184205499136151047e+02
1.998879731135472460e+00 5.184037043316762947e+02
1.998979755141233827e+00 5.183868237594507491e+02
1.999079779146995195e+00 5.183699084903257699e+02
1.999179803152756563e+00 5.183529588192187703e+02
1.999279827158517930e+00 5.183359750425688617e+02
1.999379851164279298e+00 5.183189574583300328e+02
1.999479875170040666e+00 5.183019063659625090e+02
1.999579899175802034e+00 5.182848220664275232e+02
1.999679923181563401e+00 5.182677048621737868e+02
1.999779947187324769e+00 5.182505550571362392e+02
1.999879971193086137e+00 5.182333729567244518e+02
1.999979995198847504e+00 5.182161588678133057e+02
2.000080019204609094e+00 4.998413025599137995e+02
2.000180043210370240e+00 4.997603887781426124e+02
2.000280067216131830e+00 4.996795056131582555e+02
2.000380091221892975e+00 4.995986545196075781e+02
2.000480115227654565e+00 4.995178369511574488e+02
2.000580139233416155e+00 4.994370543604536010e+02
2.000680163239177300e+00 4.993563081990787396e+02
2.000780187244938890e+00 4.992755999175103625e+02
2.000880211250700036e+00 4.991949309650800046e+02
2.000980235256461626e+00 4.991143027899315712e+02
2.001080259262222771e+00 4.990337168389798990e+02
2.001180283267984361e+00 4.989531745578686923e+02
2.001280307273745507e+00 4.988726773909305621e+02
2.001380331279507097e+00 4.987922267811438246e+02
2.001480355285268242e+00 4.987118241700935073e+02
2.001580379291029832e+00 4.986314709979284316e+02
2.001680403296790978e+00 4.985511687033206272e+02
2.001780427302552567e+00 4.984709187234253704e+02
2.001880451308313713e+00 4.983907224938371314e+02
2.001980475314075303e+00 4.983105814485534779e+02
2.002080499319836449e+00 4.982304970199289755e+02
2.002180523325598038e+00 4.981504706386378984e+02
2.002280547331359628e+00 4.980705037336333021e+02
2.002380571337120774e+00 4.979905977321041632e+02
2.002480595342882363e+00 4.979107540594368402e+02
2.002580619348643509e+00 4.978309741391739180e+02
2.002680643354405099e+00 4.977512593929734521e+02
2.002780667360166245e+00 4.976716112405691206e+02
2.002880691365927834e+00 4.975920310997298657e+02
2.002980715371688980e+00 4.975125203862191938e+02
2.003080739377450570e+00 4.974330805137554421e+02
2.003180763383211715e+00 4.973537128939717604e+02
2.003280787388973305e+00 4.972744189363752412e+02
2.003380811394734451e+00 4.971952000483091751e+02
2.003480835400496041e+00 4.971160576349105895e+02
2.003580859406257186e+00 4.970369930990727880e+02
2.003680883412018776e+00 4.969580078414037985e+02
2.003780907417779922e+00 4.968791032601878896e+02
2.003880931423541512e+00 4.968002807513468611e+02
2.003980955429302657e+00 4.967215417083983198e+02
2.004080979435064247e+00 4.966428875224188459e+02
2.004181003440825837e+00 4.965643195820035203e+02
2.004281027446586982e+00 4.964858392732267021e+02
2.004381051452348572e+00 4.964074479796044557e+02
2.004481075458110162e+00 4.963291470820532254e+02
2.004581099463871308e+00 4.962509379588532283e+02
2.004681123469632453e+00 4.961728219856086071e+02
2.004781147475394043e+00 4.960948005352091172e+02
2.004881171481155633e+00 4.960168749777922130e+02
2.004981195486916778e+00 4.959390466807030293e+02
2.005081219492677924e+00 4.958613170084586272e+02
2.005181243498439514e+00 4.957836873227067827e+02
2.005281267504201104e+00 4.957061589821906296e+02
2.005381291509962249e+00 4.956287333427081307e+02
2.005481315515723395e+00 4.955514117570767212e+02
2.005581339521484985e+00 4.954741955750940861e+02
2.005681363527246575e+00 4.953970861435004736e+02
2.005781387533007720e+00 4.953200848059418604e+02
2.005881411538768866e+00 4.952431929029326056e+02
2.005981435544530900e+00 4.951664117718162288e+02
2.006081459550292045e+00 4.950897427467310763e+02
2.006181483556053635e+00 4.950131871585718955e+02
2.006281507561814781e+00 4.949367463349518630e+02
2.006381531567576371e+00 4.948604216001680243e+02
2.006481555573337516e+00 4.947842142751624692e+02
2.006581579579099106e+00 4.947081256774869757e+02
2.006681603584860252e+00 4.946321571212658341e+02
2.006781627590621842e+00 4.945563099171608883e+02
2.006881651596382987e+00 4.944805853723332802e+02
2.006981675602144577e+00 4.944049847904087756e+02
2.007081699607905723e+00 4.943295094714414972e+02
2.007181723613667312e+00 4.942541607118782281e+02
2.007281747619428458e+00 4.941789398045226562e+02
2.007381771625190048e+00 4.941038480384989384e+02
2.007481795630951193e+00 4.940288866992183330e+02
2.007581819636712783e+00 4.939540570683415694e+02
2.007681843642473929e+00 4.938793604237454247e+02
2.007781867648235519e+00 4.938047980394868546e+02
2.007881891653997108e+00 4.937303711857680355e+02
2.007981915659758254e+00 4.936560811289027697e+02
2.008081939665519844e+00 4.935819291312801624e+02
2.008181963671280990e+00 4.935079164513318801e+02
2.008281987677042579e+00 4.934340443434961117e+02
2.008382011682803725e+00 4.933603140581851108e+02
2.008482035688565315e+00 4.932867268417501805e+02
2.008582059694326460e+00 4.932132839364480219e+02
2.008682083700088050e+00 4.931399865804060596e+02
2.008782107705849196e+00 4.930668360075918031e+02
2.008882131711610786e+00 4.929938334477754438e+02
2.008982155717371931e+00 4.929209801264993303e+02
2.009082179723133521e+00 4.928482772650443167e+02
2.009182203728894667e+00 4.927757260803963391e+02
2.009282227734656257e+00 4.927033277852136166e+02
2.009382251740417402e+00 4.926310835877934551e+02
2.009482275746178992e+00 4.925589946920425746e+02
2.009582299751940138e+00 4.924870622974402181e+02
2.009682323757701727e+00 4.924152875990095026e+02
2.009782347763463317e+00 4.923436717872842223e+02
2.009882371769224463e+00 4.922722160482769027e+02
2.009982395774986053e+00 4.922009215634475936e+02
2.010082419780747198e+00 4.921297895096701609e+02
2.010182443786508788e+00 4.920588210592050018e+02
2.010282467792269934e+00 4.919880173796640292e+02
2.010382491798031523e+00 4.919173796339809996e+02
2.010482515803792669e+00 4.918469089803809879e+02
2.010582539809554259e+00 4.917766065723499764e+02
2.010682563815315405e+00 4.917064735586025108e+02
2.010782587821076994e+00 4.916365110830521985e+02
2.010882611826838140e+00 4.915667202847834574e+02
2.010982635832599730e+00 4.914971022980185467e+02
2.011082659838360875e+00 4.914276582520885199e+02
2.011182683844122465e+00 4.913583892714048034e+02
2.011282707849883611e+00 4.912892964754282161e+02
2.011382731855645201e+00 4.912203809786401507e+02
2.011482755861406346e+00 4.911516438905137534e+02
2.011582779867167936e+00 4.910830863154841381e+02
2.011682803872929526e+00 4.910147093529203630e+02
2.011782827878691116e+00 4.909465140970957577e+02
2.011882851884452261e+00 4.908785016371610936e+02
2.011982875890213407e+00 4.908106730571142862e+02
2.012082899895974997e+00 4.907430294357739058e+02
2.012182923901736586e+00 4.906755718467508132e+02
2.012282947907497732e+00 4.906083013584197374e+02
2.012382971913258878e+00 4.905412190338917640e+02
2.012482995919020468e+00 4.904743259309893801e+02
2.012583019924782057e+00 4.904076231022150978e+02
2.012683043930543203e+00 4.903411115947285452e+02
2.012783067936304349e+00 4.902747924503165677e+02
2.012883091942065938e+00 4.902086667053679321e+02
2.012983115947827528e+00 4.901427353908480882e+02
2.013083139953588674e+00 4.900769995322698378e+02
2.013183163959349820e+00 4.900114601496699720e+02
2.013283187965111409e+00 4.899461182575828389e+02
2.013383211970872999e+00 4.898809748650137408e+02
2.013483235976634589e+00 4.898160309754147761e+02
2.013583259982395735e+00 4.897512875866577815e+02
2.013683283988157324e+00 4.896867456910111400e+02
2.013783307993918470e+00 4.896224062751138604e+02
2.013883331999680060e+00 4.895582703199511343e+02
2.013983356005441205e+00 4.894943388008289276e+02
2.014083380011202795e+00 4.894306126873524931e+02
2.014183404016963941e+00 4.893670929433974379e+02
2.014283428022725531e+00 4.893037805270914760e+02
2.014383452028486676e+00 4.892406763907860068e+02
2.014483476034248266e+00 4.891777814810351401e+02
2.014583500040009412e+00 4.891150967385722765e+02
2.014683524045771001e+00 4.890526230982856077e+02
2.014783548051532147e+00 4.889903614891957204e+02
2.014883572057293737e+00 4.889283128344353031e+02
2.014983596063054883e+00 4.888664780512223729e+02
2.015083620068816472e+00 4.888048580508409486e+02
2.015183644074577618e+00 4.887434537386187117e+02
2.015283668080339208e+00 4.886822660139047230e+02
2.015383692086100798e+00 4.886212957700467996e+02
2.015483716091861943e+00 4.885605438943713352e+02
2.015583740097623533e+00 4.885000112681623250e+02
2.015683764103384679e+00 4.884396987666382870e+02
2.015783788109146268e+00 4.883796072589336745e+02
2.015883812114907414e+00 4.883197376080773324e+02
2.015983836120669004e+00 4.882600906709722040e+02
2.016083860126430150e+00 4.882006672983741851e+02
2.016183884132191739e+00 4.881414683348737640e+02
2.016283908137952885e+00 4.880824946188752165e+02
2.016383932143714475e+00 4.880237469825763696e+02
2.016483956149475620e+00 4.879652262519519468e+02
2.016583980155237210e+00 4.879069332467308300e+02
2.016684004160998356e+00 4.878488687803800303e+02
2.016784028166759946e+00 4.877910336600834853e+02
2.016884052172521091e+00 4.877334286867268816e+02
2.016984076178282681e+00 4.876760546548756565e+02
2.017084100184044271e+00 4.876189123527595939e+02
2.017184124189805416e+00 4.875620025622525873e+02
2.017284148195567006e+00 4.875053260588591115e+02
2.017384172201328152e+00 4.874488836116917128e+02
2.017484196207089742e+00 4.873926759834577638e+02
2.017584220212850887e+00 4.873367039304407058e+02
2.017684244218612477e+00 4.872809682024818017e+02
2.017784268224373623e+00 4.872254695429679714e+02
2.017884292230135213e+00 4.871702086888117265e+02
2.017984316235896358e+00 4.871151863704353673e+02
2.018084340241657948e+00 4.870604033117583640e+02
2.018184364247419094e+00 4.870058602301759265e+02
2.018284388253180683e+00 4.869515578365497959e+02
2.018384412258941829e+00 4.868974968351890311e+02
2.018484436264703419e+00 4.868436779238363670e+02
2.018584460270464565e+00 4.867901017936522976e+02
2.018684484276226154e+00 4.867367691292032532e+02
2.018784508281987300e+00 4.866836806084445470e+02
2.018884532287748890e+00 4.866308369027066760e+02
2.018984556293510479e+00 4.865782386766831564e+02
2.019084580299272069e+00 4.865258865884159150e+02
2.019184604305033215e+00 4.864737812892803959e+02
2.019284628310794361e+00 4.864219234239745902e+02
2.019384652316555950e+00 4.863703136305050521e+02
2.019484676322317540e+00 4.863189525401746209e+02
2.019584700328078686e+00 4.862678407775691198e+02
2.019684724333839831e+00 4.862169789605461006e+02
2.019784748339601421e+00 4.861663677002214854e+02
2.019884772345363011e+00 4.861160076009589375e+02
2.019984796351124157e+00 4.860658992603579804e+02
2.020084820356885302e+00 4.860160432692421182e+02
2.020184844362646892e+00 4.859664402116486599e+02
2.020284868368408482e+00 4.859170906648162145e+02
2.020384892374169628e+00 4.858679951991761072e+02
2.020484916379930773e+00 4.858191543783393058e+02
2.020584940385692363e+00 4.857705687590901675e+02
2.020684964391453953e+00 4.857222388913710347e+02
2.020784988397215542e+00 4.856741653182774598e+02
2.020885012402976688e+00 4.856263485760463254e+02
2.020985036408738278e+00 4.855787891940461236e+02
2.021085060414499424e+00 4.855314876947691118e+02
2.021185084420261013e+00 4.854844445938219337e+02
2.021285108426022159e+00 4.854376603999170925e+02
2.021385132431783749e+00 4.853911356148638561e+02
2.021485156437544894e+00 4.853448707335624022e+02
2.021585180443306484e+00 4.852988662439927339e+02
2.021685204449067630e+00 4.852531226272085405e+02
2.021785228454829220e+00 4.852076403573303196e+02
2.021885252460590365e+00 4.851624199015381578e+02
2.021985276466351955e+00 4.851174617200630905e+02
2.022085300472113101e+00 4.850727662661818158e+02
2.022185324477874691e+00 4.850283339862094181e+02
2.022285348483635836e+00 4.849841653194946502e+02
2.022385372489397426e+00 4.849402606984108957e+02
2.022485396495158572e+00 4.848966205483534395e+02
2.022585420500920161e+00 4.848532452877319656e+02
2.022685444506681751e+00 4.848101353279656678e+02
2.022785468512442897e+00 4.847672910734790435e+02
2.022885492518204487e+00 4.847247129216948451e+02
2.022985516523965632e+00 4.846824012630314087e+02
2.023085540529727222e+00 4.846403564808985038e+02
2.023185564535488368e+00 4.845985789516901150e+02
2.023285588541249957e+00 4.845570690447843276e+02
2.023385612547011103e+00 4.845158271225373028e+02
2.023485636552772693e+00 4.844748535402791845e+02
2.023585660558533839e+00 4.844341486463143269e+02
2.023685684564295428e+00 4.843937127819133934e+02
2.023785708570056574e+00 4.843535462813139247e+02
2.023885732575818164e+00 4.843136494717178948e+02
2.023985756581579309e+00 4.842740226732871633e+02
2.024085780587340899e+00 4.842346661991427936e+02
2.024185804593102045e+00 4.841955803553623241e+02
2.024285828598863635e+00 4.841567654409802799e+02
2.024385852604624780e+00 4.841182217479842507e+02
2.024485876610386370e+00 4.840799495613150043e+02
2.024585900616147960e+00 4.840419491588646110e+02
2.024685924621909106e+00 4.840042208114771256e+02
2.024785948627670695e+00 4.839667647829472230e+02
2.024885972633431841e+00 4.839295813300195732e+02
2.024985996639193431e+00 4.838926707023897507e+02
2.025086020644954576e+00 4.838560331427037795e+02
2.025186044650716166e+00 4.838196688865593273e+02
2.025286068656477312e+00 4.837835781625051368e+02
2.025386092662238902e+00 4.837477611920435265e+02
2.025486116668000047e+00 4.837122181896295956e+02
2.025586140673761637e+00 4.836769493626749750e+02
2.025686164679522783e+00 4.836419549115469181e+02
2.025786188685284372e+00 4.836072350295720526e+02
2.025886212691045518e+00 4.835727899030373464e+02
2.025986236696807108e+00 4.835386197111935758e+02
2.026086260702568254e+00 4.835047246262560066e+02
2.026186284708329843e+00 4.834711048134093403e+02
2.026286308714090989e+00 4.834377604308078844e+02
2.026386332719853023e+00 4.834046916295819756e+02
2.026486356725614169e+00 4.833718985538391735e+02
2.026586380731375314e+00 4.833393813406688082e+02
2.026686404737136904e+00 4.833071401201458457e+02
2.026786428742898494e+00 4.832751750153341845e+02
2.026886452748659639e+00 4.832434861422926815e+02
2.026986476754420785e+00 4.832120736100773684e+02
2.027086500760182375e+00 4.831809375207487847e+02
2.027186524765943965e+00 4.831500779693755021e+02
2.027286548771705110e+00 4.831194950440390130e+02
2.027386572777466256e+00 4.830891888258410063e+02
2.027486596783227846e+00 4.830591593889066075e+02
2.027586620788989435e+00 4.830294068003930761e+02
2.027686644794750581e+00 4.829999311204940113e+02
2.027786668800511727e+00 4.829707324024458899e+02
2.027886692806273317e+00 4.829418106925345455e+02
2.027986716812034906e+00 4.829131660301042075e+02
2.028086740817796052e+00 4.828847984475615931e+02
2.028186764823557642e+00 4.828567079703848322e+02
2.028286788829319232e+00 4.828288946171297766e+02
2.028386812835080377e+00 4.828013583994397777e+02
2.028486836840841967e+00 4.827740993220511427e+02
2.028586860846603113e+00 4.827471173828032533e+02
2.028686884852364702e+00 4.827204125726466373e+02
2.028786908858125848e+00 4.826939848756500737e+02
2.028886932863887438e+00 4.826678342690104273e+02
2.028986956869648584e+00 4.826419607230629936e+02
2.029086980875410173e+00 4.826163642012880928e+02
2.029187004881171319e+00 4.825910446603229502e+02
2.029287028886932909e+00 4.825660020499697680e+02
2.029387052892694054e+00 4.825412363132071505e+02
2.029487076898455644e+00 4.825167473861981193e+02
2.029587100904216790e+00 4.824925351983025621e+02
2.029687124909978380e+00 4.824685996720870094e+02
2.029787148915739525e+00 4.824449407233345255e+02
2.029887172921501115e+00 4.824215582610576121e+02
2.029987196927262261e+00 4.823984521875082123e+02
2.030087220933023850e+00 4.823756223981874882e+02
2.030187244938785440e+00 4.823530687818619640e+02
2.030287268944546586e+00 4.823307912205706316e+02
2.030387292950308176e+00 4.823087895896394457e+02
2.030487316956069321e+00 4.822870637576934314e+02
2.030587340961830911e+00 4.822656135866700993e+02
2.030687364967592057e+00 4.822444389318280855e+02
2.030787388973353647e+00 4.822235396417655693e+02
2.030887412979114792e+00 4.822029155584295381e+02
2.030987436984876382e+00 4.821825665171308515e+02
2.031087460990637528e+00 4.821624923465560641e+02
2.031187484996399117e+00 4.821426928687836266e+02
2.031287509002160263e+00 4.821231678992962770e+02
2.031387533007921853e+00 4.821039172469954224e+02
2.031487557013682999e+00 4.820849407142147811e+02
2.031587581019444588e+00 4.820662380967372087e+02
2.031687605025205734e+00 4.820478091838065779e+02
2.031787629030967324e+00 4.820296537581450593e+02
2.031887653036728913e+00 4.820117715959665361e+02
2.031987677042490059e+00 4.819941624669930889e+02
2.032087701048251649e+00 4.819768261344710254e+02
2.032187725054012795e+00 4.819597623551854326e+02
2.032287749059774384e+00 4.819429708794757516e+02
2.032387773065535530e+00 4.819264514512542519e+02
2.032487797071297120e+00 4.819102038080205261e+02
2.032587821077058265e+00 4.818942276808779752e+02
2.032687845082819855e+00 4.818785227945521115e+02
2.032787869088581001e+00 4.818630888674061339e+02
2.032887893094342591e+00 4.818479256114579812e+02
2.032987917100103736e+00 4.818330327323990900e+02
2.033087941105865326e+00 4.818184099296109366e+02
2.033187965111626472e+00 4.818040568961824306e+02
2.033287989117388062e+00 4.817899733189287872e+02
2.033388013123149207e+00 4.817761588784093760e+02
2.033488037128910797e+00 4.817626132489455131e+02
2.033588061134671943e+00 4.817493360986399011e+02
2.033688085140433532e+00 4.817363270893940808e+02
2.033788109146195122e+00 4.817235858769278138e+02
2.033888133151956268e+00 4.817111121108007410e+02
2.033988157157717858e+00 4.816989054344256829e+02
2.034088181163479447e+00 4.816869654850947882e+02
2.034188205169240593e+00 4.816752918939944266e+02
2.034288229175001739e+00 4.816638842862269598e+02
2.034388253180763328e+00 4.816527422808312053e+02
2.034488277186524918e+00 4.816418654908011376e+02
2.034588301192286064e+00 4.816312535231068068e+02
2.034688325198047210e+00 4.816209059787157116e+02
2.034788349203808799e+00 4.816108224526132062e+02
2.034888373209570389e+00 4.816010025338221112e+02
2.034988397215331535e+00 4.815914458054249963e+02
2.035088421221092680e+00 4.815821518445870311e+02
2.035188445226854270e+00 4.815731202225730385e+02
2.035288469232615860e+00 4.815643505047729604e+02
2.035388493238377006e+00 4.815558422507230603e+02
2.035488517244138151e+00 4.815475950141272961e+02
2.035588541249900185e+00 4.815396083428771590e+02
2.035688565255661331e+00 4.815318817790798676e+02
2.035788589261422921e+00 4.815244148590744544e+02
2.035888613267184066e+00 4.815172071134580278e+02
2.035988637272945656e+00 4.815102580671087935e+02
2.036088661278706802e+00 4.815035672392068022e+02
2.036188685284468392e+00 4.814971341432593590e+02
2.036288709290229537e+00 4.814909582871226235e+02
2.036388733295991127e+00 4.814850391730259958e+02
2.036488757301752273e+00 4.814793762975963318e+02
2.036588781307513862e+00 4.814739691518809082e+02
2.036688805313275008e+00 4.814688172213710118e+02
2.036788829319036598e+00 4.814639199860268945e+02
2.036888853324797743e+00 4.814592769203022726e+02
2.036988877330559333e+00 4.814548874931683713e+02
2.037088901336320479e+00 4.814507511681375718e+02
2.037188925342082069e+00 4.814468674032912645e+02
2.037288949347843214e+00 4.814432356513009950e+02
2.037388973353604804e+00 4.814398553594558621e+02
2.037488997359366394e+00 4.814367259696863357e+02
2.037589021365127540e+00 4.814338469185931899e+02
2.037689045370889129e+00 4.814312176374672845e+02
2.037789069376650275e+00 4.814288375523208856e+02
2.037889093382411865e+00 4.814267060839091528e+02
2.037989117388173010e+00 4.814248226477595836e+02
2.038089141393934600e+00 4.814231866541964564e+02
2.038189165399695746e+00 4.814217975083665806e+02
2.038289189405457336e+00 4.814206546102668653e+02
2.038389213411218481e+00 4.814197573547706384e+02
2.038489237416980071e+00 4.814191051316553285e+02
2.038589261422741217e+00 4.814186973256269084e+02
2.038689285428502806e+00 4.814185333163483733e+02
2.038789309434263952e+00 4.814186124784689582e+02
2.038889333440025542e+00 4.814189341816469323e+02
2.038989357445786688e+00 4.814194977905816586e+02
2.039089381451548277e+00 4.814203026650373545e+02
2.039189405457309423e+00 4.814213481598740145e+02
2.039289429463071013e+00 4.814226336250728764e+02
2.039389453468832603e+00 4.814241584057654677e+02
2.039489477474593748e+00 4.814259218422628805e+02
2.039589501480355338e+00 4.814279232700806119e+02
2.039689525486116484e+00 4.814301620199707372e+02
2.039789549491878073e+00 4.814326374179485128e+02
2.039889573497639219e+00 4.814353487853207980e+02
2.039989597503400809e+00 4.814382954387169207e+02
