2.000080019204609094e+00 5.529610795378713419e+02
2.000180043210370240e+00 5.531452884220556143e+02
2.000280067216131830e+00 5.533293706421277420e+02
2.000380091221892975e+00 5.535133230289437734e+02
2.000480115227654565e+00 5.536971424132775610e+02
2.000580139233416155e+00 5.538808256258992060e+02
2.000680163239177300e+00 5.540643694976571396e+02
2.000780187244938890e+00 5.542477708595540662e+02
2.000880211250700036e+00 5.544310265428298408e+02
2.000980235256461626e+00 5.546141333790410499e+02
2.001080259262222771e+00 5.547970882001392283e+02
2.001180283267984361e+00 5.549798878385510079e+02
2.001280307273745507e+00 5.551625291272588356e+02
2.001380331279507097e+00 5.553450088998793035e+02
2.001480355285268242e+00 5.555273239907439802e+02
2.001580379291029832e+00 5.557094712349783094e+02
2.001680403296790978e+00 5.558914474685818732e+02
2.001780427302552567e+00 5.560732495285078585e+02
2.001880451308313713e+00 5.562548742527416152e+02
2.001980475314075303e+00 5.564363184803829654e+02
2.002080499319836449e+00 5.566175790517221458e+02
2.002180523325598038e+00 5.567986528083217763e+02
2.002280547331359628e+00 5.569795365930958724e+02
2.002380571337120774e+00 5.571602272503899940e+02
2.002480595342882363e+00 5.573407216260588939e+02
2.002580619348643509e+00 5.575210165675465532e+02
2.002680643354405099e+00 5.577011089239665580e+02
2.002780667360166245e+00 5.578809955461805430e+02
2.002880691365927834e+00 5.580606732868777726e+02
2.002980715371688980e+00 5.582401390006536985e+02
2.003080739377450570e+00 5.584193895440895403e+02
2.003180763383211715e+00 5.585984217758316390e+02
2.003280787388973305e+00 5.587772325566700147e+02
2.003380811394734451e+00 5.589558187496174924e+02
2.003480835400496041e+00 5.591341772199889419e+02
2.003580859406257186e+00 5.593123048354796083e+02
2.003680883412018776e+00 5.594901984662435552e+02
2.003780907417779922e+00 5.596678549849740421e+02
2.003880931423541512e+00 5.598452712669798075e+02
2.003980955429302657e+00 5.600224441902664694e+02
2.004080979435064247e+00 5.601993706356112170e+02
2.004181003440825837e+00 5.603760474866446657e+02
2.004281027446586982e+00 5.605524716299280499e+02
2.004381051452348572e+00 5.607286399550305305e+02
2.004481075458110162e+00 5.609045493546077523e+02
2.004581099463871308e+00 5.610801967244819934e+02
2.004681123469632453e+00 5.612555789637160615e+02
2.004781147475394043e+00 5.614306929746944661e+02
2.004881171481155633e+00 5.616055356632007260e+02
2.004981195486916778e+00 5.617801039384936530e+02
2.005081219492677924e+00 5.619543947133860229e+02
2.005181243498439514e+00 5.621284049043218829e+02
2.005281267504201104e+00 5.623021314314531764e+02
2.005381291509962249e+00 5.624755712187176186e+02
2.005481315515723395e+00 5.626487211939170265e+02
2.005581339521484985e+00 5.628215782887914429e+02
2.005681363527246575e+00 5.629941394390989444e+02
2.005781387533007720e+00 5.631664015846903339e+02
2.005881411538768866e+00 5.633383616695873570e+02
2.005981435544530900e+00 5.635100166420578489e+02
2.006081459550292045e+00 5.636813634546936100e+02
2.006181483556053635e+00 5.638523990644855530e+02
2.006281507561814781e+00 5.640231204328997592e+02
2.006381531567576371e+00 5.641935245259547855e+02
2.006481555573337516e+00 5.643636083142968118e+02
2.006581579579099106e+00 5.645333687732744465e+02
2.006681603584860252e+00 5.647028028830164885e+02
2.006781627590621842e+00 5.648719076285045730e+02
2.006881651596382987e+00 5.650406799996519567e+02
2.006981675602144577e+00 5.652091169913749127e+02
2.007081699607905723e+00 5.653772156036711749e+02
2.007181723613667312e+00 5.655449728416930384e+02
2.007281747619428458e+00 5.657123857158215969e+02
2.007381771625190048e+00 5.658794512417429132e+02
2.007481795630951193e+00 5.660461664405213469e+02
2.007581819636712783e+00 5.662125283386737919e+02
2.007681843642473929e+00 5.663785339682445965e+02
2.007781867648235519e+00 5.665441803668785496e+02
2.007881891653997108e+00 5.667094645778950053e+02
2.007981915659758254e+00 5.668743836503617786e+02
2.008081939665519844e+00 5.670389346391681329e+02
2.008181963671280990e+00 5.672031146050984489e+02
2.008281987677042579e+00 5.673669206149045294e+02
2.008382011682803725e+00 5.675303497413796094e+02
2.008482035688565315e+00 5.676933990634289557e+02
2.008582059694326460e+00 5.678560656661471739e+02
2.008682083700088050e+00 5.680183466408830100e+02
2.008782107705849196e+00 5.681802390853191582e+02
2.008882131711610786e+00 5.683417401035385410e+02
2.008982155717371931e+00 5.685028468060997966e+02
2.009082179723133521e+00 5.686635563101075377e+02
2.009182203728894667e+00 5.688238657392819277e+02
2.009282227734656257e+00 5.689837722240336007e+02
2.009382251740417402e+00 5.691432729015310770e+02
2.009482275746178992e+00 5.693023649157744330e+02
2.009582299751940138e+00 5.694610454176626035e+02
2.009682323757701727e+00 5.696193115650676191e+02
2.009782347763463317e+00 5.697771605229017950e+02
2.009882371769224463e+00 5.699345894631892406e+02
2.009982395774986053e+00 5.700915955651346394e+02
2.010082419780747198e+00 5.702481760151925982e+02
2.010182443786508788e+00 5.704043280071389290e+02
2.010282467792269934e+00 5.705600487421374964e+02
2.010382491798031523e+00 5.707153354288100218e+02
2.010482515803792669e+00 5.708701852833042949e+02
2.010582539809554259e+00 5.710245955293642055e+02
2.010682563815315405e+00 5.711785633983947719e+02
2.010782587821076994e+00 5.713320861295337636e+02
2.010882611826838140e+00 5.714851609697157073e+02
2.010982635832599730e+00 5.716377851737437368e+02
2.011082659838360875e+00 5.717899560043521205e+02
2.011182683844122465e+00 5.719416707322772027e+02
2.011282707849883611e+00 5.720929266363207262e+02
2.011382731855645201e+00 5.722437210034205464e+02
2.011482755861406346e+00 5.723940511287125901e+02
2.011582779867167936e+00 5.725439143156000910e+02
2.011682803872929526e+00 5.726933078758177089e+02
2.011782827878691116e+00 5.728422291294959905e+02
2.011882851884452261e+00 5.729906754052311726e+02
2.011982875890213407e+00 5.731386440401456639e+02
2.012082899895974997e+00 5.732861323799539832e+02
2.012182923901736586e+00 5.734331377790282431e+02
2.012282947907497732e+00 5.735796576004620420e+02
2.012382971913258878e+00 5.737256892161332189e+02
2.012482995919020468e+00 5.738712300067710430e+02
2.012583019924782057e+00 5.740162773620140797e+02
2.012683043930543203e+00 5.741608286804794261e+02
2.012783067936304349e+00 5.743048813698218282e+02
2.012883091942065938e+00 5.744484328467966634e+02
2.012983115947827528e+00 5.745914805373241734e+02
2.013083139953588674e+00 5.747340218765504005e+02
2.013183163959349820e+00 5.748760543089074417e+02
2.013283187965111409e+00 5.750175752881785911e+02
2.013383211970872999e+00 5.751585822775570023e+02
2.013483235976634589e+00 5.752990727497075341e+02
2.013583259982395735e+00 5.754390441868264361e+02
2.013683283988157324e+00 5.755784940807035355e+02
2.013783307993918470e+00 5.757174199327815813e+02
2.013883331999680060e+00 5.758558192542154757e+02
2.013983356005441205e+00 5.759936895659318452e+02
2.014083380011202795e+00 5.761310283986908871e+02
2.014183404016963941e+00 5.762678332931403702e+02
2.014283428022725531e+00 5.764041017998797543e+02
2.014383452028486676e+00 5.765398314795146462e+02
2.014483476034248266e+00 5.766750199027168264e+02
2.014583500040009412e+00 5.768096646502809790e+02
2.014683524045771001e+00 5.769437633131835810e+02
2.014783548051532147e+00 5.770773134926375860e+02
2.014883572057293737e+00 5.772103128001525647e+02
2.014983596063054883e+00 5.773427588575882510e+02
2.015083620068816472e+00 5.774746492972132046e+02
2.015183644074577618e+00 5.776059817617581302e+02
2.015283668080339208e+00 5.777367539044745399e+02
2.015383692086100798e+00 5.778669633891873900e+02
2.015483716091861943e+00 5.779966078903518110e+02
2.015583740097623533e+00 5.781256850931071085e+02
2.015683764103384679e+00 5.782541926933305376e+02
2.015783788109146268e+00 5.783821283976928953e+02
2.015883812114907414e+00 5.785094899237100208e+02
2.015983836120669004e+00 5.786362749997991841e+02
2.016083860126430150e+00 5.787624813653287674e+02
2.016183884132191739e+00 5.788881067706736303e+02
2.016283908137952885e+00 5.790131489772657005e+02
2.016383932143714475e+00 5.791376057576474068e+02
2.016483956149475620e+00 5.792614748955229516e+02
2.016583980155237210e+00 5.793847541858092427e+02
2.016684004160998356e+00 5.795074414346886442e+02
2.016784028166759946e+00 5.796295344596547920e+02
2.016884052172521091e+00 5.797510310895719385e+02
2.016984076178282681e+00 5.798719291647153113e+02
2.017084100184044271e+00 5.799922265368272747e+02
2.017184124189805416e+00 5.801119210691630315e+02
2.017284148195567006e+00 5.802310106365440561e+02
2.017384172201328152e+00 5.803494931254008407e+02
2.017484196207089742e+00 5.804673664338267827e+02
2.017584220212850887e+00 5.805846284716226364e+02
2.017684244218612477e+00 5.807012771603452848e+02
2.017784268224373623e+00 5.808173104333550327e+02
2.017884292230135213e+00 5.809327262358630151e+02
2.017984316235896358e+00 5.810475225249768982e+02
2.018084340241657948e+00 5.811616972697479468e+02
2.018184364247419094e+00 5.812752484512164983e+02
2.018284388253180683e+00 5.813881740624563008e+02
2.018384412258941829e+00 5.815004721086232848e+02
2.018484436264703419e+00 5.816121406069952400e+02
2.018584460270464565e+00 5.817231775870211550e+02
2.018684484276226154e+00 5.818335810903618039e+02
2.018784508281987300e+00 5.819433491709349937e+02
2.018884532287748890e+00 5.820524798949597880e+02
2.018984556293510479e+00 5.821609713409968663e+02
2.019084580299272069e+00 5.822688215999935437e+02
2.019184604305033215e+00 5.823760287753253806e+02
2.019284628310794361e+00 5.824825909828375643e+02
2.019384652316555950e+00 5.825885063508862913e+02
2.019484676322317540e+00 5.826937730203820820e+02
2.019584700328078686e+00 5.827983891448260465e+02
2.019684724333839831e+00 5.829023528903562692e+02
2.019784748339601421e+00 5.830056624357823694e+02
2.019884772345363011e+00 5.831083159726283611e+02
2.019984796351124157e+00 5.832103117051699428e+02
2.020084820356885302e+00 5.833116478504769020e+02
2.020184844362646892e+00 5.834123226384463123e+02
2.020284868368408482e+00 5.835123343118460753e+02
2.020384892374169628e+00 5.836116811263486852e+02
2.020484916379930773e+00 5.837103613505696558e+02
2.020584940385692363e+00 5.838083732661069689e+02
2.020684964391453953e+00 5.839057151675735895e+02
2.020784988397215542e+00 5.840023853626366872e+02
2.020885012402976688e+00 5.840983821720531068e+02
2.020985036408738278e+00 5.841937039297035881e+02
2.021085060414499424e+00 5.842883489826278947e+02
2.021185084420261013e+00 5.843823156910618764e+02
2.021285108426022159e+00 5.844756024284686191e+02
2.021385132431783749e+00 5.845682075815736880e+02
2.021485156437544894e+00 5.846601295504001428e+02
2.021585180443306484e+00 5.847513667482987785e+02
2.021685204449067630e+00 5.848419176019829138e+02
2.021785228454829220e+00 5.849317805515594273e+02
2.021885252460590365e+00 5.850209540505622954e+02
2.021985276466351955e+00 5.851094365659827190e+02
2.022085300472113101e+00 5.851972265783017519e+02
2.022185324477874691e+00 5.852843225815174719e+02
2.022285348483635836e+00 5.853707230831810193e+02
2.022385372489397426e+00 5.854564266044211536e+02
2.022485396495158572e+00 5.855414316799776770e+02
2.022585420500920161e+00 5.856257368582282652e+02
2.022685444506681751e+00 5.857093407012173429e+02
2.022785468512442897e+00 5.857922417846872349e+02
2.022885492518204487e+00 5.858744386981018124e+02
2.022985516523965632e+00 5.859559300446766201e+02
2.023085540529727222e+00 5.860367144414074119e+02
2.023185564535488368e+00 5.861167905190919782e+02
2.023285588541249957e+00 5.861961569223626611e+02
2.023385612547011103e+00 5.862748123097078405e+02
2.023485636552772693e+00 5.863527553534983099e+02
2.023585660558533839e+00 5.864299847400143335e+02
2.023685684564295428e+00 5.865064991694680430e+02
2.023785708570056574e+00 5.865822973560286755e+02
2.023885732575818164e+00 5.866573780278480399e+02
2.023985756581579309e+00 5.867317399270805254e+02
2.024085780587340899e+00 5.868053818099090222e+02
2.024185804593102045e+00 5.868783024465668632e+02
2.024285828598863635e+00 5.869505006213596516e+02
2.024385852604624780e+00 5.870219751326882260e+02
2.024485876610386370e+00 5.870927247930677595e+02
2.024585900616147960e+00 5.871627484291524297e+02
2.024685924621909106e+00 5.872320448817523584e+02
2.024785948627670695e+00 5.873006130058561212e+02
2.024885972633431841e+00 5.873684516706503018e+02
2.024985996639193431e+00 5.874355597595374547e+02
2.025086020644954576e+00 5.875019361701567959e+02
2.025186044650716166e+00 5.875675798144021655e+02
2.025286068656477312e+00 5.876324896184402178e+02
2.025386092662238902e+00 5.876966645227271329e+02
2.025486116668000047e+00 5.877601034820277164e+02
2.025586140673761637e+00 5.878228054654319976e+02
2.025686164679522783e+00 5.878847694563692130e+02
2.025786188685284372e+00 5.879459944526277013e+02
2.025886212691045518e+00 5.880064794663680914e+02
2.025986236696807108e+00 5.880662235241389908e+02
2.026086260702568254e+00 5.881252256668930158e+02
2.026186284708329843e+00 5.881834849499989559e+02
2.026286308714090989e+00 5.882410004432567803e+02
2.026386332719853023e+00 5.882977712309129856e+02
2.026486356725614169e+00 5.883537964116713965e+02
2.026586380731375314e+00 5.884090750987066940e+02
2.026686404737136904e+00 5.884636064196771486e+02
2.026786428742898494e+00 5.885173895167365572e+02
2.026886452748659639e+00 5.885704235465441343e+02
2.026986476754420785e+00 5.886227076802782676e+02
2.027086500760182375e+00 5.886742411036447038e+02
2.027186524765943965e+00 5.887250230168891676e+02
2.027286548771705110e+00 5.887750526348046378e+02
2.027386572777466256e+00 5.888243291867429434e+02
2.027486596783227846e+00 5.888728519166220394e+02
2.027586620788989435e+00 5.889206200829364661e+02
2.027686644794750581e+00 5.889676329587637156e+02
2.027786668800511727e+00 5.890138898317733265e+02
2.027886692806273317e+00 5.890593900042323412e+02
2.027986716812034906e+00 5.891041327930150828e+02
2.028086740817796052e+00 5.891481175296069068e+02
2.028186764823557642e+00 5.891913435601121591e+02
2.028286788829319232e+00 5.892338102452589510e+02
2.028386812835080377e+00 5.892755169604035927e+02
2.028486836840841967e+00 5.893164630955378698e+02
2.028586860846603113e+00 5.893566480552910889e+02
2.028686884852364702e+00 5.893960712589353079e+02
2.028786908858125848e+00 5.894347321403882916e+02
2.028886932863887438e+00 5.894726301482162398e+02
2.028986956869648584e+00 5.895097647456390177e+02
2.029086980875410173e+00 5.895461354105289047e+02
2.029187004881171319e+00 5.895817416354153693e+02
2.029287028886932909e+00 5.896165829274849557e+02
2.029387052892694054e+00 5.896506588085827616e+02
2.029487076898455644e+00 5.896839688152140297e+02
2.029587100904216790e+00 5.897165124985421016e+02
2.029687124909978380e+00 5.897482894243917144e+02
2.029787148915739525e+00 5.897792991732444534e+02
2.029887172921501115e+00 5.898095413402411396e+02
2.029987196927262261e+00 5.898390155351786461e+02
2.030087220933023850e+00 5.898677213825080798e+02
2.030187244938785440e+00 5.898956585213327344e+02
2.030287268944546586e+00 5.899228266054071810e+02
2.030387292950308176e+00 5.899492253031310156e+02
2.030487316956069321e+00 5.899748542975470400e+02
2.030587340961830911e+00 5.899997132863391016e+02
2.030687364967592057e+00 5.900238019818245903e+02
2.030787388973353647e+00 5.900471201109510275e+02
2.030887412979114792e+00 5.900696674152918604e+02
2.030987436984876382e+00 5.900914436510405494e+02
2.031087460990637528e+00 5.901124485890031792e+02
2.031187484996399117e+00 5.901326820145939109e+02
2.031287509002160263e+00 5.901521437278271378e+02
2.031387533007921853e+00 5.901708335433121420e+02
2.031487557013682999e+00 5.901887512902419530e+02
2.031587581019444588e+00 5.902058968123891418e+02
2.031687605025205734e+00 5.902222699680957021e+02
2.031787629030967324e+00 5.902378706302636147e+02
2.031887653036728913e+00 5.902526986863475713e+02
2.031987677042490059e+00 5.902667540383426967e+02
2.032087701048251649e+00 5.902800366027779546e+02
2.032187725054012795e+00 5.902925463107026189e+02
2.032287749059774384e+00 5.903042831076772927e+02
2.032387773065535530e+00 5.903152469537621982e+02
2.032487797071297120e+00 5.903254378235048989e+02
2.032587821077058265e+00 5.903348557059298400e+02
2.032687845082819855e+00 5.903435006045249338e+02
2.032787869088581001e+00 5.903513725372279168e+02
2.032887893094342591e+00 5.903584715364150952e+02
2.032987917100103736e+00 5.903647976488862241e+02
2.033087941105865326e+00 5.903703509358509791e+02
2.033187965111626472e+00 5.903751314729149726e+02
2.033287989117388062e+00 5.903791393500640652e+02
2.033388013123149207e+00 5.903823746716500409e+02
2.033488037128910797e+00 5.903848375563745776e+02
2.033588061134671943e+00 5.903865281372736717e+02
2.033688085140433532e+00 5.903874465617001306e+02
2.033788109146195122e+00 5.903875929913074287e+02
2.033888133151956268e+00 5.903869676020349289e+02
2.033988157157717858e+00 5.903855705840854853e+02
2.034088181163479447e+00 5.903834021419119154e+02
2.034188205169240593e+00 5.903804624941963084e+02
2.034288229175001739e+00 5.903767518738314948e+02
2.034388253180763328e+00 5.903722705279038792e+02
2.034488277186524918e+00 5.903670187176708168e+02
2.034588301192286064e+00 5.903609967185443566e+02
2.034688325198047210e+00 5.903542048200666841e+02
2.034788349203808799e+00 5.903466433258940924e+02
2.034888373209570389e+00 5.903383125537720844e+02
2.034988397215331535e+00 5.903292128355168416e+02
2.035088421221092680e+00 5.903193445169921461e+02
2.035188445226854270e+00 5.903087079580864156e+02
2.035288469232615860e+00 5.902973035326918989e+02
2.035388493238377006e+00 5.902851316286803467e+02
2.035488517244138151e+00 5.902721926478824344e+02
2.035588541249900185e+00 5.902584870060580897e+02
2.035688565255661331e+00 5.902440151328805769e+02
2.035788589261422921e+00 5.902287774719046638e+02
2.035888613267184066e+00 5.902127744805474094e+02
2.035988637272945656e+00 5.901960066300591734e+02
2.036088661278706802e+00 5.901784744055007650e+02
2.036188685284468392e+00 5.901601783057149078e+02
2.036288709290229537e+00 5.901411188433032748e+02
2.036388733295991127e+00 5.901212965445965892e+02
2.036488757301752273e+00 5.901007119496299538e+02
2.036588781307513862e+00 5.900793656121152253e+02
2.036688805313275008e+00 5.900572580994114560e+02
2.036788829319036598e+00 5.900343899924987454e+02
2.036888853324797743e+00 5.900107618859494778e+02
2.036988877330559333e+00 5.899863743878995592e+02
2.037088901336320479e+00 5.899612281200172674e+02
2.037188925342082069e+00 5.899353237174778997e+02
2.037288949347843214e+00 5.899086618289295529e+02
2.037388973353604804e+00 5.898812431164658392e+02
2.037488997359366394e+00 5.898530682555930298e+02
2.037589021365127540e+00 5.898241379352031117e+02
2.037689045370889129e+00 5.897944528575367258e+02
2.037789069376650275e+00 5.897640137381567911e+02
2.037889093382411865e+00 5.897328213059128075e+02
2.037989117388173010e+00 5.897008763029118654e+02
2.038089141393934600e+00 5.896681794844827209e+02
2.038189165399695746e+00 5.896347316191454411e+02
2.038289189405457336e+00 5.896005334885762750e+02
2.038389213411218481e+00 5.895655858875744570e+02
2.038489237416980071e+00 5.895298896240301474e+02
2.038589261422741217e+00 5.894934455188858919e+02
2.038689285428502806e+00 5.894562544061052449e+02
2.038789309434263952e+00 5.894183171326382080e+02
2.038889333440025542e+00 5.893796345583822358e+02
2.038989357445786688e+00 5.893402075561504034e+02
2.039089381451548277e+00 5.893000370116335489e+02
2.039189405457309423e+00 5.892591238233636659e+02
2.039289429463071013e+00 5.892174689026778651e+02
2.039389453468832603e+00 5.891750731736811986e+02
2.039489477474593748e+00 5.891319375732093704e+02
2.039589501480355338e+00 5.890880630507909927e+02
2.039689525486116484e+00 5.890434505686098419e+02
2.039789549491878073e+00 5.889981011014659771e+02
2.039889573497639219e+00 5.889520156367370873e+02
2.039989597503400809e+00 5.889051951743417703e+02
2.040089621509161955e+00 5.888576407266959905e+02
2.040189645514923544e+00 5.888093533186772675e+02
2.040289669520684690e+00 5.887603339875836355e+02
2.040389693526446280e+00 5.887105837830929431e+02
2.040489717532207425e+00 5.886601037672224948e+02
2.040589741537969015e+00 5.886088950142885778e+02
2.040689765543730161e+00 5.885569586108659905e+02
2.040789789549491751e+00 5.885042956557443858e+02
2.040889813555252896e+00 5.884509072598890498e+02
2.040989837561014486e+00 5.883967945463972455e+02
2.041089861566775632e+00 5.883419586504566041e+02
2.041189885572537221e+00 5.882864007193024918e+02
2.041289909578298811e+00 5.882301219121745817e+02
2.041389933584060401e+00 5.881731234002746760e+02
2.041489957589821547e+00 5.881154063667211176e+02
2.041589981595582692e+00 5.880569720065074080e+02
2.041690005601344282e+00 5.879978215264570736e+02
2.041790029607105872e+00 5.879379561451783047e+02
2.041890053612867018e+00 5.878773770930216642e+02
2.041990077618628163e+00 5.878160856120316566e+02
2.042090101624389753e+00 5.877540829559059148e+02
2.042190125630151343e+00 5.876913703899452912e+02
2.042290149635912488e+00 5.876279491910108845e+02
2.042390173641673634e+00 5.875638206474769731e+02
2.042490197647435224e+00 5.874989860591844035e+02
2.042590221653196814e+00 5.874334467373952293e+02
2.042690245658957959e+00 5.873672040047442806e+02
2.042790269664719105e+00 5.873002591951918703e+02
2.042890293670480695e+00 5.872326136539785466e+02
2.042990317676242285e+00 5.871642687375754122e+02
2.043090341682003874e+00 5.870952258136355795e+02
2.043190365687765020e+00 5.870254862609482416e+02
2.043290389693526610e+00 5.869550514693888772e+02
2.043390413699287755e+00 5.868839228398694559e+02
2.043490437705049345e+00 5.868121017842912579e+02
2.043590461710810491e+00 5.867395897254956481e+02
2.043690485716572081e+00 5.866663880972109837e+02
2.043790509722333226e+00 5.865924983440080496e+02
2.043890533728094816e+00 5.865179219212466251e+02
2.043990557733855962e+00 5.864426602950262577e+02
2.044090581739617551e+00 5.863667149421349905e+02
2.044190605745378697e+00 5.862900873499993395e+02
2.044290629751140287e+00 5.862127790166327941e+02
2.044390653756901433e+00 5.861347914505856806e+02
2.044490677762663022e+00 5.860561261708919574e+02
2.044590701768424168e+00 5.859767847070182825e+02
2.044690725774185758e+00 5.858967685988120593e+02
2.044790749779946903e+00 5.858160793964487993e+02
2.044890773785708493e+00 5.857347186603815317e+02
2.044990797791470083e+00 5.856526879612843004e+02
2.045090821797231229e+00 5.855699888800035069e+02
2.045190845802992818e+00 5.854866230075018620e+02
2.045290869808753964e+00 5.854025919448058630e+02
2.045390893814515554e+00 5.853178973029529288e+02
2.045490917820276700e+00 5.852325407029372855e+02
2.045590941826038289e+00 5.851465237756535771e+02
2.045690965831799435e+00 5.850598481618476399e+02
2.045790989837561025e+00 5.849725155120572708e+02
2.045891013843322170e+00 5.848845274865594774e+02
2.045991037849083760e+00 5.847958857553159078e+02
2.046091061854844906e+00 5.847065919979181672e+02
2.046191085860606496e+00 5.846166479035300654e+02
2.046291109866367641e+00 5.845260551708342973e+02
2.046391133872129231e+00 5.844348155079776461e+02
2.046491157877890377e+00 5.843429306325116386e+02
2.046591181883651966e+00 5.842504022713394534e+02
2.046691205889413556e+00 5.841572321606595324e+02
2.046791229895174702e+00 5.840634220459057815e+02
2.046891253900936292e+00 5.839689736816961840e+02
2.046991277906697437e+00 5.838738888317698184e+02
2.047091301912459027e+00 5.837781692689368356e+02
2.047191325918220173e+00 5.836818167750143402e+02
2.047291349923981763e+00 5.835848331407730711e+02
2.047391373929742908e+00 5.834872201658788526e+02
2.047491397935504498e+00 5.833889796588345007e+02
2.047591421941265644e+00 5.832901134369220699e+02
2.047691445947027233e+00 5.831906233261441912e+02
2.047791469952788379e+00 5.830905111611675693e+02
2.047891493958549969e+00 5.829897787852613646e+02
2.047991517964311114e+00 5.828884280502411457e+02
2.048091541970072704e+00 5.827864608164101128e+02
2.048191565975833850e+00 5.826838789524969116e+02
2.048291589981595440e+00 5.825806843356012905e+02
2.048391613987356585e+00 5.824768788511298681e+02
2.048491637993118175e+00 5.823724643927408806e+02
2.048591661998879765e+00 5.822674428622815412e+02
2.048691686004641355e+00 5.821618161697301730e+02
2.048791710010402500e+00 5.820555862331349317e+02
2.048891734016163646e+00 5.819487549785546889e+02
2.048991758021925236e+00 5.818413243399968451e+02
2.049091782027686826e+00 5.817332962593609409e+02
2.049191806033447971e+00 5.816246726863735148e+02
2.049291830039209117e+00 5.815154555785306911e+02
2.049391854044970707e+00 5.814056469010354249e+02
2.049491878050732296e+00 5.812952486267372478e+02
2.049591902056493442e+00 5.811842627360721281e+02
2.049691926062254588e+00 5.810726912169996012e+02
2.049791950068016178e+00 5.809605360649420618e+02
2.049891974073777767e+00 5.808477992827240541e+02
2.049991998079538913e+00 5.807344828805092902e+02
2.050092022085300059e+00 5.806205888757393723e+02
2.050192046091061648e+00 5.805061192930730840e+02
2.050292070096823238e+00 5.803910761643228398e+02
2.050392094102584828e+00 5.802754615283931798e+02
2.050492118108345974e+00 5.801592774312182428e+02
2.050592142114107563e+00 5.800425259257006019e+02
2.050692166119868709e+00 5.799252090716471457e+02
2.050792190125630299e+00 5.798073289357078011e+02
2.050892214131391444e+00 5.796888875913125503e+02
2.050992238137153034e+00 5.795698871186075394e+02
2.051092262142914180e+00 5.794503296043948239e+02
2.051192286148675770e+00 5.793302171420662035e+02
2.051292310154436915e+00 5.792095518315426261e+02
2.051392334160198505e+00 5.790883357792096149e+02
2.051492358165959651e+00 5.789665710978543984e+02
2.051592382171721241e+00 5.788442599066034973e+02
2.051692406177482386e+00 5.787214043308574674e+02
2.051792430183243976e+00 5.785980065022280314e+02
2.051892454189005122e+00 5.784740685584765743e+02
2.051992478194766711e+00 5.783495926434463854e+02
2.052092502200527857e+00 5.782245809070022915e+02
2.052192526206289447e+00 5.780990355049655136e+02
2.052292550212051037e+00 5.779729585990493206e+02
2.052392574217812182e+00 5.778463523567963875e+02
2.052492598223573772e+00 5.777192189515124028e+02
2.052592622229334918e+00 5.775915605622044495e+02
2.052692646235096507e+00 5.774633793735158633e+02
2.052792670240857653e+00 5.773346775756601801e+02
2.052892694246619243e+00 5.772054573643599724e+02
2.052992718252380389e+00 5.770757209407793198e+02
2.053092742258141978e+00 5.769454705114621902e+02
2.053192766263903124e+00 5.768147082882653649e+02
2.053292790269664714e+00 5.766834364882955697e+02
2.053392814275425859e+00 5.765516573338436501e+02
2.053492838281187449e+00 5.764193730523214754e+02
2.053592862286948595e+00 5.762865858761945219e+02
2.053692886292710185e+00 5.761532980429200279e+02
2.053792910298471330e+00 5.760195117948808274e+02
2.053892934304232920e+00 5.758852293793192985e+02
2.053992958309994066e+00 5.757504530482760856e+02
2.054092982315755656e+00 5.756151850585191596e+02
2.054193006321517245e+00 5.754794276714851549e+02
2.054293030327278391e+00 5.753431831532102478e+02
2.054393054333039981e+00 5.752064537742680841e+02
2.054493078338801126e+00 5.750692418096999745e+02
2.054593102344562716e+00 5.749315495389556645e+02
2.054693126350323862e+00 5.747933792458242124e+02
2.054793150356085452e+00 5.746547332183700973e+02
2.054893174361846597e+00 5.745156137488670538e+02
2.054993198367608187e+00 5.743760231337354298e+02
2.055093222373369333e+00 5.742359636734745436e+02
2.055193246379130922e+00 5.740954376725971997e+02
2.055293270384892068e+00 5.739544474395664793e+02
2.055393294390653658e+00 5.738129952867302563e+02
2.055493318396414804e+00 5.736710835302532132e+02
2.055593342402176393e+00 5.735287144900549947e+02
2.055693366407937539e+00 5.733858904897433604e+02
2.055793390413699129e+00 5.732426138565475640e+02
2.055893414419460719e+00 5.730988869212569625e+02
2.055993438425222308e+00 5.729547120181515538e+02
2.056093462430983454e+00 5.728100914849394485e+02
2.056193486436744600e+00 5.726650276626899085e+02
2.056293510442506189e+00 5.725195228957697964e+02
2.056393534448267779e+00 5.723735795317770680e+02
2.056493558454028925e+00 5.722271999214763127e+02
2.056593582459790071e+00 5.720803864187324734e+02
2.056693606465551660e+00 5.719331413804478643e+02
2.056793630471313250e+00 5.717854671664939588e+02
2.056893654477074396e+00 5.716373661396489751e+02
2.056993678482835541e+00 5.714888406655318249e+02
2.057093702488597131e+00 5.713398931125362878e+02
2.057193726494358721e+00 5.711905258517670063e+02
2.057293750500119867e+00 5.710407412569744565e+02
2.057393774505881012e+00 5.708905417044882142e+02
2.057493798511642602e+00 5.707399295731554503e+02
2.057593822517404192e+00 5.705889072442722636e+02
2.057693846523165337e+00 5.704374771015213810e+02
2.057793870528926927e+00 5.702856415309066733e+02
2.057893894534688517e+00 5.701334029206877858e+02
2.057993918540449663e+00 5.699807636613156774e+02
2.058093942546211252e+00 5.698277261453690699e+02
2.058193966551972398e+00 5.696742927674873727e+02
2.058293990557733988e+00 5.695204659243089509e+02
2.058394014563495134e+00 5.693662480144049596e+02
2.058494038569256723e+00 5.692116414382143148e+02
2.058594062575017869e+00 5.690566485979802565e+02
2.058694086580779459e+00 5.689012718976875931e+02
2.058794110586540604e+00 5.687455137429949446e+02
2.058894134592302194e+00 5.685893765411725553e+02
2.058994158598063340e+00 5.684328627010384025e+02
2.059094182603824930e+00 5.682759746328935080e+02
2.059194206609586075e+00 5.681187147484579327e+02
2.059294230615347665e+00 5.679610854608066575e+02
2.059394254621108811e+00 5.678030891843063728e+02
2.059494278626870400e+00 5.676447283345509049e+02
2.059594302632631990e+00 5.674860053282984609e+02
2.059694326638393136e+00 5.673269225834076224e+02
2.059794350644154726e+00 5.671674825187729994e+02
2.059894374649915871e+00 5.670076875542632706e+02
2.059994398655677461e+00 5.668475401106558138e+02
2.060094422661438607e+00 5.666870426095755420e+02
2.060194446667200197e+00 5.665261974734314663e+02
2.060294470672961342e+00 5.663650071253516671e+02
2.060394494678722932e+00 5.662034739891217896e+02
2.060494518684484078e+00 5.660416004891220609e+02
2.060594542690245667e+00 5.658793890502654449e+02
2.060694566696006813e+00 5.657168420979323855e+02
2.060794590701768403e+00 5.655539620579111215e+02
2.060894614707529549e+00 5.653907513563324301e+02
2.060994638713291138e+00 5.652272124196097138e+02
2.061094662719052284e+00 5.650633476743749952e+02
2.061194686724813874e+00 5.648991595474179803e+02
2.061294710730575019e+00 5.647346504656229627e+02
2.061394734736336609e+00 5.645698228559076597e+02
2.061494758742098199e+00 5.644046791451618219e+02
2.061594782747859345e+00 5.642392217601836819e+02
2.061694806753620934e+00 5.640734531276199277e+02
2.061794830759382080e+00 5.639073756739047667e+02
2.061894854765143670e+00 5.637409918251964882e+02
2.061994878770904815e+00 5.635743040073184602e+02
2.062094902776666405e+00 5.634073146456966015e+02
2.062194926782427551e+00 5.632400261653001508e+02
2.062294950788189141e+00 5.630724409905780021e+02
2.062394974793950286e+00 5.629045615454006111e+02
2.062494998799711876e+00 5.627363902529987172e+02
2.062595022805473022e+00 5.625679295359027492e+02
2.062695046811234612e+00 5.623991818158829119e+02
2.062795070816995757e+00 5.622301495138882501e+02
2.062895094822757347e+00 5.620608350499876451e+02
2.062995118828518493e+00 5.618912408433088785e+02
2.063095142834280082e+00 5.617213693119817890e+02
2.063195166840041228e+00 5.615512228730739253e+02
2.063295190845803262e+00 5.613808039425360903e+02
2.063395214851564408e+00 5.612101149351396998e+02
2.063495238857325553e+00 5.610391582644190294e+02
2.063595262863087143e+00 5.608679363426135751e+02
2.063695286868848733e+00 5.606964515806058671e+02
2.063795310874609878e+00 5.605247063878664449e+02
2.063895334880371024e+00 5.603527031723934897e+02
2.063995358886132614e+00 5.601804443406556402e+02
2.064095382891894204e+00 5.600079322975316245e+02
2.064195406897655349e+00 5.598351694462560317e+02
2.064295430903416495e+00 5.596621581883581484e+02
2.064395454909178085e+00 5.594889009236063657e+02
2.064495478914939675e+00 5.593154000499495169e+02
2.064595502920700820e+00 5.591416579634610571e+02
2.064695526926461966e+00 5.589676770582798326e+02
2.064795550932223556e+00 5.587934597265563070e+02
2.064895574937985145e+00 5.586190083583925343e+02
2.064995598943746291e+00 5.584443253417871347e+02
2.065095622949507437e+00 5.582694130625801563e+02
2.065195646955269471e+00 5.580942739043950951e+02
2.065295670961030616e+00 5.579189102485823923e+02
2.065395694966792206e+00 5.577433244741666840e+02
2.065495718972553352e+00 5.575675189577877973e+02
2.065595742978314941e+00 5.573914960736472040e+02
2.065695766984076087e+00 5.572152581934520867e+02
2.065795790989837677e+00 5.570388076863617925e+02
2.065895814995598823e+00 5.568621469189299660e+02
2.065995839001360412e+00 5.566852782550529355e+02
2.066095863007121558e+00 5.565082040559138932e+02
2.066195887012883148e+00 5.563309266799286661e+02
2.066295911018644293e+00 5.561534484826916014e+02
2.066395935024405883e+00 5.559757718169223608e+02
2.066495959030167029e+00 5.557978990324113511e+02
2.066595983035928619e+00 5.556198324759679963e+02
2.066696007041689764e+00 5.554415744913652588e+02
2.066796031047451354e+00 5.552631274192873434e+02
2.066896055053212500e+00 5.550844935972786516e+02
2.066996079058974090e+00 5.549056753596880753e+02
2.067096103064735679e+00 5.547266750376202253e+02
2.067196127070496825e+00 5.545474949588802929e+02
2.067296151076258415e+00 5.543681374479240276e+02
2.067396175082019560e+00 5.541886048258031678e+02
2.067496199087781150e+00 5.540088994101184880e+02
2.067596223093542296e+00 5.538290235149650016e+02
2.067696247099303886e+00 5.536489794508806881e+02
2.067796271105065031e+00 5.534687695247986312e+02
2.067896295110826621e+00 5.532883960399944954e+02
2.067996319116587767e+00 5.531078612960344572e+02
2.068096343122349356e+00 5.529271675887289348e+02
2.068196367128110502e+00 5.527463172100794964e+02
2.068296391133872092e+00 5.525653124482306566e+02
2.068396415139633238e+00 5.523841555874199685e+02
2.068496439145394827e+00 5.522028489079281144e+02
2.068596463151155973e+00 5.520213946860314991e+02
2.068696487156917563e+00 5.518397951939522272e+02
2.068796511162678708e+00 5.516580526998102414e+02
2.068896535168440298e+00 5.514761694675746639e+02
2.068996559174201888e+00 5.512941477570151392e+02
2.069096583179963034e+00 5.511119898236556764e+02
2.069196607185724623e+00 5.509296979187255374e+02
2.069296631191485769e+00 5.507472742891129656e+02
2.069396655197247359e+00 5.505647211773172103e+02
2.069496679203008505e+00 5.503820408214022564e+02
2.069596703208770094e+00 5.501992354549503261e+02
2.069696727214531240e+00 5.500163073070149267e+02
2.069796751220292830e+00 5.498332586020765120e+02
2.069896775226053975e+00 5.496500915599933705e+02
2.069996799231815565e+00 5.494668083959595606e+02
2.070096823237576711e+00 5.492834113204573896e+02
2.070196847243338301e+00 5.490999025392130761e+02
2.070296871249099446e+00 5.489162842531521846e+02
2.070396895254861036e+00 5.487325586583540371e+02
2.070496919260622182e+00 5.485487279460088530e+02
2.070596943266383771e+00 5.483647943023734115e+02
2.070696967272145361e+00 5.481807599087251219e+02
2.070796991277906507e+00 5.479966269413224609e+02
2.070897015283668097e+00 5.478123975713569962e+02
2.070997039289429686e+00 5.476280739649153020e+02
2.071097063295190832e+00 5.474436582829328017e+02
2.071197087300951978e+00 5.472591526811515905e+02
2.071297111306713568e+00 5.470745593100808719e+02
2.071397135312475157e+00 5.468898803149510286e+02
2.071497159318236303e+00 5.467051178356754235e+02
2.071597183323997449e+00 5.465202740068083358e+02
2.071697207329759038e+00 5.463353509575015323e+02
2.071797231335520628e+00 5.461503508114660690e+02
2.071897255341281774e+00 5.459652756869301129e+02
2.071997279347042920e+00 5.457801276966007435e+02
2.072097303352804509e+00 5.455949089476200697e+02
2.072197327358566099e+00 5.454096215415313509e+02
2.072297351364327245e+00 5.452242675742326128e+02
2.072397375370088390e+00 5.450388491359431100e+02
2.072497399375849980e+00 5.448533683111611481e+02
2.072597423381611570e+00 5.446678271786273626e+02
2.072697447387373160e+00 5.444822278112852700e+02
2.072797471393134305e+00 5.442965722762436371e+02
2.072897495398895895e+00 5.441108626347374866e+02
2.072997519404657041e+00 5.439251009420934224e+02
2.073097543410418631e+00 5.437392892476897259e+02
2.073197567416179776e+00 5.435534295949199759e+02
2.073297591421941366e+00 5.433675240211579194e+02
2.073397615427702512e+00 5.431815745577185908e+02
2.073497639433464101e+00 5.429955832298246605e+02
2.073597663439225247e+00 5.428095520565699417e+02
2.073697687444986837e+00 5.426234830508822142e+02
2.073797711450747983e+00 5.424373782194902560e+02
2.073897735456509572e+00 5.422512395628883723e+02
2.073997759462270718e+00 5.420650690753008121e+02
2.074097783468032308e+00 5.418788687446478889e+02
2.074197807473793453e+00 5.416926405525132395e+02
2.074297831479555043e+00 5.415063864741081261e+02
2.074397855485316633e+00 5.413201084782386943e+02
2.074497879491077779e+00 5.411338085272732314e+02
2.074597903496839368e+00 5.409474885771097661e+02
2.074697927502600514e+00 5.407611505771418479e+02
2.074797951508362104e+00 5.405747964702280797e+02
2.074897975514123249e+00 5.403884281926571020e+02
2.074997999519884839e+00 5.402020476741207631e+02
2.075098023525645985e+00 5.400156568376792166e+02
2.075198047531407575e+00 5.398292575997295444e+02
2.075298071537168720e+00 5.396428518699783581e+02
2.075398095542930310e+00 5.394564415514070106e+02
2.075498119548691456e+00 5.392700285402444251e+02
2.075598143554453046e+00 5.390836147259366271e+02
2.075698167560214191e+00 5.388972019911163898e+02
2.075798191565975781e+00 5.387107922115742440e+02
2.075898215571736927e+00 5.385243872562309662e+02
2.075998239577498516e+00 5.383379889871057458e+02
2.076098263583259662e+00 5.381515992592920838e+02
2.076198287589021252e+00 5.379652199209251648e+02
2.076298311594782842e+00 5.377788528131577550e+02
2.076398335600543987e+00 5.375924997701315533e+02
2.076498359606305577e+00 5.374061626189484286e+02
2.076598383612066723e+00 5.372198431796466593e+02
2.076698407617828313e+00 5.370335432651718293e+02
2.076798431623589458e+00 5.368472646813521578e+02
2.076898455629351048e+00 5.366610092268716699e+02
2.076998479635112194e+00 5.364747786932448435e+02
2.077098503640873783e+00 5.362885748647919399e+02
2.077198527646634929e+00 5.361023995186135380e+02
2.077298551652396519e+00 5.359162544245647268e+02
2.077398575658157664e+00 5.357301413452335055e+02
2.077498599663919254e+00 5.355440620359134982e+02
2.077598623669680400e+00 5.353580182445837181e+02
2.077698647675441990e+00 5.351720117118811686e+02
2.077798671681203135e+00 5.349860441710810619e+02
2.077898695686964725e+00 5.348001173480726038e+02
2.077998719692725871e+00 5.346142329613359152e+02
2.078098743698487461e+00 5.344283927219220232e+02
2.078198767704249050e+00 5.342425983334273951e+02
2.078298791710010640e+00 5.340568514919766585e+02
2.078398815715771786e+00 5.338711538861974759e+02
2.078498839721532931e+00 5.336855071972028099e+02
2.078598863727294521e+00 5.334999130985673901e+02
2.078698887733056111e+00 5.333143732563105459e+02
2.078798911738817257e+00 5.331288893288723330e+02
2.078898935744578402e+00 5.329434629670984123e+02
2.078998959750339992e+00 5.327580958142160625e+02
2.079098983756101582e+00 5.325727895058189461e+02
2.079199007761862728e+00 5.323875456698458493e+02
2.079299031767623873e+00 5.322023659265638571e+02
2.079399055773385463e+00 5.320172518885485715e+02
2.079499079779147053e+00 5.318322051606686500e+02
2.079599103784908198e+00 5.316472273400660242e+02
2.079699127790669344e+00 5.314623200161394152e+02
2.079799151796430934e+00 5.312774847705281900e+02
2.079899175802192524e+00 5.310927231770957633e+02
2.079999199807954113e+00 5.309080368019119760e+02
2.080099223813715259e+00 5.307234272032391118e+02
2.080199247819476849e+00 5.305388959315138209e+02
2.080299271825237994e+00 5.303544445293357512e+02
2.080399295830999584e+00 5.301700745314478809e+02
2.080499319836760730e+00 5.299857874647249218e+02
2.080599343842522320e+00 5.298015848481584271e+02
2.080699367848283465e+00 5.296174681928430346e+02
2.080799391854045055e+00 5.294334390019605507e+02
2.080899415859806201e+00 5.292494987707698328e+02
2.080999439865567791e+00 5.290656489865912135e+02
2.081099463871328936e+00 5.288818911287951323e+02
2.081199487877090526e+00 5.286982266687892889e+02
2.081299511882851672e+00 5.285146570700051143e+02
2.081399535888613261e+00 5.283311837878887900e+02
2.081499559894374407e+00 5.281478082698865819e+02
2.081599583900135997e+00 5.279645319554362004e+02
2.081699607905897143e+00 5.277813562759550905e+02
2.081799631911658732e+00 5.275982826548281537e+02
2.081899655917420322e+00 5.274153125074010404e+02
2.081999679923181468e+00 5.272324472409660530e+02
2.082099703928943057e+00 5.270496882547555515e+02
2.082199727934704203e+00 5.268670369399313813e+02
2.082299751940465793e+00 5.266844946795765736e+02
2.082399775946226939e+00 5.265020628486850001e+02
2.082499799951988528e+00 5.263197428141550063e+02
2.082599823957749674e+00 5.261375359347803169e+02
2.082699847963511264e+00 5.259554435612421912e+02
2.082799871969272409e+00 5.257734670361018061e+02
2.082899895975033999e+00 5.255916076937935486e+02
2.082999919980795145e+00 5.254098668606188767e+02
2.083099943986556735e+00 5.252282458547382475e+02
2.083199967992317880e+00 5.250467459861641828e+02
2.083299991998079470e+00 5.248653685567595630e+02
2.083400016003840616e+00 5.246841148602268277e+02
2.083500040009602206e+00 5.245029861821055874e+02
2.083600064015363351e+00 5.243219837997680770e+02
2.083700088021124941e+00 5.241411089824118790e+02
2.083800112026886531e+00 5.239603629910577638e+02
2.083900136032647676e+00 5.237797470785450287e+02
2.084000160038409266e+00 5.235992624895277459e+02
2.084100184044170412e+00 5.234189104604711247e+02
2.084200208049932002e+00 5.232386922196476462e+02
2.084300232055693147e+00 5.230586089871354716e+02
2.084400256061454737e+00 5.228786619748159410e+02
2.084500280067215883e+00 5.226988523863695946e+02
2.084600304072977472e+00 5.225191814172759450e+02
2.084700328078738618e+00 5.223396502548118860e+02
2.084800352084500208e+00 5.221602600780478269e+02
2.084900376090261354e+00 5.219810120578511032e+02
2.085000400096022943e+00 5.218019073568800650e+02
2.085100424101784089e+00 5.216229471295878284e+02
2.085200448107545679e+00 5.214441325222202295e+02
2.085300472113306824e+00 5.212654646728155967e+02
2.085400496119068414e+00 5.210869447112072521e+02
2.085500520124830004e+00 5.209085737590207827e+02
2.085600544130591594e+00 5.207303529296791567e+02
2.085700568136352739e+00 5.205522833284016997e+02
2.085800592142113885e+00 5.203743660522050050e+02
2.085900616147875475e+00 5.201966021899066845e+02
2.086000640153637065e+00 5.200189928221279843e+02
2.086100664159398210e+00 5.198415390212932152e+02
2.086200688165159356e+00 5.196642418516356656e+02
2.086300712170920946e+00 5.194871023691995333e+02
2.086400736176682535e+00 5.193101216218441323e+02
2.086500760182443681e+00 5.191333006492452569e+02
2.086600784188204827e+00 5.189566404829020030e+02
2.086700808193966417e+00 5.187801421461394966e+02
2.086800832199728006e+00 5.186038066541137823e+02
2.086900856205489152e+00 5.184276350138167118e+02
2.087000880211250298e+00 5.182516282240804912e+02
2.087100904217011887e+00 5.180757872755845028e+02
2.087200928222773477e+00 5.179001131508603066e+02
2.087300952228534623e+00 5.177246068242958472e+02
2.087400976234296213e+00 5.175492692621453443e+02
2.087501000240057802e+00 5.173741014225327035e+02
2.087601024245818948e+00 5.171991042554599289e+02
2.087701048251580538e+00 5.170242787028140583e+02
2.087801072257341684e+00 5.168496256983737567e+02
2.087901096263103273e+00 5.166751461678180704e+02
2.088001120268864419e+00 5.165008410287340439e+02
2.088101144274626009e+00 5.163267111906251330e+02
2.088201168280387154e+00 5.161527575549189351e+02
2.088301192286148744e+00 5.159789810149757159e+02
2.088401216291909890e+00 5.158053824561008014e+02
2.088501240297671480e+00 5.156319627555486704e+02
2.088601264303432625e+00 5.154587227825373930e+02
2.088701288309194215e+00 5.152856633982555650e+02
2.088801312314955361e+00 5.151127854558728814e+02
2.088901336320716950e+00 5.149400898005526415e+02
2.089001360326478096e+00 5.147675772694590250e+02
2.089101384332239686e+00 5.145952486917718716e+02
2.089201408338001276e+00 5.144231048886944109e+02
2.089301432343762421e+00 5.142511466734671330e+02
2.089401456349524011e+00 5.140793748513789296e+02
2.089501480355285157e+00 5.139077902197789172e+02
2.089601504361046747e+00 5.137363935680887153e+02
2.089701528366807892e+00 5.135651856778151796e+02
2.089801552372569482e+00 5.133941673225639306e+02
2.089901576378330628e+00 5.132233392680504949e+02
2.090001600384092217e+00 5.130527022721165622e+02
2.090101624389853363e+00 5.128822570847397628e+02
2.090201648395614953e+00 5.127120044480523120e+02
2.090301672401376099e+00 5.125419450963510144e+02
2.090401696407137688e+00 5.123720797561132940e+02
2.090501720412898834e+00 5.122024091460127693e+02
2.090601744418660424e+00 5.120329339769320995e+02
2.090701768424421569e+00 5.118636549519798109e+02
2.090801792430183159e+00 5.116945727665046775e+02
2.090901816435944305e+00 5.115256881081124334e+02
2.091001840441705895e+00 5.113570016566807226e+02
2.091101864447467484e+00 5.111885140843752424e+02
2.091201888453228630e+00 5.110202260556667397e+02
2.091301912458990220e+00 5.108521382273474956e+02
2.091401936464751365e+00 5.106842512485484349e+02
2.091501960470512955e+00 5.105165657607548724e+02
2.091601984476274101e+00 5.103490823978261801e+02
2.091702008482035691e+00 5.101818017860114196e+02
2.091802032487796836e+00 5.100147245439676453e+02
2.091902056493558426e+00 5.098478512827796862e+02
2.092002080499319572e+00 5.096811826059752661e+02
2.092102104505081162e+00 5.095147191095470589e+02
2.092202128510842307e+00 5.093484613819692299e+02
2.092302152516603897e+00 5.091824100042159671e+02
2.092402176522365043e+00 5.090165655497839339e+02
2.092502200528126632e+00 5.088509285847081287e+02
2.092602224533887778e+00 5.086854996675837128e+02
2.092702248539649368e+00 5.085202793495853939e+02
2.092802272545410514e+00 5.083552681744879465e+02
2.092902296551172547e+00 5.081904666786861071e+02
2.093002320556933693e+00 5.080258753912152088e+02
2.093102344562694839e+00 5.078614948337729516e+02
2.093202368568456428e+00 5.076973255207390707e+02
2.093302392574218018e+00 5.075333679591977898e+02
2.093402416579979164e+00 5.073696226489594210e+02
2.093502440585740310e+00 5.072060900825806016e+02
2.093602464591501899e+00 5.070427707453877701e+02
2.093702488597263489e+00 5.068796651154992787e+02
2.093802512603024635e+00 5.067167736638473343e+02
2.093902536608785780e+00 5.065540968541992584e+02
2.094002560614547370e+00 5.063916351431839757e+02
2.094102584620308960e+00 5.062293889803108868e+02
2.094202608626070106e+00 5.060673588079964134e+02
2.094302632631831251e+00 5.059055450615845189e+02
2.094402656637592841e+00 5.057439481693729135e+02
2.094502680643354431e+00 5.055825685526357915e+02
2.094602704649115577e+00 5.054214066256471369e+02
2.094702728654876722e+00 5.052604627957073262e+02
2.094802752660638756e+00 5.050997374631635921e+02
2.094902776666399902e+00 5.049392310214397526e+02
2.095002800672161491e+00 5.047789438570569587e+02
2.095102824677922637e+00 5.046188763496605247e+02
2.095202848683684227e+00 5.044590288720448825e+02
2.095302872689445373e+00 5.042994017901796724e+02
2.095402896695206962e+00 5.041399954632336744e+02
2.095502920700968108e+00 5.039808102436031163e+02
2.095602944706729698e+00 5.038218464769344109e+02
2.095702968712490843e+00 5.036631045021534874e+02
2.095802992718252433e+00 5.035045846514906884e+02
2.095903016724013579e+00 5.033462872505078849e+02
2.096003040729775169e+00 5.031882126181242825e+02
2.096103064735536314e+00 5.030303610666449572e+02
2.096203088741297904e+00 5.028727329017851844e+02
2.096303112747059050e+00 5.027153284227017025e+02
2.096403136752820640e+00 5.025581479220163601e+02
2.096503160758581785e+00 5.024011916858469817e+02
2.096603184764343375e+00 5.022444599938327201e+02
2.096703208770104965e+00 5.020879531191626484e+02
2.096803232775866110e+00 5.019316713286052618e+02
2.096903256781627700e+00 5.017756148825357627e+02
2.097003280787388846e+00 5.016197840349633452e+02
2.097103304793150436e+00 5.014641790335626865e+02
2.097203328798911581e+00 5.013088001197008907e+02
2.097303352804673171e+00 5.011536475284656831e+02
2.097403376810434317e+00 5.009987214886980382e+02
2.097503400816195906e+00 5.008440222230170775e+02
2.097603424821957052e+00 5.006895499478525267e+02
2.097703448827718642e+00 5.005353048734741037e+02
2.097803472833479788e+00 5.003812872040200546e+02
2.097903496839241377e+00 5.002274971375271662e+02
2.098003520845002523e+00 5.000739348659631105e+02
2.098103544850764113e+00 4.999206005752542410e+02
2.098203568856525258e+00 4.997674944453162311e+02
2.098303592862286848e+00 4.996146166500863615e+02
2.098403616868047994e+00 4.994619673575523393e+02
2.098503640873809584e+00 4.993095467297846426e+02
2.098603664879571173e+00 4.991573549229648847e+02
2.098703688885332319e+00 4.990053920874219671e+02
2.098803712891093909e+00 4.988536583676572604e+02
2.098903736896855055e+00 4.987021539023807009e+02
2.099003760902616644e+00 4.985508788245400638e+02
2.099103784908377790e+00 4.983998332613526259e+02
2.099203808914139380e+00 4.982490173343380206e+02
2.099303832919900525e+00 4.980984311593501275e+02
2.099403856925662115e+00 4.979480748466080513e+02
2.099503880931423261e+00 4.977979485007292624e+02
2.099603904937184851e+00 4.976480522207615422e+02
2.099703928942945996e+00 4.974983861002147592e+02
2.099803952948707586e+00 4.973489502270960543e+02
2.099903976954468732e+00 4.971997446839395707e+02
2.100004000960230321e+00 4.970507695478395931e+02
2.100104024965991467e+00 4.969020248904861887e+02
2.100204048971753057e+00 4.967535107781942543e+02
2.100304072977514647e+00 4.966052272719414304e+02
2.100404096983275792e+00 4.964571744273968079e+02
2.100504120989037382e+00 4.963093522949559429e+02
2.100604144994798972e+00 4.961617609197762135e+02
2.100704169000560118e+00 4.960144003418087664e+02
2.100804193006321263e+00 4.958672705958317692e+02
2.100904217012082853e+00 4.957203717114848587e+02
2.101004241017844443e+00 4.955737037133031890e+02
2.101104265023605588e+00 4.954272666207520501e+02
2.101204289029366734e+00 4.952810604482597796e+02
2.101304313035128324e+00 4.951350852052528921e+02
2.101404337040889914e+00 4.949893408961891055e+02
2.101504361046651059e+00 4.948438275205951413e+02
2.101604385052412205e+00 4.946985450730957155e+02
2.101704409058173795e+00 4.945534935434539534e+02
2.101804433063935384e+00 4.944086729166015743e+02
2.101904457069696530e+00 4.942640831726773172e+02
2.102004481075457676e+00 4.941197242870581476e+02
2.102104505081219266e+00 4.939755962303983097e+02
2.102204529086980855e+00 4.938316989686600778e+02
2.102304553092742445e+00 4.936880324631530925e+02
2.102404577098503591e+00 4.935445966705653973e+02
2.102504601104265181e+00 4.934013915430031147e+02
2.102604625110026326e+00 4.932584170280211993e+02
2.102704649115787916e+00 4.931156730686628862e+02
2.102804673121549062e+00 4.929731596034938548e+02
2.102904697127310651e+00 4.928308765666365048e+02
2.103004721133071797e+00 4.926888238878067341e+02
2.103104745138833387e+00 4.925470014923496933e+02
2.103204769144594533e+00 4.924054093012758813e+02
2.103304793150356122e+00 4.922640472312968996e+02
2.103404817156117268e+00 4.921229151948599565e+02
2.103504841161878858e+00 4.919820131001856112e+02
2.103604865167640003e+00 4.918413408513035847e+02
2.103704889173401593e+00 4.917008983480878328e+02
2.103804913179162739e+00 4.915606854862938917e+02
2.103904937184924329e+00 4.914207021575938370e+02
2.104004961190685918e+00 4.912809482496147098e+02
2.104104985196447064e+00 4.911414236459716562e+02
2.104205009202208654e+00 4.910021282263073772e+02
2.104305033207969799e+00 4.908630618663265750e+02
2.104405057213731389e+00 4.907242244378335272e+02
2.104505081219492535e+00 4.905856158087676135e+02
2.104605105225254125e+00 4.904472358432420833e+02
2.104705129231015270e+00 4.903090844015755465e+02
2.104805153236776860e+00 4.901711613403358569e+02
2.104905177242538006e+00 4.900334665123710920e+02
2.105005201248299596e+00 4.898959997668484903e+02
2.105105225254060741e+00 4.897587609492904335e+02
2.105205249259822331e+00 4.896217499016125885e+02
2.105305273265583477e+00 4.894849664621593774e+02
2.105405297271345066e+00 4.893484104657408125e+02
2.105505321277106212e+00 4.892120817436712059e+02
2.105605345282867802e+00 4.890759801238024238e+02
2.105705369288628948e+00 4.889401054305660068e+02
2.105805393294390537e+00 4.888044574850044341e+02
2.105905417300152127e+00 4.886690361048128466e+02
2.106005441305913273e+00 4.885338411043718452e+02
2.106105465311674863e+00 4.883988722947891574e+02
2.106205489317436008e+00 4.882641294839326065e+02
2.106305513323197598e+00 4.881296124764693332e+02
2.106405537328958744e+00 4.879953210739021756e+02
2.106505561334720333e+00 4.878612550746055945e+02
2.106605585340481479e+00 4.877274142738661453e+02
2.106705609346243069e+00 4.875937984639156184e+02
2.106805633352004214e+00 4.874604074339704880e+02
2.106905657357765804e+00 4.873272409702688606e+02
2.107005681363526950e+00 4.871942988561054904e+02
2.107105705369288540e+00 4.870615808718716835e+02
2.107205729375049685e+00 4.869290867950914503e+02
2.107305753380811275e+00 4.867968164004569758e+02
2.107405777386572421e+00 4.866647694598689782e+02
2.107505801392334011e+00 4.865329457424697921e+02
2.107605825398095156e+00 4.864013450146840114e+02
2.107705849403856746e+00 4.862699670402524816e+02
2.107805873409618336e+00 4.861388115802728862e+02
2.107905897415379926e+00 4.860078783932332840e+02
2.108005921421141071e+00 4.858771672350514450e+02
2.108105945426902217e+00 4.857466778591112302e+02
2.108205969432663807e+00 4.856164100162979480e+02
2.108305993438425396e+00 4.854863634550398501e+02
2.108406017444186542e+00 4.853565379213384858e+02
2.108506041449947688e+00 4.852269331588117325e+02
2.108606065455709278e+00 4.850975489087274468e+02
2.108706089461470867e+00 4.849683849100415500e+02
2.108806113467232013e+00 4.848394408994339528e+02
2.108906137472993159e+00 4.847107166113455605e+02
2.109006161478754748e+00 4.845822117780161875e+02
2.109106185484516338e+00 4.844539261295212782e+02
2.109206209490277484e+00 4.843258593938059562e+02
2.109306233496038629e+00 4.841980112967248147e+02
2.109406257501800219e+00 4.840703815620783530e+02
2.109506281507561809e+00 4.839429699116471966e+02
2.109606305513323399e+00 4.838157760652310344e+02
2.109706329519084544e+00 4.836887997406842601e+02
2.109806353524846134e+00 4.835620406539533178e+02
2.109906377530607280e+00 4.834354985191108653e+02
2.110006401536368870e+00 4.833091730483954507e+02
2.110106425542130015e+00 4.831830639522454476e+02
2.110206449547891605e+00 4.830571709393361175e+02
2.110306473553652751e+00 4.829314937166162736e+02
2.110406497559414341e+00 4.828060319893437509e+02
2.110506521565175486e+00 4.826807854611221273e+02
2.110606545570937076e+00 4.825557538339372741e+02
2.110706569576698222e+00 4.824309368081922003e+02
2.110806593582459811e+00 4.823063340827440015e+02
2.110906617588220957e+00 4.821819453549392733e+02
2.111006641593982547e+00 4.820577703206504339e+02
2.111106665599743692e+00 4.819338086743111944e+02
2.111206689605505282e+00 4.818100601089525412e+02
2.111306713611266428e+00 4.816865243162388310e+02
2.111406737617028018e+00 4.815632009865014425e+02
2.111506761622789607e+00 4.814400898087776000e+02
2.111606785628550753e+00 4.813171904708428883e+02
2.111706809634312343e+00 4.811945026592485419e+02
2.111806833640073489e+00 4.810720260593548119e+02
2.111906857645835078e+00 4.809497603553699037e+02
2.112006881651596224e+00 4.808277052303803885e+02
2.112106905657357814e+00 4.807058603663894019e+02
2.112206929663118959e+00 4.805842254443524553e+02
2.112306953668880549e+00 4.804628001442077903e+02
2.112406977674641695e+00 4.803415841449173627e+02
2.112507001680403285e+00 4.802205771244971402e+02
2.112607025686164430e+00 4.800997787600534821e+02
2.112707049691926020e+00 4.799791887278180411e+02
2.112807073697687166e+00 4.798588067031810738e+02
2.112907097703448756e+00 4.797386323607270242e+02
2.113007121709209901e+00 4.796186653742682893e+02
2.113107145714971491e+00 4.794989054168800067e+02
2.113207169720732637e+00 4.793793521609334789e+02
2.113307193726494226e+00 4.792600052781310183e+02
2.113407217732255816e+00 4.791408644395387455e+02
2.113507241738016962e+00 4.790219293156222875e+02
2.113607265743778552e+00 4.789031995762786096e+02
2.113707289749539697e+00 4.787846748908712016e+02
2.113807313755301287e+00 4.786663549282630470e+02
2.113907337761062433e+00 4.785482393568494217e+02
2.114007361766824022e+00 4.784303278445925685e+02
2.114107385772585168e+00 4.783126200590540975e+02
2.114207409778346758e+00 4.781951156674286949e+02
2.114307433784107904e+00 4.780778143365760684e+02
2.114407457789869493e+00 4.779607157330553378e+02
2.114507481795630639e+00 4.778438195231566397e+02
2.114607505801392229e+00 4.777271253729355749e+02
2.114707529807153374e+00 4.776106329482430510e+02
2.114807553812914964e+00 4.774943419147600139e+02
2.114907577818676110e+00 4.773782519380291660e+02
2.115007601824437700e+00 4.772623626834871970e+02
2.115107625830199289e+00 4.771466738164972412e+02
2.115207649835960879e+00 4.770311850023793454e+02
2.115307673841722025e+00 4.769158959064448027e+02
2.115407697847483171e+00 4.768008061940264497e+02
2.115507721853244760e+00 4.766859155305100444e+02
2.115607745859006350e+00 4.765712235813662119e+02
2.115707769864767496e+00 4.764567300121827884e+02
2.115807793870528641e+00 4.763424344886939252e+02
2.115907817876290231e+00 4.762283366768138535e+02
2.116007841882051821e+00 4.761144362426657608e+02
2.116107865887812967e+00 4.760007328526136803e+02
2.116207889893574112e+00 4.758872261732923334e+02
2.116307913899335702e+00 4.757739158716391330e+02
2.116407937905097292e+00 4.756608016149235709e+02
2.116507961910858437e+00 4.755478830707781412e+02
2.116607985916619583e+00 4.754351599072280692e+02
2.116708009922381173e+00 4.753226317927214382e+02
2.116808033928142763e+00 4.752102983961599421e+02
2.116908057933903908e+00 4.750981593869274775e+02
2.117008081939665498e+00 4.749862144349202708e+02
2.117108105945427088e+00 4.748744632105763799e+02
2.117208129951188234e+00 4.747629053849049114e+02
2.117308153956949823e+00 4.746515406295154662e+02
2.117408177962710969e+00 4.745403686166481521e+02
2.117508201968472559e+00 4.744293890191993910e+02
2.117608225974233704e+00 4.743186015107547746e+02
2.117708249979995294e+00 4.742080057656140184e+02
2.117808273985756440e+00 4.740976014588217708e+02
2.117908297991518030e+00 4.739873882661955804e+02
2.118008321997279175e+00 4.738773658643529529e+02
2.118108346003040765e+00 4.737675339307405693e+02
2.118208370008801911e+00 4.736578921436607743e+02
2.118308394014563500e+00 4.735484401823012490e+02
2.118408418020324646e+00 4.734391777267604766e+02
2.118508442026086236e+00 4.733301044580767325e+02
2.118608466031847382e+00 4.732212200582540618e+02
2.118708490037608971e+00 4.731125242102907009e+02
2.118808514043370561e+00 4.730040165982035205e+02
2.118908538049131707e+00 4.728956969070582090e+02
2.119008562054893297e+00 4.727875648229934882e+02
2.119108586060654442e+00 4.726796200332471471e+02
2.119208610066416032e+00 4.725718622261845212e+02
2.119308634072177178e+00 4.724642910913220817e+02
2.119408658077938767e+00 4.723569063193547777e+02
2.119508682083699913e+00 4.722497076021824682e+02
2.119608706089461503e+00 4.721426946329331713e+02
2.119708730095222649e+00 4.720358671059901781e+02
2.119808754100984238e+00 4.719292247170174619e+02
2.119908778106745384e+00 4.718227671629833253e+02
2.120008802112506974e+00 4.717164941421870594e+02
2.120108826118268119e+00 4.716104053542815677e+02
2.120208850124029709e+00 4.715045005002999119e+02
2.120308874129790855e+00 4.713987792826786176e+02
2.120408898135552445e+00 4.712932414052814920e+02
2.120508922141313590e+00 4.711878865734252599e+02
2.120608946147075180e+00 4.710827144939010509e+02
2.120708970152836770e+00 4.709777248750011154e+02
2.120808994158597915e+00 4.708729174265375832e+02
2.120909018164359505e+00 4.707682918598712831e+02
2.121009042170120651e+00 4.706638478879312970e+02
2.121109066175882241e+00 4.705595852252386067e+02
2.121209090181643386e+00 4.704555035879290017e+02
2.121309114187404976e+00 4.703516026937762717e+02
2.121409138193166122e+00 4.702478822622131815e+02
2.121509162198927712e+00 4.701443420143546064e+02
2.121609186204688857e+00 4.700409816730200987e+02
2.121709210210450447e+00 4.699378009627544088e+02
2.121809234216211593e+00 4.698347996098493127e+02
2.121909258221973182e+00 4.697319773423654397e+02
2.122009282227734328e+00 4.696293338901545553e+02
2.122109306233495918e+00 4.695268689848788881e+02
2.122209330239257064e+00 4.694245823600321046e+02
2.122309354245018653e+00 4.693224737509620468e+02
2.122409378250779799e+00 4.692205428948874442e+02
2.122509402256541833e+00 4.691187895309230953e+02
2.122609426262302978e+00 4.690172134000952724e+02
2.122709450268064124e+00 4.689158142453652545e+02
2.122809474273825714e+00 4.688145918116463235e+02
2.122909498279587304e+00 4.687135458458252515e+02
2.123009522285348449e+00 4.686126760967806604e+02
2.123109546291109595e+00 4.685119823154025198e+02
2.123209570296871185e+00 4.684114642546097684e+02
2.123309594302632775e+00 4.683111216693718006e+02
2.123409618308393920e+00 4.682109543167241554e+02
2.123509642314155066e+00 4.681109619557889800e+02
2.123609666319916656e+00 4.680111443477914577e+02
2.123709690325678245e+00 4.679115012560790205e+02
2.123809714331439391e+00 4.678120324461384030e+02
2.123909738337200537e+00 4.677127376856134902e+02
2.124009762342962127e+00 4.676136167443223144e+02
2.124109786348723716e+00 4.675146693942750744e+02
2.124209810354484862e+00 4.674158954096892558e+02
2.124309834360246008e+00 4.673172945670088438e+02
2.124409858366008041e+00 4.672188666449180801e+02
2.124509882371769187e+00 4.671206114243609022e+02
2.124609906377530777e+00 4.670225286885539617e+02
2.124709930383291923e+00 4.669246182230038471e+02
2.124809954389053512e+00 4.668268798155245918e+02
2.124909978394814658e+00 4.667293132562494407e+02
2.125010002400576248e+00 4.666319183376495516e+02
2.125110026406337393e+00 4.665346948545467285e+02
2.125210050412098983e+00 4.664376426041301329e+02
2.125310074417860129e+00 4.663407613859698131e+02
2.125410098423621719e+00 4.662440510020308579e+02
2.125510122429382864e+00 4.661475112566894836e+02
2.125610146435144454e+00 4.660511419567444591e+02
2.125710170440905600e+00 4.659549429114329655e+02
2.125810194446667190e+00 4.658589139324438975e+02
2.125910218452428335e+00 4.657630548339304823e+02
2.126010242458189925e+00 4.656673654325242069e+02
2.126110266463951071e+00 4.655718455473470954e+02
2.126210290469712660e+00 4.654764950000264321e+02
2.126310314475474250e+00 4.653813136147040268e+02
2.126410338481235396e+00 4.652863012180515057e+02
2.126510362486996986e+00 4.651914576392814524e+02
2.126610386492758131e+00 4.650967827101584362e+02
2.126710410498519721e+00 4.650022762650132222e+02
2.126810434504280867e+00 4.649079381407518667e+02
2.126910458510042456e+00 4.648137681768666880e+02
2.127010482515803602e+00 4.647197662154504201e+02
2.127110506521565192e+00 4.646259321012034889e+02
2.127210530527326338e+00 4.645322656814483935e+02
2.127310554533087927e+00 4.644387668061359591e+02
2.127410578538849073e+00 4.643454353278592066e+02
2.127510602544610663e+00 4.642522711018618793e+02
2.127610626550371808e+00 4.641592739860476513e+02
2.127710650556133398e+00 4.640664438409906438e+02
2.127810674561894544e+00 4.639737805299447473e+02
2.127910698567656134e+00 4.638812839188524322e+02
2.128010722573417279e+00 4.637889538763538440e+02
2.128110746579178869e+00 4.636967902737960685e+02
2.128210770584940459e+00 4.636047929852405787e+02
2.128310794590701605e+00 4.635129618874721018e+02
2.128410818596463194e+00 4.634212968600077147e+02
2.128510842602224340e+00 4.633297977851019596e+02
2.128610866607985930e+00 4.632384645477582126e+02
2.128710890613747075e+00 4.631472970357327767e+02
2.128810914619508665e+00 4.630562951395445452e+02
2.128910938625269811e+00 4.629654587524805720e+02
2.129010962631031401e+00 4.628747877706034615e+02
2.129110986636792546e+00 4.627842820927581897e+02
2.129211010642554136e+00 4.626939416205772204e+02
2.129311034648315282e+00 4.626037662584881218e+02
2.129411058654076871e+00 4.625137559137193648e+02
2.129511082659838017e+00 4.624239104963048703e+02
2.129611106665599607e+00 4.623342299190915128e+02
2.129711130671360753e+00 4.622447140977411095e+02
2.129811154677122342e+00 4.621553629507400842e+02
2.129911178682883932e+00 4.620661763993998079e+02
2.130011202688645078e+00 4.619771543678642161e+02
2.130111226694406668e+00 4.618882967831139581e+02
2.130211250700168257e+00 4.617996035749683301e+02
2.130311274705929403e+00 4.617110746760921529e+02
2.130411298711690549e+00 4.616227100219980457e+02
2.130511322717452138e+00 4.615345095510502347e+02
2.130611346723213728e+00 4.614464732044683615e+02
2.130711370728974874e+00 4.613586009263287906e+02
2.130811394734736020e+00 4.612708926635714306e+02
2.130911418740497609e+00 4.611833483659980288e+02
2.131011442746259199e+00 4.610959679862770599e+02
2.131111466752020345e+00 4.610087514799459996e+02
2.131211490757781490e+00 4.609216988054130297e+02
2.131311514763543080e+00 4.608348099239584599e+02
2.131411538769304670e+00 4.607480847997376259e+02
2.131511562775065816e+00 4.606615233997801511e+02
2.131611586780826961e+00 4.605751256939935843e+02
2.131711610786588551e+00 4.604888916551635134e+02
2.131811634792350141e+00 4.604028212589537361e+02
2.131911658798111731e+00 4.603169144839069986e+02
2.132011682803872876e+00 4.602311713114463032e+02
2.132111706809634466e+00 4.601455917258742261e+02
2.132211730815395612e+00 4.600601757143726900e+02
2.132311754821157201e+00 4.599749232670039305e+02
2.132411778826918347e+00 4.598898343767087908e+02
2.132511802832679937e+00 4.598049090393062670e+02
2.132611826838441083e+00 4.597201472534933941e+02
2.132711850844202672e+00 4.596355490208424044e+02
2.132811874849963818e+00 4.595511143458021479e+02
2.132911898855725408e+00 4.594668432356936592e+02
2.133011922861486553e+00 4.593827357007104979e+02
2.133111946867248143e+00 4.592987917539158502e+02
2.133211970873009289e+00 4.592150114112408232e+02
2.133311994878770879e+00 4.591313946914812050e+02
2.133412018884532024e+00 4.590479416162966118e+02
2.133512042890293614e+00 4.589646522102060544e+02
2.133612066896055204e+00 4.588815265005856645e+02
2.133712090901816349e+00 4.587985645176655680e+02
2.133812114907577939e+00 4.587157662945263041e+02
2.133912138913339085e+00 4.586331318670954715e+02
2.134012162919100675e+00 4.585506612741434651e+02
2.134112186924861820e+00 4.584683545572798948e+02
2.134212210930623410e+00 4.583862117609495499e+02
2.134312234936384556e+00 4.583042329324276807e+02
2.134412258942146146e+00 4.582224181218151102e+02
2.134512282947907291e+00 4.581407673820342552e+02
2.134612306953668881e+00 4.580592807688228163e+02
2.134712330959430027e+00 4.579779583407304244e+02
2.134812354965191616e+00 4.578968001591108532e+02
2.134912378970952762e+00 4.578158062881182673e+02
2.135012402976714352e+00 4.577349767947018222e+02
2.135112426982475498e+00 4.576543117485970242e+02
2.135212450988237087e+00 4.575738112223223197e+02
2.135312474993998233e+00 4.574934752911702844e+02
2.135412498999759823e+00 4.574133040332040991e+02
2.135512523005521413e+00 4.573332975292477158e+02
2.135612547011282558e+00 4.572534558628792070e+02
2.135712571017044148e+00 4.571737791204262749e+02
2.135812595022805294e+00 4.570942673909554514e+02
2.135912619028566883e+00 4.570149207662664708e+02
2.136012643034328029e+00 4.569357393408846519e+02
2.136112667040089619e+00 4.568567232120512358e+02
2.136212691045850764e+00 4.567778724797170753e+02
2.136312715051612354e+00 4.566991872465330857e+02
2.136412739057373500e+00 4.566206676178423436e+02
2.136512763063135090e+00 4.565423137016707642e+02
2.136612787068896235e+00 4.564641256087184615e+02
2.136712811074657825e+00 4.563861034523511080e+02
2.136812835080418971e+00 4.563082473485899868e+02
2.136912859086180561e+00 4.562305574161022150e+02
2.137012883091941706e+00 4.561530337761916485e+02
2.137112907097703296e+00 4.560756765527893322e+02
2.137212931103464442e+00 4.559984858724432115e+02
2.137312955109226031e+00 4.559214618643061385e+02
2.137412979114987621e+00 4.558446046601284252e+02
2.137513003120749211e+00 4.557679143942447695e+02
2.137613027126510357e+00 4.556913912035651038e+02
2.137713051132271502e+00 4.556150352275624300e+02
2.137813075138033092e+00 4.555388466082632704e+02
2.137913099143794682e+00 4.554628254902335129e+02
2.138013123149555827e+00 4.553869720205690896e+02
2.138113147155316973e+00 4.553112863488855169e+02
2.138213171161078563e+00 4.552357686273018658e+02
2.138313195166840153e+00 4.551604190104323493e+02
2.138413219172601298e+00 4.550852376553727936e+02
2.138513243178362444e+00 4.550102247216883598e+02
2.138613267184124034e+00 4.549353803714000151e+02
2.138713291189885624e+00 4.548607047689739602e+02
2.138813315195646769e+00 4.547861980813064520e+02
2.138913339201407915e+00 4.547118604777118094e+02
2.139013363207169505e+00 4.546376921299095102e+02
2.139113387212931094e+00 4.545636932120092411e+02
2.139213411218692684e+00 4.544898639004990173e+02
2.139313435224453830e+00 4.544162043742303467e+02
2.139413459230215420e+00 4.543427148144044168e+02
2.139513483235976565e+00 4.542693954045582814e+02
2.139613507241738155e+00 4.541962463305501387e+02
2.139713531247499301e+00 4.541232677805455751e+02
2.139813555253260891e+00 4.540504599450017622e+02
2.139913579259022036e+00 4.539778230166541562e+02
2.140013603264783626e+00 4.539053571904998989e+02
2.140113627270544772e+00 4.538330626637845739e+02
2.140213651276306361e+00 4.537609396359855509e+02
2.140313675282067507e+00 4.536889883087972066e+02
2.140413699287829097e+00 4.536172088861152929e+02
2.140513723293590242e+00 4.535456015740193152e+02
2.140613747299351832e+00 4.534741665807606523e+02
2.140713771305112978e+00 4.534029041167429455e+02
2.140813795310874568e+00 4.533318143945076599e+02
2.140913819316635713e+00 4.532608976287163500e+02
2.141013843322397303e+00 4.531901540361355956e+02
2.141113867328158893e+00 4.531195838356198919e+02
2.141213891333920039e+00 4.530491872480938582e+02
2.141313915339681628e+00 4.529789644965369462e+02
2.141413939345442774e+00 4.529089158059650231e+02
2.141513963351204364e+00 4.528390414034134892e+02
2.141613987356965509e+00 4.527693415179193721e+02
2.141714011362727099e+00 4.526998163805050694e+02
2.141814035368488245e+00 4.526304662241599885e+02
2.141914059374249835e+00 4.525612912838215607e+02
2.142014083380010980e+00 4.524922917963589271e+02
2.142114107385772570e+00 4.524234680005534415e+02
2.142214131391533716e+00 4.523548201370822426e+02
2.142314155397295306e+00 4.522863484484979040e+02
2.142414179403056451e+00 4.522180531792106990e+02
2.142514203408818041e+00 4.521499345754692740e+02
2.142614227414579187e+00 4.520819928853434249e+02
2.142714251420340776e+00 4.520142283587040311e+02
2.142814275426101922e+00 4.519466412472028765e+02
2.142914299431863512e+00 4.518792318042565057e+02
2.143014323437625102e+00 4.518120002850230890e+02
2.143114347443386247e+00 4.517449469463855394e+02
2.143214371449147837e+00 4.516780720469309358e+02
2.143314395454908983e+00 4.516113758469324466e+02
2.143414419460670572e+00 4.515448586083251712e+02
2.143514443466431718e+00 4.514785205946907354e+02
2.143614467472193308e+00 4.514123620712362026e+02
2.143714491477954454e+00 4.513463833047713365e+02
2.143814515483716043e+00 4.512805845636902404e+02
2.143914539489477189e+00 4.512149661179510645e+02
2.144014563495238779e+00 4.511495282390548027e+02
2.144114587500999924e+00 4.510842712000239771e+02
2.144214611506761514e+00 4.510191952753826854e+02
2.144314635512522660e+00 4.509543007411360804e+02
2.144414659518284250e+00 4.508895878747480879e+02
2.144514683524045395e+00 4.508250569551196349e+02
2.144614707529806985e+00 4.507607082625701196e+02
2.144714731535568575e+00 4.506965420788130814e+02
2.144814755541330165e+00 4.506325586869369886e+02
2.144914779547091310e+00 4.505687583713806248e+02
2.145014803552852456e+00 4.505051414179146718e+02
2.145114827558614046e+00 4.504417081136180627e+02
2.145214851564375635e+00 4.503784587468562108e+02
2.145314875570136781e+00 4.503153936072587271e+02
2.145414899575897927e+00 4.502525129856983312e+02
2.145514923581659517e+00 4.501898171742661248e+02
2.145614947587421106e+00 4.501273064662535148e+02
2.145714971593182252e+00 4.500649811561240767e+02
2.145814995598943398e+00 4.500028415394966714e+02
2.145915019604704987e+00 4.499408879131190133e+02
2.146015043610466577e+00 4.498791205748447055e+02
2.146115067616227723e+00 4.498175398236145384e+02
2.146215091621988869e+00 4.497561459594280677e+02
2.146315115627750458e+00 4.496949392833245156e+02
2.146415139633512048e+00 4.496339200973583843e+02
2.146515163639273194e+00 4.495730887045751842e+02
2.146615187645034784e+00 4.495124454089894925e+02
2.146715211650796373e+00 4.494519905155621018e+02
2.146815235656557519e+00 4.493917243301740427e+02
2.146915259662319109e+00 4.493316471596058364e+02
2.147015283668080254e+00 4.492717593115107775e+02
2.147115307673841844e+00 4.492120610943950965e+02
2.147215331679602990e+00 4.491525528175910722e+02
2.147315355685364580e+00 4.490932347912333853e+02
2.147415379691125725e+00 4.490341073262365512e+02
2.147515403696887315e+00 4.489751707342699660e+02
2.147615427702648461e+00 4.489164253277344869e+02
2.147715451708410050e+00 4.488578714197365116e+02
2.147815475714171196e+00 4.487995093240660367e+02
2.147915499719932786e+00 4.487413393551703962e+02
2.148015523725693932e+00 4.486833618281310692e+02
2.148115547731455521e+00 4.486255770586382141e+02
2.148215571737216667e+00 4.485679853629679883e+02
2.148315595742978257e+00 4.485105870579545808e+02
2.148415619748739847e+00 4.484533824609686690e+02
2.148515643754500992e+00 4.483963718898920661e+02
2.148615667760262582e+00 4.483395556630911756e+02
2.148715691766023728e+00 4.482829340993938558e+02
2.148815715771785317e+00 4.482265075180646932e+02
2.148915739777546463e+00 4.481702762387782855e+02
2.149015763783308053e+00 4.481142405815952543e+02
2.149115787789069199e+00 4.480584008669378022e+02
2.149215811794830788e+00 4.480027574155633374e+02
2.149315835800591934e+00 4.479473105485397468e+02
2.149415859806353524e+00 4.478920605872205556e+02
2.149515883812114669e+00 4.478370078532192338e+02
2.149615907817876259e+00 4.477821526683836737e+02
2.149715931823637405e+00 4.477274953547707810e+02
2.149815955829398995e+00 4.476730362346215770e+02
2.149915979835160140e+00 4.476187756303355059e+02
2.150016003840921730e+00 4.475647138644442293e+02
2.150116027846682876e+00 4.475108512595869001e+02
2.150216051852444465e+00 4.474571881384841276e+02
2.150316075858206055e+00 4.474037248239129667e+02
2.150416099863967201e+00 4.473504616386794623e+02
2.150516123869728791e+00 4.472973989055951733e+02
2.150616147875489936e+00 4.472445369474507402e+02
2.150716171881251526e+00 4.471918760869876905e+02
2.150816195887012672e+00 4.471394166468772937e+02
2.150916219892774262e+00 4.470871589496895240e+02
2.151016243898535407e+00 4.470351033178721423e+02
2.151116267904296997e+00 4.469832500737203986e+02
2.151216291910058143e+00 4.469315995393538969e+02
2.151316315915819732e+00 4.468801520366892532e+02
2.151416339921580878e+00 4.468289078874150846e+02
2.151516363927342468e+00 4.467778674129656906e+02
2.151616387933103614e+00 4.467270309344938823e+02
2.151716411938865203e+00 4.466763987728468237e+02
2.151816435944626349e+00 4.466259712485385762e+02
2.151916459950387939e+00 4.465757486817245763e+02
2.152016483956149084e+00 4.465257313921750892e+02
2.152116507961911118e+00 4.464759196992496300e+02
2.152216531967672264e+00 4.464263139218707011e+02
2.152316555973433410e+00 4.463769143784974176e+02
2.152416579979194999e+00 4.463277213870993592e+02
2.152516603984956589e+00 4.462787352651305355e+02
2.152616627990717735e+00 4.462299563295027838e+02
2.152716651996478880e+00 4.461813848965612124e+02
2.152816676002240470e+00 4.461330212820558359e+02
2.152916700008002060e+00 4.460848658011163934e+02
2.153016724013763206e+00 4.460369187682260872e+02
2.153116748019524351e+00 4.459891804971956617e+02
2.153216772025285941e+00 4.459416513011371421e+02
2.153316796031047531e+00 4.458943314924369474e+02
2.153416820036808677e+00 4.458472213827311066e+02
2.153516844042569822e+00 4.458003212828768937e+02
2.153616868048331412e+00 4.457536315029295224e+02
2.153716892054093002e+00 4.457071523521130416e+02
2.153816916059854147e+00 4.456608841387963480e+02
2.153916940065615293e+00 4.456148271704669241e+02
2.154016964071377327e+00 4.455689817537023600e+02
2.154116988077138473e+00 4.455233481941473883e+02
2.154217012082900062e+00 4.454779267964851215e+02
2.154317036088661208e+00 4.454327178644144283e+02
2.154417060094422798e+00 4.453877217006182150e+02
2.154517084100183943e+00 4.453429386067442692e+02
2.154617108105945533e+00 4.452983688833728593e+02
2.154717132111706679e+00 4.452540128299959292e+02
2.154817156117468269e+00 4.452098707449870290e+02
2.154917180123229414e+00 4.451659429255777241e+02
2.155017204128991004e+00 4.451222296678319594e+02
2.155117228134752150e+00 4.450787312666175239e+02
2.155217252140513740e+00 4.450354480155830288e+02
2.155317276146274885e+00 4.449923802071306227e+02
2.155417300152036475e+00 4.449495281323904692e+02
2.155517324157797621e+00 4.449068920811949397e+02
2.155617348163559210e+00 4.448644723420529772e+02
2.155717372169320356e+00 4.448222692021244029e+02
2.155817396175081946e+00 4.447802829471926884e+02
2.155917420180843536e+00 4.447385138616435256e+02
2.156017444186604681e+00 4.446969622284337902e+02
2.156117468192366271e+00 4.446556283290694864e+02
2.156217492198127417e+00 4.446145124435795424e+02
2.156317516203889006e+00 4.445736148504903440e+02
2.156417540209650152e+00 4.445329358267995872e+02
2.156517564215411742e+00 4.444924756479511530e+02
2.156617588221172888e+00 4.444522345878104375e+02
2.156717612226934477e+00 4.444122129186392840e+02
2.156817636232695623e+00 4.443724109110685276e+02
2.156917660238457213e+00 4.443328288340748031e+02
2.157017684244218358e+00 4.442934669549561022e+02
2.157117708249979948e+00 4.442543255393042614e+02
2.157217732255741094e+00 4.442154048509813720e+02
2.157317756261502684e+00 4.441767051520948826e+02
2.157417780267263829e+00 4.441382267029719060e+02
2.157517804273025419e+00 4.440999697621360838e+02
2.157617828278786565e+00 4.440619345862803016e+02
2.157717852284548155e+00 4.440241214302432695e+02
2.157817876290309744e+00 4.439865305469855343e+02
2.157917900296070890e+00 4.439491621875628198e+02
2.158017924301832480e+00 4.439120166011047672e+02
2.158117948307593625e+00 4.438750940347873666e+02
2.158217972313355215e+00 4.438383947338086273e+02
2.158317996319116361e+00 4.438019189413669210e+02
2.158418020324877951e+00 4.437656668986339810e+02
2.158518044330639096e+00 4.437296388447325626e+02
2.158618068336400686e+00 4.436938350167097269e+02
2.158718092342161832e+00 4.436582556495177414e+02
2.158818116347923421e+00 4.436229009759825885e+02
2.158918140353684567e+00 4.435877712267891866e+02
2.159018164359446157e+00 4.435528666304487615e+02
2.159118188365207303e+00 4.435181874132808844e+02
2.159218212370968892e+00 4.434837337993885740e+02
2.159318236376730038e+00 4.434495060106328310e+02
2.159418260382491628e+00 4.434155042666106397e+02
2.159518284388253218e+00 4.433817287846322870e+02
2.159618308394014363e+00 4.433481797796962383e+02
2.159718332399775953e+00 4.433148574644675932e+02
2.159818356405537543e+00 4.432817620492533024e+02
2.159918380411298688e+00 4.432488937419802255e+02
2.160018404417059834e+00 4.432162527481713710e+02
2.160118428422821424e+00 4.431838392709244658e+02
2.160218452428583014e+00 4.431516535108871722e+02
2.160318476434344159e+00 4.431196956662362254e+02
2.160418500440105305e+00 4.430879659326531623e+02
2.160518524445866895e+00 4.430564645033024362e+02
2.160618548451628484e+00 4.430251915688105555e+02
2.160718572457389630e+00 4.429941473172413566e+02
2.160818596463150776e+00 4.429633319340746311e+02
2.160918620468912366e+00 4.429327456021850367e+02
2.161018644474673955e+00 4.429023885018182227e+02
2.161118668480435101e+00 4.428722608105709355e+02
2.161218692486196247e+00 4.428423627033678258e+02
2.161318716491957836e+00 4.428126943524399053e+02
2.161418740497719426e+00 4.427832559273036850e+02
2.161518764503481016e+00 4.427540475947391769e+02
2.161618788509242162e+00 4.427250695187674410e+02
2.161718812515003751e+00 4.426963218606318833e+02
2.161818836520764897e+00 4.426678047787750643e+02
2.161918860526526487e+00 4.426395184288175528e+02
2.162018884532287633e+00 4.426114629635392248e+02
2.162118908538049222e+00 4.425836385328552751e+02
2.162218932543810368e+00 4.425560452837981416e+02
2.162318956549571958e+00 4.425286833604957337e+02
2.162418980555333103e+00 4.425015529041501168e+02
2.162519004561094693e+00 4.424746540530201173e+02
2.162619028566855839e+00 4.424479869423970513e+02
2.162719052572617429e+00 4.424215517045885804e+02
2.162819076578378574e+00 4.423953484688959179e+02
2.162919100584140164e+00 4.423693773615942746e+02
2.163019124589901310e+00 4.423436385059148961e+02
2.163119148595662899e+00 4.423181320220239172e+02
2.163219172601424489e+00 4.422928580270033763e+02
2.163319196607185635e+00 4.422678166348315472e+02
2.163419220612947225e+00 4.422430079563634990e+02
2.163519244618708370e+00 4.422184320993131905e+02
2.163619268624469960e+00 4.421940891682335177e+02
2.163719292630231106e+00 4.421699792644971012e+02
2.163819316635992696e+00 4.421461024862783802e+02
2.163919340641753841e+00 4.421224589285350248e+02
2.164019364647515431e+00 4.420990486829892347e+02
2.164119388653276577e+00 4.420758718381087533e+02
2.164219412659038166e+00 4.420529284790904399e+02
2.164319436664799312e+00 4.420302186878400335e+02
2.164419460670560902e+00 4.420077425429560662e+02
2.164519484676322048e+00 4.419855001197111051e+02
2.164619508682083637e+00 4.419634914900352101e+02
2.164719532687844783e+00 4.419417167224967784e+02
2.164819556693606373e+00 4.419201758822861166e+02
2.164919580699367518e+00 4.418988690311986147e+02
2.165019604705129108e+00 4.418777962276177504e+02
2.165119628710890698e+00 4.418569575264964442e+02
2.165219652716651844e+00 4.418363529793430189e+02
2.165319676722413433e+00 4.418159826342022143e+02
2.165419700728174579e+00 4.417958465356408624e+02
2.165519724733936169e+00 4.417759447247281628e+02
2.165619748739697314e+00 4.417562772390245982e+02
2.165719772745458904e+00 4.417368441125602203e+02
2.165819796751220050e+00 4.417176453758239631e+02
2.165919820756981640e+00 4.416986810557439753e+02
2.166019844762742785e+00 4.416799511756743755e+02
2.166119868768504375e+00 4.416614557553789382e+02
2.166219892774265521e+00 4.416431948110155759e+02
2.166319916780027111e+00 4.416251683551228098e+02
2.166419940785788256e+00 4.416073763966019783e+02
2.166519964791549846e+00 4.415898189407062091e+02
2.166619988797310992e+00 4.415724959890218315e+02
2.166720012803072581e+00 4.415554075394566098e+02
2.166820036808833727e+00 4.415385535862245092e+02
2.166920060814595317e+00 4.415219341198313714e+02
2.167020084820356907e+00 4.415055491270611583e+02
2.167120108826118496e+00 4.414893985909632761e+02
2.167220132831879642e+00 4.414734824908359201e+02
2.167320156837640788e+00 4.414578008022155018e+02
2.167420180843402377e+00 4.414423534968619265e+02
2.167520204849163967e+00 4.414271405427458035e+02
2.167620228854925113e+00 4.414121619040348605e+02
2.167720252860686259e+00 4.413974175410814382e+02
2.167820276866447848e+00 4.413829074104109509e+02
2.167920300872209438e+00 4.413686314647067093e+02
2.168020324877970584e+00 4.413545896528007120e+02
2.168120348883731729e+00 4.413407819196588093e+02
2.168220372889493319e+00 4.413272082063696189e+02
2.168320396895254909e+00 4.413138684501343505e+02
2.168420420901016055e+00 4.413007625842519701e+02
2.168520444906777200e+00 4.412878905381098775e+02
2.168620468912538790e+00 4.412752522371724808e+02
2.168720492918300380e+00 4.412628476029690887e+02
2.168820516924061970e+00 4.412506765530832809e+02
2.168920540929823115e+00 4.412387390011426760e+02
2.169020564935584705e+00 4.412270348568076770e+02
2.169120588941345851e+00 4.412155640257615801e+02
2.169220612947107441e+00 4.412043264096988082e+02
2.169320636952868586e+00 4.411933219063176352e+02
2.169420660958630176e+00 4.411825504093064296e+02
2.169520684964391322e+00 4.411720118083374018e+02
2.169620708970152911e+00 4.411617059890554060e+02
2.169720732975914057e+00 4.411516328330679357e+02
2.169820756981675647e+00 4.411417922179381321e+02
2.169920780987436792e+00 4.411321840171730173e+02
2.170020804993198382e+00 4.411228081002164458e+02
2.170120828998959528e+00 4.411136643324393845e+02
2.170220853004721118e+00 4.411047525751324656e+02
2.170320877010482263e+00 4.410960726854978589e+02
2.170420901016243853e+00 4.410876245166379022e+02
2.170520925022004999e+00 4.410794079175523734e+02
2.170620949027766589e+00 4.410714227331266102e+02
2.170720973033528178e+00 4.410636688041258822e+02
2.170820997039289324e+00 4.410561459671865236e+02
2.170921021045050914e+00 4.410488540548105334e+02
2.171021045050812059e+00 4.410417928953567070e+02
2.171121069056573649e+00 4.410349623130361465e+02
2.171221093062334795e+00 4.410283621279019144e+02
2.171321117068096385e+00 4.410219921558472151e+02
2.171421141073857530e+00 4.410158522085948221e+02
2.171521165079619120e+00 4.410099420936938941e+02
2.171621189085380266e+00 4.410042616145127568e+02
2.171721213091141856e+00 4.409988105702328767e+02
2.171821237096903001e+00 4.409935887558442005e+02
2.171921261102664591e+00 4.409885959621394136e+02
2.172021285108425737e+00 4.409838319757096201e+02
2.172121309114187326e+00 4.409792965789375785e+02
2.172221333119948472e+00 4.409749895499936656e+02
2.172321357125710062e+00 4.409709106628328072e+02
2.172421381131471652e+00 4.409670596871877706e+02
2.172521405137232797e+00 4.409634363885666062e+02
2.172621429142994387e+00 4.409600405282477027e+02
2.172721453148755533e+00 4.409568718632760920e+02
2.172821477154517122e+00 4.409539301464603227e+02
2.172921501160278268e+00 4.409512151263685382e+02
2.173021525166039858e+00 4.409487265473260322e+02
2.173121549171801004e+00 4.409464641494100761e+02
2.173221573177562593e+00 4.409444276684500323e+02
2.173321597183323739e+00 4.409426168360224096e+02
2.173421621189085329e+00 4.409410313794489866e+02
2.173521645194846474e+00 4.409396710217950499e+02
2.173621669200608064e+00 4.409385354818671772e+02
2.173721693206369210e+00 4.409376244742103381e+02
2.173821717212130800e+00 4.409369377091073829e+02
2.173921741217891945e+00 4.409364748925773938e+02
2.174021765223653535e+00 4.409362357263731838e+02
2.174121789229414681e+00 4.409362199079821494e+02
2.174221813235176270e+00 4.409364271306235423e+02
2.174321837240937860e+00 4.409368570832488103e+02
2.174421861246699450e+00 4.409375094505403467e+02
2.174521885252460596e+00 4.409383839129108651e+02
2.174621909258221741e+00 4.409394801465063551e+02
2.174721933263983331e+00 4.409407978232011374e+02
2.174821957269744921e+00 4.409423366106017852e+02
2.174921981275506067e+00 4.409440961720457608e+02
2.175022005281267212e+00 4.409460761666032909e+02
2.175122029287028802e+00 4.409482762490787877e+02
2.175222053292790392e+00 4.409506960700074387e+02
2.175322077298551537e+00 4.409533352756633349e+02
2.175422101304312683e+00 4.409561935080552075e+02
2.175522125310074273e+00 4.409592704049306917e+02
2.175622149315835863e+00 4.409625655997777471e+02
2.175722173321597008e+00 4.409660787218258520e+02
2.175822197327358154e+00 4.409698093960493566e+02
2.175922221333119744e+00 4.409737572431698140e+02
2.176022245338881334e+00 4.409779218796571172e+02
2.176122269344642923e+00 4.409823029177346143e+02
2.176222293350404069e+00 4.409868999653796209e+02
2.176322317356165659e+00 4.409917126263284786e+02
2.176422341361926804e+00 4.409967405000793974e+02
2.176522365367688394e+00 4.410019831818958096e+02
2.176622389373449540e+00 4.410074402628097232e+02
2.176722413379211130e+00 4.410131113296268381e+02
2.176822437384972275e+00 4.410189959649299567e+02
2.176922461390733865e+00 4.410250937470840995e+02
2.177022485396495011e+00 4.410314042502394614e+02
2.177122509402256600e+00 4.410379270443381756e+02
2.177222533408017746e+00 4.410446616951174406e+02
2.177322557413779336e+00 4.410516077641161132e+02
2.177422581419540482e+00 4.410587648086794843e+02
2.177522605425302071e+00 4.410661323819648487e+02
2.177622629431063217e+00 4.410737100329469058e+02
2.177722653436824807e+00 4.410814973064237847e+02
2.177822677442585952e+00 4.410894937430246046e+02
2.177922701448347542e+00 4.410976988792132261e+02
2.178022725454109132e+00 4.411061122472967782e+02
2.178122749459870278e+00 4.411147333754323654e+02
2.178222773465631867e+00 4.411235617876317292e+02
2.178322797471393013e+00 4.411325970037717070e+02
2.178422821477154603e+00 4.411418385395977566e+02
2.178522845482915749e+00 4.411512859067364616e+02
2.178622869488677338e+00 4.411609386126970662e+02
2.178722893494438484e+00 4.411707961608854021e+02
2.178822917500200074e+00 4.411808580506061617e+02
2.178922941505961219e+00 4.411911237770764274e+02
2.179022965511722809e+00 4.412015928314311850e+02
2.179122989517483955e+00 4.412122647007316232e+02
2.179223013523245545e+00 4.412231388679763313e+02
2.179323037529006690e+00 4.412342148121078367e+02
2.179423061534768280e+00 4.412454920080234047e+02
2.179523085540529426e+00 4.412569699265843610e+02
2.179623109546291015e+00 4.412686480346241069e+02
2.179723133552052161e+00 4.412805257949606812e+02
2.179823157557813751e+00 4.412926026664037522e+02
2.179923181563575341e+00 4.413048781037674075e+02
2.180023205569336486e+00 4.413173515578780552e+02
2.180123229575098076e+00 4.413300224755874979e+02
2.180223253580859222e+00 4.413428902997817431e+02
2.180323277586620812e+00 4.413559544693933958e+02
2.180423301592381957e+00 4.413692144194109233e+02
2.180523325598143547e+00 4.413826695808912746e+02
2.180623349603904693e+00 4.413963193809723862e+02
2.180723373609666282e+00 4.414101632428822768e+02
2.180823397615427428e+00 4.414242005859528035e+02
2.180923421621189018e+00 4.414384308256306326e+02
2.181023445626950164e+00 4.414528533734919620e+02
2.181123469632711753e+00 4.414674676372501949e+02
2.181223493638472899e+00 4.414822730207733912e+02
2.181323517644234489e+00 4.414972689240943851e+02
2.181423541649995634e+00 4.415124547434248257e+02
2.181523565655757224e+00 4.415278298711675689e+02
2.181623589661518370e+00 4.415433936959300922e+02
2.181723613667280404e+00 4.415591456025391039e+02
2.181823637673041549e+00 4.415750849720527071e+02
2.181923661678802695e+00 4.415912111817760319e+02
2.182023685684564285e+00 4.416075236052732294e+02
2.182123709690325875e+00 4.416240216123840696e+02
2.182223733696087020e+00 4.416407045692350835e+02
2.182323757701848166e+00 4.416575718382587752e+02
2.182423781707609756e+00 4.416746227782046503e+02
2.182523805713371345e+00 4.416918567441543360e+02
2.182623829719132491e+00 4.417092730875399980e+02
2.182723853724893637e+00 4.417268711561554255e+02
2.182823877730655227e+00 4.417446502941751305e+02
2.182923901736416816e+00 4.417626098421667393e+02
2.183023925742177962e+00 4.417807491371097512e+02
2.183123949747939108e+00 4.417990675124107725e+02
2.183223973753700697e+00 4.418175642979181816e+02
2.183323997759462287e+00 4.418362388199396946e+02
2.183424021765223433e+00 4.418550904012597584e+02
2.183524045770985023e+00 4.418741183611537053e+02
2.183624069776746612e+00 4.418933220154084438e+02
2.183724093782507758e+00 4.419127006763355894e+02
2.183824117788269348e+00 4.419322536527906777e+02
2.183924141794030493e+00 4.419519802501911272e+02
2.184024165799792083e+00 4.419718797705322686e+02
2.184124189805553229e+00 4.419919515124064446e+02
2.184224213811314819e+00 4.420121947710194377e+02
2.184324237817075964e+00 4.420326088382095122e+02
2.184424261822837554e+00 4.420531930024667986e+02
2.184524285828598700e+00 4.420739465489482996e+02
2.184624309834360290e+00 4.420948687595002298e+02
2.184724333840121435e+00 4.421159589126744436e+02
2.184824357845883025e+00 4.421372162837477617e+02
2.184924381851644171e+00 4.421586401447415824e+02
2.185024405857405760e+00 4.421802297644402984e+02
2.185124429863166906e+00 4.422019844084118176e+02
2.185224453868928496e+00 4.422239033390252416e+02
2.185324477874689642e+00 4.422459858154727499e+02
2.185424501880451231e+00 4.422682310937886427e+02
2.185524525886212821e+00 4.422906384268667921e+02
2.185624549891973967e+00 4.423132070644863916e+02
2.185724573897735556e+00 4.423359362533261674e+02
2.185824597903496702e+00 4.423588252369896168e+02
2.185924621909258292e+00 4.423818732560228568e+02
2.186024645915019438e+00 4.424050795479358840e+02
2.186124669920781027e+00 4.424284433472252545e+02
2.186224693926542173e+00 4.424519638853920469e+02
2.186324717932303763e+00 4.424756403909665323e+02
2.186424741938064908e+00 4.424994720895263072e+02
2.186524765943826498e+00 4.425234582037206792e+02
2.186624789949587644e+00 4.425475979532915289e+02
2.186724813955349234e+00 4.425718905550924092e+02
2.186824837961110379e+00 4.425963352231151475e+02
2.186924861966871969e+00 4.426209311685089460e+02
2.187024885972633115e+00 4.426456775996021520e+02
2.187124909978394705e+00 4.426705737219283492e+02
2.187224933984156294e+00 4.426956187382446615e+02
2.187324957989917440e+00 4.427208118485561386e+02
2.187424981995679030e+00 4.427461522501398008e+02
2.187525006001440175e+00 4.427716391375659555e+02
2.187625030007201765e+00 4.427972717027223553e+02
2.187725054012962911e+00 4.428230491348360260e+02
2.187825078018724501e+00 4.428489706204987328e+02
2.187925102024485646e+00 4.428750353436892055e+02
2.188025126030247236e+00 4.429012424857961037e+02
2.188125150036008382e+00 4.429275912256442211e+02
2.188225174041769971e+00 4.429540807395160300e+02
2.188325198047531117e+00 4.429807102011766915e+02
2.188425222053292707e+00 4.430074787818984987e+02
2.188525246059053853e+00 4.430343856504849214e+02
2.188625270064815442e+00 4.430614299732958443e+02
2.188725294070576588e+00 4.430886109142702480e+02
2.188825318076338178e+00 4.431159276349525271e+02
2.188925342082099323e+00 4.431433792945173877e+02
2.189025366087860913e+00 4.431709650497933239e+02
2.189125390093622503e+00 4.431986840552904710e+02
2.189225414099383649e+00 4.432265354632223193e+02
2.189325438105145238e+00 4.432545184235338525e+02
2.189425462110906828e+00 4.432826320839257619e+02
2.189525486116667974e+00 4.433108755898803111e+02
2.189625510122429120e+00 4.433392480846866874e+02
2.189725534128190709e+00 4.433677487094677190e+02
2.189825558133952299e+00 4.433963766032052831e+02
2.189925582139713445e+00 4.434251309027652042e+02
2.190025606145474590e+00 4.434540107429259024e+02
2.190125630151236180e+00 4.434830152564023820e+02
2.190225654156997770e+00 4.435121435738741411e+02
2.190325678162758916e+00 4.435413948240110926e+02
2.190425702168520061e+00 4.435707681334994277e+02
2.190525726174281651e+00 4.436002626270700375e+02
2.190625750180043241e+00 4.436298774275242636e+02
2.190725774185804386e+00 4.436596116557603295e+02
2.190825798191565532e+00 4.436894644308017064e+02
2.190925822197327566e+00 4.437194348698232034e+02
2.191025846203088712e+00 4.437495220881792193e+02
2.191125870208850301e+00 4.437797251994307999e+02
2.191225894214611447e+00 4.438100433153713311e+02
2.191325918220373037e+00 4.438404755460568936e+02
2.191425942226134183e+00 4.438710209998324103e+02
2.191525966231895772e+00 4.439016787833595572e+02
2.191625990237656918e+00 4.439324480016446728e+02
2.191726014243418508e+00 4.439633277580667254e+02
2.191826038249179653e+00 4.439943171544057918e+02
2.191926062254941243e+00 4.440254152908702281e+02
2.192026086260702389e+00 4.440566212661257168e+02
2.192126110266463979e+00 4.440879341773239162e+02
2.192226134272225124e+00 4.441193531201292330e+02
2.192326158277986714e+00 4.441508771887488933e+02
2.192426182283747860e+00 4.441825054759619889e+02
2.192526206289509449e+00 4.442142370731453411e+02
2.192626230295270595e+00 4.442460710703060727e+02
2.192726254301032185e+00 4.442780065561069591e+02
2.192826278306793775e+00 4.443100426178982616e+02
2.192926302312554920e+00 4.443421783417450683e+02
2.193026326318316510e+00 4.443744128124554322e+02
2.193126350324077656e+00 4.444067451136128852e+02
2.193226374329839246e+00 4.444391743276023021e+02
2.193326398335600391e+00 4.444716995356408802e+02
2.193426422341361981e+00 4.445043198178073567e+02
2.193526446347123127e+00 4.445370342530714538e+02
2.193626470352884716e+00 4.445698419193234372e+02
2.193726494358645862e+00 4.446027418934029356e+02
2.193826518364407452e+00 4.446357332511298637e+02
2.193926542370168598e+00 4.446688150673333553e+02
2.194026566375930187e+00 4.447019864158829705e+02
2.194126590381691333e+00 4.447352463697164922e+02
2.194226614387452923e+00 4.447685940008708485e+02
2.194326638393214068e+00 4.448020283805123540e+02
2.194426662398975658e+00 4.448355485789670070e+02
2.194526686404736804e+00 4.448691536657495362e+02
2.194626710410498394e+00 4.449028427095954612e+02
2.194726734416259983e+00 4.449366147784896270e+02
2.194826758422021129e+00 4.449704689396963886e+02
2.194926782427782719e+00 4.450044042597921248e+02
2.195026806433543864e+00 4.450384198046934898e+02
2.195126830439305454e+00 4.450725146396886771e+02
2.195226854445066600e+00 4.451066878294684557e+02
2.195326878450828190e+00 4.451409384381555583e+02
2.195426902456589335e+00 4.451752655293370822e+02
2.195526926462350925e+00 4.452096681660940476e+02
2.195626950468112071e+00 4.452441454110305017e+02
2.195726974473873661e+00 4.452786963263087046e+02
2.195826998479634806e+00 4.453133199736752772e+02
2.195927022485396396e+00 4.453480154144955350e+02
2.196027046491157542e+00 4.453827817097815682e+02
2.196127070496919131e+00 4.454176179202261210e+02
2.196227094502680277e+00 4.454525231062308421e+02
2.196327118508441867e+00 4.454874963279394251e+02
2.196427142514203013e+00 4.455225366452673370e+02
2.196527166519964602e+00 4.455576431179331962e+02
2.196627190525726192e+00 4.455928148054910594e+02
2.196727214531487782e+00 4.456280507673598095e+02
2.196827238537248927e+00 4.456633500628552156e+02
2.196927262543010073e+00 4.456987117512219356e+02
2.197027286548771663e+00 4.457341348916623360e+02
2.197127310554533253e+00 4.457696185433718483e+02
2.197227334560294398e+00 4.458051617655659129e+02
2.197327358566055544e+00 4.458407636175141420e+02
2.197427382571817134e+00 4.458764231585706739e+02
2.197527406577578724e+00 4.459121394482056076e+02
2.197627430583339869e+00 4.459479115460369485e+02
2.197727454589101015e+00 4.459837385118609063e+02
2.197827478594862605e+00 4.460196194056847503e+02
2.197927502600624194e+00 4.460555532877571068e+02
2.198027526606385340e+00 4.460915392185996780e+02
2.198127550612146486e+00 4.461275762590402110e+02
2.198227574617908076e+00 4.461636634702410902e+02
2.198327598623669665e+00 4.461997999137334432e+02
2.198427622629431255e+00 4.462359846514477226e+02
2.198527646635192401e+00 4.462722167457450269e+02
2.198627670640953990e+00 4.463084952594484776e+02
2.198727694646715136e+00 4.463448192558756205e+02
2.198827718652476726e+00 4.463811877988704282e+02
2.198927742658237872e+00 4.464175999528313810e+02
2.199027766663999461e+00 4.464540547827481873e+02
2.199127790669760607e+00 4.464905513542294102e+02
2.199227814675522197e+00 4.465270887335349244e+02
2.199327838681283342e+00 4.465636659876096246e+02
2.199427862687044932e+00 4.466002821841110517e+02
2.199527886692806078e+00 4.466369363914445785e+02
2.199627910698567668e+00 4.466736276787931388e+02
2.199727934704328813e+00 4.467103551161488895e+02
2.199827958710090403e+00 4.467471177743453836e+02
2.199927982715851549e+00 4.467839147250872429e+02
2.200028006721613139e+00 4.468207450409852868e+02
2.200128030727374284e+00 4.468576077955843857e+02
2.200228054733135874e+00 4.468945020633963736e+02
2.200328078738897464e+00 4.469314269199311980e+02
2.200428102744658609e+00 4.469683814417294343e+02
2.200528126750420199e+00 4.470053647063923563e+02
2.200628150756181345e+00 4.470423757926143935e+02
2.200728174761942935e+00 4.470794137802129740e+02
2.200828198767704080e+00 4.471164777501614935e+02
2.200928222773465670e+00 4.471535667846204092e+02
2.201028246779226816e+00 4.471906799669674228e+02
2.201128270784988405e+00 4.472278163818296548e+02
2.201228294790749551e+00 4.472649751151153623e+02
2.201328318796511141e+00 4.473021552540442372e+02
2.201428342802272287e+00 4.473393558871779305e+02
2.201528366808033876e+00 4.473765761044539317e+02
2.201628390813795022e+00 4.474138149972131941e+02
2.201728414819556612e+00 4.474510716582341274e+02
2.201828438825317757e+00 4.474883451817618720e+02
2.201928462831079347e+00 4.475256346635405862e+02
2.202028486836840937e+00 4.475629392008435730e+02
2.202128510842602083e+00 4.476002578925031230e+02
2.202228534848363672e+00 4.476375898389445638e+02
2.202328558854124818e+00 4.476749341422146244e+02
2.202428582859886408e+00 4.477122899060119607e+02
2.202528606865647554e+00 4.477496562357199537e+02
2.202628630871409143e+00 4.477870322384358133e+02
2.202728654877170289e+00 4.478244170230020131e+02
2.202828678882931879e+00 4.478618097000356215e+02
2.202928702888693024e+00 4.478992093819612137e+02
2.203028726894454614e+00 4.479366151830387253e+02
2.203128750900215760e+00 4.479740262193966487e+02
2.203228774905977350e+00 4.480114416090597729e+02
2.203328798911738495e+00 4.480488604719809018e+02
2.203428822917500085e+00 4.480862819300717774e+02
2.203528846923261231e+00 4.481237051072312738e+02
2.203628870929022820e+00 4.481611291293785939e+02
2.203728894934783966e+00 4.481985531244800427e+02
2.203828918940545556e+00 4.482359762225805184e+02
2.203928942946307146e+00 4.482733975558351176e+02
2.204028966952068735e+00 4.483108162585362493e+02
2.204128990957829881e+00 4.483482314671450126e+02
2.204229014963591027e+00 4.483856423203213808e+02
2.204329038969352617e+00 4.484230479589523384e+02
2.204429062975114206e+00 4.484604475261829180e+02
2.204529086980875352e+00 4.484978401674450197e+02
2.204629110986636498e+00 4.485352250304883910e+02
2.204729134992398087e+00 4.485726012654072292e+02
2.204829158998159677e+00 4.486099680246715025e+02
2.204929183003920823e+00 4.486473244631565649e+02
2.205029207009681969e+00 4.486846697381710101e+02
2.205129231015443558e+00 4.487220030094868548e+02
2.205229255021205148e+00 4.487593234393675061e+02
2.205329279026966294e+00 4.487966301925981725e+02
2.205429303032727439e+00 4.488339224365122391e+02
2.205529327038489029e+00 4.488711993410238392e+02
2.205629351044250619e+00 4.489084600786532633e+02
2.205729375050012209e+00 4.489457038245562330e+02
2.205829399055773354e+00 4.489829297565532329e+02
2.205929423061534944e+00 4.490201370551579316e+02
2.206029447067296090e+00 4.490573249036048651e+02
2.206129471073057680e+00 4.490944924878776305e+02
2.206229495078818825e+00 4.491316389967379337e+02
2.206329519084580415e+00 4.491687636217521913e+02
2.206429543090341561e+00 4.492058655573214878e+02
2.206529567096103150e+00 4.492429440007070980e+02
2.206629591101864296e+00 4.492799981520605570e+02
2.206729615107625886e+00 4.493170272144494106e+02
2.206829639113387032e+00 4.493540303938859779e+02
2.206929663119148621e+00 4.493910068993538403e+02
2.207029687124909767e+00 4.494279559428362063e+02
2.207129711130671357e+00 4.494648767393428557e+02
2.207229735136432502e+00 4.495017685069365712e+02
2.207329759142194092e+00 4.495386304667611057e+02
2.207429783147955238e+00 4.495754618430677283e+02
2.207529807153716828e+00 4.496122618632419403e+02
2.207629831159478417e+00 4.496490297578299646e+02
2.207729855165239563e+00 4.496857647605655757e+02
2.207829879171001153e+00 4.497224661083977821e+02
2.207929903176762299e+00 4.497591330415144739e+02
2.208029927182523888e+00 4.497957648033723217e+02
2.208129951188285034e+00 4.498323606407176385e+02
2.208229975194046624e+00 4.498689198036186099e+02
2.208329999199807769e+00 4.499054415454872355e+02
2.208430023205569359e+00 4.499419251231052499e+02
2.208530047211330505e+00 4.499783697966515774e+02
2.208630071217092095e+00 4.500147748297263206e+02
2.208730095222853240e+00 4.500511394893769079e+02
2.208830119228614830e+00 4.500874630461228207e+02
2.208930143234375976e+00 4.501237447739817981e+02
2.209030167240137565e+00 4.501599839504933698e+02
2.209130191245898711e+00 4.501961798567460846e+02
2.209230215251660301e+00 4.502323317773980307e+02
2.209330239257421447e+00 4.502684390007066781e+02
2.209430263263183036e+00 4.503045008185503093e+02
2.209530287268944626e+00 4.503405165264521770e+02
2.209630311274705772e+00 4.503764854236066526e+02
2.209730335280467362e+00 4.504124068129018497e+02
2.209830359286228507e+00 4.504482800009436119e+02
2.209930383291990097e+00 4.504841042980802968e+02
2.210030407297751243e+00 4.505198790184263657e+02
2.210130431303512832e+00 4.505556034798838141e+02
2.210230455309273978e+00 4.505912770041695126e+02
2.210330479315035568e+00 4.506268989168349890e+02
2.210430503320796713e+00 4.506624685472904730e+02
2.210530527326558303e+00 4.506979852288291113e+02
2.210630551332319449e+00 4.507334482986490798e+02
2.210730575338081039e+00 4.507688570978758662e+02
2.210830599343842184e+00 4.508042109715848369e+02
2.210930623349603774e+00 4.508395092688240311e+02
2.211030647355364920e+00 4.508747513426376372e+02
2.211130671361126510e+00 4.509099365500845806e+02
2.211230695366887655e+00 4.509450642522645012e+02
2.211330719372649689e+00 4.509801338143373641e+02
2.211430743378410835e+00 4.510151446055452880e+02
2.211530767384171980e+00 4.510500959992344292e+02
2.211630791389933570e+00 4.510849873728767534e+02
2.211730815395695160e+00 4.511198181080899303e+02
2.211830839401456306e+00 4.511545875906592755e+02
2.211930863407217451e+00 4.511892952105589529e+02
2.212030887412979041e+00 4.512239403619722680e+02
2.212130911418740631e+00 4.512585224433115627e+02
2.212230935424501777e+00 4.512930408572398733e+02
2.212330959430262922e+00 4.513274950106909387e+02
2.212430983436024512e+00 4.513618843148878454e+02
2.212531007441786102e+00 4.513962081853649693e+02
2.212631031447547247e+00 4.514304660419866195e+02
2.212731055453308393e+00 4.514646573089667640e+02
2.212831079459069983e+00 4.514987814148880148e+02
2.212931103464831573e+00 4.515328377927222618e+02
2.213031127470592718e+00 4.515668258798488637e+02
2.213131151476354308e+00 4.516007451180731209e+02
2.213231175482115898e+00 4.516345949536454896e+02
2.213331199487877043e+00 4.516683748372800551e+02
2.213431223493638633e+00 4.517020842241742571e+02
2.213531247499399779e+00 4.517357225740249760e+02
2.213631271505161369e+00 4.517692893510477461e+02
2.213731295510922514e+00 4.518027840239944908e+02
2.213831319516684104e+00 4.518362060661713713e+02
2.213931343522445250e+00 4.518695549554571471e+02
2.214031367528206840e+00 4.519028301743180123e+02
2.214131391533967985e+00 4.519360312098272630e+02
2.214231415539729575e+00 4.519691575536820665e+02
2.214331439545490721e+00 4.520022087022180131e+02
2.214431463551252310e+00 4.520351841564295228e+02
2.214531487557013456e+00 4.520680834219837152e+02
2.214631511562775046e+00 4.521009060092362688e+02
2.214731535568536192e+00 4.521336514332497813e+02
2.214831559574297781e+00 4.521663192138080376e+02
2.214931583580058927e+00 4.521989088754322097e+02
2.215031607585820517e+00 4.522314199473967165e+02
2.215131631591582106e+00 4.522638519637440595e+02
2.215231655597343252e+00 4.522962044633005689e+02
2.215331679603104842e+00 4.523284769896913531e+02
2.215431703608865988e+00 4.523606690913547936e+02
2.215531727614627577e+00 4.523927803215572681e+02
2.215631751620388723e+00 4.524248102384076446e+02
2.215731775626150313e+00 4.524567584048720050e+02
2.215831799631911458e+00 4.524886243887873434e+02
2.215931823637673048e+00 4.525204077628756067e+02
2.216031847643434194e+00 4.525521081047561438e+02
2.216131871649195784e+00 4.525837249969619620e+02
2.216231895654956929e+00 4.526152580269504142e+02
2.216331919660718519e+00 4.526467067871176937e+02
2.216431943666479665e+00 4.526780708748109987e+02
2.216531967672241255e+00 4.527093498923426296e+02
2.216631991678002400e+00 4.527405434469999364e+02
2.216732015683763990e+00 4.527716511510617465e+02
2.216832039689525580e+00 4.528026726218060389e+02
2.216932063695286725e+00 4.528336074815249503e+02
2.217032087701048315e+00 4.528644553575350642e+02
2.217132111706809461e+00 4.528952158821898593e+02
2.217232135712571051e+00 4.529258886928905099e+02
2.217332159718332196e+00 4.529564734320983348e+02
2.217432183724093786e+00 4.529869697473420729e+02
2.217532207729854932e+00 4.530173772912344248e+02
2.217632231735616521e+00 4.530476957214771687e+02
2.217732255741377667e+00 4.530779247008752009e+02
2.217832279747139257e+00 4.531080638973442092e+02
2.217932303752900403e+00 4.531381129839227810e+02
2.218032327758661992e+00 4.531680716387811572e+02
2.218132351764423138e+00 4.531979395452300992e+02
2.218232375770184728e+00 4.532277163917310645e+02
2.218332399775945873e+00 4.532574018719062110e+02
2.218432423781707463e+00 4.532869956845455022e+02
2.218532447787468609e+00 4.533164975336165980e+02
2.218632471793230199e+00 4.533459071282736659e+02
2.218732495798991788e+00 4.533752241828644287e+02
2.218832519804752934e+00 4.534044484169403972e+02
2.218932543810514524e+00 4.534335795552619288e+02
2.219032567816276114e+00 4.534626173278085162e+02
2.219132591822037259e+00 4.534915614697850401e+02
2.219232615827798405e+00 4.535204117216301825e+02
2.219332639833559995e+00 4.535491678290209165e+02
2.219432663839321584e+00 4.535778295428838192e+02
2.219532687845082730e+00 4.536063966193970032e+02
2.219632711850843876e+00 4.536348688199995536e+02
2.219732735856605466e+00 4.536632459113967002e+02
2.219832759862367055e+00 4.536915276655664115e+02
2.219932783868128201e+00 4.537197138597653634e+02
2.220032807873889347e+00 4.537478042765339978e+02
2.220132831879650936e+00 4.537757987037017529e+02
2.220232855885412526e+00 4.538036969343928035e+02
2.220332879891173672e+00 4.538314987670315190e+02
2.220432903896934818e+00 4.538592040053467258e+02
2.220532927902696851e+00 4.538868124583750614e+02
2.220632951908457997e+00 4.539143239404682504e+02
2.220732975914219587e+00 4.539417382712952644e+02
2.220832999919980733e+00 4.539690552758450508e+02
2.220933023925742322e+00 4.539962747844338082e+02
2.221033047931503468e+00 4.540233966327052144e+02
2.221133071937265058e+00 4.540504206616358829e+02
2.221233095943026203e+00 4.540773467175368410e+02
2.221333119948787793e+00 4.541041746520584184e+02
2.221433143954548939e+00 4.541309043221899060e+02
2.221533167960310529e+00 4.541575355902654678e+02
2.221633191966071674e+00 4.541840683239636860e+02
2.221733215971833264e+00 4.542105023963117674e+02
2.221833239977594410e+00 4.542368376856850887e+02
2.221933263983355999e+00 4.542630740758097545e+02
2.222033287989117145e+00 4.542892114557648142e+02
2.222133311994878735e+00 4.543152497199840241e+02
2.222233336000639881e+00 4.543411887682529482e+02
2.222333360006401470e+00 4.543670285057140745e+02
2.222433384012163060e+00 4.543927688428647684e+02
2.222533408017924206e+00 4.544184096955590348e+02
2.222633432023685796e+00 4.544439509850065519e+02
2.222733456029446941e+00 4.544693926377731259e+02
2.222833480035208531e+00 4.544947345857802929e+02
2.222933504040969677e+00 4.545199767663041825e+02
2.223033528046731266e+00 4.545451191219754037e+02
2.223133552052492412e+00 4.545701616007791017e+02
2.223233576058254002e+00 4.545951041560506383e+02
2.223333600064015148e+00 4.546199467464772965e+02
2.223433624069776737e+00 4.546446893360949275e+02
2.223533648075537883e+00 4.546693318942869837e+02
2.223633672081299473e+00 4.546938743957822453e+02
2.223733696087060618e+00 4.547183168206514665e+02
2.223833720092822208e+00 4.547426591543070913e+02
2.223933744098583354e+00 4.547669013874987627e+02
2.224033768104344944e+00 4.547910435163105376e+02
2.224133792110106089e+00 4.548150855421581582e+02
2.224233816115867679e+00 4.548390274717862667e+02
2.224333840121629269e+00 4.548628693172631756e+02
2.224433864127390414e+00 4.548866110959797879e+02
2.224533888133152004e+00 4.549102528306425484e+02
2.224633912138913150e+00 4.549337945492704876e+02
2.224733936144674740e+00 4.549572362851917546e+02
2.224833960150435885e+00 4.549805780770378760e+02
2.224933984156197475e+00 4.550038199687390943e+02
2.225034008161958621e+00 4.550269620095192522e+02
2.225134032167720211e+00 4.550500042538907337e+02
2.225234056173481356e+00 4.550729467616486090e+02
2.225334080179242946e+00 4.550957895978655756e+02
2.225434104185004092e+00 4.551185328328849664e+02
2.225534128190765681e+00 4.551411765423153497e+02
2.225634152196526827e+00 4.551637208070245038e+02
2.225734176202288417e+00 4.551861657131317997e+02
2.225834200208049563e+00 4.552085113520022901e+02
2.225934224213811152e+00 4.552307578202393188e+02
2.226034248219572298e+00 4.552529052196773591e+02
2.226134272225333888e+00 4.552749536573744535e+02
2.226234296231095477e+00 4.552969032456049945e+02
2.226334320236857067e+00 4.553187541018517095e+02
2.226434344242618213e+00 4.553405063487965094e+02
2.226534368248379359e+00 4.553621601143140651e+02
2.226634392254140948e+00 4.553837155314627125e+02
2.226734416259902538e+00 4.554051727384745618e+02
2.226834440265663684e+00 4.554265318787479373e+02
2.226934464271424829e+00 4.554477931008386804e+02
2.227034488277186419e+00 4.554689565584477577e+02
2.227134512282948009e+00 4.554900224104158042e+02
2.227234536288709155e+00 4.555109908207117542e+02
2.227334560294470300e+00 4.555318619584206203e+02
2.227434584300231890e+00 4.555526359977365018e+02
2.227534608305993480e+00 4.555733131179515567e+02
2.227634632311754626e+00 4.555938935034444057e+02
2.227734656317515771e+00 4.556143773436690481e+02
2.227834680323277361e+00 4.556347648331454252e+02
2.227934704329038951e+00 4.556550561714475975e+02
2.228034728334800540e+00 4.556752515631912388e+02
2.228134752340561686e+00 4.556953512180238590e+02
2.228234776346323276e+00 4.557153553506108778e+02
2.228334800352084422e+00 4.557352641806258475e+02
2.228434824357846011e+00 4.557550779327368673e+02
2.228534848363607157e+00 4.557747968365940210e+02
2.228634872369368747e+00 4.557944211268168715e+02
2.228734896375129892e+00 4.558139510429825805e+02
2.228834920380891482e+00 4.558333868296109586e+02
2.228934944386652628e+00 4.558527287361537219e+02
2.229034968392414218e+00 4.558719770169785193e+02
2.229134992398175363e+00 4.558911319313568811e+02
2.229235016403936953e+00 4.559101937434496676e+02
2.229335040409698099e+00 4.559291627222936540e+02
2.229435064415459689e+00 4.559480391417861824e+02
2.229535088421220834e+00 4.559668232806718606e+02
2.229635112426982424e+00 4.559855154225267597e+02
2.229735136432743570e+00 4.560041158557445442e+02
2.229835160438505159e+00 4.560226248735210675e+02
2.229935184444266749e+00 4.560410427738391377e+02
2.230035208450027895e+00 4.560593698594528860e+02
2.230135232455789485e+00 4.560776064378717365e+02
2.230235256461550630e+00 4.560957528213457977e+02
2.230335280467312220e+00 4.561138093268488092e+02
2.230435304473073366e+00 4.561317762760622259e+02
2.230535328478834955e+00 4.561496539953583920e+02
2.230635352484596101e+00 4.561674428157844545e+02
2.230735376490357691e+00 4.561851430730454240e+02
2.230835400496118837e+00 4.562027551074868370e+02
2.230935424501880426e+00 4.562202792640785560e+02
2.231035448507641572e+00 4.562377158923954426e+02
2.231135472513403162e+00 4.562550653466016684e+02
2.231235496519164307e+00 4.562723279854324119e+02
2.231335520524925897e+00 4.562895041721755547e+02
2.231435544530687043e+00 4.563065942746526389e+02
2.231535568536448633e+00 4.563235986652036900e+02
2.231635592542210222e+00 4.563405177206645931e+02
2.231735616547971368e+00 4.563573518223512337e+02
2.231835640553732958e+00 4.563741013560406259e+02
2.231935664559494104e+00 4.563907667119493681e+02
2.232035688565255693e+00 4.564073482847172158e+02
2.232135712571016839e+00 4.564238464733851970e+02
2.232235736576778429e+00 4.564402616813784448e+02
2.232335760582539574e+00 4.564565943164843134e+02
2.232435784588301164e+00 4.564728447908337330e+02
2.232535808594062310e+00 4.564890135208801212e+02
2.232635832599823900e+00 4.565051009273796581e+02
2.232735856605585045e+00 4.565211074353701406e+02
2.232835880611346635e+00 4.565370334741515990e+02
2.232935904617107781e+00 4.565528794772640140e+02
2.233035928622869370e+00 4.565686458824653755e+02
2.233135952628630516e+00 4.565843331317143452e+02
2.233235976634392106e+00 4.565999416711445633e+02
2.233336000640153252e+00 4.566154719510457198e+02
2.233436024645914841e+00 4.566309244258394529e+02
2.233536048651676431e+00 4.566462995540605334e+02
2.233636072657438021e+00 4.566615977983328776e+02
2.233736096663199167e+00 4.566768196253465248e+02
2.233836120668960312e+00 4.566919655058371177e+02
2.233936144674721902e+00 4.567070359145621978e+02
2.234036168680483492e+00 4.567220313302782415e+02
2.234136192686244637e+00 4.567369522357182063e+02
2.234236216692005783e+00 4.567517991175684529e+02
2.234336240697767373e+00 4.567665724664464051e+02
2.234436264703528963e+00 4.567812727768736067e+02
2.234536288709290108e+00 4.567959005472565650e+02
2.234636312715051254e+00 4.568104562798610004e+02
2.234736336720812844e+00 4.568249404807867791e+02
2.234836360726574433e+00 4.568393536599457434e+02
2.234936384732335579e+00 4.568536963310368151e+02
2.235036408738096725e+00 4.568679690115210406e+02
2.235136432743858315e+00 4.568821722225981148e+02
2.235236456749619904e+00 4.568963064891807448e+02
2.235336480755381494e+00 4.569103723398699231e+02
2.235436504761142640e+00 4.569243703069305980e+02
2.235536528766904230e+00 4.569383009262662654e+02
2.235636552772665375e+00 4.569521647373919677e+02
2.235736576778426965e+00 4.569659622834118409e+02
2.235836600784188111e+00 4.569796941109914883e+02
2.235936624789949700e+00 4.569933607703322878e+02
2.236036648795710846e+00 4.570069628151455845e+02
2.236136672801472436e+00 4.570205008026275664e+02
2.236236696807233582e+00 4.570339752934324906e+02
2.236336720812995171e+00 4.570473868516453422e+02
2.236436744818756317e+00 4.570607360447565384e+02
2.236536768824517907e+00 4.570740234436343599e+02
2.236636792830279052e+00 4.570872496225005079e+02
2.236736816836040642e+00 4.571004151588991817e+02
2.236836840841801788e+00 4.571135206336737156e+02
2.236936864847563378e+00 4.571265666309369635e+02
2.237036888853324523e+00 4.571395537380458336e+02
2.237136912859086113e+00 4.571524825455717291e+02
2.237236936864847703e+00 4.571653536472748556e+02
2.237336960870608848e+00 4.571781676400756282e+02
2.237436984876370438e+00 4.571909251240263075e+02
2.237537008882131584e+00 4.572036267022837137e+02
2.237637032887893174e+00 4.572162729810814881e+02
2.237737056893654319e+00 4.572288645697000788e+02
2.237837080899415909e+00 4.572414020804408210e+02
2.237937104905177055e+00 4.572538861285945018e+02
2.238037128910938645e+00 4.572663173324158379e+02
2.238137152916699790e+00 4.572786963130918707e+02
2.238237176922461380e+00 4.572910236947151361e+02
2.238337200928222526e+00 4.573033001042531964e+02
2.238437224933984115e+00 4.573155261715203892e+02
2.238537248939745261e+00 4.573277025291487234e+02
2.238637272945506851e+00 4.573398298125566157e+02
2.238737296951267997e+00 4.573519086599223442e+02
2.238837320957029586e+00 4.573639397121527281e+02
2.238937344962790732e+00 4.573759236128526027e+02
2.239037368968552322e+00 4.573878610082962837e+02
2.239137392974313912e+00 4.573997525473976111e+02
2.239237416980075057e+00 4.574115988816796516e+02
2.239337440985836647e+00 4.574234006652428093e+02
2.239437464991597793e+00 4.574351585547382797e+02
2.239537488997359382e+00 4.574468732093342851e+02
2.239637513003120528e+00 4.574585452906862884e+02
2.239737537008882118e+00 4.574701754629072639e+02
2.239837561014643263e+00 4.574817643925371158e+02
2.239937585020404853e+00 4.574933127485102204e+02
2.240037609026165999e+00 4.575048212021259815e+02
