1.400008001760387089e+00 5.127364673617635162e+02
1.400108023765228360e+00 5.127410547255607298e+02
1.400208045770069409e+00 5.127456924462669576e+02
1.400308067774910459e+00 5.127503803927769468e+02
1.400408089779751286e+00 5.127551184322986728e+02
1.400508111784592558e+00 5.127599064303570913e+02
1.400608133789433607e+00 5.127647442507985716e+02
1.400708155794274656e+00 5.127696317557938528e+02
1.400808177799115706e+00 5.127745688058425912e+02
1.400908199803956755e+00 5.127795552597763162e+02
1.401008221808798027e+00 5.127845909747646829e+02
1.401108243813638854e+00 5.127896758063155858e+02
1.401208265818479903e+00 5.127948096082840266e+02
1.401308287823320953e+00 5.127999922328732509e+02
1.401408309828162224e+00 5.128052235306381590e+02
1.401508331833003274e+00 5.128105033504932635e+02
1.401608353837844323e+00 5.128158315397132583e+02
1.401708375842685372e+00 5.128212079439397257e+02
1.401808397847526200e+00 5.128266324071844338e+02
1.401908419852367249e+00 5.128321047718354748e+02
1.402008441857208521e+00 5.128376248786582892e+02
1.402108463862049570e+00 5.128431925668055555e+02
1.402208485866890619e+00 5.128488076738167365e+02
1.402308507871731891e+00 5.128544700356268322e+02
1.402408529876572940e+00 5.128601794865676311e+02
1.402508551881413768e+00 5.128659358593758952e+02
1.402608573886254817e+00 5.128717389851966573e+02
1.402708595891095866e+00 5.128775886935876542e+02
1.402808617895936916e+00 5.128834848125253529e+02
1.402908639900778187e+00 5.128894271684099522e+02
1.403008661905619237e+00 5.128954155860695892e+02
1.403108683910460286e+00 5.129014498887679565e+02
1.403208705915301113e+00 5.129075298982057802e+02
1.403308727920142385e+00 5.129136554345291188e+02
1.403408749924983434e+00 5.129198263163351612e+02
1.403508771929824483e+00 5.129260423606735912e+02
1.403608793934665533e+00 5.129323033830571603e+02
1.403708815939506582e+00 5.129386091974640749e+02
1.403808837944347410e+00 5.129449596163443630e+02
1.403908859949188681e+00 5.129513544506255585e+02
1.404008881954029730e+00 5.129577935097182717e+02
1.404108903958870780e+00 5.129642766015219877e+02
1.404208925963712051e+00 5.129708035324326829e+02
1.404308947968553101e+00 5.129773741073436213e+02
1.404408969973394150e+00 5.129839881296575186e+02
1.404508991978234977e+00 5.129906454012883614e+02
1.404609013983076027e+00 5.129973457226691380e+02
1.404709035987917076e+00 5.130040888927569540e+02
1.404809057992758348e+00 5.130108747090403085e+02
1.404909079997599397e+00 5.130177029675439826e+02
1.405009102002440446e+00 5.130245734628363152e+02
1.405109124007281718e+00 5.130314859880351150e+02
1.405209146012122545e+00 5.130384403348133446e+02
1.405309168016963595e+00 5.130454362934075334e+02
1.405409190021804644e+00 5.130524736526214156e+02
1.405509212026645693e+00 5.130595521998343429e+02
1.405609234031486743e+00 5.130666717210076513e+02
1.405709256036328014e+00 5.130738320006905724e+02
1.405809278041169064e+00 5.130810328220270549e+02
1.405909300046009891e+00 5.130882739667633814e+02
1.406009322050850940e+00 5.130955552152533983e+02
1.406109344055692212e+00 5.131028763464664735e+02
1.406209366060533261e+00 5.131102371379935221e+02
1.406309388065374311e+00 5.131176373660551917e+02
1.406409410070215360e+00 5.131250768055064100e+02
1.406509432075056409e+00 5.131325552298465027e+02
1.406609454079897237e+00 5.131400724112247644e+02
1.406709476084738508e+00 5.131476281204454608e+02
1.406809498089579558e+00 5.131552221269787424e+02
1.406909520094420607e+00 5.131628541989651922e+02
1.407009542099261878e+00 5.131705241032240110e+02
1.407109564104102928e+00 5.131782316052609758e+02
1.407209586108943977e+00 5.131859764692733279e+02
1.407309608113784805e+00 5.131937584581598912e+02
1.407409630118625854e+00 5.132015773335267568e+02
1.407509652123466903e+00 5.132094328556975142e+02
1.407609674128308175e+00 5.132173247837141616e+02
1.407709696133149224e+00 5.132252528753541583e+02
1.407809718137990274e+00 5.132332168871291742e+02
1.407909740142831545e+00 5.132412165742981642e+02
1.408009762147672372e+00 5.132492516908743028e+02
1.408109784152513422e+00 5.132573219896300998e+02
1.408209806157354471e+00 5.132654272221075189e+02
1.408309828162195521e+00 5.132735671386260492e+02
1.408409850167036570e+00 5.132817414882882758e+02
1.408509872171877841e+00 5.132899500189912487e+02
1.408609894176718891e+00 5.132981924774308027e+02
1.408709916181559718e+00 5.133064686091115618e+02
1.408809938186400768e+00 5.133147781583553524e+02
1.408909960191242039e+00 5.133231208683080240e+02
1.409009982196083088e+00 5.133314964809483172e+02
1.409110004200924138e+00 5.133399047370957078e+02
1.409210026205765187e+00 5.133483453764190472e+02
1.409310048210606237e+00 5.133568181374439519e+02
1.409410070215447064e+00 5.133653227575625806e+02
1.409510092220288335e+00 5.133738589730410240e+02
1.409610114225129385e+00 5.133824265190262395e+02
1.409710136229970434e+00 5.133910251295577609e+02
1.409810158234811706e+00 5.133996545375736105e+02
1.409910180239652755e+00 5.134083144749191661e+02
1.410010202244493804e+00 5.134170046723568248e+02
1.410110224249334632e+00 5.134257248595737337e+02
1.410210246254175681e+00 5.134344747651896341e+02
1.410310268259016730e+00 5.134432541167669797e+02
1.410410290263858002e+00 5.134520626408192356e+02
1.410510312268699051e+00 5.134609000628192916e+02
1.410610334273540101e+00 5.134697661072078745e+02
1.410710356278381372e+00 5.134786604974030979e+02
1.410810378283222200e+00 5.134875829558088753e+02
1.410910400288063249e+00 5.134965332038241286e+02
1.411010422292904298e+00 5.135055109618513143e+02
1.411110444297745348e+00 5.135145159493056326e+02
1.411210466302586397e+00 5.135235478846235537e+02
1.411310488307427669e+00 5.135326064852725949e+02
1.411410510312268718e+00 5.135416914677600744e+02
1.411510532317109545e+00 5.135508025476415241e+02
1.411610554321950595e+00 5.135599394395310355e+02
1.411710576326791866e+00 5.135691018571087625e+02
1.411810598331632916e+00 5.135782895131325176e+02
1.411910620336473965e+00 5.135875021194444798e+02
1.412010642341315014e+00 5.135967393869815396e+02
1.412110664346156064e+00 5.136060010257855311e+02
1.412210686350996891e+00 5.136152867450107351e+02
1.412310708355838162e+00 5.136245962529346798e+02
1.412410730360679212e+00 5.136339292569658710e+02
1.412510752365520261e+00 5.136432854636553884e+02
1.412610774370361533e+00 5.136526645787051848e+02
1.412710796375202582e+00 5.136620663069770671e+02
1.412810818380043631e+00 5.136714903525028149e+02
1.412910840384884459e+00 5.136809364184938431e+02
1.413010862389725508e+00 5.136904042073507526e+02
1.413110884394566558e+00 5.136998934206723106e+02
1.413210906399407829e+00 5.137094037592653422e+02
1.413310928404248878e+00 5.137189349231554161e+02
1.413410950409089928e+00 5.137284866115942350e+02
1.413510972413931199e+00 5.137380585230717998e+02
1.413610994418772027e+00 5.137476503553257317e+02
1.413711016423613076e+00 5.137572618053483211e+02
1.413811038428454125e+00 5.137668925694000563e+02
1.413911060433295175e+00 5.137765423430178089e+02
1.414011082438136224e+00 5.137862108210231327e+02
1.414111104442977496e+00 5.137958976975357928e+02
1.414211126447818545e+00 5.138056026659787676e+02
1.414311148452659372e+00 5.138153254190938242e+02
1.414411170457500422e+00 5.138250656489460653e+02
1.414511192462341693e+00 5.138348230469381406e+02
1.414611214467182743e+00 5.138445973038180909e+02
1.414711236472023792e+00 5.138543881096883297e+02
1.414811258476864841e+00 5.138641951540191712e+02
1.414911280481705891e+00 5.138740181256553115e+02
1.415011302486546718e+00 5.138838567128281056e+02
1.415111324491387990e+00 5.138937106031646636e+02
1.415211346496229039e+00 5.139035794836976265e+02
1.415311368501070088e+00 5.139134630408779003e+02
1.415411390505911360e+00 5.139233609605814763e+02
1.415511412510752409e+00 5.139332729281206866e+02
1.415611434515593459e+00 5.139431986282554590e+02
1.415711456520434286e+00 5.139531377452030938e+02
1.415811478525275335e+00 5.139630899626471319e+02
1.415911500530116385e+00 5.139730549637508830e+02
1.416011522534957656e+00 5.139830324311628829e+02
1.416111544539798706e+00 5.139930220470326958e+02
1.416211566544639755e+00 5.140030234930158031e+02
1.416311588549481026e+00 5.140130364502883822e+02
1.416411610554321854e+00 5.140230605995552651e+02
1.416511632559162903e+00 5.140330956210610793e+02
1.416611654564003953e+00 5.140431411946005937e+02
1.416711676568845002e+00 5.140531969995281543e+02
1.416811698573686051e+00 5.140632627147706444e+02
1.416911720578527323e+00 5.140733380188348747e+02
1.417011742583368372e+00 5.140834225898200884e+02
1.417111764588209200e+00 5.140935161054270566e+02
1.417211786593050249e+00 5.141036182429705832e+02
1.417311808597891520e+00 5.141137286793871226e+02
1.417411830602732570e+00 5.141238470912483081e+02
1.417511852607573619e+00 5.141339731547691372e+02
1.417611874612414669e+00 5.141441065458200228e+02
1.417711896617255718e+00 5.141542469399358879e+02
1.417811918622096545e+00 5.141643940123288985e+02
1.417911940626937817e+00 5.141745474378958534e+02
1.418011962631778866e+00 5.141847068912330769e+02
1.418111984636619916e+00 5.141948720466418763e+02
1.418212006641461187e+00 5.142050425781441163e+02
1.418312028646302236e+00 5.142152181594898366e+02
1.418412050651143286e+00 5.142253984641682791e+02
1.418512072655984113e+00 5.142355831654185749e+02
1.418612094660825163e+00 5.142457719362423632e+02
1.418712116665666212e+00 5.142559644494104987e+02
1.418812138670507483e+00 5.142661603774777177e+02
1.418912160675348533e+00 5.142763593927905958e+02
1.419012182680189582e+00 5.142865611675003947e+02
1.419112204685030854e+00 5.142967653735709064e+02
1.419212226689871681e+00 5.143069716827925504e+02
1.419312248694712730e+00 5.143171797667896499e+02
1.419412270699553780e+00 5.143273892970347561e+02
1.419512292704394829e+00 5.143375999448558105e+02
1.419612314709235878e+00 5.143478113814493327e+02
1.419712336714077150e+00 5.143580232778896288e+02
1.419812358718918199e+00 5.143682353051403879e+02
1.419912380723759027e+00 5.143784471340659366e+02
1.420012402728600076e+00 5.143886584354410161e+02
1.420112424733441348e+00 5.143988688799611282e+02
1.420212446738282397e+00 5.144090781382542445e+02
1.420312468743123446e+00 5.144192858808914934e+02
1.420412490747964496e+00 5.144294917783970504e+02
1.420512512752805545e+00 5.144396955012601893e+02
1.420612534757646372e+00 5.144498967199444905e+02
1.420712556762487644e+00 5.144600951049001196e+02
1.420812578767328693e+00 5.144702903265739451e+02
1.420912600772169743e+00 5.144804820554193157e+02
1.421012622777011014e+00 5.144906699619081110e+02
1.421112644781852064e+00 5.145008537165419966e+02
1.421212666786692891e+00 5.145110329898607233e+02
1.421312688791533940e+00 5.145212074524561103e+02
1.421412710796374990e+00 5.145313767749796625e+02
1.421512732801216039e+00 5.145415406281549622e+02
1.421612754806057310e+00 5.145516986827896062e+02
1.421712776810898360e+00 5.145618506097827094e+02
1.421812798815739409e+00 5.145719960801385469e+02
1.421912820820580237e+00 5.145821347649758764e+02
1.422012842825421508e+00 5.145922663355390796e+02
1.422112864830262557e+00 5.146023904632091899e+02
1.422212886835103607e+00 5.146125068195135555e+02
1.422312908839944656e+00 5.146226150761374356e+02
1.422412930844785706e+00 5.146327149049355967e+02
1.422512952849626977e+00 5.146428059779400428e+02
1.422612974854467804e+00 5.146528879673739993e+02
1.422712996859308854e+00 5.146629605456608942e+02
1.422813018864149903e+00 5.146730233854351582e+02
1.422913040868991175e+00 5.146830761595532522e+02
1.423013062873832224e+00 5.146931185411040133e+02
1.423113084878673273e+00 5.147031502034199093e+02
1.423213106883514323e+00 5.147131708200873845e+02
1.423313128888355150e+00 5.147231800649562956e+02
1.423413150893196200e+00 5.147331776121528719e+02
1.423513172898037471e+00 5.147431631360886968e+02
1.423613194902878520e+00 5.147531363114712804e+02
1.423713216907719570e+00 5.147630968133158831e+02
1.423813238912560841e+00 5.147730443169546106e+02
1.423913260917401891e+00 5.147829784980482373e+02
1.424013282922242718e+00 5.147928990325964378e+02
1.424113304927083767e+00 5.148028055969476782e+02
1.424213326931924817e+00 5.148126978678109253e+02
1.424313348936765866e+00 5.148225755222638327e+02
1.424413370941607138e+00 5.148324382377672919e+02
1.424513392946448187e+00 5.148422856921720268e+02
1.424613414951289236e+00 5.148521175637310989e+02
1.424713436956130064e+00 5.148619335311100258e+02
1.424813458960971335e+00 5.148717332733973535e+02
1.424913480965812385e+00 5.148815164701136382e+02
1.425013502970653434e+00 5.148912828012254295e+02
1.425113524975494483e+00 5.149010319471510684e+02
1.425213546980335533e+00 5.149107635887750121e+02
1.425313568985176804e+00 5.149204774074562465e+02
1.425413590990017632e+00 5.149301730850380636e+02
1.425513612994858681e+00 5.149398503038610215e+02
1.425613634999699730e+00 5.149495087467710164e+02
1.425713657004541002e+00 5.149591480971294004e+02
1.425813679009382051e+00 5.149687680388250328e+02
1.425913701014223101e+00 5.149783682562832610e+02
1.426013723019064150e+00 5.149879484344771754e+02
1.426113745023904977e+00 5.149975082589364774e+02
1.426213767028746027e+00 5.150070474157587341e+02
1.426313789033587298e+00 5.150165655916188143e+02
1.426413811038428348e+00 5.150260624737805983e+02
1.426513833043269397e+00 5.150355377501055045e+02
1.426613855048110668e+00 5.150449911090627211e+02
1.426713877052951718e+00 5.150544222397405747e+02
1.426813899057792545e+00 5.150638308318561940e+02
1.426913921062633595e+00 5.150732165757635812e+02
1.427013943067474644e+00 5.150825791624668000e+02
1.427113965072315693e+00 5.150919182836285017e+02
1.427213987077156965e+00 5.151012336315790208e+02
1.427314009081998014e+00 5.151105248993279702e+02
1.427414031086839064e+00 5.151197917805734505e+02
1.427514053091679891e+00 5.151290339697122818e+02
1.427614075096521162e+00 5.151382511618488707e+02
1.427714097101362212e+00 5.151474430528068069e+02
1.427814119106203261e+00 5.151566093391369350e+02
1.427914141111044311e+00 5.151657497181287226e+02
1.428014163115885360e+00 5.151748638878191286e+02
1.428114185120726631e+00 5.151839515470035167e+02
1.428214207125567459e+00 5.151930123952421354e+02
1.428314229130408508e+00 5.152020461328745569e+02
1.428414251135249557e+00 5.152110524610261564e+02
1.428514273140090829e+00 5.152200310816185720e+02
1.428614295144931878e+00 5.152289816973806182e+02
1.428714317149772928e+00 5.152379040118545390e+02
1.428814339154613977e+00 5.152467977294095363e+02
1.428914361159454804e+00 5.152556625552487048e+02
1.429014383164295854e+00 5.152644981954198329e+02
1.429114405169137125e+00 5.152733043568242692e+02
1.429214427173978175e+00 5.152820807472267006e+02
1.429314449178819224e+00 5.152908270752636781e+02
1.429414471183660496e+00 5.152995430504552132e+02
1.429514493188501545e+00 5.153082283832118264e+02
1.429614515193342372e+00 5.153168827848443243e+02
1.429714537198183422e+00 5.153255059675750545e+02
1.429814559203024471e+00 5.153340976445435899e+02
1.429914581207865520e+00 5.153426575298200305e+02
1.430014603212706792e+00 5.153511853384117103e+02
1.430114625217547841e+00 5.153596807862713831e+02
1.430214647222388891e+00 5.153681435903098418e+02
1.430314669227229718e+00 5.153765734684026256e+02
1.430414691232070989e+00 5.153849701393986606e+02
1.430514713236912039e+00 5.153933333231302640e+02
1.430614735241753088e+00 5.154016627404237170e+02
1.430714757246594138e+00 5.154099581131043806e+02
1.430814779251435187e+00 5.154182191640085193e+02
1.430914801256276458e+00 5.154264456169918276e+02
1.431014823261117286e+00 5.154346371969385245e+02
1.431114845265958335e+00 5.154427936297676069e+02
1.431214867270799385e+00 5.154509146424453547e+02
1.431314889275640656e+00 5.154589999629911290e+02
1.431414911280481705e+00 5.154670493204895365e+02
1.431514933285322755e+00 5.154750624450930445e+02
1.431614955290163804e+00 5.154830390680377832e+02
1.431714977295004632e+00 5.154909789216478657e+02
1.431814999299845681e+00 5.154988817393438012e+02
1.431915021304686952e+00 5.155067472556526127e+02
1.432015043309528002e+00 5.155145752062165911e+02
1.432115065314369051e+00 5.155223653277998892e+02
1.432215087319210323e+00 5.155301173582988667e+02
1.432315109324051372e+00 5.155378310367482300e+02
1.432415131328892199e+00 5.155455061033317179e+02
1.432515153333733249e+00 5.155531422993890374e+02
1.432615175338574298e+00 5.155607393674241621e+02
1.432715197343415348e+00 5.155682970511134045e+02
1.432815219348256619e+00 5.155758150953150789e+02
1.432915241353097668e+00 5.155832932460755273e+02
1.433015263357938718e+00 5.155907312506383278e+02
1.433115285362779545e+00 5.155981288574514565e+02
1.433215307367620817e+00 5.156054858161766106e+02
1.433315329372461866e+00 5.156128018776964836e+02
1.433415351377302915e+00 5.156200767941226104e+02
1.433515373382143965e+00 5.156273103188023015e+02
1.433615395386985014e+00 5.156345022063286478e+02
1.433715417391826286e+00 5.156416522125463189e+02
1.433815439396667113e+00 5.156487600945598615e+02
1.433915461401508162e+00 5.156558256107421130e+02
1.434015483406349212e+00 5.156628485207405674e+02
1.434115505411190483e+00 5.156698285854859023e+02
1.434215527416031533e+00 5.156767655671993680e+02
1.434315549420872582e+00 5.156836592293996091e+02
1.434415571425713631e+00 5.156905093369109636e+02
1.434515593430554459e+00 5.156973156558710798e+02
1.434615615435395508e+00 5.157040779537368280e+02
1.434715637440236780e+00 5.157107959992927135e+02
1.434815659445077829e+00 5.157174695626588345e+02
1.434915681449918878e+00 5.157240984152956571e+02
1.435015703454760150e+00 5.157306823300141332e+02
1.435115725459601199e+00 5.157372210809808166e+02
1.435215747464442027e+00 5.157437144437254801e+02
1.435315769469283076e+00 5.157501621951480502e+02
1.435415791474124125e+00 5.157565641135263377e+02
1.435515813478965175e+00 5.157629199785218361e+02
1.435615835483806446e+00 5.157692295711869974e+02
1.435715857488647496e+00 5.157754926739723942e+02
1.435815879493488545e+00 5.157817090707335410e+02
1.435915901498329372e+00 5.157878785467373746e+02
1.436015923503170644e+00 5.157940008886677106e+02
1.436115945508011693e+00 5.158000758846353619e+02
1.436215967512852743e+00 5.158061033241791620e+02
1.436315989517693792e+00 5.158120829982796067e+02
1.436416011522534841e+00 5.158180146993577182e+02
1.436516033527376113e+00 5.158238982212883457e+02
1.436616055532216940e+00 5.158297333594013026e+02
1.436716077537057989e+00 5.158355199104911435e+02
1.436816099541899039e+00 5.158412576728208023e+02
1.436916121546740310e+00 5.158469464461300049e+02
1.437016143551581360e+00 5.158525860316409535e+02
1.437116165556422409e+00 5.158581762320626467e+02
1.437216187561263459e+00 5.158637168515998610e+02
1.437316209566104286e+00 5.158692076959557653e+02
1.437416231570945335e+00 5.158746485723413571e+02
1.437516253575786607e+00 5.158800392894792139e+02
1.437616275580627656e+00 5.158853796576090645e+02
1.437716297585468705e+00 5.158906694884956323e+02
1.437816319590309977e+00 5.158959085954322745e+02
1.437916341595151026e+00 5.159010967932479161e+02
1.438016363599991854e+00 5.159062338983114842e+02
1.438116385604832903e+00 5.159113197285394108e+02
1.438216407609673952e+00 5.159163541033991578e+02
1.438316429614515002e+00 5.159213368439159240e+02
1.438416451619356273e+00 5.159262677726770789e+02
1.438516473624197323e+00 5.159311467138385296e+02
1.438616495629038150e+00 5.159359734931308594e+02
1.438716517633879199e+00 5.159407479378608059e+02
1.438816539638720471e+00 5.159454698769201286e+02
1.438916561643561520e+00 5.159501391407904975e+02
1.439016583648402570e+00 5.159547555615461079e+02
1.439116605653243619e+00 5.159593189728610696e+02
1.439216627658084668e+00 5.159638292100135004e+02
1.439316649662925496e+00 5.159682861098900730e+02
1.439416671667766767e+00 5.159726895109923817e+02
1.439516693672607817e+00 5.159770392534386474e+02
1.439616715677448866e+00 5.159813351789721310e+02
1.439716737682290137e+00 5.159855771309639749e+02
1.439816759687131187e+00 5.159897649544162732e+02
1.439916781691972236e+00 5.159938984959708250e+02
1.440016803696813064e+00 5.159979776039092485e+02
1.440116825701654113e+00 5.160020021281600293e+02
1.440216847706495162e+00 5.160059719203022723e+02
1.440316869711336434e+00 5.160098868335696807e+02
1.440416891716177483e+00 5.160137467228554442e+02
1.440516913721018533e+00 5.160175514447157639e+02
1.440616935725859804e+00 5.160213008573746265e+02
1.440716957730700631e+00 5.160249948207275565e+02
1.440816979735541681e+00 5.160286331963458224e+02
1.440917001740382730e+00 5.160322158474806429e+02
1.441017023745223780e+00 5.160357426390656883e+02
1.441117045750064829e+00 5.160392134377239017e+02
1.441217067754906100e+00 5.160426281117671579e+02
1.441317089759747150e+00 5.160459865312049033e+02
1.441417111764587977e+00 5.160492885677427921e+02
1.441517133769429027e+00 5.160525340947906443e+02
1.441617155774270298e+00 5.160557229874633549e+02
1.441717177779111347e+00 5.160588551225846459e+02
1.441817199783952397e+00 5.160619303786926366e+02
1.441917221788793446e+00 5.160649486360392757e+02
1.442017243793634496e+00 5.160679097765986398e+02
1.442117265798475323e+00 5.160708136840656834e+02
1.442217287803316594e+00 5.160736602438623777e+02
1.442317309808157644e+00 5.160764493431388473e+02
1.442417331812998693e+00 5.160791808707784867e+02
1.442517353817839965e+00 5.160818547173990964e+02
1.442617375822681014e+00 5.160844707753574312e+02
1.442717397827522063e+00 5.160870289387504499e+02
1.442817419832362891e+00 5.160895291034195225e+02
1.442917441837203940e+00 5.160919711669527032e+02
1.443017463842044990e+00 5.160943550286876871e+02
1.443117485846886261e+00 5.160966805897132872e+02
1.443217507851727310e+00 5.160989477528743237e+02
1.443317529856568360e+00 5.161011564227718509e+02
1.443417551861409631e+00 5.161033065057667955e+02
1.443517573866250459e+00 5.161053979099822300e+02
1.443617595871091508e+00 5.161074305453055331e+02
1.443717617875932557e+00 5.161094043233906632e+02
1.443817639880773607e+00 5.161113191576611143e+02
1.443917661885614656e+00 5.161131749633105983e+02
1.444017683890455928e+00 5.161149716573065689e+02
1.444117705895296977e+00 5.161167091583912452e+02
1.444217727900137804e+00 5.161183873870845673e+02
1.444317749904978854e+00 5.161200062656851060e+02
1.444417771909820125e+00 5.161215657182723362e+02
1.444517793914661175e+00 5.161230656707092521e+02
1.444617815919502224e+00 5.161245060506423670e+02
1.444717837924343273e+00 5.161258867875044416e+02
1.444817859929184323e+00 5.161272078125160760e+02
1.444917881934025150e+00 5.161284690586873012e+02
1.445017903938866421e+00 5.161296704608188293e+02
1.445117925943707471e+00 5.161308119555033045e+02
1.445217947948548520e+00 5.161318934811273493e+02
1.445317969953389792e+00 5.161329149778713372e+02
1.445417991958230841e+00 5.161338763877120073e+02
1.445518013963071891e+00 5.161347776544239423e+02
1.445618035967912718e+00 5.161356187235796824e+02
1.445718057972753767e+00 5.161363995425501798e+02
1.445818079977594817e+00 5.161371200605080958e+02
1.445918101982436088e+00 5.161377802284260952e+02
1.446018123987277137e+00 5.161383799990792340e+02
1.446118145992118187e+00 5.161389193270451869e+02
1.446218167996959458e+00 5.161393981687057249e+02
1.446318190001800286e+00 5.161398164822458057e+02
1.446418212006641335e+00 5.161401742276564164e+02
1.446518234011482384e+00 5.161404713667327542e+02
1.446618256016323434e+00 5.161407078630759315e+02
1.446718278021164483e+00 5.161408836820939996e+02
1.446818300026005755e+00 5.161409987910010386e+02
1.446918322030846804e+00 5.161410531588176127e+02
1.447018344035687631e+00 5.161410467563719067e+02
1.447118366040528681e+00 5.161409795562984755e+02
1.447218388045369952e+00 5.161408515330404043e+02
1.447318410050211002e+00 5.161406626628464664e+02
1.447418432055052051e+00 5.161404129237743064e+02
1.447518454059893100e+00 5.161401022956880524e+02
1.447618476064734150e+00 5.161397307602579758e+02
1.447718498069574977e+00 5.161392983009628779e+02
1.447818520074416249e+00 5.161388049030866796e+02
1.447918542079257298e+00 5.161382505537197858e+02
1.448018564084098347e+00 5.161376352417590851e+02
1.448118586088939619e+00 5.161369589579049943e+02
1.448218608093780668e+00 5.161362216946654371e+02
1.448318630098621718e+00 5.161354234463499324e+02
1.448418652103462545e+00 5.161345642090722095e+02
1.448518674108303594e+00 5.161336439807494116e+02
1.448618696113144644e+00 5.161326627611002777e+02
1.448718718117985915e+00 5.161316205516445734e+02
1.448818740122826965e+00 5.161305173557022954e+02
1.448918762127668014e+00 5.161293531783926483e+02
1.449018784132509285e+00 5.161281280266330214e+02
1.449118806137350113e+00 5.161268419091385340e+02
1.449218828142191162e+00 5.161254948364198754e+02
1.449318850147032212e+00 5.161240868207815993e+02
1.449418872151873261e+00 5.161226178763233747e+02
1.449518894156714310e+00 5.161210880189357795e+02
1.449618916161555582e+00 5.161194972663004137e+02
1.449718938166396631e+00 5.161178456378884221e+02
1.449818960171237459e+00 5.161161331549577653e+02
1.449918982176078508e+00 5.161143598405542434e+02
1.450019004180919779e+00 5.161125257195064933e+02
1.450119026185760829e+00 5.161106308184259888e+02
1.450219048190601878e+00 5.161086751657064724e+02
1.450319070195442928e+00 5.161066587915197488e+02
1.450419092200283977e+00 5.161045817278151162e+02
1.450519114205124804e+00 5.161024440083174341e+02
1.450619136209966076e+00 5.161002456685237121e+02
1.450719158214807125e+00 5.160979867457040200e+02
1.450819180219648175e+00 5.160956672788963715e+02
1.450919202224489446e+00 5.160932873089052464e+02
1.451019224229330495e+00 5.160908468783009084e+02
1.451119246234171545e+00 5.160883460314141757e+02
1.451219268239012372e+00 5.160857848143376714e+02
1.451319290243853422e+00 5.160831632749194569e+02
1.451419312248694471e+00 5.160804814627650785e+02
1.451519334253535742e+00 5.160777394292289273e+02
1.451619356258376792e+00 5.160749372274185589e+02
1.451719378263217841e+00 5.160720749121858262e+02
1.451819400268059113e+00 5.160691525401299486e+02
1.451919422272899940e+00 5.160661701695883039e+02
1.452019444277740989e+00 5.160631278606384740e+02
1.452119466282582039e+00 5.160600256750944936e+02
1.452219488287423088e+00 5.160568636765016208e+02
1.452319510292264138e+00 5.160536419301359956e+02
1.452419532297105409e+00 5.160503605029991832e+02
1.452519554301946458e+00 5.160470194638174917e+02
1.452619576306787286e+00 5.160436188830359470e+02
1.452719598311628335e+00 5.160401588328177240e+02
1.452819620316469607e+00 5.160366393870388038e+02
1.452919642321310656e+00 5.160330606212858129e+02
1.453019664326151705e+00 5.160294226128526134e+02
1.453119686330992755e+00 5.160257254407337086e+02
1.453219708335833804e+00 5.160219691856266309e+02
1.453319730340674631e+00 5.160181539299234146e+02
1.453419752345515903e+00 5.160142797577079818e+02
1.453519774350356952e+00 5.160103467547536411e+02
1.453619796355198002e+00 5.160063550085178576e+02
1.453719818360039273e+00 5.160023046081389566e+02
1.453819840364880323e+00 5.159981956444339630e+02
1.453919862369721372e+00 5.159940282098905300e+02
1.454019884374562199e+00 5.159898023986663702e+02
1.454119906379403249e+00 5.159855183065851634e+02
1.454219928384244298e+00 5.159811760311297348e+02
1.454319950389085569e+00 5.159767756714408051e+02
1.454419972393926619e+00 5.159723173283096003e+02
1.454519994398767668e+00 5.159678011041776244e+02
1.454620016403608940e+00 5.159632271031291566e+02
1.454720038408449767e+00 5.159585954308869304e+02
1.454820060413290816e+00 5.159539061948102017e+02
1.454920082418131866e+00 5.159491595038864489e+02
1.455020104422972915e+00 5.159443554687300093e+02
1.455120126427813965e+00 5.159394942015762808e+02
1.455220148432655236e+00 5.159345758162763786e+02
1.455320170437496285e+00 5.159296004282936110e+02
1.455420192442337113e+00 5.159245681546981359e+02
1.455520214447178162e+00 5.159194791141604810e+02
1.455620236452019434e+00 5.159143334269513161e+02
1.455720258456860483e+00 5.159091312149294026e+02
1.455820280461701532e+00 5.159038726015435259e+02
1.455920302466542582e+00 5.158985577118235142e+02
1.456020324471383409e+00 5.158931866723759185e+02
1.456120346476224459e+00 5.158877596113787831e+02
1.456220368481065730e+00 5.158822766585767567e+02
1.456320390485906779e+00 5.158767379452752948e+02
1.456420412490747829e+00 5.158711436043364529e+02
1.456520434495589100e+00 5.158654937701722929e+02
1.456620456500430150e+00 5.158597885787394262e+02
1.456720478505270977e+00 5.158540281675342385e+02
1.456820500510112026e+00 5.158482126755873196e+02
1.456920522514953076e+00 5.158423422434576651e+02
1.457020544519794125e+00 5.158364170132261961e+02
1.457120566524635397e+00 5.158304371284914396e+02
1.457220588529476446e+00 5.158244027343635025e+02
1.457320610534317495e+00 5.158183139774573647e+02
1.457420632539158323e+00 5.158121710058884446e+02
1.457520654543999594e+00 5.158059739692645280e+02
1.457620676548840644e+00 5.157997230186820161e+02
1.457720698553681693e+00 5.157934183067195590e+02
1.457820720558522742e+00 5.157870599874306663e+02
1.457920742563363792e+00 5.157806482163393866e+02
1.458020764568205063e+00 5.157741831504324637e+02
1.458120786573045891e+00 5.157676649481545610e+02
1.458220808577886940e+00 5.157610937694013273e+02
1.458320830582727989e+00 5.157544697755128027e+02
1.458420852587569261e+00 5.157477931292681887e+02
1.458520874592410310e+00 5.157410639948782318e+02
1.458620896597251360e+00 5.157342825379803344e+02
1.458720918602092409e+00 5.157274489256290053e+02
1.458820940606933236e+00 5.157205633262943820e+02
1.458920962611774286e+00 5.157136259098502933e+02
1.459020984616615557e+00 5.157066368475713034e+02
1.459121006621456607e+00 5.156995963121242994e+02
1.459221028626297656e+00 5.156925044775624656e+02
1.459321050631138927e+00 5.156853615193184623e+02
1.459421072635979977e+00 5.156781676141980597e+02
1.459521094640820804e+00 5.156709229403722929e+02
1.459621116645661854e+00 5.156636276773705276e+02
1.459721138650502903e+00 5.156562820060750028e+02
1.459821160655343952e+00 5.156488861087127589e+02
1.459921182660185224e+00 5.156414401688485896e+02
1.460021204665026273e+00 5.156339443713784476e+02
1.460121226669867323e+00 5.156263989025218279e+02
1.460221248674708150e+00 5.156188039498154012e+02
1.460321270679549421e+00 5.156111597021050557e+02
1.460421292684390471e+00 5.156034663495383938e+02
1.460521314689231520e+00 5.155957240835591620e+02
1.460621336694072570e+00 5.155879330968975864e+02
1.460721358698913619e+00 5.155800935835654855e+02
1.460821380703754890e+00 5.155722057388466055e+02
1.460921402708595718e+00 5.155642697592909371e+02
1.461021424713436767e+00 5.155562858427056199e+02
1.461121446718277817e+00 5.155482541881488032e+02
1.461221468723119088e+00 5.155401749959225981e+02
1.461321490727960137e+00 5.155320484675621628e+02
1.461421512732801187e+00 5.155238748058324063e+02
1.461521534737642236e+00 5.155156542147174150e+02
1.461621556742483063e+00 5.155073868994139730e+02
1.461721578747324113e+00 5.154990730663233762e+02
1.461821600752165384e+00 5.154907129230434748e+02
1.461921622757006434e+00 5.154823066783606009e+02
1.462021644761847483e+00 5.154738545422434299e+02
1.462121666766688755e+00 5.154653567258339990e+02
1.462221688771529804e+00 5.154568134414378164e+02
1.462321710776370631e+00 5.154482249025188594e+02
1.462421732781211681e+00 5.154395913236904789e+02
1.462521754786052730e+00 5.154309129207068736e+02
1.462621776790893779e+00 5.154221899104556996e+02
1.462721798795735051e+00 5.154134225109492036e+02
1.462821820800576100e+00 5.154046109413170598e+02
1.462921842805417150e+00 5.153957554217968209e+02
1.463021864810257977e+00 5.153868561737272103e+02
1.463121886815099248e+00 5.153779134195395955e+02
1.463221908819940298e+00 5.153689273827473016e+02
1.463321930824781347e+00 5.153598982879416326e+02
1.463421952829622397e+00 5.153508263607786830e+02
1.463521974834463446e+00 5.153417118279761553e+02
1.463621996839304717e+00 5.153325549172996034e+02
1.463722018844145545e+00 5.153233558575584539e+02
1.463822040848986594e+00 5.153141148785939549e+02
1.463922062853827644e+00 5.153048322112726964e+02
1.464022084858668915e+00 5.152955080874787654e+02
1.464122106863509964e+00 5.152861427401034007e+02
1.464222128868351014e+00 5.152767364030365798e+02
1.464322150873192063e+00 5.152672893111589474e+02
1.464422172878032891e+00 5.152578017003331752e+02
1.464522194882873940e+00 5.152482738073954351e+02
1.464622216887715211e+00 5.152387058701463047e+02
1.464722238892556261e+00 5.152290981273405350e+02
1.464822260897397310e+00 5.152194508186827306e+02
1.464922282902238582e+00 5.152097641848122294e+02
1.465022304907079631e+00 5.152000384673002600e+02
1.465122326911920458e+00 5.151902739086360725e+02
1.465222348916761508e+00 5.151804707522230729e+02
1.465322370921602557e+00 5.151706292423642708e+02
1.465422392926443607e+00 5.151607496242581874e+02
1.465522414931284878e+00 5.151508321439880547e+02
1.465622436936125927e+00 5.151408770485107880e+02
1.465722458940966977e+00 5.151308845856519838e+02
1.465822480945807804e+00 5.151208550040927321e+02
1.465922502950649076e+00 5.151107885533647277e+02
1.466022524955490125e+00 5.151006854838365143e+02
1.466122546960331174e+00 5.150905460467093917e+02
1.466222568965172224e+00 5.150803704940029775e+02
1.466322590970013273e+00 5.150701590785511144e+02
1.466422612974854545e+00 5.150599120539884552e+02
1.466522634979695372e+00 5.150496296747444376e+02
1.466622656984536421e+00 5.150393121960310054e+02
1.466722678989377471e+00 5.150289598738369250e+02
1.466822700994218742e+00 5.150185729649152790e+02
1.466922722999059792e+00 5.150081517267751678e+02
1.467022745003900841e+00 5.149976964176737511e+02
1.467122767008741890e+00 5.149872072966047654e+02
1.467222789013582718e+00 5.149766846232911348e+02
1.467322811018423767e+00 5.149661286581743980e+02
1.467422833023265039e+00 5.149555396624036803e+02
1.467522855028106088e+00 5.149449178978309192e+02
1.467622877032947137e+00 5.149342636269960849e+02
1.467722899037788409e+00 5.149235771131225192e+02
1.467822921042629458e+00 5.149128586201031794e+02
1.467922943047470286e+00 5.149021084124935896e+02
1.468022965052311335e+00 5.148913267555025186e+02
1.468122987057152384e+00 5.148805139149808383e+02
1.468223009061993434e+00 5.148696701574139070e+02
1.468323031066834705e+00 5.148587957499087224e+02
1.468423053071675755e+00 5.148478909601893747e+02
1.468523075076516804e+00 5.148369560565827214e+02
1.468623097081357631e+00 5.148259913080116803e+02
1.468723119086198903e+00 5.148149969839837468e+02
1.468823141091039952e+00 5.148039733545823537e+02
1.468923163095881002e+00 5.147929206904573221e+02
1.469023185100722051e+00 5.147818392628147421e+02
1.469123207105563100e+00 5.147707293434076519e+02
1.469223229110404372e+00 5.147595912045251225e+02
1.469323251115245199e+00 5.147484251189846418e+02
1.469423273120086249e+00 5.147372313601207452e+02
1.469523295124927298e+00 5.147260102017762620e+02
1.469623317129768569e+00 5.147147619182908329e+02
1.469723339134609619e+00 5.147034867844938617e+02
1.469823361139450668e+00 5.146921850756923504e+02
1.469923383144291718e+00 5.146808570676618046e+02
1.470023405149132545e+00 5.146695030366379342e+02
1.470123427153973594e+00 5.146581232593043751e+02
1.470223449158814866e+00 5.146467180127846177e+02
1.470323471163655915e+00 5.146352875746313202e+02
1.470423493168496965e+00 5.146238322228169864e+02
1.470523515173338236e+00 5.146123522357238471e+02
1.470623537178179285e+00 5.146008478921341975e+02
1.470723559183020113e+00 5.145893194712203922e+02
1.470823581187861162e+00 5.145777672525346134e+02
1.470923603192702211e+00 5.145661915159997761e+02
1.471023625197543261e+00 5.145545925418995239e+02
1.471123647202384532e+00 5.145429706108676555e+02
1.471223669207225582e+00 5.145313260038790304e+02
1.471323691212066631e+00 5.145196590022381997e+02
1.471423713216907458e+00 5.145079698875726990e+02
1.471523735221748730e+00 5.144962589418190646e+02
1.471623757226589779e+00 5.144845264472163535e+02
1.471723779231430829e+00 5.144727726862931831e+02
1.471823801236271878e+00 5.144609979418615922e+02
1.471923823241112927e+00 5.144492024970029433e+02
1.472023845245954199e+00 5.144373866350611024e+02
1.472123867250795026e+00 5.144255506396310693e+02
1.472223889255636076e+00 5.144136947945493148e+02
1.472323911260477125e+00 5.144018193838844581e+02
1.472423933265318396e+00 5.143899246919261259e+02
1.472523955270159446e+00 5.143780110031764252e+02
1.472623977275000495e+00 5.143660786023392575e+02
1.472723999279841545e+00 5.143541277743091769e+02
1.472824021284682372e+00 5.143421588041638870e+02
1.472924043289523421e+00 5.143301719771534408e+02
1.473024065294364693e+00 5.143181675786889855e+02
1.473124087299205742e+00 5.143061458943338948e+02
1.473224109304046792e+00 5.142941072097950155e+02
1.473324131308888063e+00 5.142820518109100476e+02
1.473424153313728890e+00 5.142699799836403827e+02
1.473524175318569940e+00 5.142578920140588252e+02
1.473624197323410989e+00 5.142457881883411801e+02
1.473724219328252039e+00 5.142336687927563617e+02
1.473824241333093088e+00 5.142215341136547977e+02
1.473924263337934359e+00 5.142093844374611535e+02
1.474024285342775409e+00 5.141972200506623949e+02
1.474124307347616236e+00 5.141850412397980108e+02
1.474224329352457286e+00 5.141728482914518281e+02
1.474324351357298557e+00 5.141606414922401882e+02
1.474424373362139606e+00 5.141484211288019424e+02
1.474524395366980656e+00 5.141361874877917444e+02
1.474624417371821705e+00 5.141239408558658397e+02
1.474724439376662755e+00 5.141116815196754715e+02
1.474824461381503582e+00 5.140994097658549435e+02
1.474924483386344853e+00 5.140871258810130939e+02
1.475024505391185903e+00 5.140748301517235177e+02
1.475124527396026952e+00 5.140625228645127436e+02
1.475224549400868224e+00 5.140502043058537538e+02
1.475324571405709273e+00 5.140378747621532511e+02
1.475424593410550322e+00 5.140255345197433599e+02
1.475524615415391150e+00 5.140131838648708253e+02
1.475624637420232199e+00 5.140008230836891698e+02
1.475724659425073249e+00 5.139884524622453910e+02
1.475824681429914520e+00 5.139760722864749596e+02
1.475924703434755569e+00 5.139636828421876089e+02
1.476024725439596619e+00 5.139512844150606270e+02
1.476124747444437890e+00 5.139388772906274880e+02
1.476224769449278718e+00 5.139264617542688711e+02
1.476324791454119767e+00 5.139140380912025421e+02
1.476424813458960816e+00 5.139016065864749407e+02
1.476524835463801866e+00 5.138891675249487889e+02
1.476624857468642915e+00 5.138767211912964967e+02
1.476724879473484187e+00 5.138642678699886801e+02
1.476824901478325236e+00 5.138518078452852933e+02
1.476924923483166063e+00 5.138393414012249423e+02
1.477024945488007113e+00 5.138268688216170403e+02
1.477124967492848384e+00 5.138143903900306668e+02
1.477224989497689434e+00 5.138019063897867227e+02
1.477325011502530483e+00 5.137894171039459934e+02
1.477425033507371532e+00 5.137769228153009635e+02
1.477525055512212582e+00 5.137644238063679722e+02
1.477625077517053409e+00 5.137519203593731163e+02
1.477725099521894681e+00 5.137394127562484982e+02
1.477825121526735730e+00 5.137269012786186977e+02
1.477925143531576779e+00 5.137143862077923586e+02
1.478025165536418051e+00 5.137018678247530943e+02
1.478125187541259100e+00 5.136893464101509608e+02
1.478225209546100150e+00 5.136768222442904062e+02
1.478325231550940977e+00 5.136642956071241315e+02
1.478425253555782026e+00 5.136517667782417220e+02
1.478525275560623076e+00 5.136392360368599839e+02
1.478625297565464347e+00 5.136267036618155544e+02
1.478725319570305397e+00 5.136141699315547839e+02
1.478825341575146446e+00 5.136016351241232769e+02
1.478925363579987717e+00 5.135890995171579334e+02
1.479025385584828545e+00 5.135765633878775134e+02
1.479125407589669594e+00 5.135640270130743374e+02
1.479225429594510643e+00 5.135514906691022361e+02
1.479325451599351693e+00 5.135389546318708653e+02
1.479425473604192742e+00 5.135264191768350202e+02
1.479525495609034014e+00 5.135138845789842890e+02
1.479625517613875063e+00 5.135013511128363461e+02
1.479725539618715890e+00 5.134888190524275160e+02
1.479825561623556940e+00 5.134762886713007219e+02
1.479925583628398211e+00 5.134637602425012801e+02
1.480025605633239261e+00 5.134512340385646212e+02
1.480125627638080310e+00 5.134387103315076502e+02
1.480225649642921359e+00 5.134261893928211293e+02
1.480325671647762409e+00 5.134136714934596739e+02
1.480425693652603236e+00 5.134011569038332254e+02
1.480525715657444508e+00 5.133886458937987527e+02
1.480625737662285557e+00 5.133761387326505883e+02
1.480725759667126606e+00 5.133636356891115611e+02
1.480825781671967878e+00 5.133511370313258340e+02
1.480925803676808927e+00 5.133386430268478762e+02
1.481025825681649977e+00 5.133261539426364379e+02
1.481125847686490804e+00 5.133136700450418175e+02
1.481225869691331853e+00 5.133011915998025643e+02
1.481325891696172903e+00 5.132887188720324048e+02
1.481425913701014174e+00 5.132762521262142172e+02
1.481525935705855224e+00 5.132637916261897999e+02
1.481625957710696273e+00 5.132513376351528223e+02
1.481725979715537544e+00 5.132388904156398439e+02
1.481826001720378372e+00 5.132264502295205375e+02
1.481926023725219421e+00 5.132140173379920043e+02
1.482026045730060471e+00 5.132015920015684287e+02
1.482126067734901520e+00 5.131891744800722108e+02
1.482226089739742569e+00 5.131767650326275998e+02
1.482326111744583841e+00 5.131643639176502347e+02
1.482426133749424890e+00 5.131519713928415740e+02
1.482526155754265718e+00 5.131395877151775267e+02
1.482626177759106767e+00 5.131272131409027679e+02
1.482726199763948038e+00 5.131148479255214170e+02
1.482826221768789088e+00 5.131024923237898747e+02
1.482926243773630137e+00 5.130901465897059097e+02
1.483026265778471187e+00 5.130778109765051340e+02
1.483126287783312236e+00 5.130654857366487249e+02
1.483226309788153063e+00 5.130531711218189912e+02
1.483326331792994335e+00 5.130408673829080044e+02
1.483426353797835384e+00 5.130285747700122556e+02
1.483526375802676434e+00 5.130162935324240152e+02
1.483626397807517705e+00 5.130040239186232611e+02
1.483726419812358754e+00 5.129917661762698344e+02
1.483826441817199804e+00 5.129795205521955950e+02
1.483926463822040631e+00 5.129672872923979412e+02
1.484026485826881681e+00 5.129550666420300331e+02
1.484126507831722730e+00 5.129428588453951079e+02
1.484226529836564001e+00 5.129306641459370439e+02
1.484326551841405051e+00 5.129184827862349039e+02
1.484426573846246100e+00 5.129063150079928164e+02
1.484526595851087372e+00 5.128941610520354288e+02
1.484626617855928199e+00 5.128820211582973343e+02
1.484726639860769248e+00 5.128698955658198884e+02
1.484826661865610298e+00 5.128577845127373394e+02
1.484926683870451347e+00 5.128456882362763736e+02
1.485026705875292397e+00 5.128336069727444055e+02
1.485126727880133668e+00 5.128215409575242347e+02
1.485226749884974717e+00 5.128094904250665422e+02
1.485326771889815545e+00 5.127974556088809095e+02
1.485426793894656594e+00 5.127854367415327488e+02
1.485526815899497866e+00 5.127734340546310250e+02
1.485626837904338915e+00 5.127614477788254135e+02
1.485726859909179964e+00 5.127494781437982283e+02
1.485826881914021014e+00 5.127375253782552136e+02
1.485926903918862063e+00 5.127255897099220192e+02
1.486026925923702890e+00 5.127136713655356743e+02
1.486126947928544162e+00 5.127017705708356061e+02
1.486226969933385211e+00 5.126898875505612523e+02
1.486326991938226261e+00 5.126780225284429662e+02
1.486427013943067532e+00 5.126661757271940587e+02
1.486527035947908582e+00 5.126543473685062509e+02
1.486627057952749631e+00 5.126425376730422840e+02
1.486727079957590458e+00 5.126307468604300084e+02
1.486827101962431508e+00 5.126189751492538562e+02
1.486927123967272557e+00 5.126072227570501809e+02
1.487027145972113829e+00 5.125954899003005494e+02
1.487127167976954878e+00 5.125837767944256029e+02
1.487227189981795927e+00 5.125720836537773266e+02
1.487327211986637199e+00 5.125604106916337059e+02
1.487427233991478026e+00 5.125487581201925877e+02
1.487527255996319075e+00 5.125371261505661096e+02
1.487627278001160125e+00 5.125255149927725142e+02
1.487727300006001174e+00 5.125139248557321707e+02
1.487827322010842224e+00 5.125023559472600709e+02
1.487927344015683495e+00 5.124908084740596905e+02
1.488027366020524545e+00 5.124792826417188962e+02
1.488127388025365372e+00 5.124677786547024425e+02
1.488227410030206421e+00 5.124562967163457188e+02
1.488327432035047693e+00 5.124448370288499746e+02
1.488427454039888742e+00 5.124333997932760667e+02
1.488527476044729791e+00 5.124219852095392298e+02
1.488627498049570841e+00 5.124105934764028234e+02
1.488727520054411890e+00 5.123992247914721929e+02
1.488827542059252718e+00 5.123878793511904632e+02
1.488927564064093989e+00 5.123765573508314901e+02
1.489027586068935038e+00 5.123652589844962222e+02
1.489127608073776088e+00 5.123539844451050840e+02
1.489227630078617359e+00 5.123427339243941105e+02
1.489327652083458409e+00 5.123315076129102863e+02
1.489427674088299458e+00 5.123203057000022227e+02
1.489527696093140285e+00 5.123091283738203856e+02
1.489627718097981335e+00 5.122979758213089099e+02
1.489727740102822384e+00 5.122868482281993465e+02
1.489827762107663656e+00 5.122757457790092985e+02
1.489927784112504705e+00 5.122646686570335532e+02
1.490027806117345754e+00 5.122536170443415813e+02
1.490127828122187026e+00 5.122425911217703742e+02
1.490227850127027853e+00 5.122315910689228531e+02
1.490327872131868903e+00 5.122206170641599101e+02
1.490427894136709952e+00 5.122096692845968846e+02
1.490527916141551001e+00 5.121987479060986743e+02
1.490627938146392051e+00 5.121878531032750743e+02
1.490727960151233322e+00 5.121769850494769116e+02
1.490827982156074150e+00 5.121661439167901335e+02
1.490928004160915199e+00 5.121553298760312600e+02
1.491028026165756248e+00 5.121445430967448829e+02
1.491128048170597520e+00 5.121337837471972989e+02
1.491228070175438569e+00 5.121230519943720765e+02
1.491328092180279619e+00 5.121123480039670994e+02
1.491428114185120668e+00 5.121016719403904744e+02
1.491528136189961495e+00 5.120910239667530277e+02
1.491628158194802545e+00 5.120804042448688733e+02
1.491728180199643816e+00 5.120698129352482511e+02
1.491828202204484866e+00 5.120592501970934336e+02
1.491928224209325915e+00 5.120487161882965665e+02
1.492028246214167186e+00 5.120382110654352346e+02
1.492128268219008236e+00 5.120277349837659813e+02
1.492228290223849063e+00 5.120172880972243092e+02
1.492328312228690113e+00 5.120068705584186546e+02
1.492428334233531162e+00 5.119964825186260668e+02
1.492528356238372211e+00 5.119861241277915838e+02
1.492628378243213483e+00 5.119757955345213531e+02
1.492728400248054532e+00 5.119654968860803024e+02
1.492828422252895582e+00 5.119552283283890688e+02
1.492928444257736409e+00 5.119449900060201912e+02
1.493028466262577680e+00 5.119347820621947562e+02
1.493128488267418730e+00 5.119246046387772822e+02
1.493228510272259779e+00 5.119144578762773108e+02
1.493328532277100829e+00 5.119043419138404261e+02
1.493428554281941878e+00 5.118942568892485383e+02
1.493528576286783149e+00 5.118842029389160189e+02
1.493628598291623977e+00 5.118741801978855506e+02
1.493728620296465026e+00 5.118641887998276161e+02
1.493828642301306076e+00 5.118542288770347000e+02
1.493928664306147347e+00 5.118443005604206064e+02
1.494028686310988396e+00 5.118344039795145477e+02
1.494128708315829446e+00 5.118245392624634178e+02
1.494228730320670495e+00 5.118147065360254828e+02
1.494328752325511322e+00 5.118049059255657198e+02
1.494428774330352372e+00 5.117951375550583748e+02
1.494528796335193643e+00 5.117854015470820741e+02
1.494628818340034693e+00 5.117756980228156749e+02
1.494728840344875742e+00 5.117660271020376967e+02
1.494828862349717014e+00 5.117563889031233657e+02
1.494928884354558063e+00 5.117467835430433638e+02
1.495028906359398890e+00 5.117372111373587700e+02
1.495128928364239940e+00 5.117276718002226517e+02
1.495228950369080989e+00 5.117181656443740962e+02
1.495328972373922038e+00 5.117086927811384953e+02
1.495428994378763310e+00 5.116992533204259530e+02
1.495529016383604359e+00 5.116898473707269090e+02
1.495629038388445409e+00 5.116804750391110019e+02
1.495729060393286236e+00 5.116711364312276373e+02
1.495829082398127508e+00 5.116618316513004743e+02
1.495929104402968557e+00 5.116525608021283915e+02
1.496029126407809606e+00 5.116433239850815653e+02
1.496129148412650656e+00 5.116341213001028336e+02
1.496229170417491705e+00 5.116249528457031488e+02
1.496329192422332977e+00 5.116158187189603836e+02
1.496429214427173804e+00 5.116067190155206958e+02
1.496529236432014853e+00 5.115976538295929004e+02
1.496629258436855903e+00 5.115886232539511411e+02
1.496729280441697174e+00 5.115796273799296614e+02
1.496829302446538223e+00 5.115706662974257597e+02
1.496929324451379273e+00 5.115617400948940485e+02
1.497029346456220322e+00 5.115528488593496945e+02
1.497129368461061150e+00 5.115439926763641552e+02
1.497229390465902199e+00 5.115351716300656904e+02
1.497329412470743470e+00 5.115263858031378277e+02
1.497429434475584520e+00 5.115176352768179413e+02
1.497529456480425569e+00 5.115089201308991846e+02
1.497629478485266841e+00 5.115002404437251471e+02
1.497729500490107890e+00 5.114915962921921846e+02
1.497829522494948717e+00 5.114829877517494197e+02
1.497929544499789767e+00 5.114744148963952739e+02
1.498029566504630816e+00 5.114658777986789460e+02
1.498129588509471866e+00 5.114573765296993884e+02
1.498229610514313137e+00 5.114489111591047390e+02
1.498329632519154186e+00 5.114404817550920939e+02
1.498429654523995236e+00 5.114320883844069954e+02
1.498529676528836063e+00 5.114237311123439440e+02
1.498629698533677335e+00 5.114154100027436129e+02
1.498729720538518384e+00 5.114071251179962587e+02
1.498829742543359433e+00 5.113988765190393906e+02
1.498929764548200483e+00 5.113906642653580548e+02
1.499029786553041532e+00 5.113824884149851187e+02
1.499129808557882804e+00 5.113743490245009298e+02
1.499229830562723631e+00 5.113662461490346232e+02
1.499329852567564680e+00 5.113581798422619613e+02
1.499429874572405730e+00 5.113501501564077785e+02
1.499529896577247001e+00 5.113421571422454690e+02
1.499629918582088051e+00 5.113342008490971580e+02
1.499729940586929100e+00 5.113262813248346106e+02
1.499829962591770149e+00 5.113183986158786638e+02
1.499929984596610977e+00 5.113105527672011590e+02
1.500030006601452026e+00 4.782728209319841994e+02
1.500130028606293298e+00 4.781574516287790289e+02
1.500230050611134347e+00 4.780420881817602208e+02
1.500330072615975396e+00 4.779267322912187979e+02
1.500430094620816668e+00 4.778113856571949327e+02
1.500530116625657717e+00 4.776960499794358839e+02
1.500630138630498545e+00 4.775807269573519989e+02
1.500730160635339594e+00 4.774654182899700459e+02
1.500830182640180643e+00 4.773501256758930253e+02
1.500930204645021693e+00 4.772348508132546385e+02
1.501030226649862964e+00 4.771195953996744379e+02
1.501130248654704014e+00 4.770043611322162747e+02
1.501230270659545063e+00 4.768891497073423125e+02
1.501330292664385890e+00 4.767739628208708496e+02
1.501430314669227162e+00 4.766588021679318672e+02
1.501530336674068211e+00 4.765436694429231466e+02
1.501630358678909261e+00 4.764285663394674089e+02
1.501730380683750310e+00 4.763134945503683753e+02
1.501830402688591359e+00 4.761984557675656333e+02
1.501930424693432631e+00 4.760834516820947897e+02
1.502030446698273458e+00 4.759684839840390396e+02
1.502130468703114508e+00 4.758535543624894899e+02
1.502230490707955557e+00 4.757386645055007648e+02
1.502330512712796828e+00 4.756238161000467244e+02
1.502430534717637878e+00 4.755090108319770934e+02
1.502530556722478927e+00 4.753942503859757949e+02
1.502630578727319977e+00 4.752795364455158165e+02
1.502730600732160804e+00 4.751648706928167485e+02
1.502830622737001853e+00 4.750502548088021513e+02
1.502930644741843125e+00 4.749356904730548194e+02
1.503030666746684174e+00 4.748211793637753999e+02
1.503130688751525224e+00 4.747067231577384518e+02
1.503230710756366495e+00 4.745923235302492458e+02
1.503330732761207544e+00 4.744779821551018699e+02
1.503430754766048372e+00 4.743637007045352902e+02
1.503530776770889421e+00 4.742494808491916842e+02
1.503630798775730470e+00 4.741353242580718188e+02
1.503730820780571520e+00 4.740212325984938389e+02
1.503830842785412791e+00 4.739072075360513168e+02
1.503930864790253841e+00 4.737932507345684598e+02
1.504030886795094890e+00 4.736793638560590125e+02
1.504130908799935717e+00 4.735655485606839648e+02
1.504230930804776989e+00 4.734518065067084081e+02
1.504330952809618038e+00 4.733381393504599828e+02
1.504430974814459088e+00 4.732245487462857909e+02
1.504530996819300137e+00 4.731110363465111277e+02
1.504631018824141186e+00 4.729976038013965649e+02
1.504731040828982458e+00 4.728842527590965119e+02
1.504831062833823285e+00 4.727709848656174927e+02
1.504931084838664335e+00 4.726578017647751153e+02
1.505031106843505384e+00 4.725447050981530310e+02
1.505131128848346656e+00 4.724316965050618364e+02
1.505231150853187705e+00 4.723187776224964409e+02
1.505331172858028754e+00 4.722059500850942868e+02
1.505431194862869804e+00 4.720932155250953883e+02
1.505531216867710631e+00 4.719805755722993581e+02
1.505631238872551680e+00 4.718680318540248777e+02
1.505731260877392952e+00 4.717555859950680315e+02
1.505831282882234001e+00 4.716432396176624025e+02
1.505931304887075051e+00 4.715309943414358145e+02
1.506031326891916322e+00 4.714188517833716787e+02
1.506131348896757371e+00 4.713068135577667590e+02
1.506231370901598199e+00 4.711948812761903582e+02
1.506331392906439248e+00 4.710830565474446985e+02
1.506431414911280298e+00 4.709713409775231412e+02
1.506531436916121347e+00 4.708597361695706240e+02
1.506631458920962618e+00 4.707482437238427906e+02
1.506731480925803668e+00 4.706368652376654609e+02
1.506831502930644717e+00 4.705256023053958643e+02
1.506931524935485545e+00 4.704144565183797226e+02
1.507031546940326816e+00 4.703034294649144726e+02
1.507131568945167865e+00 4.701925227302074290e+02
1.507231590950008915e+00 4.700817378963370174e+02
1.507331612954849964e+00 4.699710765422116197e+02
1.507431634959691014e+00 4.698605402435322844e+02
1.507531656964532285e+00 4.697501305727507770e+02
1.507631678969373112e+00 4.696398490990321761e+02
1.507731700974214162e+00 4.695296973882158227e+02
1.507831722979055211e+00 4.694196770027730281e+02
1.507931744983896483e+00 4.693097895017729115e+02
1.508031766988737532e+00 4.692000364408389714e+02
1.508131788993578581e+00 4.690904193721142406e+02
1.508231810998419409e+00 4.689809398442191650e+02
1.508331833003260458e+00 4.688715994022156792e+02
1.508431855008101508e+00 4.687623995875668470e+02
1.508531877012942779e+00 4.686533419381011640e+02
1.508631899017783828e+00 4.685444279879703231e+02
1.508731921022624878e+00 4.684356592676164155e+02
1.508831943027466149e+00 4.683270373037284457e+02
1.508931965032306977e+00 4.682185636192091920e+02
1.509031987037148026e+00 4.681102397331351312e+02
1.509132009041989075e+00 4.680020671607196050e+02
1.509232031046830125e+00 4.678940474132743930e+02
1.509332053051671174e+00 4.677861819981741291e+02
1.509432075056512446e+00 4.676784724188182736e+02
1.509532097061353495e+00 4.675709201745937662e+02
1.509632119066194322e+00 4.674635267608387039e+02
1.509732141071035372e+00 4.673562936688058471e+02
1.509832163075876643e+00 4.672492223856248188e+02
1.509932185080717693e+00 4.671423143942673164e+02
1.510032207085558742e+00 4.670355711735088562e+02
1.510132229090399791e+00 4.669289941978946104e+02
1.510232251095240841e+00 4.668225849377022314e+02
1.510332273100081668e+00 4.667163448589052450e+02
1.510432295104922940e+00 4.666102754231392282e+02
1.510532317109763989e+00 4.665043780876651454e+02
1.510632339114605038e+00 4.663986543053324567e+02
1.510732361119446310e+00 4.662931055245471157e+02
1.510832383124287359e+00 4.661877331892329721e+02
1.510932405129128409e+00 4.660825387387991441e+02
1.511032427133969236e+00 4.659775236081039225e+02
1.511132449138810285e+00 4.658726892274203237e+02
1.511232471143651335e+00 4.657680370224015292e+02
1.511332493148492606e+00 4.656635684140466083e+02
1.511432515153333656e+00 4.655592848186667538e+02
1.511532537158174705e+00 4.654551876478495842e+02
1.511632559163015976e+00 4.653512783084268563e+02
1.511732581167856804e+00 4.652475582024393361e+02
1.511832603172697853e+00 4.651440287271046259e+02
1.511932625177538903e+00 4.650406912747826027e+02
1.512032647182379952e+00 4.649375472329416539e+02
1.512132669187221001e+00 4.648345979841274698e+02
1.512232691192062273e+00 4.647318449059276304e+02
1.512332713196903322e+00 4.646292893709409100e+02
1.512432735201744149e+00 4.645269327467432277e+02
1.512532757206585199e+00 4.644247763958551332e+02
1.512632779211426470e+00 4.643228216757107703e+02
1.512732801216267520e+00 4.642210699386246233e+02
1.512832823221108569e+00 4.641195225317588893e+02
1.512932845225949618e+00 4.640181807970938053e+02
1.513032867230790668e+00 4.639170460713937700e+02
1.513132889235631495e+00 4.638161196861765916e+02
1.513232911240472767e+00 4.637154029676829055e+02
1.513332933245313816e+00 4.636148972368446266e+02
1.513432955250154865e+00 4.635146038092533445e+02
1.513532977254996137e+00 4.634145239951300255e+02
1.513632999259837186e+00 4.633146590992942038e+02
1.513733021264678236e+00 4.632150104211340249e+02
1.513833043269519063e+00 4.631155792545757777e+02
1.513933065274360112e+00 4.630163668880523460e+02
1.514033087279201162e+00 4.629173746044769473e+02
1.514133109284042433e+00 4.628186036812085717e+02
1.514233131288883483e+00 4.627200553900268005e+02
1.514333153293724532e+00 4.626217309970993483e+02
1.514433175298565804e+00 4.625236317629548353e+02
1.514533197303406631e+00 4.624257589424527737e+02
1.514633219308247680e+00 4.623281137847549189e+02
1.514733241313088730e+00 4.622306975332965067e+02
1.514833263317929779e+00 4.621335114257592522e+02
1.514933285322770828e+00 4.620365566940399731e+02
1.515033307327612100e+00 4.619398345642262598e+02
1.515133329332453149e+00 4.618433462565648142e+02
1.515233351337293977e+00 4.617470929854378028e+02
1.515333373342135026e+00 4.616510759593318198e+02
1.515433395346976297e+00 4.615552963808121945e+02
1.515533417351817347e+00 4.614597554464969562e+02
1.515633439356658396e+00 4.613644543470261397e+02
1.515733461361499446e+00 4.612693942670400702e+02
1.515833483366340495e+00 4.611745763851484412e+02
1.515933505371181322e+00 4.610800018739073494e+02
1.516033527376022594e+00 4.609856718997901908e+02
1.516133549380863643e+00 4.608915876231646962e+02
1.516233571385704693e+00 4.607977501982641115e+02
1.516333593390545964e+00 4.607041607731639488e+02
1.516433615395387013e+00 4.606108204897560654e+02
1.516533637400228063e+00 4.605177304837224597e+02
1.516633659405068890e+00 4.604248918845124194e+02
1.516733681409909940e+00 4.603323058153145553e+02
1.516833703414750989e+00 4.602399733930363368e+02
1.516933725419592260e+00 4.601478957282759552e+02
1.517033747424433310e+00 4.600560739253010070e+02
1.517133769429274359e+00 4.599645090820218343e+02
1.517233791434115631e+00 4.598732022899706067e+02
1.517333813438956458e+00 4.597821546342759120e+02
1.517433835443797507e+00 4.596913671936403603e+02
1.517533857448638557e+00 4.596008410403170501e+02
1.517633879453479606e+00 4.595105772400859223e+02
1.517733901458320656e+00 4.594205768522324433e+02
1.517833923463161927e+00 4.593308409295242427e+02
1.517933945468002976e+00 4.592413705181892283e+02
1.518033967472843804e+00 4.591521666578939289e+02
1.518133989477684853e+00 4.590632303817192792e+02
1.518234011482526125e+00 4.589745627161423727e+02
1.518334033487367174e+00 4.588861646810127013e+02
1.518434055492208223e+00 4.587980372895314076e+02
1.518534077497049273e+00 4.587101815482305938e+02
1.518634099501890322e+00 4.586225984569528009e+02
1.518734121506731150e+00 4.585352890088279878e+02
1.518834143511572421e+00 4.584482541902578987e+02
1.518934165516413470e+00 4.583614949808910524e+02
1.519034187521254520e+00 4.582750123536056890e+02
1.519134209526095791e+00 4.581888072744889655e+02
1.519234231530936841e+00 4.581028807028172878e+02
1.519334253535777890e+00 4.580172335910373249e+02
1.519434275540618717e+00 4.579318668847483309e+02
1.519534297545459767e+00 4.578467815226791231e+02
1.519634319550300816e+00 4.577619784366756903e+02
1.519734341555142088e+00 4.576774585516761249e+02
1.519834363559983137e+00 4.575932227856971508e+02
1.519934385564824186e+00 4.575092720498137737e+02
1.520034407569665458e+00 4.574256072481433080e+02
1.520134429574506285e+00 4.573422292778255382e+02
1.520234451579347335e+00 4.572591390290078834e+02
1.520334473584188384e+00 4.571763373848255014e+02
1.520434495589029433e+00 4.570938252213871920e+02
1.520534517593870483e+00 4.570116034077568656e+02
1.520634539598711754e+00 4.569296728059384805e+02
1.520734561603552804e+00 4.568480342708569424e+02
1.520834583608393631e+00 4.567666886503470778e+02
1.520934605613234680e+00 4.566856367851326013e+02
1.521034627618075952e+00 4.566048795088146335e+02
1.521134649622917001e+00 4.565244176478535110e+02
1.521234671627758051e+00 4.564442520215552577e+02
1.521334693632599100e+00 4.563643834420566350e+02
1.521434715637440149e+00 4.562848127143105330e+02
1.521534737642280977e+00 4.562055406360698271e+02
1.521634759647122248e+00 4.561265679978757817e+02
1.521734781651963297e+00 4.560478955830423047e+02
1.521834803656804347e+00 4.559695241676433284e+02
1.521934825661645618e+00 4.558914545204979731e+02
1.522034847666486668e+00 4.558136874031596335e+02
1.522134869671327717e+00 4.557362235698986979e+02
1.522234891676168544e+00 4.556590637676952156e+02
1.522334913681009594e+00 4.555822087362210482e+02
1.522434935685850643e+00 4.555056592078318545e+02
1.522534957690691915e+00 4.554294159075521407e+02
1.522634979695532964e+00 4.553534795530632664e+02
1.522735001700374013e+00 4.552778508546949752e+02
1.522835023705215285e+00 4.552025305154093076e+02
1.522935045710056112e+00 4.551275192307934958e+02
1.523035067714897162e+00 4.550528176890467762e+02
1.523135089719738211e+00 4.549784265709691340e+02
1.523235111724579260e+00 4.549043465499533454e+02
1.523335133729420310e+00 4.548305782919718467e+02
1.523435155734261581e+00 4.547571224555686626e+02
1.523535177739102631e+00 4.546839796918484922e+02
1.523635199743943458e+00 4.546111506444676706e+02
1.523735221748784507e+00 4.545386359496235968e+02
1.523835243753625779e+00 4.544664362360486507e+02
1.523935265758466828e+00 4.543945521249973467e+02
1.524035287763307878e+00 4.543229842302403085e+02
1.524135309768148927e+00 4.542517331580539803e+02
1.524235331772989976e+00 4.541807995072158519e+02
1.524335353777830804e+00 4.541101838689922943e+02
1.524435375782672075e+00 4.540398868271328183e+02
1.524535397787513125e+00 4.539699089578631401e+02
1.524635419792354174e+00 4.539002508298764837e+02
1.524735441797195445e+00 4.538309130043277264e+02
1.524835463802036495e+00 4.537618960348260657e+02
1.524935485806877544e+00 4.536932004674280279e+02
1.525035507811718372e+00 4.536248268406321813e+02
1.525135529816559421e+00 4.535567756853724291e+02
1.525235551821400470e+00 4.534890475250115855e+02
1.525335573826241742e+00 4.534216428753368291e+02
1.525435595831082791e+00 4.533545622445539038e+02
1.525535617835923841e+00 4.532878061332813218e+02
1.525635639840764668e+00 4.532213750345463836e+02
1.525735661845605939e+00 4.531552694337793810e+02
1.525835683850446989e+00 4.530894898088110949e+02
1.525935705855288038e+00 4.530240366298654635e+02
1.526035727860129088e+00 4.529589103595591268e+02
1.526135749864970137e+00 4.528941114528946059e+02
1.526235771869811408e+00 4.528296403572585973e+02
1.526335793874652236e+00 4.527654975124178236e+02
1.526435815879493285e+00 4.527016833505168165e+02
1.526535837884334335e+00 4.526381982960742221e+02
1.526635859889175606e+00 4.525750427659803563e+02
1.526735881894016655e+00 4.525122171694955000e+02
1.526835903898857705e+00 4.524497219082467154e+02
1.526935925903698754e+00 4.523875573762268800e+02
1.527035947908539582e+00 4.523257239597919579e+02
1.527135969913380631e+00 4.522642220376618525e+02
1.527235991918221902e+00 4.522030519809155749e+02
1.527336013923062952e+00 4.521422141529939154e+02
1.527436035927904001e+00 4.520817089096959762e+02
1.527536057932745273e+00 4.520215365991809335e+02
1.527636079937586322e+00 4.519616975619657069e+02
1.527736101942427149e+00 4.519021921309263803e+02
1.527836123947268199e+00 4.518430206312972359e+02
1.527936145952109248e+00 4.517841833806726868e+02
1.528036167956950298e+00 4.517256806890062535e+02
1.528136189961791569e+00 4.516675128586128949e+02
1.528236211966632618e+00 4.516096801841690649e+02
1.528336233971473668e+00 4.515521829527143041e+02
1.528436255976314495e+00 4.514950214436537976e+02
1.528536277981155767e+00 4.514381959287590007e+02
1.528636299985996816e+00 4.513817066721697984e+02
1.528736321990837865e+00 4.513255539303979162e+02
1.528836343995678915e+00 4.512697379523272048e+02
1.528936366000519964e+00 4.512142589792190392e+02
1.529036388005361236e+00 4.511591172447132294e+02
1.529136410010202063e+00 4.511043129748327942e+02
1.529236432015043112e+00 4.510498463879856104e+02
1.529336454019884162e+00 4.509957176949697555e+02
1.529436476024725433e+00 4.509419270989765209e+02
1.529536498029566483e+00 4.508884747955942203e+02
1.529636520034407532e+00 4.508353609728133051e+02
1.529736542039248581e+00 4.507825858110310833e+02
1.529836564044089409e+00 4.507301494830550155e+02
1.529936586048930458e+00 4.506780521541102758e+02
1.530036608053771729e+00 4.506262939818412292e+02
1.530136630058612779e+00 4.505748751163209818e+02
1.530236652063453828e+00 4.505237957000550182e+02
1.530336674068295100e+00 4.504730558679863179e+02
1.530436696073136149e+00 4.504226557475035975e+02
1.530536718077976976e+00 4.503725954584466535e+02
1.530636740082818026e+00 4.503228751131120475e+02
1.530736762087659075e+00 4.502734948162614614e+02
1.530836784092500125e+00 4.502244546651280075e+02
1.530936806097341396e+00 4.501757547494237315e+02
1.531036828102182445e+00 4.501273951513461498e+02
1.531136850107023495e+00 4.500793759455877421e+02
1.531236872111864322e+00 4.500316971993424886e+02
1.531336894116705594e+00 4.499843589723151922e+02
1.531436916121546643e+00 4.499373613167276176e+02
1.531536938126387692e+00 4.498907042773299736e+02
1.531636960131228742e+00 4.498443878914076777e+02
1.531736982136069791e+00 4.497984121887917013e+02
1.531837004140911063e+00 4.497527771918668122e+02
1.531937026145751890e+00 4.497074829155806697e+02
1.532037048150592939e+00 4.496625293674563295e+02
1.532137070155433989e+00 4.496179165475980426e+02
1.532237092160275260e+00 4.495736444487048402e+02
1.532337114165116310e+00 4.495297130560788901e+02
1.532437136169957359e+00 4.494861223476373766e+02
1.532537158174798408e+00 4.494428722939212548e+02
1.532637180179639236e+00 4.493999628581097454e+02
1.532737202184480285e+00 4.493573939960275538e+02
1.532837224189321557e+00 4.493151656561585696e+02
1.532937246194162606e+00 4.492732777796578603e+02
1.533037268199003655e+00 4.492317303003621873e+02
1.533137290203844927e+00 4.491905231448027962e+02
1.533237312208685976e+00 4.491496562322172963e+02
1.533337334213526804e+00 4.491091294745625646e+02
1.533437356218367853e+00 4.490689427765282176e+02
1.533537378223208902e+00 4.490290960355466154e+02
1.533637400228049952e+00 4.489895891418102565e+02
1.533737422232891223e+00 4.489504219782799055e+02
1.533837444237732273e+00 4.489115944207047164e+02
1.533937466242573322e+00 4.488731063376295083e+02
1.534037488247414149e+00 4.488349575904128983e+02
1.534137510252255421e+00 4.487971480332395231e+02
1.534237532257096470e+00 4.487596775131348181e+02
1.534337554261937520e+00 4.487225458699807064e+02
1.534437576266778569e+00 4.486857529365283312e+02
1.534537598271619618e+00 4.486492985384149961e+02
1.534637620276460890e+00 4.486131824941775790e+02
1.534737642281301717e+00 4.485774046152700976e+02
1.534837664286142767e+00 4.485419647060767829e+02
1.534937686290983816e+00 4.485068625639297579e+02
1.535037708295825087e+00 4.484720979791251239e+02
1.535137730300666137e+00 4.484376707349365461e+02
1.535237752305507186e+00 4.484035806076356039e+02
1.535337774310348236e+00 4.483698273665040688e+02
1.535437796315189063e+00 4.483364107738557323e+02
1.535537818320030112e+00 4.483033305850481156e+02
1.535637840324871384e+00 4.482705865485040135e+02
1.535737862329712433e+00 4.482381784057251366e+02
1.535837884334553483e+00 4.482061058913129159e+02
1.535937906339394754e+00 4.481743687329852719e+02
1.536037928344235803e+00 4.481429666515921326e+02
1.536137950349076631e+00 4.481118993611383416e+02
1.536237972353917680e+00 4.480811665687971299e+02
1.536337994358758730e+00 4.480507679749316594e+02
1.536438016363599779e+00 4.480207032731136110e+02
1.536538038368441050e+00 4.479909721501406921e+02
1.536638060373282100e+00 4.479615742860568162e+02
1.536738082378123149e+00 4.479325093541701790e+02
1.536838104382963976e+00 4.479037770210749727e+02
1.536938126387805248e+00 4.478753769466692347e+02
1.537038148392646297e+00 4.478473087841744018e+02
1.537138170397487347e+00 4.478195721801574223e+02
1.537238192402328396e+00 4.477921667745490595e+02
1.537338214407169446e+00 4.477650922006645260e+02
1.537438236412010717e+00 4.477383480852249136e+02
1.537538258416851544e+00 4.477119340483779411e+02
1.537638280421692594e+00 4.476858497037172810e+02
1.537738302426533643e+00 4.476600946583062637e+02
1.537838324431374915e+00 4.476346685126967486e+02
1.537938346436215964e+00 4.476095708609528856e+02
1.538038368441057013e+00 4.475848012906699296e+02
1.538138390445898063e+00 4.475603593829993656e+02
1.538238412450738890e+00 4.475362447126678376e+02
1.538338434455579939e+00 4.475124568480014773e+02
1.538438456460421211e+00 4.474889953509485281e+02
1.538538478465262260e+00 4.474658597770990127e+02
1.538638500470103310e+00 4.474430496757103128e+02
1.538738522474944581e+00 4.474205645897294517e+02
1.538838544479785631e+00 4.473984040558150355e+02
1.538938566484626458e+00 4.473765676043623785e+02
1.539038588489467507e+00 4.473550547595242506e+02
1.539138610494308557e+00 4.473338650392372529e+02
1.539238632499149606e+00 4.473129979552428495e+02
1.539338654503990877e+00 4.472924530131132315e+02
1.539438676508831927e+00 4.472722297122755322e+02
1.539538698513672976e+00 4.472523275460340528e+02
1.539638720518513804e+00 4.472327460015965812e+02
1.539738742523355075e+00 4.472134845600971857e+02
1.539838764528196124e+00 4.471945426966228183e+02
1.539938786533037174e+00 4.471759198802374158e+02
1.540038808537878223e+00 4.471576155740059448e+02
1.540138830542719273e+00 4.471396292350208341e+02
1.540238852547560544e+00 4.471219603144267012e+02
1.540338874552401371e+00 4.471046082574457046e+02
1.540438896557242421e+00 4.470875725034042034e+02
1.540538918562083470e+00 4.470708524857568591e+02
1.540638940566924742e+00 4.470544476321144884e+02
1.540738962571765791e+00 4.470383573642685633e+02
1.540838984576606840e+00 4.470225810982177563e+02
1.540939006581447890e+00 4.470071182441956239e+02
1.541039028586288717e+00 4.469919682066957307e+02
1.541139050591129767e+00 4.469771303844981389e+02
1.541239072595971038e+00 4.469626041706980004e+02
1.541339094600812087e+00 4.469483889527307952e+02
1.541439116605653137e+00 4.469344841124000141e+02
1.541539138610494408e+00 4.469208890259050122e+02
1.541639160615335458e+00 4.469076030638673842e+02
1.541739182620176285e+00 4.468946255913597270e+02
1.541839204625017334e+00 4.468819559679319582e+02
1.541939226629858384e+00 4.468695935476397381e+02
1.542039248634699433e+00 4.468575376790739710e+02
1.542139270639540705e+00 4.468457877053859875e+02
1.542239292644381754e+00 4.468343429643177274e+02
1.542339314649222803e+00 4.468232027882297643e+02
1.542439336654063631e+00 4.468123665041298977e+02
1.542539358658904902e+00 4.468018334337013471e+02
1.542639380663745952e+00 4.467916028933320831e+02
1.542739402668587001e+00 4.467816741941429086e+02
1.542839424673428050e+00 4.467720466420178127e+02
1.542939446678269100e+00 4.467627195376321652e+02
1.543039468683109927e+00 4.467536921764818203e+02
1.543139490687951199e+00 4.467449638489128461e+02
1.543239512692792248e+00 4.467365338401519921e+02
1.543339534697633297e+00 4.467284014303347135e+02
1.543439556702474569e+00 4.467205658945356390e+02
1.543539578707315618e+00 4.467130265027997211e+02
1.543639600712156668e+00 4.467057825201692367e+02
1.543739622716997495e+00 4.466988332067174383e+02
1.543839644721838544e+00 4.466921778175764643e+02
1.543939666726679594e+00 4.466858156029687166e+02
1.544039688731520865e+00 4.466797458082373851e+02
1.544139710736361915e+00 4.466739676738753246e+02
1.544239732741202964e+00 4.466684804355586493e+02
1.544339754746044235e+00 4.466632833241757794e+02
1.544439776750885063e+00 4.466583755658585915e+02
1.544539798755726112e+00 4.466537563820135119e+02
1.544639820760567162e+00 4.466494249893536335e+02
1.544739842765408211e+00 4.466453805999273072e+02
1.544839864770249260e+00 4.466416224211534995e+02
1.544939886775090532e+00 4.466381496558497020e+02
1.545039908779931581e+00 4.466349615022652415e+02
1.545139930784772409e+00 4.466320571541131699e+02
1.545239952789613458e+00 4.466294358006011294e+02
1.545339974794454729e+00 4.466270966264635831e+02
1.545439996799295779e+00 4.466250388119945001e+02
1.545540018804136828e+00 4.466232615330776525e+02
1.545640040808977878e+00 4.466217639612215180e+02
1.545740062813818927e+00 4.466205452635894062e+02
1.545840084818659754e+00 4.466196046030313482e+02
1.545940106823501026e+00 4.466189411381195669e+02
1.546040128828342075e+00 4.466185540231784330e+02
1.546140150833183124e+00 4.466184424083172075e+02
1.546240172838024396e+00 4.466186054394639768e+02
1.546340194842865445e+00 4.466190422583979966e+02
1.546440216847706495e+00 4.466197520027827181e+02
1.546540238852547322e+00 4.466207338061973928e+02
1.546640260857388371e+00 4.466219867981737934e+02
1.546740282862229421e+00 4.466235101042237261e+02
1.546840304867070692e+00 4.466253028458785366e+02
1.546940326871911742e+00 4.466273641407172477e+02
1.547040348876752791e+00 4.466296931024039623e+02
1.547140370881594063e+00 4.466322888407182745e+02
1.547240392886434890e+00 4.466351504615905128e+02
1.547340414891275939e+00 4.466382770671352205e+02
1.547440436896116989e+00 4.466416677556842387e+02
1.547540458900958038e+00 4.466453216218208695e+02
1.547640480905799087e+00 4.466492377564151184e+02
1.547740502910640359e+00 4.466534152466543901e+02
1.547840524915481408e+00 4.466578531760801525e+02
1.547940546920322236e+00 4.466625506246217583e+02
1.548040568925163285e+00 4.466675066686300397e+02
1.548140590930004556e+00 4.466727203809106754e+02
1.548240612934845606e+00 4.466781908307610252e+02
1.548340634939686655e+00 4.466839170840004272e+02
1.548440656944527705e+00 4.466898982030094203e+02
1.548540678949368754e+00 4.466961332467600414e+02
1.548640700954209581e+00 4.467026212708535695e+02
1.548740722959050853e+00 4.467093613275525854e+02
1.548840744963891902e+00 4.467163524658173515e+02
1.548940766968732952e+00 4.467235937313382124e+02
1.549040788973574223e+00 4.467310841665743624e+02
1.549140810978415272e+00 4.467388228107848249e+02
1.549240832983256322e+00 4.467468087000649462e+02
1.549340854988097149e+00 4.467550408673803304e+02
1.549440876992938199e+00 4.467635183426043568e+02
1.549540898997779248e+00 4.467722401525497844e+02
1.549640921002620519e+00 4.467812053210061549e+02
1.549740943007461569e+00 4.467904128687737284e+02
1.549840965012302618e+00 4.467998618136994082e+02
1.549940987017143890e+00 4.468095511707114156e+02
1.550041009021984717e+00 4.468194799518543618e+02
1.550141031026825766e+00 4.468296471663259126e+02
1.550241053031666816e+00 4.468400518205094158e+02
1.550341075036507865e+00 4.468506929180124416e+02
1.550441097041348915e+00 4.468615694596987282e+02
1.550541119046190186e+00 4.468726804437279156e+02
1.550641141051031235e+00 4.468840248655861842e+02
1.550741163055872063e+00 4.468956017181253628e+02
1.550841185060713112e+00 4.469074099915972056e+02
1.550941207065554384e+00 4.469194486736885210e+02
1.551041229070395433e+00 4.469317167495573244e+02
1.551141251075236482e+00 4.469442132018687062e+02
1.551241273080077532e+00 4.469569370108295061e+02
1.551341295084918581e+00 4.469698871542243523e+02
1.551441317089759409e+00 4.469830626074527231e+02
1.551541339094600680e+00 4.469964623435623139e+02
1.551641361099441729e+00 4.470100853332868382e+02
1.551741383104282779e+00 4.470239305450796223e+02
1.551841405109124050e+00 4.470379969451523721e+02
1.551941427113965100e+00 4.470522834975076876e+02
1.552041449118806149e+00 4.470667891639775462e+02
1.552141471123646976e+00 4.470815129042574654e+02
1.552241493128488026e+00 4.470964536759432235e+02
1.552341515133329075e+00 4.471116104345661029e+02
1.552441537138170347e+00 4.471269821336292125e+02
1.552541559143011396e+00 4.471425677246431292e+02
1.552641581147852445e+00 4.471583661571620496e+02
1.552741603152693717e+00 4.471743763788194883e+02
1.552841625157534544e+00 4.471905973353638046e+02
1.552941647162375594e+00 4.472070279706949805e+02
1.553041669167216643e+00 4.472236672269000337e+02
1.553141691172057692e+00 4.472405140442884885e+02
1.553241713176898742e+00 4.472575673614291532e+02
1.553341735181740013e+00 4.472748261151862152e+02
1.553441757186581063e+00 4.472922892407532345e+02
1.553541779191421890e+00 4.473099556716913412e+02
1.553641801196262939e+00 4.473278243399637404e+02
1.553741823201104211e+00 4.473458941759730578e+02
1.553841845205945260e+00 4.473641641085951619e+02
1.553941867210786310e+00 4.473826330652173624e+02
1.554041889215627359e+00 4.474012999717714365e+02
1.554141911220468408e+00 4.474201637527728508e+02
1.554241933225309236e+00 4.474392233313536735e+02
1.554341955230150507e+00 4.474584776293015125e+02
1.554441977234991557e+00 4.474779255670913471e+02
1.554541999239832606e+00 4.474975660639258308e+02
1.554642021244673877e+00 4.475173980377666112e+02
1.554742043249514927e+00 4.475374204053744620e+02
1.554842065254355976e+00 4.475576320823413425e+02
1.554942087259196803e+00 4.475780319831285965e+02
1.555042109264037853e+00 4.475986190211022517e+02
1.555142131268878902e+00 4.476193921085674106e+02
1.555242153273720174e+00 4.476403501568050842e+02
1.555342175278561223e+00 4.476614920761090275e+02
1.555442197283402272e+00 4.476828167758179120e+02
1.555542219288243544e+00 4.477043231643550598e+02
1.555642241293084371e+00 4.477260101492602757e+02
1.555742263297925421e+00 4.477478766372283303e+02
1.555842285302766470e+00 4.477699215341432932e+02
1.555942307307607519e+00 4.477921437451134921e+02
1.556042329312448569e+00 4.478145421745077783e+02
1.556142351317289840e+00 4.478371157259911683e+02
1.556242373322130890e+00 4.478598633025590630e+02
1.556342395326971717e+00 4.478827838065736842e+02
1.556442417331812766e+00 4.479058761397996591e+02
1.556542439336654038e+00 4.479291392034372166e+02
1.556642461341495087e+00 4.479525718981607838e+02
1.556742483346336137e+00 4.479761731241508755e+02
1.556842505351177186e+00 4.479999417811310423e+02
1.556942527356018235e+00 4.480238767684032268e+02
1.557042549360859063e+00 4.480479769848815295e+02
1.557142571365700334e+00 4.480722413291281327e+02
1.557242593370541384e+00 4.480966686993887720e+02
1.557342615375382433e+00 4.481212579936259317e+02
1.557442637380223704e+00 4.481460081095549981e+02
1.557542659385064754e+00 4.481709179446797862e+02
1.557642681389905803e+00 4.481959863963253952e+02
1.557742703394746631e+00 4.482212123616746453e+02
1.557842725399587680e+00 4.482465947378011037e+02
1.557942747404428729e+00 4.482721324217055781e+02
1.558042769409270001e+00 4.482978243103498244e+02
1.558142791414111050e+00 4.483236693006899714e+02
1.558242813418952100e+00 4.483496662897126726e+02
1.558342835423793371e+00 4.483758141744683599e+02
1.558442857428634198e+00 4.484021118521066001e+02
1.558542879433475248e+00 4.484285582199085525e+02
1.558642901438316297e+00 4.484551521753240877e+02
1.558742923443157347e+00 4.484818926160024830e+02
1.558842945447998396e+00 4.485087784398287454e+02
1.558942967452839667e+00 4.485358085449575469e+02
1.559042989457680717e+00 4.485629818298458531e+02
1.559143011462521544e+00 4.485902971932880519e+02
1.559243033467362594e+00 4.486177535344488660e+02
1.559343055472203865e+00 4.486453497528979142e+02
1.559443077477044914e+00 4.486730847486422817e+02
1.559543099481885964e+00 4.487009574221608545e+02
1.559643121486727013e+00 4.487289666744381407e+02
1.559743143491568063e+00 4.487571114069971827e+02
1.559843165496408890e+00 4.487853905219323565e+02
1.559943187501250161e+00 4.488138029219436476e+02
1.560043209506091211e+00 4.488423475103689952e+02
1.560143231510932260e+00 4.488710231912183986e+02
1.560243253515773532e+00 4.488998288692062033e+02
1.560343275520614581e+00 4.489287634497835597e+02
1.560443297525455408e+00 4.489578258391724148e+02
1.560543319530296458e+00 4.489870149443979699e+02
1.560643341535137507e+00 4.490163296733211951e+02
1.560743363539978557e+00 4.490457689346706616e+02
1.560843385544819828e+00 4.490753316380771594e+02
1.560943407549660877e+00 4.491050166941029147e+02
1.561043429554501927e+00 4.491348230142772309e+02
1.561143451559342754e+00 4.491647495111276385e+02
1.561243473564184026e+00 4.491947950982101929e+02
1.561343495569025075e+00 4.492249586901439216e+02
1.561443517573866124e+00 4.492552392026425991e+02
1.561543539578707174e+00 4.492856355525444769e+02
1.561643561583548223e+00 4.493161466578465024e+02
1.561743583588389495e+00 4.493467714377340485e+02
1.561843605593230322e+00 4.493775088126151331e+02
1.561943627598071371e+00 4.494083577041488411e+02
1.562043649602912421e+00 4.494393170352784068e+02
1.562143671607753692e+00 4.494703857302627057e+02
1.562243693612594742e+00 4.495015627147059263e+02
1.562343715617435791e+00 4.495328469155903122e+02
1.562443737622276840e+00 4.495642372613066868e+02
1.562543759627117668e+00 4.495957326816841260e+02
1.562643781631958717e+00 4.496273321080229834e+02
1.562743803636799989e+00 4.496590344731228583e+02
1.562843825641641038e+00 4.496908387113149956e+02
1.562943847646482087e+00 4.497227437584925838e+02
1.563043869651323359e+00 4.497547485521414501e+02
1.563143891656164408e+00 4.497868520313669478e+02
1.563243913661005235e+00 4.498190531369297105e+02
1.563343935665846285e+00 4.498513508112700947e+02
1.563443957670687334e+00 4.498837439985427409e+02
1.563543979675528384e+00 4.499162316446423233e+02
1.563644001680369655e+00 4.499488126972366899e+02
1.563744023685210704e+00 4.499814861057927260e+02
1.563844045690051754e+00 4.500142508216097212e+02
1.563944067694892581e+00 4.500471057978459157e+02
1.564044089699733853e+00 4.500800499895476037e+02
1.564144111704574902e+00 4.501130823536809658e+02
1.564244133709415951e+00 4.501462018491567960e+02
1.564344155714257001e+00 4.501794074368639258e+02
1.564444177719098050e+00 4.502126980796936095e+02
1.564544199723939322e+00 4.502460727425715277e+02
1.564644221728780149e+00 4.502795303924838777e+02
1.564744243733621198e+00 4.503130699985069896e+02
1.564844265738462248e+00 4.503466905318348381e+02
1.564944287743303519e+00 4.503803909658076918e+02
1.565044309748144569e+00 4.504141702759390569e+02
1.565144331752985618e+00 4.504480274399453492e+02
1.565244353757826667e+00 4.504819614377711332e+02
1.565344375762667495e+00 4.505159712516182822e+02
1.565444397767508544e+00 4.505500558659737180e+02
1.565544419772349816e+00 4.505842142676353319e+02
1.565644441777190865e+00 4.506184454457387574e+02
1.565744463782031914e+00 4.506527483917876111e+02
1.565844485786873186e+00 4.506871220996762304e+02
1.565944507791714235e+00 4.507215655657195157e+02
1.566044529796555063e+00 4.507560777886782262e+02
1.566144551801396112e+00 4.507906577697846728e+02
1.566244573806237161e+00 4.508253045127709697e+02
1.566344595811078211e+00 4.508600170238934197e+02
1.566444617815919482e+00 4.508947943119601405e+02
1.566544639820760532e+00 4.509296353883560187e+02
1.566644661825601581e+00 4.509645392670684032e+02
1.566744683830442408e+00 4.509995049647126848e+02
1.566844705835283680e+00 4.510345315005583871e+02
1.566944727840124729e+00 4.510696178965545755e+02
1.567044749844965779e+00 4.511047631773540161e+02
1.567144771849806828e+00 4.511399663703400620e+02
1.567244793854647877e+00 4.511752265056492774e+02
1.567344815859489149e+00 4.512105426161973014e+02
1.567444837864329976e+00 4.512459137377038587e+02
1.567544859869171026e+00 4.512813389087176006e+02
1.567644881874012075e+00 4.513168171706379326e+02
1.567744903878853346e+00 4.513523475677427541e+02
1.567844925883694396e+00 4.513879291472096043e+02
1.567944947888535445e+00 4.514235609591402181e+02
1.568044969893376495e+00 4.514592420565863335e+02
1.568144991898217322e+00 4.514949714955691320e+02
1.568245013903058371e+00 4.515307483351074893e+02
1.568345035907899643e+00 4.515665716372371890e+02
1.568445057912740692e+00 4.516024404670360468e+02
1.568545079917581742e+00 4.516383538926468191e+02
1.568645101922423013e+00 4.516743109852988027e+02
1.568745123927264062e+00 4.517103108193326193e+02
1.568845145932104890e+00 4.517463524722204511e+02
1.568945167936945939e+00 4.517824350245894038e+02
1.569045189941786989e+00 4.518185575602441304e+02
1.569145211946628038e+00 4.518547191661875218e+02
1.569245233951469309e+00 4.518909189326442402e+02
1.569345255956310359e+00 4.519271559530807281e+02
1.569445277961151408e+00 4.519634293242280592e+02
1.569545299965992236e+00 4.519997381461023451e+02
1.569645321970833507e+00 4.520360815220271320e+02
1.569745343975674556e+00 4.520724585586535227e+02
1.569845365980515606e+00 4.521088683659805838e+02
1.569945387985356655e+00 4.521453100573771735e+02
1.570045409990197705e+00 4.521817827496024051e+02
1.570145431995038976e+00 4.522182855628253719e+02
1.570245453999879803e+00 4.522548176206464632e+02
1.570345476004720853e+00 4.522913780501150995e+02
1.570445498009561902e+00 4.523279659817528113e+02
1.570545520014403174e+00 4.523645805495714853e+02
1.570645542019244223e+00 4.524012208910914978e+02
1.570745564024085272e+00 4.524378861473636562e+02
1.570845586028926322e+00 4.524745754629864223e+02
1.570945608033767149e+00 4.525112879861272290e+02
1.571045630038608198e+00 4.525480228685386237e+02
1.571145652043449470e+00 4.525847792655786179e+02
1.571245674048290519e+00 4.526215563362302987e+02
1.571345696053131569e+00 4.526583532431166077e+02
1.571445718057972840e+00 4.526951691525225101e+02
1.571545740062813890e+00 4.527320032344118204e+02
1.571645762067654717e+00 4.527688546624435730e+02
1.571745784072495766e+00 4.528057226139914633e+02
1.571845806077336816e+00 4.528426062701598767e+02
1.571945828082177865e+00 4.528795048158035002e+02
1.572045850087019137e+00 4.529164174395416467e+02
1.572145872091860186e+00 4.529533433337787756e+02
1.572245894096701235e+00 4.529902816947178508e+02
1.572345916101542063e+00 4.530272317223783602e+02
1.572445938106383334e+00 4.530641926206138805e+02
1.572545960111224383e+00 4.531011635971273108e+02
1.572645982116065433e+00 4.531381438634867891e+02
1.572746004120906482e+00 4.531751326351421199e+02
1.572846026125747532e+00 4.532121291314405767e+02
1.572946048130588803e+00 4.532491325756429887e+02
1.573046070135429630e+00 4.532861421949377814e+02
1.573146092140270680e+00 4.533231572204578583e+02
1.573246114145111729e+00 4.533601768872947559e+02
1.573346136149953001e+00 4.533972004345131950e+02
1.573446158154794050e+00 4.534342271051668263e+02
1.573546180159635099e+00 4.534712561463131237e+02
1.573646202164476149e+00 4.535082868090249804e+02
1.573746224169316976e+00 4.535453183484085002e+02
1.573846246174158026e+00 4.535823500236152199e+02
1.573946268178999297e+00 4.536193810978559213e+02
1.574046290183840346e+00 4.536564108384137057e+02
1.574146312188681396e+00 4.536934385166596257e+02
1.574246334193522667e+00 4.537304634080637129e+02
1.574346356198363717e+00 4.537674847922091885e+02
1.574446378203204544e+00 4.538045019528050261e+02
1.574546400208045593e+00 4.538415141776999917e+02
1.574646422212886643e+00 4.538785207588923640e+02
1.574746444217727692e+00 4.539155209925461349e+02
1.574846466222568964e+00 4.539525141789983991e+02
1.574946488227410013e+00 4.539894996227770321e+02
1.575046510232251062e+00 4.540264766326080235e+02
1.575146532237091890e+00 4.540634445214289485e+02
1.575246554241933161e+00 4.541004026064009054e+02
1.575346576246774211e+00 4.541373502089186900e+02
1.575446598251615260e+00 4.541742866546222785e+02
1.575546620256456309e+00 4.542112112734087077e+02
1.575646642261297359e+00 4.542481233994407148e+02
1.575746664266138630e+00 4.542850223711596982e+02
1.575846686270979458e+00 4.543219075312949258e+02
1.575946708275820507e+00 4.543587782268728006e+02
1.576046730280661556e+00 4.543956338092298211e+02
1.576146752285502828e+00 4.544324736340184927e+02
1.576246774290343877e+00 4.544692970612199474e+02
1.576346796295184927e+00 4.545061034551525836e+02
1.576446818300025976e+00 4.545428921844808201e+02
1.576546840304866803e+00 4.545796626222249301e+02
1.576646862309707853e+00 4.546164141457693404e+02
1.576746884314549124e+00 4.546531461368712144e+02
1.576846906319390174e+00 4.546898579816705706e+02
1.576946928324231223e+00 4.547265490706960236e+02
1.577046950329072494e+00 4.547632187988763235e+02
1.577146972333913544e+00 4.547998665655448463e+02
1.577246994338754371e+00 4.548364917744487457e+02
1.577347016343595421e+00 4.548730938337588441e+02
1.577447038348436470e+00 4.549096721560728156e+02
1.577547060353277519e+00 4.549462261584261569e+02
1.577647082358118791e+00 4.549827552622967914e+02
1.577747104362959840e+00 4.550192588936139373e+02
1.577847126367800668e+00 4.550557364827633364e+02
1.577947148372641717e+00 4.550921874645925413e+02
1.578047170377482988e+00 4.551286112784234774e+02
1.578147192382324038e+00 4.551650073680481228e+02
1.578247214387165087e+00 4.552013751817456750e+02
1.578347236392006137e+00 4.552377141722790839e+02
1.578447258396847186e+00 4.552740237969078407e+02
1.578547280401688013e+00 4.553103035173867283e+02
1.578647302406529285e+00 4.553465527999778146e+02
1.578747324411370334e+00 4.553827711154498274e+02
1.578847346416211384e+00 4.554189579390867948e+02
1.578947368421052655e+00 4.554551127506893522e+02
1.579047390425893704e+00 4.554912350345833261e+02
1.579147412430734754e+00 4.555273242796200748e+02
1.579247434435575581e+00 4.555633799791833667e+02
1.579347456440416630e+00 4.555994016311913128e+02
1.579447478445257680e+00 4.556353887381026198e+02
1.579547500450098951e+00 4.556713408069166462e+02
1.579647522454940001e+00 4.557072573491806224e+02
1.579747544459781050e+00 4.557431378809890248e+02
1.579847566464622322e+00 4.557789819229905675e+02
1.579947588469463149e+00 4.558147890003875773e+02
1.580047610474304198e+00 4.558505586429407686e+02
1.580147632479145248e+00 4.558862903849700388e+02
1.580247654483986297e+00 4.559219837653593572e+02
1.580347676488827346e+00 4.559576383275557987e+02
1.580447698493668618e+00 4.559932536195735793e+02
1.580547720498509667e+00 4.560288291939939427e+02
1.580647742503350495e+00 4.560643646079704467e+02
1.580747764508191544e+00 4.560998594232244159e+02
1.580847786513032815e+00 4.561353132060523308e+02
1.580947808517873865e+00 4.561707255273217925e+02
1.581047830522714914e+00 4.562060959624762972e+02
1.581147852527555964e+00 4.562414240915330197e+02
1.581247874532397013e+00 4.562767094990843475e+02
1.581347896537237840e+00 4.563119517742989046e+02
1.581447918542079112e+00 4.563471505109197892e+02
1.581547940546920161e+00 4.563823053072670177e+02
1.581647962551761211e+00 4.564174157662351377e+02
1.581747984556602482e+00 4.564524814952932275e+02
1.581848006561443531e+00 4.564875021064856355e+02
1.581948028566284581e+00 4.565224772164289107e+02
1.582048050571125408e+00 4.565574064463133368e+02
1.582148072575966458e+00 4.565922894218990109e+02
1.582248094580807507e+00 4.566271257735176619e+02
1.582348116585648778e+00 4.566619151360683873e+02
1.582448138590489828e+00 4.566966571490174829e+02
1.582548160595330877e+00 4.567313514563956574e+02
1.582648182600172149e+00 4.567659977067982027e+02
1.582748204605012976e+00 4.568005955533789688e+02
1.582848226609854025e+00 4.568351446538513301e+02
1.582948248614695075e+00 4.568696446704846608e+02
1.583048270619536124e+00 4.569040952701001856e+02
1.583148292624377174e+00 4.569384961240702410e+02
1.583248314629218445e+00 4.569728469083140112e+02
1.583348336634059494e+00 4.570071473032935501e+02
1.583448358638900322e+00 4.570413969940124730e+02
1.583548380643741371e+00 4.570755956700106140e+02
1.583648402648582643e+00 4.571097430253602170e+02
1.583748424653423692e+00 4.571438387586633780e+02
1.583848446658264741e+00 4.571778825730459630e+02
1.583948468663105791e+00 4.572118741761556748e+02
1.584048490667946840e+00 4.572458132801554029e+02
1.584148512672787668e+00 4.572796996017190736e+02
1.584248534677628939e+00 4.573135328620280688e+02
1.584348556682469988e+00 4.573473127867653716e+02
1.584448578687311038e+00 4.573810391061102791e+02
1.584548600692152309e+00 4.574147115547323210e+02
1.584648622696993359e+00 4.574483298717886441e+02
1.584748644701834408e+00 4.574818938009138947e+02
1.584848666706675235e+00 4.575154030902196496e+02
1.584948688711516285e+00 4.575488574922831049e+02
1.585048710716357334e+00 4.575822567641455976e+02
1.585148732721198606e+00 4.576156006673020897e+02
1.585248754726039655e+00 4.576488889676988379e+02
1.585348776730880704e+00 4.576821214357240706e+02
1.585448798735721976e+00 4.577152978461999737e+02
1.585548820740562803e+00 4.577484179783794502e+02
1.585648842745403853e+00 4.577814816159370253e+02
1.585748864750244902e+00 4.578144885469599785e+02
1.585848886755085951e+00 4.578474385639434558e+02
1.585948908759927001e+00 4.578803314637822268e+02
1.586048930764768272e+00 4.579131670477609646e+02
1.586148952769609322e+00 4.579459451215486183e+02
1.586248974774450149e+00 4.579786654951893752e+02
1.586348996779291198e+00 4.580113279830952706e+02
1.586449018784132470e+00 4.580439324040348197e+02
1.586549040788973519e+00 4.580764785811279012e+02
1.586649062793814569e+00 4.581089663418356395e+02
1.586749084798655618e+00 4.581413955179506843e+02
1.586849106803496667e+00 4.581737659455898211e+02
1.586949128808337495e+00 4.582060774651826023e+02
1.587049150813178766e+00 4.582383299214642420e+02
1.587149172818019816e+00 4.582705231634648158e+02
1.587249194822860865e+00 4.583026570444990853e+02
1.587349216827702136e+00 4.583347314221579154e+02
1.587449238832543186e+00 4.583667461582973033e+02
1.587549260837384235e+00 4.583987011190286012e+02
1.587649282842225062e+00 4.584305961747090237e+02
1.587749304847066112e+00 4.584624311999284600e+02
1.587849326851907161e+00 4.584942060735027667e+02
1.587949348856748433e+00 4.585259206784596131e+02
1.588049370861589482e+00 4.585575749020299554e+02
1.588149392866430532e+00 4.585891686356351329e+02
1.588249414871271803e+00 4.586207017748761814e+02
1.588349436876112630e+00 4.586521742195242268e+02
1.588449458880953680e+00 4.586835858735062743e+02
1.588549480885794729e+00 4.587149366448950332e+02
1.588649502890635778e+00 4.587462264458973209e+02
1.588749524895476828e+00 4.587774551928411597e+02
1.588849546900318099e+00 4.588086228061647489e+02
1.588949568905159149e+00 4.588397292104029930e+02
1.589049590909999976e+00 4.588707743341767582e+02
1.589149612914841025e+00 4.589017581101789460e+02
1.589249634919682297e+00 4.589326804751618738e+02
1.589349656924523346e+00 4.589635413699260198e+02
1.589449678929364396e+00 4.589943407393054144e+02
1.589549700934205445e+00 4.590250785321548506e+02
1.589649722939046494e+00 4.590557547013372641e+02
1.589749744943887322e+00 4.590863692037105466e+02
1.589849766948728593e+00 4.591169220001123676e+02
1.589949788953569643e+00 4.591474130553498298e+02
1.590049810958410692e+00 4.591778423381811081e+02
1.590149832963251963e+00 4.592082098213058998e+02
1.590249854968093013e+00 4.592385154813498502e+02
1.590349876972934062e+00 4.592687592988480674e+02
1.590449898977774890e+00 4.592989412582354021e+02
1.590549920982615939e+00 4.593290613478278033e+02
1.590649942987456988e+00 4.593591195598098693e+02
1.590749964992298260e+00 4.593891158902196139e+02
1.590849986997139309e+00 4.594190503389347668e+02
1.590950009001980359e+00 4.594489229096554368e+02
1.591050031006821630e+00 4.594787336098917194e+02
1.591150053011662457e+00 4.595084824509459054e+02
1.591250075016503507e+00 4.595381694478995769e+02
1.591350097021344556e+00 4.595677946195968389e+02
1.591450119026185606e+00 4.595973579886280618e+02
1.591550141031026655e+00 4.596268595813162960e+02
1.591650163035867926e+00 4.596562994276994800e+02
1.591750185040708976e+00 4.596856775615150354e+02
1.591850207045549803e+00 4.597149940201851450e+02
1.591950229050390853e+00 4.597442488447971982e+02
1.592050251055232124e+00 4.597734420800924227e+02
1.592150273060073173e+00 4.598025737744449088e+02
1.592250295064914223e+00 4.598316439798468878e+02
1.592350317069755272e+00 4.598606527518927010e+02
1.592450339074596322e+00 4.598896001497611223e+02
1.592550361079437149e+00 4.599184862361991009e+02
1.592650383084278420e+00 4.599473110775024338e+02
1.592750405089119470e+00 4.599760747435040571e+02
1.592850427093960519e+00 4.600047773075505120e+02
1.592950449098801791e+00 4.600334188464879617e+02
1.593050471103642840e+00 4.600619994406446267e+02
1.593150493108483889e+00 4.600905191738132771e+02
1.593250515113324717e+00 4.601189781332308826e+02
1.593350537118165766e+00 4.601473764095658794e+02
1.593450559123006816e+00 4.601757140968949784e+02
1.593550581127848087e+00 4.602039912926892384e+02
1.593650603132689136e+00 4.602322080977926362e+02
1.593750625137530186e+00 4.602603646164070597e+02
1.593850647142371457e+00 4.602884609560716740e+02
1.593950669147212285e+00 4.603164972276452431e+02
1.594050691152053334e+00 4.603444735452881673e+02
1.594150713156894383e+00 4.603723900264420195e+02
1.594250735161735433e+00 4.604002467918136858e+02
1.594350757166576482e+00 4.604280439653541066e+02
1.594450779171417754e+00 4.604557816742402565e+02
1.594550801176258803e+00 4.604834600488566707e+02
1.594650823181099630e+00 4.605110792227748675e+02
1.594750845185940680e+00 4.605386393327349310e+02
1.594850867190781951e+00 4.605661405186281172e+02
1.594950889195623001e+00 4.605935829234736048e+02
1.595050911200464050e+00 4.606209666934018969e+02
1.595150933205305099e+00 4.606482919776336189e+02
1.595250955210145927e+00 4.606755589284620100e+02
1.595350977214986976e+00 4.607027677012312097e+02
1.595450999219828248e+00 4.607299184543159640e+02
1.595551021224669297e+00 4.607570113491037773e+02
1.595651043229510346e+00 4.607840465499728566e+02
1.595751065234351618e+00 4.608110242242736376e+02
1.595851087239192667e+00 4.608379445423080938e+02
1.595951109244033495e+00 4.608648076773080220e+02
1.596051131248874544e+00 4.608916138054173075e+02
1.596151153253715593e+00 4.609183631056682202e+02
1.596251175258556643e+00 4.609450557599647027e+02
1.596351197263397914e+00 4.609716919530578707e+02
1.596451219268238964e+00 4.609982718725290738e+02
1.596551241273080013e+00 4.610247957087655095e+02
1.596651263277920840e+00 4.610512636549418062e+02
1.596751285282762112e+00 4.610776759069989339e+02
1.596851307287603161e+00 4.611040326636216946e+02
1.596951329292444210e+00 4.611303341262187132e+02
1.597051351297285260e+00 4.611565804989025992e+02
1.597151373302126309e+00 4.611827719884655608e+02
1.597251395306967581e+00 4.612089088043602487e+02
1.597351417311808408e+00 4.612349911586790085e+02
1.597451439316649457e+00 4.612610192661302335e+02
1.597551461321490507e+00 4.612869933440186969e+02
1.597651483326331778e+00 4.613129136122235536e+02
1.597751505331172828e+00 4.613387802931760007e+02
1.597851527336013877e+00 4.613645936118381314e+02
1.597951549340854926e+00 4.613903537956817900e+02
1.598051571345695754e+00 4.614160610746653219e+02
1.598151593350536803e+00 4.614417156812129974e+02
1.598251615355378075e+00 4.614673178501915345e+02
1.598351637360219124e+00 4.614928678188904314e+02
1.598451659365060173e+00 4.615183658269978650e+02
1.598551681369901445e+00 4.615438121165783514e+02
1.598651703374742494e+00 4.615692069320529640e+02
1.598751725379583322e+00 4.615945505201744936e+02
1.598851747384424371e+00 4.616198431300067568e+02
1.598951769389265420e+00 4.616450850129010632e+02
1.599051791394106470e+00 4.616702764224748989e+02
1.599151813398947741e+00 4.616954176145886208e+02
1.599251835403788791e+00 4.617205088473237424e+02
1.599351857408629840e+00 4.617455503809595143e+02
1.599451879413470667e+00 4.617705424779510963e+02
1.599551901418311939e+00 4.617954854029057401e+02
1.599651923423152988e+00 4.618203794225619276e+02
1.599751945427994038e+00 4.618452248057651559e+02
1.599851967432835087e+00 4.618700218234449153e+02
1.599951989437676136e+00 4.618947707485930323e+02
1.600052011442517408e+00 4.619194718562403068e+02
1.600152033447358235e+00 4.619441254234332064e+02
1.600252055452199285e+00 4.619687317292115267e+02
1.600352077457040334e+00 4.619932910545846880e+02
1.600452099461881605e+00 4.620178036825084291e+02
1.600552121466722655e+00 4.620422698978636049e+02
1.600652143471563704e+00 4.620666899874310616e+02
1.600752165476404754e+00 4.620910642398696950e+02
1.600852187481245581e+00 4.621153929456914966e+02
1.600952209486086630e+00 4.621396763972402368e+02
1.601052231490927902e+00 4.621639148886684438e+02
1.601152253495768951e+00 4.621881087159119375e+02
1.601252275500610001e+00 4.622122581766685698e+02
1.601352297505451272e+00 4.622363635703727596e+02
1.601452319510292321e+00 4.622604251981761081e+02
1.601552341515133149e+00 4.622844433629178411e+02
1.601652363519974198e+00 4.623084183691073008e+02
1.601752385524815248e+00 4.623323505228971158e+02
1.601852407529656297e+00 4.623562401320608615e+02
1.601952429534497568e+00 4.623800875059686177e+02
1.602052451539338618e+00 4.624038929555653112e+02
1.602152473544179667e+00 4.624276567933446813e+02
1.602252495549020495e+00 4.624513793333277363e+02
1.602352517553861766e+00 4.624750608910379697e+02
1.602452539558702815e+00 4.624987017834788503e+02
1.602552561563543865e+00 4.625223023291082995e+02
1.602652583568384914e+00 4.625458628478170908e+02
1.602752605573225964e+00 4.625693836609048617e+02
1.602852627578067235e+00 4.625928650910549891e+02
1.602952649582908062e+00 4.626163074623116813e+02
1.603052671587749112e+00 4.626397111000569566e+02
1.603152693592590161e+00 4.626630763309864847e+02
1.603252715597431433e+00 4.626864034830858827e+02
1.603352737602272482e+00 4.627096928856064437e+02
1.603452759607113531e+00 4.627329448690412619e+02
1.603552781611954581e+00 4.627561597651034617e+02
1.603652803616795408e+00 4.627793379066998796e+02
1.603752825621636457e+00 4.628024796279092925e+02
1.603852847626477729e+00 4.628255852639564409e+02
1.603952869631318778e+00 4.628486551511921903e+02
1.604052891636159828e+00 4.628716896270640859e+02
1.604152913641001099e+00 4.628946890300979931e+02
1.604252935645842149e+00 4.629176536998712663e+02
1.604352957650682976e+00 4.629405839769894442e+02
1.604452979655524025e+00 4.629634802030633409e+02
1.604553001660365075e+00 4.629863427206852862e+02
1.604653023665206124e+00 4.630091718734025790e+02
1.604753045670047396e+00 4.630319680056982179e+02
1.604853067674888445e+00 4.630547314629646962e+02
1.604953089679729494e+00 4.630774625914797298e+02
1.605053111684570322e+00 4.631001617383831785e+02
1.605153133689411593e+00 4.631228292516545935e+02
1.605253155694252643e+00 4.631454654800865569e+02
1.605353177699093692e+00 4.631680707732643896e+02
1.605453199703934741e+00 4.631906454815405709e+02
1.605553221708775791e+00 4.632131899560102966e+02
1.605653243713617062e+00 4.632357045484904461e+02
1.605753265718457889e+00 4.632581896114931510e+02
1.605853287723298939e+00 4.632806454982040805e+02
1.605953309728139988e+00 4.633030725624570323e+02
1.606053331732981260e+00 4.633254711587130714e+02
1.606153353737822309e+00 4.633478416420340977e+02
1.606253375742663358e+00 4.633701843680609045e+02
1.606353397747504408e+00 4.633924996929898725e+02
1.606453419752345235e+00 4.634147879735477886e+02
1.606553441757186285e+00 4.634370495669700745e+02
1.606653463762027556e+00 4.634592848309769124e+02
1.606753485766868605e+00 4.634814941237490302e+02
1.606853507771709655e+00 4.635036778039055889e+02
1.606953529776550926e+00 4.635258362304786033e+02
1.607053551781391976e+00 4.635479697628927624e+02
1.607153573786232803e+00 4.635700787609398503e+02
1.607253595791073852e+00 4.635921635847554398e+02
1.607353617795914902e+00 4.636142245947970650e+02
1.607453639800755951e+00 4.636362621518195510e+02
1.607553661805597223e+00 4.636582766168525609e+02
1.607653683810438272e+00 4.636802683511768350e+02
1.607753705815279321e+00 4.637022377163027613e+02
1.607853727820120149e+00 4.637241850739445113e+02
1.607953749824961420e+00 4.637461107859999743e+02
1.608053771829802470e+00 4.637680152145251213e+02
1.608153793834643519e+00 4.637898987217126887e+02
1.608253815839484568e+00 4.638117616698689289e+02
1.608353837844325618e+00 4.638336044213895093e+02
1.608453859849166889e+00 4.638554273387386502e+02
1.608553881854007717e+00 4.638772307844260467e+02
1.608653903858848766e+00 4.638990151209816304e+02
1.608753925863689815e+00 4.639207807109356736e+02
1.608853947868531087e+00 4.639425279167948020e+02
1.608953969873372136e+00 4.639642571010199390e+02
1.609053991878213186e+00 4.639859686260032277e+02
1.609154013883054235e+00 4.640076628540452930e+02
1.609254035887895062e+00 4.640293401473336417e+02
1.609354057892736112e+00 4.640510008679197540e+02
1.609454079897577383e+00 4.640726453776965172e+02
1.609554101902418433e+00 4.640942740383757723e+02
1.609654123907259482e+00 4.641158872114669975e+02
1.609754145912100753e+00 4.641374852582540598e+02
1.609854167916941803e+00 4.641590685397727611e+02
1.609954189921782630e+00 4.641806374167910576e+02
1.610054211926623680e+00 4.642021922497833089e+02
1.610154233931464729e+00 4.642237333989120316e+02
1.610254255936305778e+00 4.642452612240031726e+02
1.610354277941147050e+00 4.642667760845247926e+02
1.610454299945988099e+00 4.642882783395673982e+02
1.610554321950829149e+00 4.643097683478194995e+02
1.610654343955669976e+00 4.643312464675468050e+02
1.610754365960511247e+00 4.643527130565712469e+02
1.610854387965352297e+00 4.643741684722484138e+02
1.610954409970193346e+00 4.643956130714465189e+02
1.611054431975034396e+00 4.644170472105253680e+02
1.611154453979875445e+00 4.644384712453135649e+02
1.611254475984716716e+00 4.644598855310900944e+02
1.611354497989557544e+00 4.644812904225590842e+02
1.611454519994398593e+00 4.645026862738322961e+02
1.611554541999239643e+00 4.645240734384058214e+02
1.611654564004080914e+00 4.645454522691396733e+02
1.611754586008921963e+00 4.645668231182365844e+02
1.611854608013763013e+00 4.645881863372231919e+02
1.611954630018604062e+00 4.646095422769247989e+02
1.612054652023444890e+00 4.646308912874486623e+02
1.612154674028285939e+00 4.646522337181628473e+02
1.612254696033127210e+00 4.646735699176724097e+02
1.612354718037968260e+00 4.646949002338035939e+02
1.612454740042809309e+00 4.647162250135793329e+02
1.612554762047650581e+00 4.647375446032017976e+02
1.612654784052491408e+00 4.647588593480300005e+02
1.612754806057332457e+00 4.647801695925609806e+02
1.612854828062173507e+00 4.648014756804091689e+02
1.612954850067014556e+00 4.648227779542864369e+02
1.613054872071855605e+00 4.648440767559813480e+02
1.613154894076696877e+00 4.648653724263414233e+02
1.613254916081537926e+00 4.648866653052513129e+02
1.613354938086378754e+00 4.649079557316129581e+02
1.613454960091219803e+00 4.649292440433283673e+02
1.613554982096061075e+00 4.649505305772772772e+02
1.613655004100902124e+00 4.649718156692993034e+02
1.613755026105743173e+00 4.649930996541742161e+02
1.613855048110584223e+00 4.650143828656032383e+02
1.613955070115425272e+00 4.650356656361877299e+02
1.614055092120266099e+00 4.650569482974134985e+02
1.614155114125107371e+00 4.650782311796291992e+02
1.614255136129948420e+00 4.650995146120275194e+02
1.614355158134789470e+00 4.651207989226280688e+02
1.614455180139630741e+00 4.651420844382571431e+02
1.614555202144471791e+00 4.651633714845299892e+02
1.614655224149312840e+00 4.651846603858313074e+02
1.614755246154153667e+00 4.652059514652974599e+02
1.614855268158994717e+00 4.652272450447985648e+02
1.614955290163835766e+00 4.652485414449195673e+02
1.615055312168677037e+00 4.652698409849411405e+02
1.615155334173518087e+00 4.652911439828242237e+02
1.615255356178359136e+00 4.653124507551901274e+02
1.615355378183200408e+00 4.653337616173027413e+02
1.615455400188041235e+00 4.653550768830514244e+02
1.615555422192882284e+00 4.653763968649330423e+02
1.615655444197723334e+00 4.653977218740349144e+02
1.615755466202564383e+00 4.654190522200158284e+02
1.615855488207405433e+00 4.654403882110910899e+02
1.615955510212246704e+00 4.654617301540130256e+02
1.616055532217087753e+00 4.654830783540552375e+02
1.616155554221928581e+00 4.655044331149946970e+02
1.616255576226769630e+00 4.655257947390952040e+02
1.616355598231610902e+00 4.655471635270915840e+02
1.616455620236451951e+00 4.655685397781708730e+02
1.616555642241293000e+00 4.655899237899567424e+02
1.616655664246134050e+00 4.656113158584939811e+02
1.616755686250975099e+00 4.656327162782299638e+02
1.616855708255815927e+00 4.656541253420009525e+02
1.616955730260657198e+00 4.656755433410130536e+02
1.617055752265498247e+00 4.656969705648289164e+02
1.617155774270339297e+00 4.657184073013490888e+02
1.617255796275180568e+00 4.657398538367980336e+02
1.617355818280021618e+00 4.657613104557095767e+02
1.617455840284862667e+00 4.657827774409067842e+02
1.617555862289703494e+00 4.658042550734913902e+02
1.617655884294544544e+00 4.658257436328254926e+02
1.617755906299385593e+00 4.658472433965166601e+02
1.617855928304226865e+00 4.658687546404042905e+02
1.617955950309067914e+00 4.658902776385427273e+02
1.618055972313908963e+00 4.659118126631871064e+02
1.618155994318750235e+00 4.659333599847782352e+02
1.618256016323591062e+00 4.659549198719283822e+02
1.618356038328432112e+00 4.659764925914063838e+02
1.618456060333273161e+00 4.659980784081230922e+02
1.618556082338114210e+00 4.660196775851176199e+02
1.618656104342955260e+00 4.660412903835421048e+02
1.618756126347796531e+00 4.660629170626480118e+02
1.618856148352637581e+00 4.660845578797727740e+02
1.618956170357478408e+00 4.661062130903251273e+02
1.619056192362319457e+00 4.661278829477716954e+02
1.619156214367160729e+00 4.661495677036234611e+02
1.619256236372001778e+00 4.661712676074216120e+02
1.619356258376842828e+00 4.661929829067246374e+02
1.619456280381683877e+00 4.662147138470962773e+02
1.619556302386524926e+00 4.662364606720893789e+02
1.619656324391365754e+00 4.662582236232362902e+02
1.619756346396207025e+00 4.662800029400332278e+02
1.619856368401048075e+00 4.663017988599289652e+02
1.619956390405889124e+00 4.663236116183125546e+02
1.620056412410730395e+00 4.663454414484988320e+02
1.620156434415571445e+00 4.663672885817183555e+02
1.620256456420412494e+00 4.663891532471037635e+02
1.620356478425253322e+00 4.664110356716781780e+02
1.620456500430094371e+00 4.664329360803427562e+02
1.620556522434935420e+00 4.664548546958649240e+02
1.620656544439776692e+00 4.664767917388678029e+02
1.620756566444617741e+00 4.664987474278158288e+02
1.620856588449458791e+00 4.665207219790063959e+02
1.620956610454300062e+00 4.665427156065560439e+02
1.621056632459140889e+00 4.665647285223918175e+02
1.621156654463981939e+00 4.665867609362366579e+02
1.621256676468822988e+00 4.666088130556017290e+02
1.621356698473664038e+00 4.666308850857733432e+02
1.621456720478505087e+00 4.666529772298037528e+02
1.621556742483346358e+00 4.666750896884992699e+02
1.621656764488187408e+00 4.666972226604123080e+02
1.621756786493028235e+00 4.667193763418260914e+02
1.621856808497869284e+00 4.667415509267497100e+02
1.621956830502710556e+00 4.667637466069062384e+02
1.622056852507551605e+00 4.667859635717220499e+02
1.622156874512392655e+00 4.668082020083166981e+02
1.622256896517233704e+00 4.668304621014951863e+02
1.622356918522074753e+00 4.668527440337365420e+02
1.622456940526915581e+00 4.668750479851861428e+02
1.622556962531756852e+00 4.668973741336446892e+02
1.622656984536597902e+00 4.669197226545607577e+02
1.622757006541438951e+00 4.669420937210208535e+02
1.622857028546280223e+00 4.669644875037400311e+02
1.622957050551121272e+00 4.669869041710547890e+02
1.623057072555962321e+00 4.670093438889135768e+02
1.623157094560803149e+00 4.670318068208675868e+02
1.623257116565644198e+00 4.670542931280645007e+02
1.623357138570485247e+00 4.670768029692376899e+02
1.623457160575326519e+00 4.670993365007009288e+02
1.623557182580167568e+00 4.671218938763383335e+02
1.623657204585008618e+00 4.671444752475977111e+02
1.623757226589849889e+00 4.671670807634832272e+02
1.623857248594690716e+00 4.671897105705464242e+02
1.623957270599531766e+00 4.672123648128807645e+02
1.624057292604372815e+00 4.672350436321129337e+02
1.624157314609213865e+00 4.672577471673967011e+02
1.624257336614054914e+00 4.672804755554055305e+02
1.624357358618896185e+00 4.673032289303259290e+02
1.624457380623737235e+00 4.673260074238513084e+02
1.624557402628578062e+00 4.673488111651742543e+02
1.624657424633419112e+00 4.673716402809811257e+02
1.624757446638260383e+00 4.673944948954464849e+02
1.624857468643101432e+00 4.674173751302247979e+02
1.624957490647942482e+00 4.674402811044467398e+02
1.625057512652783531e+00 4.674632129347119189e+02
1.625157534657624581e+00 4.674861707350846700e+02
1.625257556662465408e+00 4.675091546170868355e+02
1.625357578667306679e+00 4.675321646896931043e+02
1.625457600672147729e+00 4.675552010593266914e+02
1.625557622676988778e+00 4.675782638298527445e+02
1.625657644681830050e+00 4.676013531025738530e+02
1.625757666686671099e+00 4.676244689762263533e+02
1.625857688691512148e+00 4.676476115469736783e+02
1.625957710696352976e+00 4.676707809084032874e+02
1.626057732701194025e+00 4.676939771515215511e+02
1.626157754706035075e+00 4.677172003647507950e+02
1.626257776710876346e+00 4.677404506339231602e+02
1.626357798715717395e+00 4.677637280422773642e+02
1.626457820720558445e+00 4.677870326704556874e+02
1.626557842725399716e+00 4.678103645964999941e+02
1.626657864730240544e+00 4.678337238958479247e+02
1.626757886735081593e+00 4.678571106413288589e+02
1.626857908739922642e+00 4.678805249031614721e+02
1.626957930744763692e+00 4.679039667489500971e+02
1.627057952749604741e+00 4.679274362436829051e+02
1.627157974754446013e+00 4.679509334497279269e+02
1.627257996759287062e+00 4.679744584268293579e+02
1.627358018764127889e+00 4.679980112321086381e+02
1.627458040768968939e+00 4.680215919200577446e+02
1.627558062773810210e+00 4.680452005425390780e+02
1.627658084778651260e+00 4.680688371487842687e+02
1.627758106783492309e+00 4.680925017853893451e+02
1.627858128788333358e+00 4.681161944963158135e+02
1.627958150793174408e+00 4.681399153228862815e+02
1.628058172798015235e+00 4.681636643037862200e+02
1.628158194802856507e+00 4.681874414750589040e+02
1.628258216807697556e+00 4.682112468701067769e+02
1.628358238812538605e+00 4.682350805196888359e+02
1.628458260817379877e+00 4.682589424519196086e+02
1.628558282822220926e+00 4.682828326922700626e+02
1.628658304827061976e+00 4.683067512635642515e+02
1.628758326831902803e+00 4.683306981859813618e+02
1.628858348836743852e+00 4.683546734770530975e+02
1.628958370841584902e+00 4.683786771516645331e+02
1.629058392846426173e+00 4.684027092220539430e+02
1.629158414851267223e+00 4.684267696978121194e+02
1.629258436856108272e+00 4.684508585858826564e+02
1.629358458860949543e+00 4.684749758905637123e+02
1.629458480865790371e+00 4.684991216135058494e+02
1.629558502870631420e+00 4.685232957537139100e+02
1.629658524875472470e+00 4.685474983075484374e+02
1.629758546880313519e+00 4.685717292687253916e+02
1.629858568885154568e+00 4.685959886283168316e+02
1.629958590889995840e+00 4.686202763747539848e+02
1.630058612894836667e+00 4.686445924938256553e+02
1.630158634899677716e+00 4.686689369686814644e+02
1.630258656904518766e+00 4.686933097798332142e+02
1.630358678909360037e+00 4.687177109051561956e+02
1.630458700914201087e+00 4.687421403198910639e+02
1.630558722919042136e+00 4.687665979966456575e+02
1.630658744923883186e+00 4.687910839053965901e+02
1.630758766928724013e+00 4.688155980134933998e+02
1.630858788933565062e+00 4.688401402856582081e+02
1.630958810938406334e+00 4.688647106839899266e+02
1.631058832943247383e+00 4.688893091679664167e+02
1.631158854948088432e+00 4.689139356944474457e+02
1.631258876952929704e+00 4.689385902176771310e+02
1.631358898957770753e+00 4.689632726892874643e+02
1.631458920962611581e+00 4.689879830583010971e+02
1.631558942967452630e+00 4.690127212711345237e+02
1.631658964972293679e+00 4.690374872716024015e+02
1.631758986977134729e+00 4.690622810009201089e+02
1.631859008981976000e+00 4.690871023977072127e+02
1.631959030986817050e+00 4.691119513979933799e+02
1.632059052991658099e+00 4.691368279352192303e+02
1.632159074996498926e+00 4.691617319402429302e+02
1.632259097001340198e+00 4.691866633413438876e+02
1.632359119006181247e+00 4.692116220642262192e+02
1.632459141011022297e+00 4.692366080320240371e+02
1.632559163015863346e+00 4.692616211653062237e+02
1.632659185020704395e+00 4.692866613820804105e+02
1.632759207025545667e+00 4.693117285977986626e+02
1.632859229030386494e+00 4.693368227253617988e+02
1.632959251035227544e+00 4.693619436751257581e+02
1.633059273040068593e+00 4.693870913549052375e+02
1.633159295044909864e+00 4.694122656699811955e+02
1.633259317049750914e+00 4.694374665231037511e+02
1.633359339054591963e+00 4.694626938145001986e+02
1.633459361059433013e+00 4.694879474418801806e+02
1.633559383064273840e+00 4.695132273004405761e+02
1.633659405069114889e+00 4.695385332828733453e+02
1.633759427073956161e+00 4.695638652793699066e+02
1.633859449078797210e+00 4.695892231776298331e+02
1.633959471083638260e+00 4.696146068628636954e+02
1.634059493088479531e+00 4.696400162178036339e+02
1.634159515093320580e+00 4.696654511227072817e+02
1.634259537098161408e+00 4.696909114553668587e+02
1.634359559103002457e+00 4.697163970911133788e+02
1.634459581107843507e+00 4.697419079028260285e+02
1.634559603112684556e+00 4.697674437609387610e+02
1.634659625117525827e+00 4.697930045334470606e+02
1.634759647122366877e+00 4.698185900859156163e+02
1.634859669127207926e+00 4.698442002814870193e+02
1.634959691132048754e+00 4.698698349808880721e+02
1.635059713136890025e+00 4.698954940424385995e+02
1.635159735141731074e+00 4.699211773220582700e+02
1.635259757146572124e+00 4.699468846732756901e+02
1.635359779151413173e+00 4.699726159472368181e+02
1.635459801156254223e+00 4.699983709927124664e+02
1.635559823161095494e+00 4.700241496561071699e+02
1.635659845165936321e+00 4.700499517814672572e+02
1.635759867170777371e+00 4.700757772104906280e+02
1.635859889175618420e+00 4.701016257825347111e+02
1.635959911180459692e+00 4.701274973346254455e+02
1.636059933185300741e+00 4.701533917014664894e+02
1.636159955190141790e+00 4.701793087154491673e+02
1.636259977194982840e+00 4.702052482066596895e+02
1.636359999199823667e+00 4.702312100028908617e+02
1.636460021204664717e+00 4.702571939296503274e+02
1.636560043209505988e+00 4.702831998101697195e+02
1.636660065214347037e+00 4.703092274654167682e+02
1.636760087219188087e+00 4.703352767141022923e+02
1.636860109224029358e+00 4.703613473726917391e+02
1.636960131228870408e+00 4.703874392554149040e+02
1.637060153233711235e+00 4.704135521742769583e+02
1.637160175238552284e+00 4.704396859390673740e+02
1.637260197243393334e+00 4.704658403573706664e+02
1.637360219248234383e+00 4.704920152345780480e+02
1.637460241253075655e+00 4.705182103738974888e+02
1.637560263257916704e+00 4.705444255763634374e+02
1.637660285262757753e+00 4.705706606408492689e+02
1.637760307267598581e+00 4.705969153640780860e+02
1.637860329272439852e+00 4.706231895406308467e+02
1.637960351277280902e+00 4.706494829629635319e+02
1.638060373282121951e+00 4.706757954214131701e+02
1.638160395286963000e+00 4.707021267042108548e+02
1.638260417291804050e+00 4.707284765974935112e+02
1.638360439296645321e+00 4.707548448853160039e+02
1.638460461301486148e+00 4.707812313496622778e+02
1.638560483306327198e+00 4.708076357704570682e+02
1.638660505311168247e+00 4.708340579255774401e+02
1.638760527316009519e+00 4.708604975908675669e+02
1.638860549320850568e+00 4.708869545401455525e+02
1.638960571325691618e+00 4.709134285452216773e+02
1.639060593330532667e+00 4.709399193759066407e+02
1.639160615335373494e+00 4.709664268000257721e+02
1.639260637340214544e+00 4.709929505834308543e+02
1.639360659345055815e+00 4.710194904900126858e+02
1.639460681349896864e+00 4.710460462817155758e+02
1.639560703354737914e+00 4.710726177185471784e+02
1.639660725359579185e+00 4.710992045585942378e+02
1.639760747364420235e+00 4.711258065580342418e+02
1.639860769369261062e+00 4.711524234711487225e+02
1.639960791374102111e+00 4.711790550503362738e+02
