1.400008001760387089e+00 4.811099689722208836e+02
1.400108023765228360e+00 4.811001630692057347e+02
1.400208045770069409e+00 4.810904729477057344e+02
1.400308067774910459e+00 4.810808994461185080e+02
1.400408089779751286e+00 4.810714433994535852e+02
1.400508111784592558e+00 4.810621056392965329e+02
1.400608133789433607e+00 4.810528869937737682e+02
1.400708155794274656e+00 4.810437882875160085e+02
1.400808177799115706e+00 4.810348103416248478e+02
1.400908199803956755e+00 4.810259539736352963e+02
1.401008221808798027e+00 4.810172199974830392e+02
1.401108243813638854e+00 4.810086092234665784e+02
1.401208265818479903e+00 4.810001224582156283e+02
1.401308287823320953e+00 4.809917605046532572e+02
1.401408309828162224e+00 4.809835241619621229e+02
1.401508331833003274e+00 4.809754142255515603e+02
1.401608353837844323e+00 4.809674314870201783e+02
1.401708375842685372e+00 4.809595767341236296e+02
1.401808397847526200e+00 4.809518507507394816e+02
1.401908419852367249e+00 4.809442543168335078e+02
1.402008441857208521e+00 4.809367882084236498e+02
1.402108463862049570e+00 4.809294531975505151e+02
1.402208485866890619e+00 4.809222500522378141e+02
1.402308507871731891e+00 4.809151795364639383e+02
1.402408529876572940e+00 4.809082424101233642e+02
1.402508551881413768e+00 4.809014394289985148e+02
1.402608573886254817e+00 4.808947713447219030e+02
1.402708595891095866e+00 4.808882389047450374e+02
1.402808617895936916e+00 4.808818428523049420e+02
1.402908639900778187e+00 4.808755839263911298e+02
1.403008661905619237e+00 4.808694628617128046e+02
1.403108683910460286e+00 4.808634803886662326e+02
1.403208705915301113e+00 4.808576372333017730e+02
1.403308727920142385e+00 4.808519341172914778e+02
1.403408749924983434e+00 4.808463717578974865e+02
1.403508771929824483e+00 4.808409508679382043e+02
1.403608793934665533e+00 4.808356721557582887e+02
1.403708815939506582e+00 4.808305363251951121e+02
1.403808837944347410e+00 4.808255440755477252e+02
1.403908859949188681e+00 4.808206961015449679e+02
1.404008881954029730e+00 4.808159930933138639e+02
1.404108903958870780e+00 4.808114357363479598e+02
1.404208925963712051e+00 4.808070247114781637e+02
1.404308947968553101e+00 4.808027606948373318e+02
1.404408969973394150e+00 4.807986443578338367e+02
1.404508991978234977e+00 4.807946763671183703e+02
1.404609013983076027e+00 4.807908573845534193e+02
1.404709035987917076e+00 4.807871880671839335e+02
1.404809057992758348e+00 4.807836690672052100e+02
1.404909079997599397e+00 4.807803010319337318e+02
1.405009102002440446e+00 4.807770846037774390e+02
1.405109124007281718e+00 4.807740204202050336e+02
1.405209146012122545e+00 4.807711091137161930e+02
1.405309168016963595e+00 4.807683513118133760e+02
1.405409190021804644e+00 4.807657476369702181e+02
1.405509212026645693e+00 4.807632987066035639e+02
1.405609234031486743e+00 4.807610051330447050e+02
1.405709256036328014e+00 4.807588675235089681e+02
1.405809278041169064e+00 4.807568864800682604e+02
1.405909300046009891e+00 4.807550625996216240e+02
1.406009322050850940e+00 4.807533964738675536e+02
1.406109344055692212e+00 4.807518886892745513e+02
1.406209366060533261e+00 4.807505398270537285e+02
1.406309388065374311e+00 4.807493504631308952e+02
1.406409410070215360e+00 4.807483211681180819e+02
1.406509432075056409e+00 4.807474525072864253e+02
1.406609454079897237e+00 4.807467450405398495e+02
1.406709476084738508e+00 4.807461993223843137e+02
1.406809498089579558e+00 4.807458159019042796e+02
1.406909520094420607e+00 4.807455953227334930e+02
1.407009542099261878e+00 4.807455381230301441e+02
1.407109564104102928e+00 4.807456448354482745e+02
1.407209586108943977e+00 4.807459159871119709e+02
1.407309608113784805e+00 4.807463520995895010e+02
1.407409630118625854e+00 4.807469536888671087e+02
1.407509652123466903e+00 4.807477212653242304e+02
1.407609674128308175e+00 4.807486553337043347e+02
1.407709696133149224e+00 4.807497563930932074e+02
1.407809718137990274e+00 4.807510249368912127e+02
1.407909740142831545e+00 4.807524614527895892e+02
1.408009762147672372e+00 4.807540664227444722e+02
1.408109784152513422e+00 4.807558403229523947e+02
1.408209806157354471e+00 4.807577836238255031e+02
1.408309828162195521e+00 4.807598967899677973e+02
1.408409850167036570e+00 4.807621802801495505e+02
1.408509872171877841e+00 4.807646345472857661e+02
1.408609894176718891e+00 4.807672600384084376e+02
1.408709916181559718e+00 4.807700571946470518e+02
1.408809938186400768e+00 4.807730264512014173e+02
1.408909960191242039e+00 4.807761682373221106e+02
1.409009982196083088e+00 4.807794829762834752e+02
1.409110004200924138e+00 4.807829710853640108e+02
1.409210026205765187e+00 4.807866329758221013e+02
1.409310048210606237e+00 4.807904690528732203e+02
1.409410070215447064e+00 4.807944797156685581e+02
1.409510092220288335e+00 4.807986653572724549e+02
1.409610114225129385e+00 4.808030263646406866e+02
1.409710136229970434e+00 4.808075631185987504e+02
1.409810158234811706e+00 4.808122759938198101e+02
1.409910180239652755e+00 4.808171653588044023e+02
1.410010202244493804e+00 4.808222315758584386e+02
1.410110224249334632e+00 4.808274750010733101e+02
1.410210246254175681e+00 4.808328959843037183e+02
1.410310268259016730e+00 4.808384948691488603e+02
1.410410290263858002e+00 4.808442719929313398e+02
1.410510312268699051e+00 4.808502276866767033e+02
1.410610334273540101e+00 4.808563622750945115e+02
1.410710356278381372e+00 4.808626760765583867e+02
1.410810378283222200e+00 4.808691694030856638e+02
1.410910400288063249e+00 4.808758425603199385e+02
1.411010422292904298e+00 4.808826958475110018e+02
1.411110444297745348e+00 4.808897295574953432e+02
1.411210466302586397e+00 4.808969439766793812e+02
1.411310488307427669e+00 4.809043393850199095e+02
1.411410510312268718e+00 4.809119160560056230e+02
1.411510532317109545e+00 4.809196742566403486e+02
1.411610554321950595e+00 4.809276142474253675e+02
1.411710576326791866e+00 4.809357362823386666e+02
1.411810598331632916e+00 4.809440406088239115e+02
1.411910620336473965e+00 4.809525274677675952e+02
1.412010642341315014e+00 4.809611970934845999e+02
1.412110664346156064e+00 4.809700497137020534e+02
1.412210686350996891e+00 4.809790855495417645e+02
1.412310708355838162e+00 4.809883048155048755e+02
1.412410730360679212e+00 4.809977077194552635e+02
1.412510752365520261e+00 4.810072944626049321e+02
1.412610774370361533e+00 4.810170652394970148e+02
1.412710796375202582e+00 4.810270202379917350e+02
1.412810818380043631e+00 4.810371596392508309e+02
1.412910840384884459e+00 4.810474836177222642e+02
1.413010862389725508e+00 4.810579923411277150e+02
1.413110884394566558e+00 4.810686859704450740e+02
1.413210906399407829e+00 4.810795646598966187e+02
1.413310928404248878e+00 4.810906285569350302e+02
1.413410950409089928e+00 4.811018778022279321e+02
1.413510972413931199e+00 4.811133125296459525e+02
1.413610994418772027e+00 4.811249328662509015e+02
1.413711016423613076e+00 4.811367389322784334e+02
1.413811038428454125e+00 4.811487308411304298e+02
1.413911060433295175e+00 4.811609086993584583e+02
1.414011082438136224e+00 4.811732726066538817e+02
1.414111104442977496e+00 4.811858226558349543e+02
1.414211126447818545e+00 4.811985589328344304e+02
1.414311148452659372e+00 4.812114815166891049e+02
1.414411170457500422e+00 4.812245904795289562e+02
1.414511192462341693e+00 4.812378858865637312e+02
1.414611214467182743e+00 4.812513677960745895e+02
1.414711236472023792e+00 4.812650362594004037e+02
1.414811258476864841e+00 4.812788913209328712e+02
1.414911280481705891e+00 4.812929330180991201e+02
1.415011302486546718e+00 4.813071613813581280e+02
1.415111324491387990e+00 4.813215764341873637e+02
1.415211346496229039e+00 4.813361781930740335e+02
1.415311368501070088e+00 4.813509666675072936e+02
1.415411390505911360e+00 4.813659418599683022e+02
1.415511412510752409e+00 4.813811037659204430e+02
1.415611434515593459e+00 4.813964523738032426e+02
1.415711456520434286e+00 4.814119876650218544e+02
1.415811478525275335e+00 4.814277096139405785e+02
1.415911500530116385e+00 4.814436181878753587e+02
1.416011522534957656e+00 4.814597133470840618e+02
1.416111544539798706e+00 4.814759950447617030e+02
1.416211566544639755e+00 4.814924632270328289e+02
1.416311588549481026e+00 4.815091178329432182e+02
1.416411610554321854e+00 4.815259587944558461e+02
1.416511632559162903e+00 4.815429860364422439e+02
1.416611654564003953e+00 4.815601994766793155e+02
1.416711676568845002e+00 4.815775990258393335e+02
1.416811698573686051e+00 4.815951845874892001e+02
1.416911720578527323e+00 4.816129560580821476e+02
1.417011742583368372e+00 4.816309133269529639e+02
1.417111764588209200e+00 4.816490562763137291e+02
1.417211786593050249e+00 4.816673847812501208e+02
1.417311808597891520e+00 4.816858987097156160e+02
1.417411830602732570e+00 4.817045979225284782e+02
1.417511852607573619e+00 4.817234822733667556e+02
1.417611874612414669e+00 4.817425516087667461e+02
1.417711896617255718e+00 4.817618057681177675e+02
1.417811918622096545e+00 4.817812445836602819e+02
1.417911940626937817e+00 4.818008678804822011e+02
1.418011962631778866e+00 4.818206754765175788e+02
1.418111984636619916e+00 4.818406671825426884e+02
1.418212006641461187e+00 4.818608428021759664e+02
1.418312028646302236e+00 4.818812021318748293e+02
1.418412050651143286e+00 4.819017449609336268e+02
1.418512072655984113e+00 4.819224710714845514e+02
1.418612094660825163e+00 4.819433802384942283e+02
1.418712116665666212e+00 4.819644722297644535e+02
1.418812138670507483e+00 4.819857468059306598e+02
1.418912160675348533e+00 4.820072037204627122e+02
1.419012182680189582e+00 4.820288427196646808e+02
1.419112204685030854e+00 4.820506635426734761e+02
1.419212226689871681e+00 4.820726659214618621e+02
1.419312248694712730e+00 4.820948495808366943e+02
1.419412270699553780e+00 4.821172142384425570e+02
1.419512292704394829e+00 4.821397596047600587e+02
1.419612314709235878e+00 4.821624853831095834e+02
1.419712336714077150e+00 4.821853912696525413e+02
1.419812358718918199e+00 4.822084769533919371e+02
1.419912380723759027e+00 4.822317421161771449e+02
1.420012402728600076e+00 4.822551864327045905e+02
1.420112424733441348e+00 4.822788095705201385e+02
1.420212446738282397e+00 4.823026111900244928e+02
1.420312468743123446e+00 4.823265909444730255e+02
1.420412490747964496e+00 4.823507484799827694e+02
1.420512512752805545e+00 4.823750834355338384e+02
1.420612534757646372e+00 4.823995954429742028e+02
1.420712556762487644e+00 4.824242841270240660e+02
1.420812578767328693e+00 4.824491491052805259e+02
1.420912600772169743e+00 4.824741899882214966e+02
1.421012622777011014e+00 4.824994063792120187e+02
1.421112644781852064e+00 4.825247978745088062e+02
1.421212666786692891e+00 4.825503640632649649e+02
1.421312688791533940e+00 4.825761045275384618e+02
1.421412710796374990e+00 4.826020188422951378e+02
1.421512732801216039e+00 4.826281065754159840e+02
1.421612754806057310e+00 4.826543672877053837e+02
1.421712776810898360e+00 4.826808005328956028e+02
1.421812798815739409e+00 4.827074058576544076e+02
1.421912820820580237e+00 4.827341828015946135e+02
1.422012842825421508e+00 4.827611308972770985e+02
1.422112864830262557e+00 4.827882496702241042e+02
1.422212886835103607e+00 4.828155386389225328e+02
1.422312908839944656e+00 4.828429973148355430e+02
1.422412930844785706e+00 4.828706252024089736e+02
1.422512952849626977e+00 4.828984217990813477e+02
1.422612974854467804e+00 4.829263865952929677e+02
1.422712996859308854e+00 4.829545190744950105e+02
1.422813018864149903e+00 4.829828187131584514e+02
1.422913040868991175e+00 4.830112849807846942e+02
1.423013062873832224e+00 4.830399173399159736e+02
1.423113084878673273e+00 4.830687152461446203e+02
1.423213106883514323e+00 4.830976781481248281e+02
1.423313128888355150e+00 4.831268054875820326e+02
1.423413150893196200e+00 4.831560966993253032e+02
1.423513172898037471e+00 4.831855512112580300e+02
1.423613194902878520e+00 4.832151684443902013e+02
1.423713216907719570e+00 4.832449478128492046e+02
1.423813238912560841e+00 4.832748887238917064e+02
1.423913260917401891e+00 4.833049905779190567e+02
1.424013282922242718e+00 4.833352527684850202e+02
1.424113304927083767e+00 4.833656746823122603e+02
1.424213326931924817e+00 4.833962556993043336e+02
1.424313348936765866e+00 4.834269951925586497e+02
1.424413370941607138e+00 4.834578925283802278e+02
1.424513392946448187e+00 4.834889470662956796e+02
1.424613414951289236e+00 4.835201581590677620e+02
1.424713436956130064e+00 4.835515251527078817e+02
1.424813458960971335e+00 4.835830473864933765e+02
1.424913480965812385e+00 4.836147241929796792e+02
1.425013502970653434e+00 4.836465548980174276e+02
1.425113524975494483e+00 4.836785388207656524e+02
1.425213546980335533e+00 4.837106752737097963e+02
1.425313568985176804e+00 4.837429635626757545e+02
1.425413590990017632e+00 4.837754029868451084e+02
1.425513612994858681e+00 4.838079928387745667e+02
1.425613634999699730e+00 4.838407324044098914e+02
1.425713657004541002e+00 4.838736209631021552e+02
1.425813679009382051e+00 4.839066577876269548e+02
1.425913701014223101e+00 4.839398421441999290e+02
1.426013723019064150e+00 4.839731732924954599e+02
1.426113745023904977e+00 4.840066504856634424e+02
1.426213767028746027e+00 4.840402729703472460e+02
1.426313789033587298e+00 4.840740399867018482e+02
1.426413811038428348e+00 4.841079507684135024e+02
1.426513833043269397e+00 4.841420045427169043e+02
1.426613855048110668e+00 4.841762005304144623e+02
1.426713877052951718e+00 4.842105379458968741e+02
1.426813899057792545e+00 4.842450159971597259e+02
1.426913921062633595e+00 4.842796338858246941e+02
1.427013943067474644e+00 4.843143908071608621e+02
1.427113965072315693e+00 4.843492859501013754e+02
1.427213987077156965e+00 4.843843184972664062e+02
1.427314009081998014e+00 4.844194876249838444e+02
1.427414031086839064e+00 4.844547925033068054e+02
1.427514053091679891e+00 4.844902322960398919e+02
1.427614075096521162e+00 4.845258061607553941e+02
1.427714097101362212e+00 4.845615132488175618e+02
1.427814119106203261e+00 4.845973527054035230e+02
1.427914141111044311e+00 4.846333236695251117e+02
1.428014163115885360e+00 4.846694252740520028e+02
1.428114185120726631e+00 4.847056566457325744e+02
1.428214207125567459e+00 4.847420169052172128e+02
1.428314229130408508e+00 4.847785051670817325e+02
1.428414251135249557e+00 4.848151205398494312e+02
1.428514273140090829e+00 4.848518621260148507e+02
1.428614295144931878e+00 4.848887290220683326e+02
1.428714317149772928e+00 4.849257203185165963e+02
1.428814339154613977e+00 4.849628350999112172e+02
1.428914361159454804e+00 4.850000724448690903e+02
1.429014383164295854e+00 4.850374314260981805e+02
1.429114405169137125e+00 4.850749111104216809e+02
1.429214427173978175e+00 4.851125105588053543e+02
1.429314449178819224e+00 4.851502288263786227e+02
1.429414471183660496e+00 4.851880649624623629e+02
1.429514493188501545e+00 4.852260180105940321e+02
1.429614515193342372e+00 4.852640870085526217e+02
1.429714537198183422e+00 4.853022709883864536e+02
1.429814559203024471e+00 4.853405689764360886e+02
1.429914581207865520e+00 4.853789799933646805e+02
1.430014603212706792e+00 4.854175030541817932e+02
1.430114625217547841e+00 4.854561371682697200e+02
1.430214647222388891e+00 4.854948813394140075e+02
1.430314669227229718e+00 4.855337345658265349e+02
1.430414691232070989e+00 4.855726958401759248e+02
1.430514713236912039e+00 4.856117641496126112e+02
1.430614735241753088e+00 4.856509384758003307e+02
1.430714757246594138e+00 4.856902177949400539e+02
1.430814779251435187e+00 4.857296010778006803e+02
1.430914801256276458e+00 4.857690872897474037e+02
1.431014823261117286e+00 4.858086753907703610e+02
1.431114845265958335e+00 4.858483643355113486e+02
1.431214867270799385e+00 4.858881530732970191e+02
1.431314889275640656e+00 4.859280405481636080e+02
1.431414911280481705e+00 4.859680256988908695e+02
1.431514933285322755e+00 4.860081074590273715e+02
1.431614955290163804e+00 4.860482847569238061e+02
1.431714977295004632e+00 4.860885565157620931e+02
1.431814999299845681e+00 4.861289216535844844e+02
1.431915021304686952e+00 4.861693790833255662e+02
1.432015043309528002e+00 4.862099277128416475e+02
1.432115065314369051e+00 4.862505664449434448e+02
1.432215087319210323e+00 4.862912941774252999e+02
1.432315109324051372e+00 4.863321098030966709e+02
1.432415131328892199e+00 4.863730122098149309e+02
1.432515153333733249e+00 4.864140002805158929e+02
1.432615175338574298e+00 4.864550728932459833e+02
1.432715197343415348e+00 4.864962289211934490e+02
1.432815219348256619e+00 4.865374672327222356e+02
1.432915241353097668e+00 4.865787866914031952e+02
1.433015263357938718e+00 4.866201861560463726e+02
1.433115285362779545e+00 4.866616644807348280e+02
1.433215307367620817e+00 4.867032205148567527e+02
1.433315329372461866e+00 4.867448531031392918e+02
1.433415351377302915e+00 4.867865610856813419e+02
1.433515373382143965e+00 4.868283432979868053e+02
1.433615395386985014e+00 4.868701985709994915e+02
1.433715417391826286e+00 4.869121257311344948e+02
1.433815439396667113e+00 4.869541236003160520e+02
1.433915461401508162e+00 4.869961909960076127e+02
1.434015483406349212e+00 4.870383267312492990e+02
1.434115505411190483e+00 4.870805296146907040e+02
1.434215527416031533e+00 4.871227984506271014e+02
1.434315549420872582e+00 4.871651320390316755e+02
1.434415571425713631e+00 4.872075291755943454e+02
1.434515593430554459e+00 4.872499886517538812e+02
1.434615615435395508e+00 4.872925092547349095e+02
1.434715637440236780e+00 4.873350897675826445e+02
1.434815659445077829e+00 4.873777289692000636e+02
1.434915681449918878e+00 4.874204256343805923e+02
1.435015703454760150e+00 4.874631785338490886e+02
1.435115725459601199e+00 4.875059864342935043e+02
1.435215747464442027e+00 4.875488480984035959e+02
1.435315769469283076e+00 4.875917622849070767e+02
1.435415791474124125e+00 4.876347277486056555e+02
1.435515813478965175e+00 4.876777432404136334e+02
1.435615835483806446e+00 4.877208075073924647e+02
1.435715857488647496e+00 4.877639192927902627e+02
1.435815879493488545e+00 4.878070773360778389e+02
1.435915901498329372e+00 4.878502803729862762e+02
1.436015923503170644e+00 4.878935271355444456e+02
1.436115945508011693e+00 4.879368163521181145e+02
1.436215967512852743e+00 4.879801467474455308e+02
1.436315989517693792e+00 4.880235170426780655e+02
1.436416011522534841e+00 4.880669259554165365e+02
1.436516033527376113e+00 4.881103721997503726e+02
1.436616055532216940e+00 4.881538544862960407e+02
1.436716077537057989e+00 4.881973715222358692e+02
1.436816099541899039e+00 4.882409220113560195e+02
1.436916121546740310e+00 4.882845046540871863e+02
1.437016143551581360e+00 4.883281181475416020e+02
1.437116165556422409e+00 4.883717611855534528e+02
1.437216187561263459e+00 4.884154324587185556e+02
1.437316209566104286e+00 4.884591306544327267e+02
1.437416231570945335e+00 4.885028544569314590e+02
1.437516253575786607e+00 4.885466025473318155e+02
1.437616275580627656e+00 4.885903736036689224e+02
1.437716297585468705e+00 4.886341663009390004e+02
1.437816319590309977e+00 4.886779793111377899e+02
1.437916341595151026e+00 4.887218113033010241e+02
1.438016363599991854e+00 4.887656609435450150e+02
1.438116385604832903e+00 4.888095268951082062e+02
1.438216407609673952e+00 4.888534078183905081e+02
1.438316429614515002e+00 4.888973023709936001e+02
1.438416451619356273e+00 4.889412092077631087e+02
1.438516473624197323e+00 4.889851269808293068e+02
1.438616495629038150e+00 4.890290543396486669e+02
1.438716517633879199e+00 4.890729899310425708e+02
1.438816539638720471e+00 4.891169323992427280e+02
1.438916561643561520e+00 4.891608803859288628e+02
1.439016583648402570e+00 4.892048325302732792e+02
1.439116605653243619e+00 4.892487874689803675e+02
1.439216627658084668e+00 4.892927438363290094e+02
1.439316649662925496e+00 4.893367002642153238e+02
1.439416671667766767e+00 4.893806553821942202e+02
1.439516693672607817e+00 4.894246078175198704e+02
1.439616715677448866e+00 4.894685561951915815e+02
1.439716737682290137e+00 4.895124991379922790e+02
1.439816759687131187e+00 4.895564352665325600e+02
1.439916781691972236e+00 4.896003631992948613e+02
1.440016803696813064e+00 4.896442815526724530e+02
1.440116825701654113e+00 4.896881889410157100e+02
1.440216847706495162e+00 4.897320839766722997e+02
1.440316869711336434e+00 4.897759652700315200e+02
1.440416891716177483e+00 4.898198314295672162e+02
1.440516913721018533e+00 4.898636810618799018e+02
1.440616935725859804e+00 4.899075127717415512e+02
1.440716957730700631e+00 4.899513251621368681e+02
1.440816979735541681e+00 4.899951168343080781e+02
1.440917001740382730e+00 4.900388863877988683e+02
1.441017023745223780e+00 4.900826324204949742e+02
1.441117045750064829e+00 4.901263535286722117e+02
1.441217067754906100e+00 4.901700483070354153e+02
1.441317089759747150e+00 4.902137153487662431e+02
1.441417111764587977e+00 4.902573532455644454e+02
1.441517133769429027e+00 4.903009605876929982e+02
1.441617155774270298e+00 4.903445359640213610e+02
1.441717177779111347e+00 4.903880779620698149e+02
1.441817199783952397e+00 4.904315851680541982e+02
1.441917221788793446e+00 4.904750561669285958e+02
1.442017243793634496e+00 4.905184895424322349e+02
1.442117265798475323e+00 4.905618838771301284e+02
1.442217287803316594e+00 4.906052377524614485e+02
1.442317309808157644e+00 4.906485497487798284e+02
1.442417331812998693e+00 4.906918184454025322e+02
1.442517353817839965e+00 4.907350424206504158e+02
1.442617375822681014e+00 4.907782202518963004e+02
1.442717397827522063e+00 4.908213505156073779e+02
1.442817419832362891e+00 4.908644317873909699e+02
1.442917441837203940e+00 4.909074626420392065e+02
1.443017463842044990e+00 4.909504416535732503e+02
1.443117485846886261e+00 4.909933673952893400e+02
1.443217507851727310e+00 4.910362384398029576e+02
1.443317529856568360e+00 4.910790533590941891e+02
1.443417551861409631e+00 4.911218107245521196e+02
1.443517573866250459e+00 4.911645091070213311e+02
1.443617595871091508e+00 4.912071470768457857e+02
1.443717617875932557e+00 4.912497232039139021e+02
1.443817639880773607e+00 4.912922360577053951e+02
1.443917661885614656e+00 4.913346842073348171e+02
1.444017683890455928e+00 4.913770662215980565e+02
1.444117705895296977e+00 4.914193806690165616e+02
1.444217727900137804e+00 4.914616261178831564e+02
1.444317749904978854e+00 4.915038011363087662e+02
1.444417771909820125e+00 4.915459042922660728e+02
1.444517793914661175e+00 4.915879341536358993e+02
1.444617815919502224e+00 4.916298892882521159e+02
1.444717837924343273e+00 4.916717682639481382e+02
1.444817859929184323e+00 4.917135696486006964e+02
1.444917881934025150e+00 4.917552920101790050e+02
1.445017903938866421e+00 4.917969339167858038e+02
1.445117925943707471e+00 4.918384939367060724e+02
1.445217947948548520e+00 4.918799706384519368e+02
1.445317969953389792e+00 4.919213625908078029e+02
1.445417991958230841e+00 4.919626683628766841e+02
1.445518013963071891e+00 4.920038865241256190e+02
1.445618035967912718e+00 4.920450156444314871e+02
1.445718057972753767e+00 4.920860542941268818e+02
1.445818079977594817e+00 4.921270010440450733e+02
1.445918101982436088e+00 4.921678544655672454e+02
1.446018123987277137e+00 4.922086131306657535e+02
1.446118145992118187e+00 4.922492756119534647e+02
1.446218167996959458e+00 4.922898404827255376e+02
1.446318190001800286e+00 4.923303063170087626e+02
1.446418212006641335e+00 4.923706716896044213e+02
1.446518234011482384e+00 4.924109351761361495e+02
1.446618256016323434e+00 4.924510953530941606e+02
1.446718278021164483e+00 4.924911507978824261e+02
1.446818300026005755e+00 4.925311000888638659e+02
1.446918322030846804e+00 4.925709418054043454e+02
1.447018344035687631e+00 4.926106745279224697e+02
1.447118366040528681e+00 4.926502968379296590e+02
1.447218388045369952e+00 4.926898073180818756e+02
1.447318410050211002e+00 4.927292045522208923e+02
1.447418432055052051e+00 4.927684871254219843e+02
1.447518454059893100e+00 4.928076536240396308e+02
1.447618476064734150e+00 4.928467026357512282e+02
1.447718498069574977e+00 4.928856327496056338e+02
1.447818520074416249e+00 4.929244425560666514e+02
1.447918542079257298e+00 4.929631306470588470e+02
1.448018564084098347e+00 4.930016956160146151e+02
1.448118586088939619e+00 4.930401360579169818e+02
1.448218608093780668e+00 4.930784505693484334e+02
1.448318630098621718e+00 4.931166377485335488e+02
1.448418652103462545e+00 4.931546961953856680e+02
1.448518674108303594e+00 4.931926245115527081e+02
1.448618696113144644e+00 4.932304213004617850e+02
1.448718718117985915e+00 4.932680851673646316e+02
1.448818740122826965e+00 4.933056147193827883e+02
1.448918762127668014e+00 4.933430085655538733e+02
1.449018784132509285e+00 4.933802653168756365e+02
1.449118806137350113e+00 4.934173835863511499e+02
1.449218828142191162e+00 4.934543619890355899e+02
1.449318850147032212e+00 4.934911991420785853e+02
1.449418872151873261e+00 4.935278936647723071e+02
1.449518894156714310e+00 4.935644441785935896e+02
1.449618916161555582e+00 4.936008493072507690e+02
1.449718938166396631e+00 4.936371076767286468e+02
1.449818960171237459e+00 4.936732179153318611e+02
1.449918982176078508e+00 4.937091786537309872e+02
1.450019004180919779e+00 4.937449885250063062e+02
1.450119026185760829e+00 4.937806461646937350e+02
1.450219048190601878e+00 4.938161502108284253e+02
1.450319070195442928e+00 4.938514993039901242e+02
1.450419092200283977e+00 4.938866920873455229e+02
1.450519114205124804e+00 4.939217272066961755e+02
1.450619136209966076e+00 4.939566033105199949e+02
1.450719158214807125e+00 4.939913190500172959e+02
1.450819180219648175e+00 4.940258730791538824e+02
1.450919202224489446e+00 4.940602640547052715e+02
1.451019224229330495e+00 4.940944906363023392e+02
1.451119246234171545e+00 4.941285514864722472e+02
1.451219268239012372e+00 4.941624452706865895e+02
1.451319290243853422e+00 4.941961706574011259e+02
1.451419312248694471e+00 4.942297263181026210e+02
1.451519334253535742e+00 4.942631109273505103e+02
1.451619356258376792e+00 4.942963231628222616e+02
1.451719378263217841e+00 4.943293617053545859e+02
1.451819400268059113e+00 4.943622252389906180e+02
1.451919422272899940e+00 4.943949124510189108e+02
1.452019444277740989e+00 4.944274220320199333e+02
1.452119466282582039e+00 4.944597526759085895e+02
1.452219488287423088e+00 4.944919030799761686e+02
1.452319510292264138e+00 4.945238719449342284e+02
1.452419532297105409e+00 4.945556579749580237e+02
1.452519554301946458e+00 4.945872598777286839e+02
1.452619576306787286e+00 4.946186763644753910e+02
1.452719598311628335e+00 4.946499061500196035e+02
1.452819620316469607e+00 4.946809479528172346e+02
1.452919642321310656e+00 4.947118004949988972e+02
1.453019664326151705e+00 4.947424625024157194e+02
1.453119686330992755e+00 4.947729327046779417e+02
1.453219708335833804e+00 4.948032098352010166e+02
1.453319730340674631e+00 4.948332926312450581e+02
1.453419752345515903e+00 4.948631798339563375e+02
1.453519774350356952e+00 4.948928701884108250e+02
1.453619796355198002e+00 4.949223624436555156e+02
1.453719818360039273e+00 4.949516553527489009e+02
1.453819840364880323e+00 4.949807476728042275e+02
1.453919862369721372e+00 4.950096381650292301e+02
1.454019884374562199e+00 4.950383255947682528e+02
1.454119906379403249e+00 4.950668087315430057e+02
1.454219928384244298e+00 4.950950863490945153e+02
1.454319950389085569e+00 4.951231572254229150e+02
1.454419972393926619e+00 4.951510201428272921e+02
1.454519994398767668e+00 4.951786738879505947e+02
1.454620016403608940e+00 4.952061172518153285e+02
1.454720038408449767e+00 4.952333490298655079e+02
1.454820060413290816e+00 4.952603680220094589e+02
1.454920082418131866e+00 4.952871730326553461e+02
1.455020104422972915e+00 4.953137628707556246e+02
1.455120126427813965e+00 4.953401363498439878e+02
1.455220148432655236e+00 4.953662922880766928e+02
1.455320170437496285e+00 4.953922295082713845e+02
1.455420192442337113e+00 4.954179468379478521e+02
1.455520214447178162e+00 4.954434431093646936e+02
1.455620236452019434e+00 4.954687171595621180e+02
1.455720258456860483e+00 4.954937678303973598e+02
1.455820280461701532e+00 4.955185939685871404e+02
1.455920302466542582e+00 4.955431944257435362e+02
1.456020324471383409e+00 4.955675680584145084e+02
1.456120346476224459e+00 4.955917137281218174e+02
1.456220368481065730e+00 4.956156303013989373e+02
1.456320390485906779e+00 4.956393166498294249e+02
1.456420412490747829e+00 4.956627716500866541e+02
1.456520434495589100e+00 4.956859941839687167e+02
1.456620456500430150e+00 4.957089831384383274e+02
1.456720478505270977e+00 4.957317374056601693e+02
1.456820500510112026e+00 4.957542558830380699e+02
1.456920522514953076e+00 4.957765374732519490e+02
1.457020544519794125e+00 4.957985810842955630e+02
1.457120566524635397e+00 4.958203856295134528e+02
1.457220588529476446e+00 4.958419500276370400e+02
1.457320610534317495e+00 4.958632732028222563e+02
1.457420632539158323e+00 4.958843540846860378e+02
1.457520654543999594e+00 4.959051916083412266e+02
1.457620676548840644e+00 4.959257847144345419e+02
1.457720698553681693e+00 4.959461323491818803e+02
1.457820720558522742e+00 4.959662334644035582e+02
1.457920742563363792e+00 4.959860870175612604e+02
1.458020764568205063e+00 4.960056919717922597e+02
1.458120786573045891e+00 4.960250472959459103e+02
1.458220808577886940e+00 4.960441519646178108e+02
1.458320830582727989e+00 4.960630049581852745e+02
1.458420852587569261e+00 4.960816052628423449e+02
1.458520874592410310e+00 4.960999518706339586e+02
1.458620896597251360e+00 4.961180437794910176e+02
1.458720918602092409e+00 4.961358799932635861e+02
1.458820940606933236e+00 4.961534595217568153e+02
1.458920962611774286e+00 4.961707813807634579e+02
1.459020984616615557e+00 4.961878445920970080e+02
1.459121006621456607e+00 4.962046481836275689e+02
1.459221028626297656e+00 4.962211911893126626e+02
1.459321050631138927e+00 4.962374726492328136e+02
1.459421072635979977e+00 4.962534916096223583e+02
1.459521094640820804e+00 4.962692471229044031e+02
1.459621116645661854e+00 4.962847382477214637e+02
1.459721138650502903e+00 4.962999640489688886e+02
1.459821160655343952e+00 4.963149235978271463e+02
1.459921182660185224e+00 4.963296159717943965e+02
1.460021204665026273e+00 4.963440402547167878e+02
1.460121226669867323e+00 4.963581955368212562e+02
1.460221248674708150e+00 4.963720809147476984e+02
1.460321270679549421e+00 4.963856954915787014e+02
1.460421292684390471e+00 4.963990383768706920e+02
1.460521314689231520e+00 4.964121086866870201e+02
1.460621336694072570e+00 4.964249055436254139e+02
1.460721358698913619e+00 4.964374280768511767e+02
1.460821380703754890e+00 4.964496754221268020e+02
1.460921402708595718e+00 4.964616467218403386e+02
1.461021424713436767e+00 4.964733411250372797e+02
1.461121446718277817e+00 4.964847577874500075e+02
1.461221468723119088e+00 4.964958958715266135e+02
1.461321490727960137e+00 4.965067545464593195e+02
1.461421512732801187e+00 4.965173329882163102e+02
1.461521534737642236e+00 4.965276303795676540e+02
1.461621556742483063e+00 4.965376459101154296e+02
1.461721578747324113e+00 4.965473787763224891e+02
1.461821600752165384e+00 4.965568281815386626e+02
1.461921622757006434e+00 4.965659933360313971e+02
1.462021644761847483e+00 4.965748734570113356e+02
1.462121666766688755e+00 4.965834677686620466e+02
1.462221688771529804e+00 4.965917755021649214e+02
1.462321710776370631e+00 4.965997958957283913e+02
1.462421732781211681e+00 4.966075281946131668e+02
1.462521754786052730e+00 4.966149716511608858e+02
1.462621776790893779e+00 4.966221255248181592e+02
1.462721798795735051e+00 4.966289890821655604e+02
1.462821820800576100e+00 4.966355615969409882e+02
1.462921842805417150e+00 4.966418423500675203e+02
1.463021864810257977e+00 4.966478306296781966e+02
1.463121886815099248e+00 4.966535257311412579e+02
1.463221908819940298e+00 4.966589269570850433e+02
1.463321930824781347e+00 4.966640336174244226e+02
1.463421952829622397e+00 4.966688450293827373e+02
1.463521974834463446e+00 4.966733605175201660e+02
1.463621996839304717e+00 4.966775794137534490e+02
1.463722018844145545e+00 4.966815010573837981e+02
1.463822040848986594e+00 4.966851247951182131e+02
1.463922062853827644e+00 4.966884499810935267e+02
1.464022084858668915e+00 4.966914759769007901e+02
1.464122106863509964e+00 4.966942021516073851e+02
1.464222128868351014e+00 4.966966278817802731e+02
1.464322150873192063e+00 4.966987525515077095e+02
1.464422172878032891e+00 4.967005755524224355e+02
1.464522194882873940e+00 4.967020962837242450e+02
1.464622216887715211e+00 4.967033141522011874e+02
1.464722238892556261e+00 4.967042285722509405e+02
1.464822260897397310e+00 4.967048389659034910e+02
1.464922282902238582e+00 4.967051447628404048e+02
1.465022304907079631e+00 4.967051454004181323e+02
1.465122326911920458e+00 4.967048403236854028e+02
1.465222348916761508e+00 4.967042289854088040e+02
1.465322370921602557e+00 4.967033108460872199e+02
1.465422392926443607e+00 4.967020853739758195e+02
1.465522414931284878e+00 4.967005520451047005e+02
1.465622436936125927e+00 4.966987103432971367e+02
1.465722458940966977e+00 4.966965597601908371e+02
1.465822480945807804e+00 4.966940997952553971e+02
1.465922502950649076e+00 4.966913299558126482e+02
1.466022524955490125e+00 4.966882497570523469e+02
1.466122546960331174e+00 4.966848587220545141e+02
1.466222568965172224e+00 4.966811563818037030e+02
1.466322590970013273e+00 4.966771422752084959e+02
1.466422612974854545e+00 4.966728159491190127e+02
1.466522634979695372e+00 4.966681769583439632e+02
1.466622656984536421e+00 4.966632248656674165e+02
1.466722678989377471e+00 4.966579592418663083e+02
1.466822700994218742e+00 4.966523796657257890e+02
1.466922722999059792e+00 4.966464857240561628e+02
1.467022745003900841e+00 4.966402770117095997e+02
1.467122767008741890e+00 4.966337531315949150e+02
1.467222789013582718e+00 4.966269136946933145e+02
1.467322811018423767e+00 4.966197583200732879e+02
1.467422833023265039e+00 4.966122866349053311e+02
1.467522855028106088e+00 4.966044982744793970e+02
1.467622877032947137e+00 4.965963928822153548e+02
1.467722899037788409e+00 4.965879701096804979e+02
1.467822921042629458e+00 4.965792296166010829e+02
1.467922943047470286e+00 4.965701710708769383e+02
1.468022965052311335e+00 4.965607941485969263e+02
1.468122987057152384e+00 4.965510985340483785e+02
1.468223009061993434e+00 4.965410839197329551e+02
1.468323031066834705e+00 4.965307500063771045e+02
1.468423053071675755e+00 4.965200965029479221e+02
1.468523075076516804e+00 4.965091231266605973e+02
1.468623097081357631e+00 4.964978296029951252e+02
1.468723119086198903e+00 4.964862156657029573e+02
1.468823141091039952e+00 4.964742810568232017e+02
1.468923163095881002e+00 4.964620255266902973e+02
1.469023185100722051e+00 4.964494488339469740e+02
1.469123207105563100e+00 4.964365507455527222e+02
1.469223229110404372e+00 4.964233310367968102e+02
1.469323251115245199e+00 4.964097894913053324e+02
1.469423273120086249e+00 4.963959259010533174e+02
1.469523295124927298e+00 4.963817400663745616e+02
1.469623317129768569e+00 4.963672317959671432e+02
1.469723339134609619e+00 4.963524009069072349e+02
1.469823361139450668e+00 4.963372472246550160e+02
1.469923383144291718e+00 4.963217705830628574e+02
1.470023405149132545e+00 4.963059708243864065e+02
1.470123427153973594e+00 4.962898477992887365e+02
1.470223449158814866e+00 4.962734013668508055e+02
1.470323471163655915e+00 4.962566313945771981e+02
1.470423493168496965e+00 4.962395377584052767e+02
1.470523515173338236e+00 4.962221203427086493e+02
1.470623537178179285e+00 4.962043790403077423e+02
1.470723559183020113e+00 4.961863137524733247e+02
1.470823581187861162e+00 4.961679243889325903e+02
1.470923603192702211e+00 4.961492108678776844e+02
1.471023625197543261e+00 4.961301731159683186e+02
1.471123647202384532e+00 4.961108110683381938e+02
1.471223669207225582e+00 4.960911246685994911e+02
1.471323691212066631e+00 4.960711138688485562e+02
1.471423713216907458e+00 4.960507786296695940e+02
1.471523735221748730e+00 4.960301189201388752e+02
1.471623757226589779e+00 4.960091347178288856e+02
1.471723779231430829e+00 4.959878260088115667e+02
1.471823801236271878e+00 4.959661927876625214e+02
1.471923823241112927e+00 4.959442350574627199e+02
1.472023845245954199e+00 4.959219528298033310e+02
1.472123867250795026e+00 4.958993461247864616e+02
1.472223889255636076e+00 4.958764149710277707e+02
1.472323911260477125e+00 4.958531594056593121e+02
1.472423933265318396e+00 4.958295794743307852e+02
1.472523955270159446e+00 4.958056752312113531e+02
1.472623977275000495e+00 4.957814467389905531e+02
1.472723999279841545e+00 4.957568940688770454e+02
1.472824021284682372e+00 4.957320173006048663e+02
1.472924043289523421e+00 4.957068165224285394e+02
1.473024065294364693e+00 4.956812918311247813e+02
1.473124087299205742e+00 4.956554433319934674e+02
1.473224109304046792e+00 4.956292711388559269e+02
1.473324131308888063e+00 4.956027753740552271e+02
1.473424153313728890e+00 4.955759561684542973e+02
1.473524175318569940e+00 4.955488136614348491e+02
1.473624197323410989e+00 4.955213480008974329e+02
1.473724219328252039e+00 4.954935593432564360e+02
1.473824241333093088e+00 4.954654478534414466e+02
1.473924263337934359e+00 4.954370137048931042e+02
1.474024285342775409e+00 4.954082570795611105e+02
1.474124307347616236e+00 4.953791781679004202e+02
1.474224329352457286e+00 4.953497771688697640e+02
1.474324351357298557e+00 4.953200542899269294e+02
1.474424373362139606e+00 4.952900097470251239e+02
1.474524395366980656e+00 4.952596437646109280e+02
1.474624417371821705e+00 4.952289565756167349e+02
1.474724439376662755e+00 4.951979484214597278e+02
1.474824461381503582e+00 4.951666195520346037e+02
1.474924483386344853e+00 4.951349702257097647e+02
1.475024505391185903e+00 4.951030007093222594e+02
1.475124527396026952e+00 4.950707112781715296e+02
1.475224549400868224e+00 4.950381022160138400e+02
1.475324571405709273e+00 4.950051738150554570e+02
1.475424593410550322e+00 4.949719263759487831e+02
1.475524615415391150e+00 4.949383602077827504e+02
1.475624637420232199e+00 4.949044756280775914e+02
1.475724659425073249e+00 4.948702729627766530e+02
1.475824681429914520e+00 4.948357525462407125e+02
1.475924703434755569e+00 4.948009147212384846e+02
1.476024725439596619e+00 4.947657598389393456e+02
1.476124747444437890e+00 4.947302882589056026e+02
1.476224769449278718e+00 4.946945003490829436e+02
1.476324791454119767e+00 4.946583964857921956e+02
1.476424813458960816e+00 4.946219770537218210e+02
1.476524835463801866e+00 4.945852424459147301e+02
1.476624857468642915e+00 4.945481930637637902e+02
1.476724879473484187e+00 4.945108293169965918e+02
1.476824901478325236e+00 4.944731516236711855e+02
1.476924923483166063e+00 4.944351604101601652e+02
1.477024945488007113e+00 4.943968561111443591e+02
1.477124967492848384e+00 4.943582391695985621e+02
1.477224989497689434e+00 4.943193100367842021e+02
1.477325011502530483e+00 4.942800691722338797e+02
1.477425033507371532e+00 4.942405170437422726e+02
1.477525055512212582e+00 4.942006541273541416e+02
1.477625077517053409e+00 4.941604809073501769e+02
1.477725099521894681e+00 4.941199978762367664e+02
1.477825121526735730e+00 4.940792055347331484e+02
1.477925143531576779e+00 4.940381043917565194e+02
1.478025165536418051e+00 4.939966949644102669e+02
1.478125187541259100e+00 4.939549777779712372e+02
1.478225209546100150e+00 4.939129533658729656e+02
1.478325231550940977e+00 4.938706222696966961e+02
1.478425253555782026e+00 4.938279850391508035e+02
1.478525275560623076e+00 4.937850422320623238e+02
1.478625297565464347e+00 4.937417944143572868e+02
1.478725319570305397e+00 4.936982421600494035e+02
1.478825341575146446e+00 4.936543860512228434e+02
1.478925363579987717e+00 4.936102266780166019e+02
1.479025385584828545e+00 4.935657646386096076e+02
1.479125407589669594e+00 4.935210005392037829e+02
1.479225429594510643e+00 4.934759349940088100e+02
1.479325451599351693e+00 4.934305686252241685e+02
1.479425473604192742e+00 4.933849020630240716e+02
1.479525495609034014e+00 4.933389359455383101e+02
1.479625517613875063e+00 4.932926709188368477e+02
1.479725539618715890e+00 4.932461076369106650e+02
1.479825561623556940e+00 4.931992467616557860e+02
1.479925583628398211e+00 4.931520889628535542e+02
1.480025605633239261e+00 4.931046349181526125e+02
1.480125627638080310e+00 4.930568853130511116e+02
1.480225649642921359e+00 4.930088408408773830e+02
1.480325671647762409e+00 4.929605022027706127e+02
1.480425693652603236e+00 4.929118701076617981e+02
1.480525715657444508e+00 4.928629452722546489e+02
1.480625737662285557e+00 4.928137284210048961e+02
1.480725759667126606e+00 4.927642202861010219e+02
1.480825781671967878e+00 4.927144216074441943e+02
1.480925803676808927e+00 4.926643331326251882e+02
1.481025825681649977e+00 4.926139556169088110e+02
1.481125847686490804e+00 4.925632898232062757e+02
1.481225869691331853e+00 4.925123365220600817e+02
1.481325891696172903e+00 4.924610964916185480e+02
1.481425913701014174e+00 4.924095705176152364e+02
1.481525935705855224e+00 4.923577593933476351e+02
1.481625957710696273e+00 4.923056639196543074e+02
1.481725979715537544e+00 4.922532849048926664e+02
1.481826001720378372e+00 4.922006231649148731e+02
1.481926023725219421e+00 4.921476795230479411e+02
1.482026045730060471e+00 4.920944548100684415e+02
1.482126067734901520e+00 4.920409498641782875e+02
1.482226089739742569e+00 4.919871655309838161e+02
1.482326111744583841e+00 4.919331026634696968e+02
1.482426133749424890e+00 4.918787621219759103e+02
1.482526155754265718e+00 4.918241447741722254e+02
1.482626177759106767e+00 4.917692514950356895e+02
1.482726199763948038e+00 4.917140831668242527e+02
1.482826221768789088e+00 4.916586406790523256e+02
1.482926243773630137e+00 4.916029249284644038e+02
1.483026265778471187e+00 4.915469368190121031e+02
1.483126287783312236e+00 4.914906772618262494e+02
1.483226309788153063e+00 4.914341471751916970e+02
1.483326331792994335e+00 4.913773474845214082e+02
1.483426353797835384e+00 4.913202791223297368e+02
1.483526375802676434e+00 4.912629430282053704e+02
1.483626397807517705e+00 4.912053401487866040e+02
1.483726419812358754e+00 4.911474714377316104e+02
1.483826441817199804e+00 4.910893378556928610e+02
1.483926463822040631e+00 4.910309403702896134e+02
1.484026485826881681e+00 4.909722799560790349e+02
1.484126507831722730e+00 4.909133575945296570e+02
1.484226529836564001e+00 4.908541742739931806e+02
1.484326551841405051e+00 4.907947309896747470e+02
1.484426573846246100e+00 4.907350287436056533e+02
1.484526595851087372e+00 4.906750685446154421e+02
1.484626617855928199e+00 4.906148514082992733e+02
1.484726639860769248e+00 4.905543783569947891e+02
1.484826661865610298e+00 4.904936504197455065e+02
1.484926683870451347e+00 4.904326686322780233e+02
1.485026705875292397e+00 4.903714340369674005e+02
1.485126727880133668e+00 4.903099476828091383e+02
1.485226749884974717e+00 4.902482106253893335e+02
1.485326771889815545e+00 4.901862239268522217e+02
1.485426793894656594e+00 4.901239886558730632e+02
1.485526815899497866e+00 4.900615058876234116e+02
1.485626837904338915e+00 4.899987767037428625e+02
1.485726859909179964e+00 4.899358021923067099e+02
1.485826881914021014e+00 4.898725834477937724e+02
1.485926903918862063e+00 4.898091215710569486e+02
1.486026925923702890e+00 4.897454176692901910e+02
1.486126947928544162e+00 4.896814728559945138e+02
1.486226969933385211e+00 4.896172882509496276e+02
1.486326991938226261e+00 4.895528649801786969e+02
1.486427013943067532e+00 4.894882041759171898e+02
1.486527035947908582e+00 4.894233069765784307e+02
1.486627057952749631e+00 4.893581745267226779e+02
1.486727079957590458e+00 4.892928079770233580e+02
1.486827101962431508e+00 4.892272084842318804e+02
1.486927123967272557e+00 4.891613772111466005e+02
1.487027145972113829e+00 4.890953153265773494e+02
1.487127167976954878e+00 4.890290240053128628e+02
1.487227189981795927e+00 4.889625044280858219e+02
1.487327211986637199e+00 4.888957577815382933e+02
1.487427233991478026e+00 4.888287852581876791e+02
1.487527255996319075e+00 4.887615880563929522e+02
1.487627278001160125e+00 4.886941673803182198e+02
1.487727300006001174e+00 4.886265244398991854e+02
1.487827322010842224e+00 4.885586604508058599e+02
1.487927344015683495e+00 4.884905766344101039e+02
1.488027366020524545e+00 4.884222742177481109e+02
1.488127388025365372e+00 4.883537544334844824e+02
1.488227410030206421e+00 4.882850185198783493e+02
1.488327432035047693e+00 4.882160677207447179e+02
1.488427454039888742e+00 4.881469032854205921e+02
1.488527476044729791e+00 4.880775264687270010e+02
1.488627498049570841e+00 4.880079385309338704e+02
1.488727520054411890e+00 4.879381407377205164e+02
1.488827542059252718e+00 4.878681343601431308e+02
1.488927564064093989e+00 4.877979206745935130e+02
1.489027586068935038e+00 4.877275009627645090e+02
1.489127608073776088e+00 4.876568765116114719e+02
1.489227630078617359e+00 4.875860486133152563e+02
1.489327652083458409e+00 4.875150185652446453e+02
1.489427674088299458e+00 4.874437876699169010e+02
1.489527696093140285e+00 4.873723572349624646e+02
1.489627718097981335e+00 4.873007285730857348e+02
1.489727740102822384e+00 4.872289030020244809e+02
1.489827762107663656e+00 4.871568818445148850e+02
1.489927784112504705e+00 4.870846664282514098e+02
1.490027806117345754e+00 4.870122580858475771e+02
1.490127828122187026e+00 4.869396581547969731e+02
1.490227850127027853e+00 4.868668679774365273e+02
1.490327872131868903e+00 4.867938889009040508e+02
1.490427894136709952e+00 4.867207222771006627e+02
1.490527916141551001e+00 4.866473694626511133e+02
1.490627938146392051e+00 4.865738318188641642e+02
1.490727960151233322e+00 4.865001107116936510e+02
1.490827982156074150e+00 4.864262075116960204e+02
1.490928004160915199e+00 4.863521235939925873e+02
1.491028026165756248e+00 4.862778603382301412e+02
1.491128048170597520e+00 4.862034191285371776e+02
1.491228070175438569e+00 4.861288013534868355e+02
1.491328092180279619e+00 4.860540084060543791e+02
1.491428114185120668e+00 4.859790416835783731e+02
1.491528136189961495e+00 4.859039025877168569e+02
1.491628158194802545e+00 4.858285925244090890e+02
1.491728180199643816e+00 4.857531129038347899e+02
1.491828202204484866e+00 4.856774651403691223e+02
1.491928224209325915e+00 4.856016506525456862e+02
1.492028246214167186e+00 4.855256708630134881e+02
1.492128268219008236e+00 4.854495271984944225e+02
1.492228290223849063e+00 4.853732210897423442e+02
1.492328312228690113e+00 4.852967539715019711e+02
1.492428334233531162e+00 4.852201272824657394e+02
1.492528356238372211e+00 4.851433424652333315e+02
1.492628378243213483e+00 4.850664009662667695e+02
1.492728400248054532e+00 4.849893042358512503e+02
1.492828422252895582e+00 4.849120537280512622e+02
1.492928444257736409e+00 4.848346509006677820e+02
1.493028466262577680e+00 4.847570972151972910e+02
1.493128488267418730e+00 4.846793941367859020e+02
1.493228510272259779e+00 4.846015431341908197e+02
1.493328532277100829e+00 4.845235456797344114e+02
1.493428554281941878e+00 4.844454032492614601e+02
1.493528576286783149e+00 4.843671173220977266e+02
1.493628598291623977e+00 4.842886893810052698e+02
1.493728620296465026e+00 4.842101209121389047e+02
1.493828642301306076e+00 4.841314134050043663e+02
1.493928664306147347e+00 4.840525683524136866e+02
1.494028686310988396e+00 4.839735872504418239e+02
1.494128708315829446e+00 4.838944715983824381e+02
1.494228730320670495e+00 4.838152228987062244e+02
1.494328752325511322e+00 4.837358426570135066e+02
1.494428774330352372e+00 4.836563323819939910e+02
1.494528796335193643e+00 4.835766935853804966e+02
1.494628818340034693e+00 4.834969277819056401e+02
1.494728840344875742e+00 4.834170364892568159e+02
1.494828862349717014e+00 4.833370212280336773e+02
1.494928884354558063e+00 4.832568835217016954e+02
1.495028906359398890e+00 4.831766248965487307e+02
1.495128928364239940e+00 4.830962468816422870e+02
1.495228950369080989e+00 4.830157510087808532e+02
1.495328972373922038e+00 4.829351388124519531e+02
1.495428994378763310e+00 4.828544118297888303e+02
1.495529016383604359e+00 4.827735716005225299e+02
1.495629038388445409e+00 4.826926196669376168e+02
1.495729060393286236e+00 4.826115575738302255e+02
1.495829082398127508e+00 4.825303868684579811e+02
1.495929104402968557e+00 4.824491091005009480e+02
1.496029126407809606e+00 4.823677258220109252e+02
1.496129148412650656e+00 4.822862385873697804e+02
1.496229170417491705e+00 4.822046489532432929e+02
1.496329192422332977e+00 4.821229584785348266e+02
1.496429214427173804e+00 4.820411687243420147e+02
1.496529236432014853e+00 4.819592812539087845e+02
1.496629258436855903e+00 4.818772976325830086e+02
1.496729280441697174e+00 4.817952194277676199e+02
1.496829302446538223e+00 4.817130482088779218e+02
1.496929324451379273e+00 4.816307855472934421e+02
1.497029346456220322e+00 4.815484330163150730e+02
1.497129368461061150e+00 4.814659921911169249e+02
1.497229390465902199e+00 4.813834646487020450e+02
1.497329412470743470e+00 4.813008519678553512e+02
1.497429434475584520e+00 4.812181557290986120e+02
1.497529456480425569e+00 4.811353775146457110e+02
1.497629478485266841e+00 4.810525189083540454e+02
1.497729500490107890e+00 4.809695814956804725e+02
1.497829522494948717e+00 4.808865668636347550e+02
1.497929544499789767e+00 4.808034766007345979e+02
1.498029566504630816e+00 4.807203122969572746e+02
1.498129588509471866e+00 4.806370755436954596e+02
1.498229610514313137e+00 4.805537679337113559e+02
1.498329632519154186e+00 4.804703910610885487e+02
1.498429654523995236e+00 4.803869465211878378e+02
1.498529676528836063e+00 4.803034359106005127e+02
1.498629698533677335e+00 4.802198608271004332e+02
1.498729720538518384e+00 4.801362228696009424e+02
1.498829742543359433e+00 4.800525236381060381e+02
1.498929764548200483e+00 4.799687647336650684e+02
1.499029786553041532e+00 4.798849477583272574e+02
1.499129808557882804e+00 4.798010743150928761e+02
1.499229830562723631e+00 4.797171460078701557e+02
1.499329852567564680e+00 4.796331644414265725e+02
1.499429874572405730e+00 4.795491312213428614e+02
1.499529896577247001e+00 4.794650479539683374e+02
1.499629918582088051e+00 4.793809162463720668e+02
1.499729940586929100e+00 4.792967377062989272e+02
1.499829962591770149e+00 4.792125139421208928e+02
1.499929984596610977e+00 4.791282465627928104e+02
1.500030006601452026e+00 4.206113138210267834e+02
1.500130028606293298e+00 4.204797879128853992e+02
1.500230050611134347e+00 4.203482747299881908e+02
1.500330072615975396e+00 4.202167763693504412e+02
1.500430094620816668e+00 4.200852949281305655e+02
1.500530116625657717e+00 4.199538325035741195e+02
1.500630138630498545e+00 4.198223911929572409e+02
1.500730160635339594e+00 4.196909730935279299e+02
1.500830182640180643e+00 4.195595803024500583e+02
1.500930204645021693e+00 4.194282149167474927e+02
1.501030226649862964e+00 4.192968790332456024e+02
1.501130248654704014e+00 4.191655747485142456e+02
1.501230270659545063e+00 4.190343041588125175e+02
1.501330292664385890e+00 4.189030693600290647e+02
1.501430314669227162e+00 4.187718724476279704e+02
1.501530336674068211e+00 4.186407155165893528e+02
1.501630358678909261e+00 4.185096006613545683e+02
1.501730380683750310e+00 4.183785299757671510e+02
1.501830402688591359e+00 4.182475055530173904e+02
1.501930424693432631e+00 4.181165294855852608e+02
1.502030446698273458e+00 4.179856038651824974e+02
1.502130468703114508e+00 4.178547307826963788e+02
1.502230490707955557e+00 4.177239123281339630e+02
1.502330512712796828e+00 4.175931505905622885e+02
1.502430534717637878e+00 4.174624476580551686e+02
1.502530556722478927e+00 4.173318056176336768e+02
1.502630578727319977e+00 4.172012265552097006e+02
1.502730600732160804e+00 4.170707125555313723e+02
1.502830622737001853e+00 4.169402657021237246e+02
1.502930644741843125e+00 4.168098880772328130e+02
1.503030666746684174e+00 4.166795817617698390e+02
1.503130688751525224e+00 4.165493488352537383e+02
1.503230710756366495e+00 4.164191913757546786e+02
1.503330732761207544e+00 4.162891114598379545e+02
1.503430754766048372e+00 4.161591111625069743e+02
1.503530776770889421e+00 4.160291925571470983e+02
1.503630798775730470e+00 4.158993577154689092e+02
1.503730820780571520e+00 4.157696087074527327e+02
1.503830842785412791e+00 4.156399476012908849e+02
1.503930864790253841e+00 4.155103764633329320e+02
1.504030886795094890e+00 4.153808973580277097e+02
1.504130908799935717e+00 4.152515123478694932e+02
1.504230930804776989e+00 4.151222234933395043e+02
1.504330952809618038e+00 4.149930328528512291e+02
1.504430974814459088e+00 4.148639424826944833e+02
1.504530996819300137e+00 4.147349544369788532e+02
1.504631018824141186e+00 4.146060707675781032e+02
1.504731040828982458e+00 4.144772935240741276e+02
1.504831062833823285e+00 4.143486247537023246e+02
1.504931084838664335e+00 4.142200665012944683e+02
1.505031106843505384e+00 4.140916208092232864e+02
1.505131128848346656e+00 4.139632897173490278e+02
1.505231150853187705e+00 4.138350752629609133e+02
1.505331172858028754e+00 4.137069794807229073e+02
1.505431194862869804e+00 4.135790044026203418e+02
1.505531216867710631e+00 4.134511520579023909e+02
1.505631238872551680e+00 4.133234244730267051e+02
1.505731260877392952e+00 4.131958236716070587e+02
1.505831282882234001e+00 4.130683516743557675e+02
1.505931304887075051e+00 4.129410104990291757e+02
1.506031326891916322e+00 4.128138021603745642e+02
1.506131348896757371e+00 4.126867286700734780e+02
1.506231370901598199e+00 4.125597920366881226e+02
1.506331392906439248e+00 4.124329942656070216e+02
1.506431414911280298e+00 4.123063373589899356e+02
1.506531436916121347e+00 4.121798233157137474e+02
1.506631458920962618e+00 4.120534541313187447e+02
1.506731480925803668e+00 4.119272317979536524e+02
1.506831502930644717e+00 4.118011583043228256e+02
1.506931524935485545e+00 4.116752356356306564e+02
1.507031546940326816e+00 4.115494657735295050e+02
1.507131568945167865e+00 4.114238506960650170e+02
1.507231590950008915e+00 4.112983923776230313e+02
1.507331612954849964e+00 4.111730927888748397e+02
1.507431634959691014e+00 4.110479538967259714e+02
1.507531656964532285e+00 4.109229776642611682e+02
1.507631678969373112e+00 4.107981660506922026e+02
1.507731700974214162e+00 4.106735210113045582e+02
1.507831722979055211e+00 4.105490444974042248e+02
1.507931744983896483e+00 4.104247384562656293e+02
1.508031766988737532e+00 4.103006048310786582e+02
1.508131788993578581e+00 4.101766455608956221e+02
1.508231810998419409e+00 4.100528625805800402e+02
1.508331833003260458e+00 4.099292578207532642e+02
1.508431855008101508e+00 4.098058332077426371e+02
1.508531877012942779e+00 4.096825906635308456e+02
1.508631899017783828e+00 4.095595321057008391e+02
1.508731921022624878e+00 4.094366594473883652e+02
1.508831943027466149e+00 4.093139745972262631e+02
1.508931965032306977e+00 4.091914794592960334e+02
1.509031987037148026e+00 4.090691759330752575e+02
1.509132009041989075e+00 4.089470659133865524e+02
1.509232031046830125e+00 4.088251512903462981e+02
1.509332053051671174e+00 4.087034339493140465e+02
1.509432075056512446e+00 4.085819157708428975e+02
1.509532097061353495e+00 4.084605986306256113e+02
1.509632119066194322e+00 4.083394843994490202e+02
1.509732141071035372e+00 4.082185749431395720e+02
1.509832163075876643e+00 4.080978721225145591e+02
1.509932185080717693e+00 4.079773777933338579e+02
1.510032207085558742e+00 4.078570938062467235e+02
1.510132229090399791e+00 4.077370220067454625e+02
1.510232251095240841e+00 4.076171642351142737e+02
1.510332273100081668e+00 4.074975223263799649e+02
1.510432295104922940e+00 4.073780981102629539e+02
1.510532317109763989e+00 4.072588934111287244e+02
1.510632339114605038e+00 4.071399100479385424e+02
1.510732361119446310e+00 4.070211498342005143e+02
1.510832383124287359e+00 4.069026145779214971e+02
1.510932405129128409e+00 4.067843060815592935e+02
1.511032427133969236e+00 4.066662261419735955e+02
1.511132449138810285e+00 4.065483765503785207e+02
1.511232471143651335e+00 4.064307590922943518e+02
1.511332493148492606e+00 4.063133755475007547e+02
1.511432515153333656e+00 4.061962276899881203e+02
1.511532537158174705e+00 4.060793172879122039e+02
1.511632559163015976e+00 4.059626461035450120e+02
1.511732581167856804e+00 4.058462158932284183e+02
1.511832603172697853e+00 4.057300284073289731e+02
1.511932625177538903e+00 4.056140853901897572e+02
1.512032647182379952e+00 4.054983885800842245e+02
1.512132669187221001e+00 4.053829397091711257e+02
1.512232691192062273e+00 4.052677405034469871e+02
1.512332713196903322e+00 4.051527926827016586e+02
1.512432735201744149e+00 4.050380979604725553e+02
1.512532757206585199e+00 4.049236580439987847e+02
1.512632779211426470e+00 4.048094746341763539e+02
1.512732801216267520e+00 4.046955494255132635e+02
1.512832823221108569e+00 4.045818841060840896e+02
1.512932845225949618e+00 4.044684803574868397e+02
1.513032867230790668e+00 4.043553398547967390e+02
1.513132889235631495e+00 4.042424642665236547e+02
1.513232911240472767e+00 4.041298552545673601e+02
1.513332933245313816e+00 4.040175144741742201e+02
1.513432955250154865e+00 4.039054435738931375e+02
1.513532977254996137e+00 4.037936441955325222e+02
1.513632999259837186e+00 4.036821179741170909e+02
1.513733021264678236e+00 4.035708665378457454e+02
1.513833043269519063e+00 4.034598915080481447e+02
1.513933065274360112e+00 4.033491944991407081e+02
1.514033087279201162e+00 4.032387771185886436e+02
1.514133109284042433e+00 4.031286409668587112e+02
1.514233131288883483e+00 4.030187876373819336e+02
1.514333153293724532e+00 4.029092187165092014e+02
1.514433175298565804e+00 4.027999357834706302e+02
1.514533197303406631e+00 4.026909404103352017e+02
1.514633219308247680e+00 4.025822341619692111e+02
1.514733241313088730e+00 4.024738185959939756e+02
1.514833263317929779e+00 4.023656952627499095e+02
1.514933285322770828e+00 4.022578657052505378e+02
1.515033307327612100e+00 4.021503314591474805e+02
1.515133329332453149e+00 4.020430940526871382e+02
1.515233351337293977e+00 4.019361550066738573e+02
1.515333373342135026e+00 4.018295158344278661e+02
1.515433395346976297e+00 4.017231780417491791e+02
1.515533417351817347e+00 4.016171431268768401e+02
1.515633439356658396e+00 4.015114125804500986e+02
1.515733461361499446e+00 4.014059878854719727e+02
1.515833483366340495e+00 4.013008705172689474e+02
1.515933505371181322e+00 4.011960619434551063e+02
1.516033527376022594e+00 4.010915636238923412e+02
1.516133549380863643e+00 4.009873770106559050e+02
1.516233571385704693e+00 4.008835035479935414e+02
1.516333593390545964e+00 4.007799446722915491e+02
1.516433615395387013e+00 4.006767018120378907e+02
1.516533637400228063e+00 4.005737763877840507e+02
1.516633659405068890e+00 4.004711698121109862e+02
1.516733681409909940e+00 4.003688834895908712e+02
1.516833703414750989e+00 4.002669188167542984e+02
1.516933725419592260e+00 4.001652771820528187e+02
1.517033747424433310e+00 4.000639599658240400e+02
1.517133769429274359e+00 3.999629685402576342e+02
1.517233791434115631e+00 3.998623042693604930e+02
1.517333813438956458e+00 3.997619685089213135e+02
1.517433835443797507e+00 3.996619626064783688e+02
1.517533857448638557e+00 3.995622879012842077e+02
1.517633879453479606e+00 3.994629457242717763e+02
1.517733901458320656e+00 3.993639373980232108e+02
1.517833923463161927e+00 3.992652642367343105e+02
1.517933945468002976e+00 3.991669275461835014e+02
1.518033967472843804e+00 3.990689286236988096e+02
1.518133989477684853e+00 3.989712687581246655e+02
1.518234011482526125e+00 3.988739492297915490e+02
1.518334033487367174e+00 3.987769713104833045e+02
1.518434055492208223e+00 3.986803362634057635e+02
1.518534077497049273e+00 3.985840453431559354e+02
1.518634099501890322e+00 3.984880997956906299e+02
1.518734121506731150e+00 3.983925008582957616e+02
1.518834143511572421e+00 3.982972497595573032e+02
1.518934165516413470e+00 3.982023477193291114e+02
1.519034187521254520e+00 3.981077959487045632e+02
1.519134209526095791e+00 3.980135956499873373e+02
1.519234231530936841e+00 3.979197480166603214e+02
1.519334253535777890e+00 3.978262542333580996e+02
1.519434275540618717e+00 3.977331154758396110e+02
1.519534297545459767e+00 3.976403329109548395e+02
1.519634319550300816e+00 3.975479076966237244e+02
1.519734341555142088e+00 3.974558409818016571e+02
1.519834363559983137e+00 3.973641339064555495e+02
1.519934385564824186e+00 3.972727876015359243e+02
1.520034407569665458e+00 3.971818031889500276e+02
1.520134429574506285e+00 3.970911817815343170e+02
1.520234451579347335e+00 3.970009244830284842e+02
1.520334473584188384e+00 3.969110323880505575e+02
1.520434495589029433e+00 3.968215065820678547e+02
1.520534517593870483e+00 3.967323481413749846e+02
1.520634539598711754e+00 3.966435581330661648e+02
1.520734561603552804e+00 3.965551376150110627e+02
1.520834583608393631e+00 3.964670876358311489e+02
1.520934605613234680e+00 3.963794092348725826e+02
1.521034627618075952e+00 3.962921034421843842e+02
1.521134649622917001e+00 3.962051712784947313e+02
1.521234671627758051e+00 3.961186137551850379e+02
1.521334693632599100e+00 3.960324318742698892e+02
1.521434715637440149e+00 3.959466266283716891e+02
1.521534737642280977e+00 3.958611990006985479e+02
1.521634759647122248e+00 3.957761499650231372e+02
1.521734781651963297e+00 3.956914804856584738e+02
1.521834803656804347e+00 3.956071915174391052e+02
1.521934825661645618e+00 3.955232840056955297e+02
1.522034847666486668e+00 3.954397588862382236e+02
1.522134869671327717e+00 3.953566170853316635e+02
1.522234891676168544e+00 3.952738595196771030e+02
1.522334913681009594e+00 3.951914870963913700e+02
1.522434935685850643e+00 3.951095007129869714e+02
1.522534957690691915e+00 3.950279012573514592e+02
1.522634979695532964e+00 3.949466896077291267e+02
1.522735001700374013e+00 3.948658666327030460e+02
1.522835023705215285e+00 3.947854331911727854e+02
1.522935045710056112e+00 3.947053901323398577e+02
1.523035067714897162e+00 3.946257382956875972e+02
1.523135089719738211e+00 3.945464785109628565e+02
1.523235111724579260e+00 3.944676115981598059e+02
1.523335133729420310e+00 3.943891383675024827e+02
1.523435155734261581e+00 3.943110596194266577e+02
1.523535177739102631e+00 3.942333761445644313e+02
1.523635199743943458e+00 3.941560887237278621e+02
1.523735221748784507e+00 3.940791981278919707e+02
1.523835243753625779e+00 3.940027051181809270e+02
1.523935265758466828e+00 3.939266104458503719e+02
1.524035287763307878e+00 3.938509148522737746e+02
1.524135309768148927e+00 3.937756190689274263e+02
1.524235331772989976e+00 3.937007238173758310e+02
1.524335353777830804e+00 3.936262298092584047e+02
1.524435375782672075e+00 3.935521377462735018e+02
1.524535397787513125e+00 3.934784483201672742e+02
1.524635419792354174e+00 3.934051622127192331e+02
1.524735441797195445e+00 3.933322800957298000e+02
1.524835463802036495e+00 3.932598026310065507e+02
1.524935485806877544e+00 3.931877304703545519e+02
1.525035507811718372e+00 3.931160642555607296e+02
1.525135529816559421e+00 3.930448046183857400e+02
1.525235551821400470e+00 3.929739521805509526e+02
1.525335573826241742e+00 3.929035075537269108e+02
1.525435595831082791e+00 3.928334713395239532e+02
1.525535617835923841e+00 3.927638441294810718e+02
1.525635639840764668e+00 3.926946265050552825e+02
1.525735661845605939e+00 3.926258190376136099e+02
1.525835683850446989e+00 3.925574222884218898e+02
1.525935705855288038e+00 3.924894368086362419e+02
1.526035727860129088e+00 3.924218631392946577e+02
1.526135749864970137e+00 3.923547018113084732e+02
1.526235771869811408e+00 3.922879533454526495e+02
1.526335793874652236e+00 3.922216182523598604e+02
1.526435815879493285e+00 3.921556970325129328e+02
1.526535837884334335e+00 3.920901901762350121e+02
1.526635859889175606e+00 3.920250981636868914e+02
1.526735881894016655e+00 3.919604214648557559e+02
1.526835903898857705e+00 3.918961605395521701e+02
1.526935925903698754e+00 3.918323158374034847e+02
1.527035947908539582e+00 3.917688877978467872e+02
1.527135969913380631e+00 3.917058768501255486e+02
1.527235991918221902e+00 3.916432834132822336e+02
1.527336013923062952e+00 3.915811078961571639e+02
1.527436035927904001e+00 3.915193506973793660e+02
1.527536057932745273e+00 3.914580122053667992e+02
1.527636079937586322e+00 3.913970927983208412e+02
1.527736101942427149e+00 3.913365928442219115e+02
1.527836123947268199e+00 3.912765127008278796e+02
1.527936145952109248e+00 3.912168527156705977e+02
1.528036167956950298e+00 3.911576132260536838e+02
1.528136189961791569e+00 3.910987945590505319e+02
1.528236211966632618e+00 3.910403970315010156e+02
1.528336233971473668e+00 3.909824209500121128e+02
1.528436255976314495e+00 3.909248666109545525e+02
1.528536277981155767e+00 3.908677343004649174e+02
1.528636299985996816e+00 3.908110242944408128e+02
1.528736321990837865e+00 3.907547368585451864e+02
1.528836343995678915e+00 3.906988722482017806e+02
1.528936366000519964e+00 3.906434307086000217e+02
1.529036388005361236e+00 3.905884124746916655e+02
1.529136410010202063e+00 3.905338177711952881e+02
1.529236432015043112e+00 3.904796468125949787e+02
1.529336454019884162e+00 3.904258998031434089e+02
1.529436476024725433e+00 3.903725769368627994e+02
1.529536498029566483e+00 3.903196783975483299e+02
1.529636520034407532e+00 3.902672043587700159e+02
1.529736542039248581e+00 3.902151549838748110e+02
1.529836564044089409e+00 3.901635304259924624e+02
1.529936586048930458e+00 3.901123308280356241e+02
1.530036608053771729e+00 3.900615563227061102e+02
1.530136630058612779e+00 3.900112070324981346e+02
1.530236652063453828e+00 3.899612830697033701e+02
1.530336674068295100e+00 3.899117845364139043e+02
1.530436696073136149e+00 3.898627115245302548e+02
1.530536718077976976e+00 3.898140641157651771e+02
1.530636740082818026e+00 3.897658423816484401e+02
1.530736762087659075e+00 3.897180463835344426e+02
1.530836784092500125e+00 3.896706761726082391e+02
1.530936806097341396e+00 3.896237317898913943e+02
1.531036828102182445e+00 3.895772132662499985e+02
1.531136850107023495e+00 3.895311206224005218e+02
1.531236872111864322e+00 3.894854538689202172e+02
1.531336894116705594e+00 3.894402130062516108e+02
1.531436916121546643e+00 3.893953980247119944e+02
1.531536938126387692e+00 3.893510089045037148e+02
1.531636960131228742e+00 3.893070456157205399e+02
1.531736982136069791e+00 3.892635081183577768e+02
1.531837004140911063e+00 3.892203963623217078e+02
1.531937026145751890e+00 3.891777102874397087e+02
1.532037048150592939e+00 3.891354498234699690e+02
1.532137070155433989e+00 3.890936148901112119e+02
1.532237092160275260e+00 3.890522053970148590e+02
1.532337114165116310e+00 3.890112212437945800e+02
1.532437136169957359e+00 3.889706623200383433e+02
1.532537158174798408e+00 3.889305285053200123e+02
1.532637180179639236e+00 3.888908196692109982e+02
1.532737202184480285e+00 3.888515356712931634e+02
1.532837224189321557e+00 3.888126763611689967e+02
1.532937246194162606e+00 3.887742415784779837e+02
1.533037268199003655e+00 3.887362311529074077e+02
1.533137290203844927e+00 3.886986449042061622e+02
1.533237312208685976e+00 3.886614826421979956e+02
1.533337334213526804e+00 3.886247441667971998e+02
1.533437356218367853e+00 3.885884292680211729e+02
1.533537378223208902e+00 3.885525377260059940e+02
1.533637400228049952e+00 3.885170693110210891e+02
1.533737422232891223e+00 3.884820237834833279e+02
1.533837444237732273e+00 3.884474008939762371e+02
1.533937466242573322e+00 3.884132003832605733e+02
1.534037488247414149e+00 3.883794219822946161e+02
1.534137510252255421e+00 3.883460654122484357e+02
1.534237532257096470e+00 3.883131303845216280e+02
1.534337554261937520e+00 3.882806166007592310e+02
1.534437576266778569e+00 3.882485237528705966e+02
1.534537598271619618e+00 3.882168515230457615e+02
1.534637620276460890e+00 3.881855995837729552e+02
1.534737642281301717e+00 3.881547675978582674e+02
1.534837664286142767e+00 3.881243552184434975e+02
1.534937686290983816e+00 3.880943620890233206e+02
1.535037708295825087e+00 3.880647878434678546e+02
1.535137730300666137e+00 3.880356321060378377e+02
1.535237752305507186e+00 3.880068944914070244e+02
1.535337774310348236e+00 3.879785746046816257e+02
1.535437796315189063e+00 3.879506720414205461e+02
1.535537818320030112e+00 3.879231863876536863e+02
1.535637840324871384e+00 3.878961172199071257e+02
1.535737862329712433e+00 3.878694641052193788e+02
1.535837884334553483e+00 3.878432266011660658e+02
1.535937906339394754e+00 3.878174042558804331e+02
1.536037928344235803e+00 3.877919966080748395e+02
1.536137950349076631e+00 3.877670031870631533e+02
1.536237972353917680e+00 3.877424235127839438e+02
1.536337994358758730e+00 3.877182570958217980e+02
1.536438016363599779e+00 3.876945034374321608e+02
1.536538038368441050e+00 3.876711620295632770e+02
1.536638060373282100e+00 3.876482323548797240e+02
1.536738082378123149e+00 3.876257138867864001e+02
1.536838104382963976e+00 3.876036060894545017e+02
1.536938126387805248e+00 3.875819084178426692e+02
1.537038148392646297e+00 3.875606203177231350e+02
1.537138170397487347e+00 3.875397412257084966e+02
1.537238192402328396e+00 3.875192705692737150e+02
1.537338214407169446e+00 3.874992077667835133e+02
1.537438236412010717e+00 3.874795522275177859e+02
1.537538258416851544e+00 3.874603033516979167e+02
1.537638280421692594e+00 3.874414605305113355e+02
1.537738302426533643e+00 3.874230231461411336e+02
1.537838324431374915e+00 3.874049905717898810e+02
1.537938346436215964e+00 3.873873621717091851e+02
1.538038368441057013e+00 3.873701373012238491e+02
1.538138390445898063e+00 3.873533153067634771e+02
1.538238412450738890e+00 3.873368955258866890e+02
1.538338434455579939e+00 3.873208772873116459e+02
1.538438456460421211e+00 3.873052599109439598e+02
1.538538478465262260e+00 3.872900427079038082e+02
1.538638500470103310e+00 3.872752249805563451e+02
1.538738522474944581e+00 3.872608060225417717e+02
1.538838544479785631e+00 3.872467851188013128e+02
1.538938566484626458e+00 3.872331615456108125e+02
1.539038588489467507e+00 3.872199345706074496e+02
1.539138610494308557e+00 3.872071034528229916e+02
1.539238632499149606e+00 3.871946674427101698e+02
1.539338654503990877e+00 3.871826257821772401e+02
1.539438676508831927e+00 3.871709777046173713e+02
1.539538698513672976e+00 3.871597224349383168e+02
1.539638720518513804e+00 3.871488591895968625e+02
1.539738742523355075e+00 3.871383871766274751e+02
1.539838764528196124e+00 3.871283055956761245e+02
1.539938786533037174e+00 3.871186136380317748e+02
1.540038808537878223e+00 3.871093104866586714e+02
1.540138830542719273e+00 3.871003953162285143e+02
1.540238852547560544e+00 3.870918672931546780e+02
1.540338874552401371e+00 3.870837255756235891e+02
1.540438896557242421e+00 3.870759693136295141e+02
1.540538918562083470e+00 3.870685976490066196e+02
1.540638940566924742e+00 3.870616097154642716e+02
1.540738962571765791e+00 3.870550046386201757e+02
1.540838984576606840e+00 3.870487815360345394e+02
1.540939006581447890e+00 3.870429395172449745e+02
1.541039028586288717e+00 3.870374776838009439e+02
1.541139050591129767e+00 3.870323951292982656e+02
1.541239072595971038e+00 3.870276909394155496e+02
1.541339094600812087e+00 3.870233641919483034e+02
1.541439116605653137e+00 3.870194139568448009e+02
1.541539138610494408e+00 3.870158392962421203e+02
1.541639160615335458e+00 3.870126392645023543e+02
1.541739182620176285e+00 3.870098129082488185e+02
1.541839204625017334e+00 3.870073592664014654e+02
1.541939226629858384e+00 3.870052773702152535e+02
1.542039248634699433e+00 3.870035662433159587e+02
1.542139270639540705e+00 3.870022249017375771e+02
1.542239292644381754e+00 3.870012523539594440e+02
1.542339314649222803e+00 3.870006476009444896e+02
1.542439336654063631e+00 3.870004096361755046e+02
1.542539358658904902e+00 3.870005374456955565e+02
1.542639380663745952e+00 3.870010300081431751e+02
1.542739402668587001e+00 3.870018862947925413e+02
1.542839424673428050e+00 3.870031052695925951e+02
1.542939446678269100e+00 3.870046858892044952e+02
1.543039468683109927e+00 3.870066271030397047e+02
1.543139490687951199e+00 3.870089278533023958e+02
1.543239512692792248e+00 3.870115870750265685e+02
1.543339534697633297e+00 3.870146036961144773e+02
1.543439556702474569e+00 3.870179766373793200e+02
1.543539578707315618e+00 3.870217048125840051e+02
1.543639600712156668e+00 3.870257871284796920e+02
1.543739622716997495e+00 3.870302224848484229e+02
1.543839644721838544e+00 3.870350097745424591e+02
1.543939666726679594e+00 3.870401478835254920e+02
1.544039688731520865e+00 3.870456356909132865e+02
1.544139710736361915e+00 3.870514720690142667e+02
1.544239732741202964e+00 3.870576558833715808e+02
1.544339754746044235e+00 3.870641859928050508e+02
1.544439776750885063e+00 3.870710612494507927e+02
1.544539798755726112e+00 3.870782804988055545e+02
1.544639820760567162e+00 3.870858425797663358e+02
1.544739842765408211e+00 3.870937463246742709e+02
1.544839864770249260e+00 3.871019905593564090e+02
1.544939886775090532e+00 3.871105741031678917e+02
1.545039908779931581e+00 3.871194957690350975e+02
1.545139930784772409e+00 3.871287543634984445e+02
1.545239952789613458e+00 3.871383486867545685e+02
1.545339974794454729e+00 3.871482775327012860e+02
1.545439996799295779e+00 3.871585396889796584e+02
1.545540018804136828e+00 3.871691339370170795e+02
1.545640040808977878e+00 3.871800590520721812e+02
1.545740062813818927e+00 3.871913138032781490e+02
1.545840084818659754e+00 3.872028969536864338e+02
1.545940106823501026e+00 3.872148072603114883e+02
1.546040128828342075e+00 3.872270434741751046e+02
1.546140150833183124e+00 3.872396043403494446e+02
1.546240172838024396e+00 3.872524885980035947e+02
1.546340194842865445e+00 3.872656949804473356e+02
1.546440216847706495e+00 3.872792222151762758e+02
1.546540238852547322e+00 3.872930690239167006e+02
1.546640260857388371e+00 3.873072341226713888e+02
1.546740282862229421e+00 3.873217162217636655e+02
1.546840304867070692e+00 3.873365140258852080e+02
1.546940326871911742e+00 3.873516262341383936e+02
1.547040348876752791e+00 3.873670515400859813e+02
1.547140370881594063e+00 3.873827886317935167e+02
1.547240392886434890e+00 3.873988361918771943e+02
1.547340414891275939e+00 3.874151928975507531e+02
1.547440436896116989e+00 3.874318574206691892e+02
1.547540458900958038e+00 3.874488284277772436e+02
1.547640480905799087e+00 3.874661045801566388e+02
1.547740502910640359e+00 3.874836845338709850e+02
1.547840524915481408e+00 3.875015669398124487e+02
1.547940546920322236e+00 3.875197504437509224e+02
1.548040568925163285e+00 3.875382336863794990e+02
1.548140590930004556e+00 3.875570153033613678e+02
1.548240612934845606e+00 3.875760939253789275e+02
1.548340634939686655e+00 3.875954681781778390e+02
1.548440656944527705e+00 3.876151366826197204e+02
1.548540678949368754e+00 3.876350980547244944e+02
1.548640700954209581e+00 3.876553509057221163e+02
1.548740722959050853e+00 3.876758938420983327e+02
1.548840744963891902e+00 3.876967254656434534e+02
1.548940766968732952e+00 3.877178443734994744e+02
1.549040788973574223e+00 3.877392491582114076e+02
1.549140810978415272e+00 3.877609384077708228e+02
1.549240832983256322e+00 3.877829107056685984e+02
1.549340854988097149e+00 3.878051646309402258e+02
1.549440876992938199e+00 3.878276987582175366e+02
1.549540898997779248e+00 3.878505116577747458e+02
1.549640921002620519e+00 3.878736018955782470e+02
1.549740943007461569e+00 3.878969680333363499e+02
1.549840965012302618e+00 3.879206086285473134e+02
1.549940987017143890e+00 3.879445222345480033e+02
1.550041009021984717e+00 3.879687074005647673e+02
1.550141031026825766e+00 3.879931626717615814e+02
1.550241053031666816e+00 3.880178865892888211e+02
1.550341075036507865e+00 3.880428776903345920e+02
1.550441097041348915e+00 3.880681345081719655e+02
1.550541119046190186e+00 3.880936555722105936e+02
1.550641141051031235e+00 3.881194394080454231e+02
1.550741163055872063e+00 3.881454845375062632e+02
1.550841185060713112e+00 3.881717894787086038e+02
1.550941207065554384e+00 3.881983527461022732e+02
1.551041229070395433e+00 3.882251728505228812e+02
1.551141251075236482e+00 3.882522482992400228e+02
1.551241273080077532e+00 3.882795775960092328e+02
1.551341295084918581e+00 3.883071592411209849e+02
1.551441317089759409e+00 3.883349917314516802e+02
1.551541339094600680e+00 3.883630735605135555e+02
1.551641361099441729e+00 3.883914032185055021e+02
1.551741383104282779e+00 3.884199791923613816e+02
1.551841405109124050e+00 3.884487999658054491e+02
1.551941427113965100e+00 3.884778640193969181e+02
1.552041449118806149e+00 3.885071698305850987e+02
1.552141471123646976e+00 3.885367158737577711e+02
1.552241493128488026e+00 3.885665006202925156e+02
1.552341515133329075e+00 3.885965225386078146e+02
1.552441537138170347e+00 3.886267800942125632e+02
1.552541559143011396e+00 3.886572717497594454e+02
1.552641581147852445e+00 3.886879959650929095e+02
1.552741603152693717e+00 3.887189511973024878e+02
1.552841625157534544e+00 3.887501359007720794e+02
1.552941647162375594e+00 3.887815485272313367e+02
1.553041669167216643e+00 3.888131875258077343e+02
1.553141691172057692e+00 3.888450513430775004e+02
1.553241713176898742e+00 3.888771384231143884e+02
1.553341735181740013e+00 3.889094472075440763e+02
1.553441757186581063e+00 3.889419761355940182e+02
1.553541779191421890e+00 3.889747236441431824e+02
1.553641801196262939e+00 3.890076881677756546e+02
1.553741823201104211e+00 3.890408681388315699e+02
1.553841845205945260e+00 3.890742619874555999e+02
1.553941867210786310e+00 3.891078681416530003e+02
1.554041889215627359e+00 3.891416850273359387e+02
1.554141911220468408e+00 3.891757110683788028e+02
1.554241933225309236e+00 3.892099446866666881e+02
1.554341955230150507e+00 3.892443843021496264e+02
1.554441977234991557e+00 3.892790283328905616e+02
1.554541999239832606e+00 3.893138751951202607e+02
1.554642021244673877e+00 3.893489233032855168e+02
1.554742043249514927e+00 3.893841710701029228e+02
1.554842065254355976e+00 3.894196169066092921e+02
1.554942087259196803e+00 3.894552592222127032e+02
1.555042109264037853e+00 3.894910964247448533e+02
1.555142131268878902e+00 3.895271269205116482e+02
1.555242153273720174e+00 3.895633491143453284e+02
1.555342175278561223e+00 3.895997614096554571e+02
1.555442197283402272e+00 3.896363622084795679e+02
1.555542219288243544e+00 3.896731499115362567e+02
1.555642241293084371e+00 3.897101229182757152e+02
1.555742263297925421e+00 3.897472796269302080e+02
1.555842285302766470e+00 3.897846184345668803e+02
1.555942307307607519e+00 3.898221377371387462e+02
1.556042329312448569e+00 3.898598359295347109e+02
1.556142351317289840e+00 3.898977114056327764e+02
1.556242373322130890e+00 3.899357625583503477e+02
1.556342395326971717e+00 3.899739877796952783e+02
1.556442417331812766e+00 3.900123854608181091e+02
1.556542439336654038e+00 3.900509539920615794e+02
1.556642461341495087e+00 3.900896917630141161e+02
1.556742483346336137e+00 3.901285971625591742e+02
1.556842505351177186e+00 3.901676685789265093e+02
1.556942527356018235e+00 3.902069043997440758e+02
1.557042549360859063e+00 3.902463030120891858e+02
1.557142571365700334e+00 3.902858628025381904e+02
1.557242593370541384e+00 3.903255821572194577e+02
1.557342615375382433e+00 3.903654594618619171e+02
1.557442637380223704e+00 3.904054931018483785e+02
1.557542659385064754e+00 3.904456814622647585e+02
1.557642681389905803e+00 3.904860229279515806e+02
1.557742703394746631e+00 3.905265158835549641e+02
1.557842725399587680e+00 3.905671587135763048e+02
1.557942747404428729e+00 3.906079498024240024e+02
1.558042769409270001e+00 3.906488875344645066e+02
1.558142791414111050e+00 3.906899702940706334e+02
1.558242813418952100e+00 3.907311964656750547e+02
1.558342835423793371e+00 3.907725644338183315e+02
1.558442857428634198e+00 3.908140725832010389e+02
1.558542879433475248e+00 3.908557192987323674e+02
1.558642901438316297e+00 3.908975029655830440e+02
1.558742923443157347e+00 3.909394219692322849e+02
1.558842945447998396e+00 3.909814746955204328e+02
1.558942967452839667e+00 3.910236595306985805e+02
1.559042989457680717e+00 3.910659748614772298e+02
1.559143011462521544e+00 3.911084190750783591e+02
1.559243033467362594e+00 3.911509905592830592e+02
1.559343055472203865e+00 3.911936877024836576e+02
1.559443077477044914e+00 3.912365088937316386e+02
1.559543099481885964e+00 3.912794525227876647e+02
1.559643121486727013e+00 3.913225169801726224e+02
1.559743143491568063e+00 3.913657006572144610e+02
1.559843165496408890e+00 3.914090019461011707e+02
1.559943187501250161e+00 3.914524192399253479e+02
1.560043209506091211e+00 3.914959509327384808e+02
1.560143231510932260e+00 3.915395954195965373e+02
1.560243253515773532e+00 3.915833510966114090e+02
1.560343275520614581e+00 3.916272163609970107e+02
1.560443297525455408e+00 3.916711896111215765e+02
1.560543319530296458e+00 3.917152692465545556e+02
1.560643341535137507e+00 3.917594536681151567e+02
1.560743363539978557e+00 3.918037412779220858e+02
1.560843385544819828e+00 3.918481304794409539e+02
1.560943407549660877e+00 3.918926196775328776e+02
1.561043429554501927e+00 3.919372072785033652e+02
1.561143451559342754e+00 3.919818916901510875e+02
1.561243473564184026e+00 3.920266713218134669e+02
1.561343495569025075e+00 3.920715445844175520e+02
1.561443517573866124e+00 3.921165098905271975e+02
1.561543539578707174e+00 3.921615656543884825e+02
1.561643561583548223e+00 3.922067102919809258e+02
1.561743583588389495e+00 3.922519422210630751e+02
1.561843605593230322e+00 3.922972598612197430e+02
1.561943627598071371e+00 3.923426616339104385e+02
1.562043649602912421e+00 3.923881459625158641e+02
1.562143671607753692e+00 3.924337112723856080e+02
1.562243693612594742e+00 3.924793559908838461e+02
1.562343715617435791e+00 3.925250785474379427e+02
1.562443737622276840e+00 3.925708773735836985e+02
1.562543759627117668e+00 3.926167509030129850e+02
1.562643781631958717e+00 3.926626975716200150e+02
1.562743803636799989e+00 3.927087158175470449e+02
1.562843825641641038e+00 3.927548040812311001e+02
1.562943847646482087e+00 3.928009608054504724e+02
1.563043869651323359e+00 3.928471844353708775e+02
1.563143891656164408e+00 3.928934734185887692e+02
1.563243913661005235e+00 3.929398262051807933e+02
1.563343935665846285e+00 3.929862412477471594e+02
1.563443957670687334e+00 3.930327170014564899e+02
1.563543979675528384e+00 3.930792519240935690e+02
1.563644001680369655e+00 3.931258444761020314e+02
1.563744023685210704e+00 3.931724931206302927e+02
1.563844045690051754e+00 3.932191963235770231e+02
1.563944067694892581e+00 3.932659525536352021e+02
1.564044089699733853e+00 3.933127602823362281e+02
1.564144111704574902e+00 3.933596179840955074e+02
1.564244133709415951e+00 3.934065241362554275e+02
1.564344155714257001e+00 3.934534772191308889e+02
1.564444177719098050e+00 3.935004757160526196e+02
1.564544199723939322e+00 3.935475181134103195e+02
1.564644221728780149e+00 3.935946029006972253e+02
1.564744243733621198e+00 3.936417285705537097e+02
1.564844265738462248e+00 3.936888936188089474e+02
1.564944287743303519e+00 3.937360965445270722e+02
1.565044309748144569e+00 3.937833358500476493e+02
1.565144331752985618e+00 3.938306100410294448e+02
1.565244353757826667e+00 3.938779176264935700e+02
1.565344375762667495e+00 3.939252571188644652e+02
1.565444397767508544e+00 3.939726270340151473e+02
1.565544419772349816e+00 3.940200258913058065e+02
1.565644441777190865e+00 3.940674522136287123e+02
1.565744463782031914e+00 3.941149045274489708e+02
1.565844485786873186e+00 3.941623813628457356e+02
1.565944507791714235e+00 3.942098812535548973e+02
1.566044529796555063e+00 3.942574027370096701e+02
1.566144551801396112e+00 3.943049443543816324e+02
1.566244573806237161e+00 3.943525046506224498e+02
1.566344595811078211e+00 3.944000821745031544e+02
1.566444617815919482e+00 3.944476754786574020e+02
1.566544639820760532e+00 3.944952831196196712e+02
1.566644661825601581e+00 3.945429036578659634e+02
1.566744683830442408e+00 3.945905356578545593e+02
1.566844705835283680e+00 3.946381776880654115e+02
1.566944727840124729e+00 3.946858283210398213e+02
1.567044749844965779e+00 3.947334861334211382e+02
1.567144771849806828e+00 3.947811497059922203e+02
1.567244793854647877e+00 3.948288176237156222e+02
1.567344815859489149e+00 3.948764884757728169e+02
1.567444837864329976e+00 3.949241608556018832e+02
1.567544859869171026e+00 3.949718333609380920e+02
1.567644881874012075e+00 3.950195045938493763e+02
1.567744903878853346e+00 3.950671731607784523e+02
1.567844925883694396e+00 3.951148376725761295e+02
1.567944947888535445e+00 3.951624967445426364e+02
1.568044969893376495e+00 3.952101489964646817e+02
1.568144991898217322e+00 3.952577930526512660e+02
1.568245013903058371e+00 3.953054275419726196e+02
1.568345035907899643e+00 3.953530510978962980e+02
1.568445057912740692e+00 3.954006623585237321e+02
1.568545079917581742e+00 3.954482599666281430e+02
1.568645101922423013e+00 3.954958425696891595e+02
1.568745123927264062e+00 3.955434088199309031e+02
1.568845145932104890e+00 3.955909573743559804e+02
1.568945167936945939e+00 3.956384868947827727e+02
1.569045189941786989e+00 3.956859960478803373e+02
1.569145211946628038e+00 3.957334835052039921e+02
1.569245233951469309e+00 3.957809479432299327e+02
1.569345255956310359e+00 3.958283880433908166e+02
1.569445277961151408e+00 3.958758024921098695e+02
1.569545299965992236e+00 3.959231899808364687e+02
1.569645321970833507e+00 3.959705492060787719e+02
1.569745343975674556e+00 3.960178788694394143e+02
1.569845365980515606e+00 3.960651776776477959e+02
1.569945387985356655e+00 3.961124443425949266e+02
1.570045409990197705e+00 3.961596775813663385e+02
1.570145431995038976e+00 3.962068761162751684e+02
1.570245453999879803e+00 3.962540386748962646e+02
1.570345476004720853e+00 3.963011639900959153e+02
1.570445498009561902e+00 3.963482508000674898e+02
1.570545520014403174e+00 3.963952978483634979e+02
1.570645542019244223e+00 3.964423038839249784e+02
1.570745564024085272e+00 3.964892676611163438e+02
1.570845586028926322e+00 3.965361879397550524e+02
1.570945608033767149e+00 3.965830634851444074e+02
1.571045630038608198e+00 3.966298930681026604e+02
1.571145652043449470e+00 3.966766754649966629e+02
1.571245674048290519e+00 3.967234094577707992e+02
1.571345696053131569e+00 3.967700938339765457e+02
1.571445718057972840e+00 3.968167273868051552e+02
1.571545740062813890e+00 3.968633089151165905e+02
1.571645762067654717e+00 3.969098372234677186e+02
1.571745784072495766e+00 3.969563111221449958e+02
1.571845806077336816e+00 3.970027294271897631e+02
1.571945828082177865e+00 3.970490909604311582e+02
1.572045850087019137e+00 3.970953945495123207e+02
1.572145872091860186e+00 3.971416390279208031e+02
1.572245894096701235e+00 3.971878232350150029e+02
1.572345916101542063e+00 3.972339460160532099e+02
1.572445938106383334e+00 3.972800062222216297e+02
1.572545960111224383e+00 3.973260027106625785e+02
1.572645982116065433e+00 3.973719343444996071e+02
1.572746004120906482e+00 3.974177999928670033e+02
1.572846026125747532e+00 3.974635985309352577e+02
1.572946048130588803e+00 3.975093288399383482e+02
1.573046070135429630e+00 3.975549898071998314e+02
1.573146092140270680e+00 3.976005803261590472e+02
1.573246114145111729e+00 3.976460992963971535e+02
1.573346136149953001e+00 3.976915456236624209e+02
1.573446158154794050e+00 3.977369182198956423e+02
1.573546180159635099e+00 3.977822160032560532e+02
1.573646202164476149e+00 3.978274378981448081e+02
1.573746224169316976e+00 3.978725828352308440e+02
1.573846246174158026e+00 3.979176497514752668e+02
1.573946268178999297e+00 3.979626375901543156e+02
1.574046290183840346e+00 3.980075453008838622e+02
1.574146312188681396e+00 3.980523718396443087e+02
1.574246334193522667e+00 3.980971161688019038e+02
1.574346356198363717e+00 3.981417772571330715e+02
1.574446378203204544e+00 3.981863540798464669e+02
1.574546400208045593e+00 3.982308456186071908e+02
1.574646422212886643e+00 3.982752508615570832e+02
1.574746444217727692e+00 3.983195688033387682e+02
1.574846466222568964e+00 3.983637984451151510e+02
1.574946488227410013e+00 3.984079387945936332e+02
1.575046510232251062e+00 3.984519888660458946e+02
1.575146532237091890e+00 3.984959476803286407e+02
1.575246554241933161e+00 3.985398142649063402e+02
1.575346576246774211e+00 3.985835876538686762e+02
1.575446598251615260e+00 3.986272668879545336e+02
1.575546620256456309e+00 3.986708510145687683e+02
1.575646642261297359e+00 3.987143390878039213e+02
1.575746664266138630e+00 3.987577301684586359e+02
1.575846686270979458e+00 3.988010233240579510e+02
1.575946708275820507e+00 3.988442176288714336e+02
1.576046730280661556e+00 3.988873121639323358e+02
1.576146752285502828e+00 3.989303060170556705e+02
1.576246774290343877e+00 3.989731982828568562e+02
1.576346796295184927e+00 3.990159880627692814e+02
1.576446818300025976e+00 3.990586744650619266e+02
1.576546840304866803e+00 3.991012566048573262e+02
1.576646862309707853e+00 3.991437336041481103e+02
1.576746884314549124e+00 3.991861045918143418e+02
1.576846906319390174e+00 3.992283687036390916e+02
1.576946928324231223e+00 3.992705250823260030e+02
1.577046950329072494e+00 3.993125728775151515e+02
1.577146972333913544e+00 3.993545112457987898e+02
1.577246994338754371e+00 3.993963393507347064e+02
1.577347016343595421e+00 3.994380563628666323e+02
1.577447038348436470e+00 3.994796614597331086e+02
1.577547060353277519e+00 3.995211538258866426e+02
1.577647082358118791e+00 3.995625326529066683e+02
1.577747104362959840e+00 3.996037971394132455e+02
1.577847126367800668e+00 3.996449464910818961e+02
1.577947148372641717e+00 3.996859799206559956e+02
1.578047170377482988e+00 3.997268966479630308e+02
1.578147192382324038e+00 3.997676958999226144e+02
1.578247214387165087e+00 3.998083769105656984e+02
1.578347236392006137e+00 3.998489389210411673e+02
1.578447258396847186e+00 3.998893811796327213e+02
1.578547280401688013e+00 3.999297029417672320e+02
1.578647302406529285e+00 3.999699034700300899e+02
1.578747324411370334e+00 4.000099820341737882e+02
1.578847346416211384e+00 4.000499379111304279e+02
1.578947368421052655e+00 4.000897703850232574e+02
1.579047390425893704e+00 4.001294787471747441e+02
1.579147412430734754e+00 4.001690622961208419e+02
1.579247434435575581e+00 4.002085203376178129e+02
1.579347456440416630e+00 4.002478521846540502e+02
1.579447478445257680e+00 4.002870571574584915e+02
1.579547500450098951e+00 4.003261345835111342e+02
1.579647522454940001e+00 4.003650837975507102e+02
1.579747544459781050e+00 4.004039041415841211e+02
1.579847566464622322e+00 4.004425949648954770e+02
1.579947588469463149e+00 4.004811556240535992e+02
1.580047610474304198e+00 4.005195854829204336e+02
1.580147632479145248e+00 4.005578839126573598e+02
1.580247654483986297e+00 4.005960502917358781e+02
1.580347676488827346e+00 4.006340840059407356e+02
1.580447698493668618e+00 4.006719844483795896e+02
1.580547720498509667e+00 4.007097510194882375e+02
1.580647742503350495e+00 4.007473831270381766e+02
1.580747764508191544e+00 4.007848801861406400e+02
1.580847786513032815e+00 4.008222416192552942e+02
1.580947808517873865e+00 4.008594668561926824e+02
1.581047830522714914e+00 4.008965553341218993e+02
1.581147852527555964e+00 4.009335064975737168e+02
1.581247874532397013e+00 4.009703197984467806e+02
1.581347896537237840e+00 4.010069946960113612e+02
1.581447918542079112e+00 4.010435306569125942e+02
1.581547940546920161e+00 4.010799271551760512e+02
1.581647962551761211e+00 4.011161836722112639e+02
1.581747984556602482e+00 4.011522996968128041e+02
1.581848006561443531e+00 4.011882747251667070e+02
1.581948028566284581e+00 4.012241082608498459e+02
1.582048050571125408e+00 4.012597998148361285e+02
1.582148072575966458e+00 4.012953489054938245e+02
1.582248094580807507e+00 4.013307550585931835e+02
1.582348116585648778e+00 4.013660178073048428e+02
1.582448138590489828e+00 4.014011366922005095e+02
1.582548160595330877e+00 4.014361112612576221e+02
1.582648182600172149e+00 4.014709410698570196e+02
1.582748204605012976e+00 4.015056256807843056e+02
1.582848226609854025e+00 4.015401646642316109e+02
1.582948248614695075e+00 4.015745575977964563e+02
1.583048270619536124e+00 4.016088040664818664e+02
1.583148292624377174e+00 4.016429036626950619e+02
1.583248314629218445e+00 4.016768559862496204e+02
1.583348336634059494e+00 4.017106606443607575e+02
1.583448358638900322e+00 4.017443172516460663e+02
1.583548380643741371e+00 4.017778254301255174e+02
1.583648402648582643e+00 4.018111848092157743e+02
1.583748424653423692e+00 4.018443950257318420e+02
1.583848446658264741e+00 4.018774557238827470e+02
1.583948468663105791e+00 4.019103665552695475e+02
1.584048490667946840e+00 4.019431271788828894e+02
1.584148512672787668e+00 4.019757372610992547e+02
1.584248534677628939e+00 4.020081964756777779e+02
1.584348556682469988e+00 4.020405045037571199e+02
1.584448578687311038e+00 4.020726610338509204e+02
1.584548600692152309e+00 4.021046657618439326e+02
1.584648622696993359e+00 4.021365183909880443e+02
1.584748644701834408e+00 4.021682186318956269e+02
1.584848666706675235e+00 4.021997662025387399e+02
1.584948688711516285e+00 4.022311608282387283e+02
1.585048710716357334e+00 4.022624022416654839e+02
1.585148732721198606e+00 4.022934901828286911e+02
1.585248754726039655e+00 4.023244243990718587e+02
1.585348776730880704e+00 4.023552046450690227e+02
1.585448798735721976e+00 4.023858306828149694e+02
1.585548820740562803e+00 4.024163022816196644e+02
1.585648842745403853e+00 4.024466192181021711e+02
1.585748864750244902e+00 4.024767812761816117e+02
1.585848886755085951e+00 4.025067882470709719e+02
1.585948908759927001e+00 4.025366399292698816e+02
1.586048930764768272e+00 4.025663361285538144e+02
1.586148952769609322e+00 4.025958766579688586e+02
1.586248974774450149e+00 4.026252613378213709e+02
1.586348996779291198e+00 4.026544899956706445e+02
1.586449018784132470e+00 4.026835624663177100e+02
1.586549040788973519e+00 4.027124785917978897e+02
1.586649062793814569e+00 4.027412382213706223e+02
1.586749084798655618e+00 4.027698412115097426e+02
1.586849106803496667e+00 4.027982874258930224e+02
1.586949128808337495e+00 4.028265767353919955e+02
1.587049150813178766e+00 4.028547090180623513e+02
1.587149172818019816e+00 4.028826841591317134e+02
1.587249194822860865e+00 4.029105020509888959e+02
1.587349216827702136e+00 4.029381625931736153e+02
1.587449238832543186e+00 4.029656656923642686e+02
1.587549260837384235e+00 4.029930112623652008e+02
1.587649282842225062e+00 4.030201992240964728e+02
1.587749304847066112e+00 4.030472295055802192e+02
1.587849326851907161e+00 4.030741020419285405e+02
1.587949348856748433e+00 4.031008167753310545e+02
1.588049370861589482e+00 4.031273736550411968e+02
1.588149392866430532e+00 4.031537726373632040e+02
1.588249414871271803e+00 4.031800136856390964e+02
1.588349436876112630e+00 4.032060967702345238e+02
1.588449458880953680e+00 4.032320218685244981e+02
1.588549480885794729e+00 4.032577889648798646e+02
1.588649502890635778e+00 4.032833980506524085e+02
1.588749524895476828e+00 4.033088491241596785e+02
1.588849546900318099e+00 4.033341421906715141e+02
1.588949568905159149e+00 4.033592772623925384e+02
1.589049590909999976e+00 4.033842543584497662e+02
1.589149612914841025e+00 4.034090735048747547e+02
1.589249634919682297e+00 4.034337347345880858e+02
1.589349656924523346e+00 4.034582380873832790e+02
1.589449678929364396e+00 4.034825836099112735e+02
1.589549700934205445e+00 4.035067713556632611e+02
1.589649722939046494e+00 4.035308013849530653e+02
1.589749744943887322e+00 4.035546737649024749e+02
1.589849766948728593e+00 4.035783885694208379e+02
1.589949788953569643e+00 4.036019458791899410e+02
1.590049810958410692e+00 4.036253457816454215e+02
1.590149832963251963e+00 4.036485883709590325e+02
1.590249854968093013e+00 4.036716737480210213e+02
1.590349876972934062e+00 4.036946020204194383e+02
1.590449898977774890e+00 4.037173733024260400e+02
1.590549920982615939e+00 4.037399877149711074e+02
1.590649942987456988e+00 4.037624453856307127e+02
1.590749964992298260e+00 4.037847464486033005e+02
1.590849986997139309e+00 4.038068910446925202e+02
1.590950009001980359e+00 4.038288793212858536e+02
1.591050031006821630e+00 4.038507114323357428e+02
1.591150053011662457e+00 4.038723875383383870e+02
1.591250075016503507e+00 4.038939078063153829e+02
1.591350097021344556e+00 4.039152724097914415e+02
1.591450119026185606e+00 4.039364815287733563e+02
1.591550141031026655e+00 4.039575353497303354e+02
1.591650163035867926e+00 4.039784340655722872e+02
1.591750185040708976e+00 4.039991778756278791e+02
1.591850207045549803e+00 4.040197669856236189e+02
1.591950229050390853e+00 4.040402016076611744e+02
1.592050251055232124e+00 4.040604819601971371e+02
1.592150273060073173e+00 4.040806082680189206e+02
1.592250295064914223e+00 4.041005807622215116e+02
1.592350317069755272e+00 4.041203996801885410e+02
1.592450339074596322e+00 4.041400652655652266e+02
1.592550361079437149e+00 4.041595777682387620e+02
1.592650383084278420e+00 4.041789374443117708e+02
1.592750405089119470e+00 4.041981445560824113e+02
1.592850427093960519e+00 4.042171993720176602e+02
1.592950449098801791e+00 4.042361021667305749e+02
1.593050471103642840e+00 4.042548532209576706e+02
1.593150493108483889e+00 4.042734528215315777e+02
1.593250515113324717e+00 4.042919012613596124e+02
1.593350537118165766e+00 4.043101988393973443e+02
1.593450559123006816e+00 4.043283458606247223e+02
1.593550581127848087e+00 4.043463426360200401e+02
1.593650603132689136e+00 4.043641894825358349e+02
1.593750625137530186e+00 4.043818867230733645e+02
1.593850647142371457e+00 4.043994346864555496e+02
1.593950669147212285e+00 4.044168337074037254e+02
1.594050691152053334e+00 4.044340841265091626e+02
1.594150713156894383e+00 4.044511862902087387e+02
1.594250735161735433e+00 4.044681405507574823e+02
1.594350757166576482e+00 4.044849472662031076e+02
1.594450779171417754e+00 4.045016068003583314e+02
1.594550801176258803e+00 4.045181195227750095e+02
1.594650823181099630e+00 4.045344858087154876e+02
1.594750845185940680e+00 4.045507060391271352e+02
1.594850867190781951e+00 4.045667806006149476e+02
1.594950889195623001e+00 4.045827098854122141e+02
1.595050911200464050e+00 4.045984942913545410e+02
1.595150933205305099e+00 4.046141342218506907e+02
1.595250955210145927e+00 4.046296300858559789e+02
1.595350977214986976e+00 4.046449822978427733e+02
1.595450999219828248e+00 4.046601912777720713e+02
1.595551021224669297e+00 4.046752574510660452e+02
1.595651043229510346e+00 4.046901812485777441e+02
1.595751065234351618e+00 4.047049631065636390e+02
1.595851087239192667e+00 4.047196034666544051e+02
1.595951109244033495e+00 4.047341027758241694e+02
1.596051131248874544e+00 4.047484614863627712e+02
1.596151153253715593e+00 4.047626800558450668e+02
1.596251175258556643e+00 4.047767589471027350e+02
1.596351197263397914e+00 4.047906986281926720e+02
1.596451219268238964e+00 4.048044995723681723e+02
1.596551241273080013e+00 4.048181622580483463e+02
1.596651263277920840e+00 4.048316871687874254e+02
1.596751285282762112e+00 4.048450747932444074e+02
1.596851307287603161e+00 4.048583256251544071e+02
1.596951329292444210e+00 4.048714401632932436e+02
1.597051351297285260e+00 4.048844189114523715e+02
1.597151373302126309e+00 4.048972623784027860e+02
1.597251395306967581e+00 4.049099710778669419e+02
1.597351417311808408e+00 4.049225455284864665e+02
1.597451439316649457e+00 4.049349862537895319e+02
1.597551461321490507e+00 4.049472937821609548e+02
1.597651483326331778e+00 4.049594686468101372e+02
1.597751505331172828e+00 4.049715113857378697e+02
1.597851527336013877e+00 4.049834225417052949e+02
1.597951549340854926e+00 4.049952026622024732e+02
1.598051571345695754e+00 4.050068522994139357e+02
1.598151593350536803e+00 4.050183720101883296e+02
1.598251615355378075e+00 4.050297623560040847e+02
1.598351637360219124e+00 4.050410239029387185e+02
1.598451659365060173e+00 4.050521572216345589e+02
1.598551681369901445e+00 4.050631628872649230e+02
1.598651703374742494e+00 4.050740414795035917e+02
1.598751725379583322e+00 4.050847935824902493e+02
1.598851747384424371e+00 4.050954197847961495e+02
1.598951769389265420e+00 4.051059206793922840e+02
1.599051791394106470e+00 4.051162968636150481e+02
1.599151813398947741e+00 4.051265489391323058e+02
1.599251835403788791e+00 4.051366775119103636e+02
1.599351857408629840e+00 4.051466831921793528e+02
1.599451879413470667e+00 4.051565665943996919e+02
1.599551901418311939e+00 4.051663283372274122e+02
1.599651923423152988e+00 4.051759690434799950e+02
1.599751945427994038e+00 4.051854893401031177e+02
1.599851967432835087e+00 4.051948898581345020e+02
1.599951989437676136e+00 4.052041712326694665e+02
1.600052011442517408e+00 4.052133341028283553e+02
1.600152033447358235e+00 4.052223791117189080e+02
1.600252055452199285e+00 4.052313069064035176e+02
1.600352077457040334e+00 4.052401181378627371e+02
1.600452099461881605e+00 4.052488134609614008e+02
1.600552121466722655e+00 4.052573935344122447e+02
1.600652143471563704e+00 4.052658590207419707e+02
1.600752165476404754e+00 4.052742105862550943e+02
1.600852187481245581e+00 4.052824489009972240e+02
1.600952209486086630e+00 4.052905746387218642e+02
1.601052231490927902e+00 4.052985884768540927e+02
1.601152253495768951e+00 4.053064910964533851e+02
1.601252275500610001e+00 4.053142831821795085e+02
1.601352297505451272e+00 4.053219654222544932e+02
1.601452319510292321e+00 4.053295385084303462e+02
1.601552341515133149e+00 4.053370031359481231e+02
1.601652363519974198e+00 4.053443600035054715e+02
1.601752385524815248e+00 4.053516098132191701e+02
1.601852407529656297e+00 4.053587532705886360e+02
1.601952429534497568e+00 4.053657910844590333e+02
1.602052451539338618e+00 4.053727239669858022e+02
1.602152473544179667e+00 4.053795526335979957e+02
1.602252495549020495e+00 4.053862778029611036e+02
1.602352517553861766e+00 4.053929001969399337e+02
1.602452539558702815e+00 4.053994205405637103e+02
1.602552561563543865e+00 4.054058395619864541e+02
1.602652583568384914e+00 4.054121579924525349e+02
1.602752605573225964e+00 4.054183765662595533e+02
1.602852627578067235e+00 4.054244960207181521e+02
1.602952649582908062e+00 4.054305170961203544e+02
1.603052671587749112e+00 4.054364405356959651e+02
1.603152693592590161e+00 4.054422670855815340e+02
1.603252715597431433e+00 4.054479974947785763e+02
1.603352737602272482e+00 4.054536325151187839e+02
1.603452759607113531e+00 4.054591729012248607e+02
1.603552781611954581e+00 4.054646194104750521e+02
1.603652803616795408e+00 4.054699728029632979e+02
1.603752825621636457e+00 4.054752338414646147e+02
1.603852847626477729e+00 4.054804032913935998e+02
1.603952869631318778e+00 4.054854819207718606e+02
1.604052891636159828e+00 4.054904705001840739e+02
1.604152913641001099e+00 4.054953698027470068e+02
1.604252935645842149e+00 4.055001806040663723e+02
1.604352957650682976e+00 4.055049036822011885e+02
1.604452979655524025e+00 4.055095398176267167e+02
1.604553001660365075e+00 4.055140897931954100e+02
1.604653023665206124e+00 4.055185543940978619e+02
1.604753045670047396e+00 4.055229344078274494e+02
1.604853067674888445e+00 4.055272306241412252e+02
1.604953089679729494e+00 4.055314438350210935e+02
1.605053111684570322e+00 4.055355748346364635e+02
1.605153133689411593e+00 4.055396244193059943e+02
1.605253155694252643e+00 4.055435933874598504e+02
1.605353177699093692e+00 4.055474825396014467e+02
1.605453199703934741e+00 4.055512926782685668e+02
1.605553221708775791e+00 4.055550246079955059e+02
1.605653243713617062e+00 4.055586791352760088e+02
1.605753265718457889e+00 4.055622570685230244e+02
1.605853287723298939e+00 4.055657592180324400e+02
1.605953309728139988e+00 4.055691863959427792e+02
1.606053331732981260e+00 4.055725394161989357e+02
1.606153353737822309e+00 4.055758190945125534e+02
1.606253375742663358e+00 4.055790262483241690e+02
1.606353397747504408e+00 4.055821616967648993e+02
1.606453419752345235e+00 4.055852262606176737e+02
1.606553441757186285e+00 4.055882207622796614e+02
1.606653463762027556e+00 4.055911460257236740e+02
1.606753485766868605e+00 4.055940028764587169e+02
1.606853507771709655e+00 4.055967921414938360e+02
1.606953529776550926e+00 4.055995146492971344e+02
1.607053551781391976e+00 4.056021712297604722e+02
1.607153573786232803e+00 4.056047627141579142e+02
1.607253595791073852e+00 4.056072899351092929e+02
1.607353617795914902e+00 4.056097537265416122e+02
1.607453639800755951e+00 4.056121549236511896e+02
1.607553661805597223e+00 4.056144943628632404e+02
1.607653683810438272e+00 4.056167728817955549e+02
1.607753705815279321e+00 4.056189913192206973e+02
1.607853727820120149e+00 4.056211505150246239e+02
1.607953749824961420e+00 4.056232513101720087e+02
1.608053771829802470e+00 4.056252945466658275e+02
1.608153793834643519e+00 4.056272810675089886e+02
1.608253815839484568e+00 4.056292117166676690e+02
1.608353837844325618e+00 4.056310873390312963e+02
1.608453859849166889e+00 4.056329087803752600e+02
1.608553881854007717e+00 4.056346768873230531e+02
1.608653903858848766e+00 4.056363925073080168e+02
1.608753925863689815e+00 4.056380564885337208e+02
1.608853947868531087e+00 4.056396696799373558e+02
1.608953969873372136e+00 4.056412329311522171e+02
1.609053991878213186e+00 4.056427470924678005e+02
1.609154013883054235e+00 4.056442130147927969e+02
1.609254035887895062e+00 4.056456315496169509e+02
1.609354057892736112e+00 4.056470035489739416e+02
1.609454079897577383e+00 4.056483298654018768e+02
1.609554101902418433e+00 4.056496113519064579e+02
1.609654123907259482e+00 4.056508488619230093e+02
1.609754145912100753e+00 4.056520432492783357e+02
1.609854167916941803e+00 4.056531953681531490e+02
1.609954189921782630e+00 4.056543060730453476e+02
1.610054211926623680e+00 4.056553762187301118e+02
1.610154233931464729e+00 4.056564066602236949e+02
1.610254255936305778e+00 4.056573982527467024e+02
1.610354277941147050e+00 4.056583518516837330e+02
1.610454299945988099e+00 4.056592683125491590e+02
1.610554321950829149e+00 4.056601484909482451e+02
1.610654343955669976e+00 4.056609932425387797e+02
1.610754365960511247e+00 4.056618034229953196e+02
1.610854387965352297e+00 4.056625798879710487e+02
1.610954409970193346e+00 4.056633234930603749e+02
1.611054431975034396e+00 4.056640350937632888e+02
1.611154453979875445e+00 4.056647155454458016e+02
1.611254475984716716e+00 4.056653657033056106e+02
1.611354497989557544e+00 4.056659864223323666e+02
1.611454519994398593e+00 4.056665785572733967e+02
1.611554541999239643e+00 4.056671429625945393e+02
1.611654564004080914e+00 4.056676804924454700e+02
1.611754586008921963e+00 4.056681920006202517e+02
1.611854608013763013e+00 4.056686783405247638e+02
1.611954630018604062e+00 4.056691403651362293e+02
1.612054652023444890e+00 4.056695789269678016e+02
1.612154674028285939e+00 4.056699948780338900e+02
1.612254696033127210e+00 4.056703890698108808e+02
1.612354718037968260e+00 4.056707623532039406e+02
1.612454740042809309e+00 4.056711155785086476e+02
1.612554762047650581e+00 4.056714495953749520e+02
1.612654784052491408e+00 4.056717652527730706e+02
1.612754806057332457e+00 4.056720633989544922e+02
1.612854828062173507e+00 4.056723448814190647e+02
1.612954850067014556e+00 4.056726105468771379e+02
1.613054872071855605e+00 4.056728612412148323e+02
1.613154894076696877e+00 4.056730978094583975e+02
1.613254916081537926e+00 4.056733210957384017e+02
1.613354938086378754e+00 4.056735319432533515e+02
1.613454960091219803e+00 4.056737311942373481e+02
1.613554982096061075e+00 4.056739196899203534e+02
1.613655004100902124e+00 4.056740982704976091e+02
1.613755026105743173e+00 4.056742677750909252e+02
1.613855048110584223e+00 4.056744290417159959e+02
1.613955070115425272e+00 4.056745829072468155e+02
1.614055092120266099e+00 4.056747302073799233e+02
1.614155114125107371e+00 4.056748717766010373e+02
1.614255136129948420e+00 4.056750084481503222e+02
1.614355158134789470e+00 4.056751410539870903e+02
1.614455180139630741e+00 4.056752704247558086e+02
1.614555202144471791e+00 4.056753973897533569e+02
1.614655224149312840e+00 4.056755227768913983e+02
1.614755246154153667e+00 4.056756474126651710e+02
1.614855268158994717e+00 4.056757721221195538e+02
1.614955290163835766e+00 4.056758977288133110e+02
1.615055312168677037e+00 4.056760250547867486e+02
1.615155334173518087e+00 4.056761549205279493e+02
1.615255356178359136e+00 4.056762881449386668e+02
1.615355378183200408e+00 4.056764255453024361e+02
1.615455400188041235e+00 4.056765679372489899e+02
1.615555422192882284e+00 4.056767161347228239e+02
1.615655444197723334e+00 4.056768709499502847e+02
1.615755466202564383e+00 4.056770331934042702e+02
1.615855488207405433e+00 4.056772036737756935e+02
1.615955510212246704e+00 4.056773831979364218e+02
1.616055532217087753e+00 4.056775725709092626e+02
1.616155554221928581e+00 4.056777725958347673e+02
1.616255576226769630e+00 4.056779840739390011e+02
1.616355598231610902e+00 4.056782078045014259e+02
1.616455620236451951e+00 4.056784445848231826e+02
1.616555642241293000e+00 4.056786952101942916e+02
1.616655664246134050e+00 4.056789604738627304e+02
1.616755686250975099e+00 4.056792411670020329e+02
1.616855708255815927e+00 4.056795380786806504e+02
1.616955730260657198e+00 4.056798519958293809e+02
1.617055752265498247e+00 4.056801837032114690e+02
1.617155774270339297e+00 4.056805339833902053e+02
1.617255796275180568e+00 4.056809036166989699e+02
1.617355818280021618e+00 4.056812933812097413e+02
1.617455840284862667e+00 4.056817040527022868e+02
1.617555862289703494e+00 4.056821364046344911e+02
1.617655884294544544e+00 4.056825912081109209e+02
1.617755906299385593e+00 4.056830692318523575e+02
1.617855928304226865e+00 4.056835712421673179e+02
1.617955950309067914e+00 4.056840980029202797e+02
1.618055972313908963e+00 4.056846502755025767e+02
1.618155994318750235e+00 4.056852288188026705e+02
1.618256016323591062e+00 4.056858343891760796e+02
1.618356038328432112e+00 4.056864677404174131e+02
1.618456060333273161e+00 4.056871296237285378e+02
1.618556082338114210e+00 4.056878207876924876e+02
1.618656104342955260e+00 4.056885419782424833e+02
1.618756126347796531e+00 4.056892939386329431e+02
1.618856148352637581e+00 4.056900774094128792e+02
1.618956170357478408e+00 4.056908931283947481e+02
1.619056192362319457e+00 4.056917418306284731e+02
1.619156214367160729e+00 4.056926242483716010e+02
1.619256236372001778e+00 4.056935411110611085e+02
1.619356258376842828e+00 4.056944931452875949e+02
1.619456280381683877e+00 4.056954810747659508e+02
1.619556302386524926e+00 4.056965056203074482e+02
1.619656324391365754e+00 4.056975674997933083e+02
1.619756346396207025e+00 4.056986674281472460e+02
1.619856368401048075e+00 4.056998061173077303e+02
1.619956390405889124e+00 4.057009842762028029e+02
1.620056412410730395e+00 4.057022026107204056e+02
1.620156434415571445e+00 4.057034618236852452e+02
1.620256456420412494e+00 4.057047626148296899e+02
1.620356478425253322e+00 4.057061056807686441e+02
1.620456500430094371e+00 4.057074917149738553e+02
1.620556522434935420e+00 4.057089214077464021e+02
1.620656544439776692e+00 4.057103954461936723e+02
1.620756566444617741e+00 4.057119145142002026e+02
1.620856588449458791e+00 4.057134792924063049e+02
1.620956610454300062e+00 4.057150904581792474e+02
1.621056632459140889e+00 4.057167486855902325e+02
1.621156654463981939e+00 4.057184546453895564e+02
1.621256676468822988e+00 4.057202090049805179e+02
1.621356698473664038e+00 4.057220124283967380e+02
1.621456720478505087e+00 4.057238655762756139e+02
1.621556742483346358e+00 4.057257691058363207e+02
1.621656764488187408e+00 4.057277236708554256e+02
1.621756786493028235e+00 4.057297299216411375e+02
1.621856808497869284e+00 4.057317885050110817e+02
1.621956830502710556e+00 4.057339000642704718e+02
1.622056852507551605e+00 4.057360652391864164e+02
1.622156874512392655e+00 4.057382846659644429e+02
1.622256896517233704e+00 4.057405589772285452e+02
1.622356918522074753e+00 4.057428888019954911e+02
1.622456940526915581e+00 4.057452747656544716e+02
1.622556962531756852e+00 4.057477174899424881e+02
1.622656984536597902e+00 4.057502175929248551e+02
1.622757006541438951e+00 4.057527756889705302e+02
1.622857028546280223e+00 4.057553923887334690e+02
1.622957050551121272e+00 4.057580682991266485e+02
1.623057072555962321e+00 4.057608040233054112e+02
1.623157094560803149e+00 4.057636001606425111e+02
1.623257116565644198e+00 4.057664573067095262e+02
1.623357138570485247e+00 4.057693760532547458e+02
1.623457160575326519e+00 4.057723569881827075e+02
1.623557182580167568e+00 4.057754006955339605e+02
1.623657204585008618e+00 4.057785077554644886e+02
1.623757226589849889e+00 4.057816787442263831e+02
1.623857248594690716e+00 4.057849142341468678e+02
1.623957270599531766e+00 4.057882147936090291e+02
1.624057292604372815e+00 4.057915809870335693e+02
1.624157314609213865e+00 4.057950133748568078e+02
1.624257336614054914e+00 4.057985125135142539e+02
1.624357358618896185e+00 4.058020789554199723e+02
1.624457380623737235e+00 4.058057132489490755e+02
1.624557402628578062e+00 4.058094159384187378e+02
1.624657424633419112e+00 4.058131875640680164e+02
1.624757446638260383e+00 4.058170286620442084e+02
1.624857468643101432e+00 4.058209397643805119e+02
1.624957490647942482e+00 4.058249213989801092e+02
1.625057512652783531e+00 4.058289740895988871e+02
1.625157534657624581e+00 4.058330983558278717e+02
1.625257556662465408e+00 4.058372947130763464e+02
1.625357578667306679e+00 4.058415636725535478e+02
1.625457600672147729e+00 4.058459057412546258e+02
1.625557622676988778e+00 4.058503214219406914e+02
1.625657644681830050e+00 4.058548112131259700e+02
1.625757666686671099e+00 4.058593756090592706e+02
1.625857688691512148e+00 4.058640150997093201e+02
1.625957710696352976e+00 4.058687301707484494e+02
1.626057732701194025e+00 4.058735213035373022e+02
1.626157754706035075e+00 4.058783889751102265e+02
1.626257776710876346e+00 4.058833336581590743e+02
1.626357798715717395e+00 4.058883558210182514e+02
1.626457820720558445e+00 4.058934559276513596e+02
1.626557842725399716e+00 4.058986344376361330e+02
1.626657864730240544e+00 4.059038918061501704e+02
1.626757886735081593e+00 4.059092284839562694e+02
1.626857908739922642e+00 4.059146449173888413e+02
1.626957930744763692e+00 4.059201415483418600e+02
1.627057952749604741e+00 4.059257188142527184e+02
1.627157974754446013e+00 4.059313771480916557e+02
1.627257996759287062e+00 4.059371169783465803e+02
1.627358018764127889e+00 4.059429387290124396e+02
1.627458040768968939e+00 4.059488428195761571e+02
1.627558062773810210e+00 4.059548296650068551e+02
1.627658084778651260e+00 4.059608996757414161e+02
1.627758106783492309e+00 4.059670532576742517e+02
1.627858128788333358e+00 4.059732908121442279e+02
1.627958150793174408e+00 4.059796127359244338e+02
1.628058172798015235e+00 4.059860194212104716e+02
1.628158194802856507e+00 4.059925112556083491e+02
1.628258216807697556e+00 4.059990886221247592e+02
1.628358238812538605e+00 4.060057518991557117e+02
1.628458260817379877e+00 4.060125014604769831e+02
1.628558282822220926e+00 4.060193376752326913e+02
1.628658304827061976e+00 4.060262609079263711e+02
1.628758326831902803e+00 4.060332715184102881e+02
1.628858348836743852e+00 4.060403698618758881e+02
1.628958370841584902e+00 4.060475562888458398e+02
1.629058392846426173e+00 4.060548311451619270e+02
1.629158414851267223e+00 4.060621947719795344e+02
1.629258436856108272e+00 4.060696475057560519e+02
1.629358458860949543e+00 4.060771896782442809e+02
1.629458480865790371e+00 4.060848216164827136e+02
1.629558502870631420e+00 4.060925436427888826e+02
1.629658524875472470e+00 4.061003560747493566e+02
1.629758546880313519e+00 4.061082592252147379e+02
1.629858568885154568e+00 4.061162534022898853e+02
1.629958590889995840e+00 4.061243389093276619e+02
1.630058612894836667e+00 4.061325160449221698e+02
1.630158634899677716e+00 4.061407851029011340e+02
1.630258656904518766e+00 4.061491463723203879e+02
1.630358678909360037e+00 4.061576001374558018e+02
1.630458700914201087e+00 4.061661466777992473e+02
1.630558722919042136e+00 4.061747862680506955e+02
1.630658744923883186e+00 4.061835191781136700e+02
1.630758766928724013e+00 4.061923456730903013e+02
1.630858788933565062e+00 4.062012660132725159e+02
1.630958810938406334e+00 4.062102804541418664e+02
1.631058832943247383e+00 4.062193892463613452e+02
1.631158854948088432e+00 4.062285926357716335e+02
1.631258876952929704e+00 4.062378908633871788e+02
1.631358898957770753e+00 4.062472841653907949e+02
1.631458920962611581e+00 4.062567727731300238e+02
1.631558942967452630e+00 4.062663569131145209e+02
1.631658964972293679e+00 4.062760368070111667e+02
1.631758986977134729e+00 4.062858126716408833e+02
1.631859008981976000e+00 4.062956847189754512e+02
1.631959030986817050e+00 4.063056531561352358e+02
1.632059052991658099e+00 4.063157181853854922e+02
1.632159074996498926e+00 4.063258800041348309e+02
1.632259097001340198e+00 4.063361388049318634e+02
1.632359119006181247e+00 4.063464947754637251e+02
1.632459141011022297e+00 4.063569480985546534e+02
1.632559163015863346e+00 4.063674989521630891e+02
1.632659185020704395e+00 4.063781475093816198e+02
1.632759207025545667e+00 4.063888939384343644e+02
1.632859229030386494e+00 4.063997384026769168e+02
1.632959251035227544e+00 4.064106810605953228e+02
1.633059273040068593e+00 4.064217220658061365e+02
1.633159295044909864e+00 4.064328615670535214e+02
1.633259317049750914e+00 4.064440997082127183e+02
1.633359339054591963e+00 4.064554366282868614e+02
1.633459361059433013e+00 4.064668724614099915e+02
1.633559383064273840e+00 4.064784073368450663e+02
1.633659405069114889e+00 4.064900413789861204e+02
1.633759427073956161e+00 4.065017747073589476e+02
1.633859449078797210e+00 4.065136074366216121e+02
1.633959471083638260e+00 4.065255396765667228e+02
1.634059493088479531e+00 4.065375715321217740e+02
1.634159515093320580e+00 4.065497031033520443e+02
1.634259537098161408e+00 4.065619344854619612e+02
1.634359559103002457e+00 4.065742657687970336e+02
1.634459581107843507e+00 4.065866970388465802e+02
1.634559603112684556e+00 4.065992283762469128e+02
1.634659625117525827e+00 4.066118598567821891e+02
1.634759647122366877e+00 4.066245915513892442e+02
1.634859669127207926e+00 4.066374235261604895e+02
1.634959691132048754e+00 4.066503558423470395e+02
1.635059713136890025e+00 4.066633885563616673e+02
1.635159735141731074e+00 4.066765217197839206e+02
1.635259757146572124e+00 4.066897553793627935e+02
1.635359779151413173e+00 4.067030895770225243e+02
1.635459801156254223e+00 4.067165243498661766e+02
1.635559823161095494e+00 4.067300597301791640e+02
1.635659845165936321e+00 4.067436957454362982e+02
1.635759867170777371e+00 4.067574324183057115e+02
1.635859889175618420e+00 4.067712697666539157e+02
1.635959911180459692e+00 4.067852078035519412e+02
1.636059933185300741e+00 4.067992465372797710e+02
1.636159955190141790e+00 4.068133859713344691e+02
1.636259977194982840e+00 4.068276261044331932e+02
1.636359999199823667e+00 4.068419669305226307e+02
1.636460021204664717e+00 4.068564084387833759e+02
1.636560043209505988e+00 4.068709506136372056e+02
1.636660065214347037e+00 4.068855934347540142e+02
1.636760087219188087e+00 4.069003368770589191e+02
1.636860109224029358e+00 4.069151809107394797e+02
1.636960131228870408e+00 4.069301255012534284e+02
1.637060153233711235e+00 4.069451706093354915e+02
1.637160175238552284e+00 4.069603161910076210e+02
1.637260197243393334e+00 4.069755621975829740e+02
1.637360219248234383e+00 4.069909085756783611e+02
1.637460241253075655e+00 4.070063552672195328e+02
1.637560263257916704e+00 4.070219022094532875e+02
1.637660285262757753e+00 4.070375493349526437e+02
1.637760307267598581e+00 4.070532965716281524e+02
1.637860329272439852e+00 4.070691438427361390e+02
1.637960351277280902e+00 4.070850910668891061e+02
1.638060373282121951e+00 4.071011381580653392e+02
1.638160395286963000e+00 4.071172850256165816e+02
1.638260417291804050e+00 4.071335315742819603e+02
1.638360439296645321e+00 4.071498777041940684e+02
1.638460461301486148e+00 4.071663233108923237e+02
1.638560483306327198e+00 4.071828682853318924e+02
1.638660505311168247e+00 4.071995125138965363e+02
1.638760527316009519e+00 4.072162558784063435e+02
1.638860549320850568e+00 4.072330982561318820e+02
1.638960571325691618e+00 4.072500395198047158e+02
1.639060593330532667e+00 4.072670795376271258e+02
1.639160615335373494e+00 4.072842181732867743e+02
1.639260637340214544e+00 4.073014552859671085e+02
1.639360659345055815e+00 4.073187907303587281e+02
1.639460681349896864e+00 4.073362243566736538e+02
1.639560703354737914e+00 4.073537560106555020e+02
1.639660725359579185e+00 4.073713855335938661e+02
1.639760747364420235e+00 4.073891127623367083e+02
1.639860769369261062e+00 4.074069375293033204e+02
1.639960791374102111e+00 4.074248596624967149e+02
