1.400008001760387089e+00 4.963973689642472209e+02
1.400108023765228360e+00 4.963996911715905185e+02
1.400208045770069409e+00 4.964020914473453558e+02
1.400308067774910459e+00 4.964045697644750703e+02
1.400408089779751286e+00 4.964071260934242673e+02
1.400508111784592558e+00 4.964097604021187635e+02
1.400608133789433607e+00 4.964124726559641090e+02
1.400708155794274656e+00 4.964152628178461555e+02
1.400808177799115706e+00 4.964181308481304882e+02
1.400908199803956755e+00 4.964210767046613455e+02
1.401008221808798027e+00 4.964241003427626993e+02
1.401108243813638854e+00 4.964272017152371177e+02
1.401208265818479903e+00 4.964303807723661635e+02
1.401308287823320953e+00 4.964336374619105072e+02
1.401408309828162224e+00 4.964369717291084498e+02
1.401508331833003274e+00 4.964403835166802992e+02
1.401608353837844323e+00 4.964438727648223448e+02
1.401708375842685372e+00 4.964474394112130540e+02
1.401808397847526200e+00 4.964510833910097745e+02
1.401908419852367249e+00 4.964548046368512928e+02
1.402008441857208521e+00 4.964586030788560720e+02
1.402108463862049570e+00 4.964624786446269127e+02
1.402208485866890619e+00 4.964664312592460647e+02
1.402308507871731891e+00 4.964704608452811954e+02
1.402408529876572940e+00 4.964745673227824341e+02
1.402508551881413768e+00 4.964787506092860667e+02
1.402608573886254817e+00 4.964830106198140811e+02
1.402708595891095866e+00 4.964873472668753607e+02
1.402808617895936916e+00 4.964917604604667076e+02
1.402908639900778187e+00 4.964962501080751736e+02
1.403008661905619237e+00 4.965008161146776047e+02
1.403108683910460286e+00 4.965054583827435408e+02
1.403208705915301113e+00 4.965101768122361250e+02
1.403308727920142385e+00 4.965149713006128422e+02
1.403408749924983434e+00 4.965198417428289304e+02
1.403508771929824483e+00 4.965247880313372661e+02
1.403608793934665533e+00 4.965298100560910370e+02
1.403708815939506582e+00 4.965349077045456170e+02
1.403808837944347410e+00 4.965400808616592485e+02
1.403908859949188681e+00 4.965453294098978176e+02
1.404008881954029730e+00 4.965506532292332622e+02
1.404108903958870780e+00 4.965560521971480057e+02
1.404208925963712051e+00 4.965615261886381973e+02
1.404308947968553101e+00 4.965670750762119496e+02
1.404408969973394150e+00 4.965726987298955351e+02
1.404508991978234977e+00 4.965783970172348631e+02
1.404609013983076027e+00 4.965841698032969020e+02
1.404709035987917076e+00 4.965900169506731459e+02
1.404809057992758348e+00 4.965959383194823999e+02
1.404909079997599397e+00 4.966019337673727136e+02
1.405009102002440446e+00 4.966080031495249045e+02
1.405109124007281718e+00 4.966141463186548322e+02
1.405209146012122545e+00 4.966203631250166382e+02
1.405309168016963595e+00 4.966266534164072368e+02
1.405409190021804644e+00 4.966330170381662015e+02
1.405509212026645693e+00 4.966394538331811077e+02
1.405609234031486743e+00 4.966459636418908872e+02
1.405709256036328014e+00 4.966525463022887266e+02
1.405809278041169064e+00 4.966592016499245119e+02
1.405909300046009891e+00 4.966659295179104561e+02
1.406009322050850940e+00 4.966727297369218377e+02
1.406109344055692212e+00 4.966796021352037087e+02
1.406209366060533261e+00 4.966865465385717471e+02
1.406309388065374311e+00 4.966935627704175999e+02
1.406409410070215360e+00 4.967006506517122375e+02
1.406509432075056409e+00 4.967078100010103299e+02
1.406609454079897237e+00 4.967150406344544535e+02
1.406709476084738508e+00 4.967223423657774788e+02
1.406809498089579558e+00 4.967297150063074014e+02
1.406909520094420607e+00 4.967371583649734816e+02
1.407009542099261878e+00 4.967446722483078929e+02
1.407109564104102928e+00 4.967522564604519175e+02
1.407209586108943977e+00 4.967599108031577089e+02
1.407309608113784805e+00 4.967676350757972159e+02
1.407409630118625854e+00 4.967754290753613304e+02
1.407509652123466903e+00 4.967832925964713127e+02
1.407609674128308175e+00 4.967912254313744143e+02
1.407709696133149224e+00 4.967992273699578050e+02
1.407809718137990274e+00 4.968072981997473221e+02
1.407909740142831545e+00 4.968154377059150875e+02
1.408009762147672372e+00 4.968236456712839981e+02
1.408109784152513422e+00 4.968319218763322738e+02
1.408209806157354471e+00 4.968402660991980611e+02
1.408309828162195521e+00 4.968486781156873917e+02
1.408409850167036570e+00 4.968571576992754899e+02
1.408509872171877841e+00 4.968657046211160377e+02
1.408609894176718891e+00 4.968743186500431648e+02
1.408709916181559718e+00 4.968829995525793493e+02
1.408809938186400768e+00 4.968917470929387150e+02
1.408909960191242039e+00 4.969005610330367517e+02
1.409009982196083088e+00 4.969094411324900875e+02
1.409110004200924138e+00 4.969183871486269481e+02
1.409210026205765187e+00 4.969273988364923298e+02
1.409310048210606237e+00 4.969364759488505001e+02
1.409410070215447064e+00 4.969456182361961964e+02
1.409510092220288335e+00 4.969548254467559900e+02
1.409610114225129385e+00 4.969640973264969261e+02
1.409710136229970434e+00 4.969734336191322086e+02
1.409810158234811706e+00 4.969828340661269976e+02
1.409910180239652755e+00 4.969922984067052312e+02
1.410010202244493804e+00 4.970018263778557639e+02
1.410110224249334632e+00 4.970114177143389043e+02
1.410210246254175681e+00 4.970210721486924967e+02
1.410310268259016730e+00 4.970307894112385725e+02
1.410410290263858002e+00 4.970405692300916485e+02
1.410510312268699051e+00 4.970504113311620813e+02
1.410610334273540101e+00 4.970603154381663558e+02
1.410710356278381372e+00 4.970702812726315187e+02
1.410810378283222200e+00 4.970803085539033077e+02
1.410910400288063249e+00 4.970903969991522899e+02
1.411010422292904298e+00 4.971005463233817068e+02
1.411110444297745348e+00 4.971107562394341812e+02
1.411210466302586397e+00 4.971210264579987097e+02
1.411310488307427669e+00 4.971313566876184495e+02
1.411410510312268718e+00 4.971417466346971423e+02
1.411510532317109545e+00 4.971521960035074699e+02
1.411610554321950595e+00 4.971627044961978186e+02
1.411710576326791866e+00 4.971732718127994985e+02
1.411810598331632916e+00 4.971838976512358386e+02
1.411910620336473965e+00 4.971945817073275293e+02
1.412010642341315014e+00 4.972053236748021163e+02
1.412110664346156064e+00 4.972161232453010484e+02
1.412210686350996891e+00 4.972269801083879770e+02
1.412310708355838162e+00 4.972378939515549519e+02
1.412410730360679212e+00 4.972488644602325394e+02
1.412510752365520261e+00 4.972598913177970417e+02
1.412610774370361533e+00 4.972709742055776587e+02
1.412710796375202582e+00 4.972821128028662656e+02
1.412810818380043631e+00 4.972933067869236652e+02
1.412910840384884459e+00 4.973045558329897631e+02
1.413010862389725508e+00 4.973158596142898205e+02
1.413110884394566558e+00 4.973272178020453111e+02
1.413210906399407829e+00 4.973386300654793786e+02
1.413310928404248878e+00 4.973500960718287160e+02
1.413410950409089928e+00 4.973616154863482279e+02
1.413510972413931199e+00 4.973731879723233078e+02
1.413610994418772027e+00 4.973848131910773418e+02
1.413711016423613076e+00 4.973964908019773929e+02
1.413811038428454125e+00 4.974082204624480710e+02
1.413911060433295175e+00 4.974200018279769324e+02
1.414011082438136224e+00 4.974318345521245419e+02
1.414111104442977496e+00 4.974437182865331692e+02
1.414211126447818545e+00 4.974556526809351453e+02
1.414311148452659372e+00 4.974676373831636056e+02
1.414411170457500422e+00 4.974796720391599365e+02
1.414511192462341693e+00 4.974917562929842916e+02
1.414611214467182743e+00 4.975038897868240610e+02
1.414711236472023792e+00 4.975160721610028531e+02
1.414811258476864841e+00 4.975283030539910101e+02
1.414911280481705891e+00 4.975405821024132251e+02
1.415011302486546718e+00 4.975529089410603092e+02
1.415111324491387990e+00 4.975652832028974899e+02
1.415211346496229039e+00 4.975777045190723129e+02
1.415311368501070088e+00 4.975901725189284548e+02
1.415411390505911360e+00 4.976026868300109527e+02
1.415511412510752409e+00 4.976152470780788803e+02
1.415611434515593459e+00 4.976278528871142157e+02
1.415711456520434286e+00 4.976405038793310496e+02
1.415811478525275335e+00 4.976531996751863289e+02
1.415911500530116385e+00 4.976659398933903731e+02
1.416011522534957656e+00 4.976787241509148885e+02
1.416111544539798706e+00 4.976915520630047922e+02
1.416211566544639755e+00 4.977044232431876480e+02
1.416311588549481026e+00 4.977173373032845234e+02
1.416411610554321854e+00 4.977302938534185159e+02
1.416511632559162903e+00 4.977432925020269181e+02
1.416611654564003953e+00 4.977563328558707099e+02
1.416711676568845002e+00 4.977694145200443927e+02
1.416811698573686051e+00 4.977825370979878130e+02
1.416911720578527323e+00 4.977957001914952571e+02
1.417011742583368372e+00 4.978089034007263649e+02
1.417111764588209200e+00 4.978221463242168170e+02
1.417211786593050249e+00 4.978354285588898165e+02
1.417311808597891520e+00 4.978487497000649000e+02
1.417411830602732570e+00 4.978621093414701022e+02
1.417511852607573619e+00 4.978755070752520169e+02
1.417611874612414669e+00 4.978889424919874500e+02
1.417711896617255718e+00 4.979024151806924010e+02
1.417811918622096545e+00 4.979159247288361030e+02
1.417911940626937817e+00 4.979294707223481282e+02
1.418011962631778866e+00 4.979430527456331106e+02
1.418111984636619916e+00 4.979566703815783058e+02
1.418212006641461187e+00 4.979703232115680294e+02
1.418312028646302236e+00 4.979840108154926384e+02
1.418412050651143286e+00 4.979977327717593880e+02
1.418512072655984113e+00 4.980114886573055060e+02
1.418612094660825163e+00 4.980252780476080829e+02
1.418712116665666212e+00 4.980391005166958394e+02
1.418812138670507483e+00 4.980529556371601529e+02
1.418912160675348533e+00 4.980668429801665980e+02
1.419012182680189582e+00 4.980807621154672233e+02
1.419112204685030854e+00 4.980947126114107277e+02
1.419212226689871681e+00 4.981086940349543397e+02
1.419312248694712730e+00 4.981227059516757549e+02
1.419412270699553780e+00 4.981367479257850732e+02
1.419512292704394829e+00 4.981508195201355420e+02
1.419612314709235878e+00 4.981649202962353229e+02
1.419712336714077150e+00 4.981790498142600541e+02
1.419812358718918199e+00 4.981932076330633663e+02
1.419912380723759027e+00 4.982073933101904686e+02
1.420012402728600076e+00 4.982216064018884367e+02
1.420112424733441348e+00 4.982358464631182642e+02
1.420212446738282397e+00 4.982501130475684477e+02
1.420312468743123446e+00 4.982644057076635136e+02
1.420412490747964496e+00 4.982787239945798206e+02
1.420512512752805545e+00 4.982930674582559050e+02
1.420612534757646372e+00 4.983074356474035653e+02
1.420712556762487644e+00 4.983218281095214479e+02
1.420812578767328693e+00 4.983362443909077797e+02
1.420912600772169743e+00 4.983506840366693496e+02
1.421012622777011014e+00 4.983651465907380498e+02
1.421112644781852064e+00 4.983796315958795162e+02
1.421212666786692891e+00 4.983941385937075665e+02
1.421312688791533940e+00 4.984086671246957962e+02
1.421412710796374990e+00 4.984232167281896864e+02
1.421512732801216039e+00 4.984377869424193364e+02
1.421612754806057310e+00 4.984523773045123107e+02
1.421712776810898360e+00 4.984669873505049509e+02
1.421812798815739409e+00 4.984816166153555059e+02
1.421912820820580237e+00 4.984962646329581162e+02
1.422012842825421508e+00 4.985109309361513397e+02
1.422112864830262557e+00 4.985256150567360578e+02
1.422212886835103607e+00 4.985403165254840019e+02
1.422312908839944656e+00 4.985550348721515093e+02
1.422412930844785706e+00 4.985697696254935067e+02
1.422512952849626977e+00 4.985845203132737424e+02
1.422612974854467804e+00 4.985992864622807019e+02
1.422712996859308854e+00 4.986140675983372716e+02
1.422813018864149903e+00 4.986288632463155750e+02
1.422913040868991175e+00 4.986436729301486253e+02
1.423013062873832224e+00 4.986584961728444796e+02
1.423113084878673273e+00 4.986733324964977783e+02
1.423213106883514323e+00 4.986881814223032166e+02
1.423313128888355150e+00 4.987030424705683345e+02
1.423413150893196200e+00 4.987179151607271024e+02
1.423513172898037471e+00 4.987327990113511760e+02
1.423613194902878520e+00 4.987476935401667788e+02
1.423713216907719570e+00 4.987625982640616371e+02
1.423813238912560841e+00 4.987775126991037951e+02
1.423913260917401891e+00 4.987924363605520739e+02
1.424013282922242718e+00 4.988073687628694870e+02
1.424113304927083767e+00 4.988223094197358023e+02
1.424213326931924817e+00 4.988372578440621510e+02
1.424313348936765866e+00 4.988522135480022257e+02
1.424413370941607138e+00 4.988671760429681967e+02
1.424513392946448187e+00 4.988821448396407163e+02
1.424613414951289236e+00 4.988971194479853466e+02
1.424713436956130064e+00 4.989120993772627344e+02
1.424813458960971335e+00 4.989270841360448685e+02
1.424913480965812385e+00 4.989420732322262779e+02
1.425013502970653434e+00 4.989570661730380721e+02
1.425113524975494483e+00 4.989720624650611853e+02
1.425213546980335533e+00 4.989870616142404174e+02
1.425313568985176804e+00 4.990020631258970525e+02
1.425413590990017632e+00 4.990170665047409102e+02
1.425513612994858681e+00 4.990320712548881943e+02
1.425613634999699730e+00 4.990470768798696781e+02
1.425713657004541002e+00 4.990620828826478146e+02
1.425813679009382051e+00 4.990770887656277637e+02
1.425913701014223101e+00 4.990920940306732518e+02
1.426013723019064150e+00 4.991070981791186227e+02
1.426113745023904977e+00 4.991221007117819681e+02
1.426213767028746027e+00 4.991371011289798503e+02
1.426313789033587298e+00 4.991520989305400349e+02
1.426413811038428348e+00 4.991670936158154745e+02
1.426513833043269397e+00 4.991820846836980081e+02
1.426613855048110668e+00 4.991970716326309798e+02
1.426713877052951718e+00 4.992120539606248144e+02
1.426813899057792545e+00 4.992270311652683858e+02
1.426913921062633595e+00 4.992420027437431145e+02
1.427013943067474644e+00 4.992569681928384284e+02
1.427113965072315693e+00 4.992719270089636439e+02
1.427213987077156965e+00 4.992868786881617211e+02
1.427314009081998014e+00 4.993018227261242714e+02
1.427414031086839064e+00 4.993167586182030959e+02
1.427514053091679891e+00 4.993316858594262158e+02
1.427614075096521162e+00 4.993466039445099796e+02
1.427714097101362212e+00 4.993615123678730470e+02
1.427814119106203261e+00 4.993764106236508269e+02
1.427914141111044311e+00 4.993912982057075851e+02
1.428014163115885360e+00 4.994061746076533268e+02
1.428114185120726631e+00 4.994210393228538578e+02
1.428214207125567459e+00 4.994358918444463598e+02
1.428314229130408508e+00 4.994507316653539419e+02
1.428414251135249557e+00 4.994655582782970669e+02
1.428514273140090829e+00 4.994803711758096938e+02
1.428614295144931878e+00 4.994951698502526938e+02
1.428714317149772928e+00 4.995099537938251615e+02
1.428814339154613977e+00 4.995247224985810135e+02
1.428914361159454804e+00 4.995394754564426307e+02
1.429014383164295854e+00 4.995542121592122271e+02
1.429114405169137125e+00 4.995689320985884478e+02
1.429214427173978175e+00 4.995836347661788750e+02
1.429314449178819224e+00 4.995983196535128741e+02
1.429414471183660496e+00 4.996129862520576808e+02
1.429514493188501545e+00 4.996276340532307927e+02
1.429614515193342372e+00 4.996422625484131004e+02
1.429714537198183422e+00 4.996568712289644054e+02
1.429814559203024471e+00 4.996714595862351302e+02
1.429914581207865520e+00 4.996860271115835985e+02
1.430014603212706792e+00 4.997005732963860396e+02
1.430114625217547841e+00 4.997150976320513109e+02
1.430214647222388891e+00 4.997295996100374396e+02
1.430314669227229718e+00 4.997440787218605465e+02
1.430414691232070989e+00 4.997585344591146850e+02
1.430514713236912039e+00 4.997729663134794578e+02
1.430614735241753088e+00 4.997873737767388320e+02
1.430714757246594138e+00 4.998017563407911439e+02
1.430814779251435187e+00 4.998161134976656967e+02
1.430914801256276458e+00 4.998304447395351531e+02
1.431014823261117286e+00 4.998447495587298590e+02
1.431114845265958335e+00 4.998590274477499520e+02
1.431214867270799385e+00 4.998732778992824137e+02
1.431314889275640656e+00 4.998875004062114158e+02
1.431414911280481705e+00 4.999016944616353726e+02
1.431514933285322755e+00 4.999158595588756953e+02
1.431614955290163804e+00 4.999299951914972553e+02
1.431714977295004632e+00 4.999441008533165132e+02
1.431814999299845681e+00 4.999581760384177755e+02
1.431915021304686952e+00 4.999722202411667809e+02
1.432015043309528002e+00 4.999862329562235459e+02
1.432115065314369051e+00 5.000002136785566336e+02
1.432215087319210323e+00 5.000141619034574774e+02
1.432315109324051372e+00 5.000280771265525459e+02
1.432415131328892199e+00 5.000419588438181790e+02
1.432515153333733249e+00 5.000558065515939461e+02
1.432615175338574298e+00 5.000696197465965724e+02
1.432715197343415348e+00 5.000833979259321040e+02
1.432815219348256619e+00 5.000971405871117099e+02
1.432915241353097668e+00 5.001108472280641877e+02
1.433015263357938718e+00 5.001245173471494923e+02
1.433115285362779545e+00 5.001381504431718099e+02
1.433215307367620817e+00 5.001517460153947923e+02
1.433315329372461866e+00 5.001653035635530955e+02
1.433415351377302915e+00 5.001788225878681260e+02
1.433515373382143965e+00 5.001923025890587837e+02
1.433615395386985014e+00 5.002057430683577763e+02
1.433715417391826286e+00 5.002191435275233289e+02
1.433815439396667113e+00 5.002325034688532810e+02
1.433915461401508162e+00 5.002458223951985588e+02
1.434015483406349212e+00 5.002590998099762487e+02
1.434115505411190483e+00 5.002723352171835813e+02
1.434215527416031533e+00 5.002855281214115735e+02
1.434315549420872582e+00 5.002986780278557717e+02
1.434415571425713631e+00 5.003117844423343286e+02
1.434515593430554459e+00 5.003248468712977228e+02
1.434615615435395508e+00 5.003378648218425724e+02
1.434715637440236780e+00 5.003508378017264704e+02
1.434815659445077829e+00 5.003637653193798087e+02
1.434915681449918878e+00 5.003766468839194204e+02
1.435015703454760150e+00 5.003894820051626766e+02
1.435115725459601199e+00 5.004022701936396516e+02
1.435215747464442027e+00 5.004150109606063666e+02
1.435315769469283076e+00 5.004277038180586032e+02
1.435415791474124125e+00 5.004403482787446933e+02
1.435515813478965175e+00 5.004529438561789334e+02
1.435615835483806446e+00 5.004654900646542615e+02
1.435715857488647496e+00 5.004779864192560126e+02
1.435815879493488545e+00 5.004904324358744248e+02
1.435915901498329372e+00 5.005028276312175421e+02
1.436015923503170644e+00 5.005151715228246303e+02
1.436115945508011693e+00 5.005274636290796479e+02
1.436215967512852743e+00 5.005397034692225020e+02
1.436315989517693792e+00 5.005518905633641680e+02
1.436416011522534841e+00 5.005640244324982859e+02
1.436516033527376113e+00 5.005761045985146325e+02
1.436616055532216940e+00 5.005881305842106030e+02
1.436716077537057989e+00 5.006001019133067302e+02
1.436816099541899039e+00 5.006120181104568019e+02
1.436916121546740310e+00 5.006238787012616740e+02
1.437016143551581360e+00 5.006356832122834248e+02
1.437116165556422409e+00 5.006474311710549614e+02
1.437216187561263459e+00 5.006591221060959356e+02
1.437316209566104286e+00 5.006707555469232602e+02
1.437416231570945335e+00 5.006823310240646379e+02
1.437516253575786607e+00 5.006938480690708957e+02
1.437616275580627656e+00 5.007053062145292301e+02
1.437716297585468705e+00 5.007167049940741776e+02
1.437816319590309977e+00 5.007280439424023939e+02
1.437916341595151026e+00 5.007393225952828857e+02
1.438016363599991854e+00 5.007505404895700281e+02
1.438116385604832903e+00 5.007616971632180025e+02
1.438216407609673952e+00 5.007727921552906878e+02
1.438316429614515002e+00 5.007838250059745633e+02
1.438416451619356273e+00 5.007947952565917262e+02
1.438516473624197323e+00 5.008057024496116014e+02
1.438616495629038150e+00 5.008165461286643563e+02
1.438716517633879199e+00 5.008273258385502800e+02
1.438816539638720471e+00 5.008380411252556428e+02
1.438916561643561520e+00 5.008486915359620752e+02
1.439016583648402570e+00 5.008592766190596990e+02
1.439116605653243619e+00 5.008697959241593480e+02
1.439216627658084668e+00 5.008802490021046765e+02
1.439316649662925496e+00 5.008906354049826746e+02
1.439416671667766767e+00 5.009009546861389026e+02
1.439516693672607817e+00 5.009112064001844260e+02
1.439616715677448866e+00 5.009213901030129819e+02
1.439716737682290137e+00 5.009315053518101877e+02
1.439816759687131187e+00 5.009415517050637732e+02
1.439916781691972236e+00 5.009515287225798374e+02
1.440016803696813064e+00 5.009614359654897839e+02
1.440116825701654113e+00 5.009712729962649291e+02
1.440216847706495162e+00 5.009810393787276439e+02
1.440316869711336434e+00 5.009907346780622106e+02
1.440416891716177483e+00 5.010003584608269307e+02
1.440516913721018533e+00 5.010099102949658914e+02
1.440616935725859804e+00 5.010193897498199362e+02
1.440716957730700631e+00 5.010287963961385458e+02
1.440816979735541681e+00 5.010381298060904669e+02
1.440917001740382730e+00 5.010473895532766733e+02
1.441017023745223780e+00 5.010565752127392898e+02
1.441117045750064829e+00 5.010656863609755760e+02
1.441217067754906100e+00 5.010747225759466232e+02
1.441317089759747150e+00 5.010836834370909401e+02
1.441417111764587977e+00 5.010925685253330926e+02
1.441517133769429027e+00 5.011013774230972331e+02
1.441617155774270298e+00 5.011101097143167067e+02
1.441717177779111347e+00 5.011187649844446810e+02
1.441817199783952397e+00 5.011273428204667653e+02
1.441917221788793446e+00 5.011358428109104466e+02
1.442017243793634496e+00 5.011442645458574816e+02
1.442117265798475323e+00 5.011526076169522526e+02
1.442217287803316594e+00 5.011608716174150686e+02
1.442317309808157644e+00 5.011690561420512608e+02
1.442417331812998693e+00 5.011771607872637446e+02
1.442517353817839965e+00 5.011851851510607503e+02
1.442617375822681014e+00 5.011931288330696930e+02
1.442717397827522063e+00 5.012009914345453581e+02
1.442817419832362891e+00 5.012087725583806446e+02
1.442917441837203940e+00 5.012164718091187297e+02
1.443017463842044990e+00 5.012240887929617088e+02
1.443117485846886261e+00 5.012316231177818509e+02
1.443217507851727310e+00 5.012390743931304087e+02
1.443317529856568360e+00 5.012464422302513185e+02
1.443417551861409631e+00 5.012537262420865432e+02
1.443517573866250459e+00 5.012609260432912492e+02
1.443617595871091508e+00 5.012680412502402874e+02
1.443717617875932557e+00 5.012750714810388217e+02
1.443817639880773607e+00 5.012820163555351201e+02
1.443917661885614656e+00 5.012888754953264652e+02
1.444017683890455928e+00 5.012956485237715469e+02
1.444117705895296977e+00 5.013023350659994435e+02
1.444217727900137804e+00 5.013089347489212173e+02
1.444317749904978854e+00 5.013154472012364522e+02
1.444417771909820125e+00 5.013218720534446220e+02
1.444517793914661175e+00 5.013282089378571982e+02
1.444617815919502224e+00 5.013344574886014584e+02
1.444717837924343273e+00 5.013406173416362890e+02
1.444817859929184323e+00 5.013466881347562207e+02
1.444917881934025150e+00 5.013526695076055830e+02
1.445017903938866421e+00 5.013585611016853250e+02
1.445117925943707471e+00 5.013643625603612008e+02
1.445217947948548520e+00 5.013700735288762758e+02
1.445317969953389792e+00 5.013756936543578604e+02
1.445417991958230841e+00 5.013812225858267198e+02
1.445518013963071891e+00 5.013866599742072481e+02
1.445618035967912718e+00 5.013920054723356543e+02
1.445718057972753767e+00 5.013972587349696823e+02
1.445818079977594817e+00 5.014024194187971943e+02
1.445918101982436088e+00 5.014074871824446973e+02
1.446018123987277137e+00 5.014124616864850736e+02
1.446118145992118187e+00 5.014173425934507691e+02
1.446218167996959458e+00 5.014221295678368620e+02
1.446318190001800286e+00 5.014268222761130573e+02
1.446418212006641335e+00 5.014314203867322135e+02
1.446518234011482384e+00 5.014359235701373336e+02
1.446618256016323434e+00 5.014403314987712292e+02
1.446718278021164483e+00 5.014446438470843646e+02
1.446818300026005755e+00 5.014488602915440083e+02
1.446918322030846804e+00 5.014529805106417371e+02
1.447018344035687631e+00 5.014570041849019617e+02
1.447118366040528681e+00 5.014609309968901130e+02
1.447218388045369952e+00 5.014647606312199741e+02
1.447318410050211002e+00 5.014684927745639698e+02
1.447418432055052051e+00 5.014721271156587363e+02
1.447518454059893100e+00 5.014756633453148424e+02
1.447618476064734150e+00 5.014791011564225300e+02
1.447718498069574977e+00 5.014824402439628557e+02
1.447818520074416249e+00 5.014856803050117833e+02
1.447918542079257298e+00 5.014888210387503023e+02
1.448018564084098347e+00 5.014918621464718171e+02
1.448118586088939619e+00 5.014948033315884004e+02
1.448218608093780668e+00 5.014976442996403421e+02
1.448318630098621718e+00 5.015003847583018342e+02
1.448418652103462545e+00 5.015030244173887013e+02
1.448518674108303594e+00 5.015055629888668136e+02
1.448618696113144644e+00 5.015080001868585668e+02
1.448718718117985915e+00 5.015103357276498741e+02
1.448818740122826965e+00 5.015125693296969871e+02
1.448918762127668014e+00 5.015147007136356478e+02
1.449018784132509285e+00 5.015167296022860342e+02
1.449118806137350113e+00 5.015186557206601492e+02
1.449218828142191162e+00 5.015204787959689838e+02
1.449318850147032212e+00 5.015221985576288262e+02
1.449418872151873261e+00 5.015238147372709818e+02
1.449518894156714310e+00 5.015253270687423992e+02
1.449618916161555582e+00 5.015267352881185161e+02
1.449718938166396631e+00 5.015280391337064998e+02
1.449818960171237459e+00 5.015292383460525230e+02
1.449918982176078508e+00 5.015303326679486418e+02
1.450019004180919779e+00 5.015313218444379686e+02
1.450119026185760829e+00 5.015322056228225733e+02
1.450219048190601878e+00 5.015329837526694519e+02
1.450319070195442928e+00 5.015336559858150167e+02
1.450419092200283977e+00 5.015342220763731120e+02
1.450519114205124804e+00 5.015346817807405273e+02
1.450619136209966076e+00 5.015350348576030228e+02
1.450719158214807125e+00 5.015352810679409004e+02
1.450819180219648175e+00 5.015354201750359380e+02
1.450919202224489446e+00 5.015354519444746302e+02
1.451019224229330495e+00 5.015353761441585334e+02
1.451119246234171545e+00 5.015351925443038681e+02
1.451219268239012372e+00 5.015349009174536263e+02
1.451319290243853422e+00 5.015345010384771172e+02
1.451419312248694471e+00 5.015339926845799710e+02
1.451519334253535742e+00 5.015333756353069816e+02
1.451619356258376792e+00 5.015326496725486436e+02
1.451719378263217841e+00 5.015318145805456425e+02
1.451819400268059113e+00 5.015308701458955056e+02
1.451919422272899940e+00 5.015298161575551603e+02
1.452019444277740989e+00 5.015286524068484937e+02
1.452119466282582039e+00 5.015273786874710709e+02
1.452219488287423088e+00 5.015259947954924655e+02
1.452319510292264138e+00 5.015245005293649001e+02
1.452419532297105409e+00 5.015228956899260311e+02
1.452519554301946458e+00 5.015211800804034397e+02
1.452619576306787286e+00 5.015193535064194066e+02
1.452719598311628335e+00 5.015174157759972786e+02
1.452819620316469607e+00 5.015153666995632307e+02
1.452919642321310656e+00 5.015132060899526891e+02
1.453019664326151705e+00 5.015109337624149930e+02
1.453119686330992755e+00 5.015085495346148718e+02
1.453219708335833804e+00 5.015060532266408018e+02
1.453319730340674631e+00 5.015034446610064833e+02
1.453419752345515903e+00 5.015007236626551617e+02
1.453519774350356952e+00 5.014978900589645718e+02
1.453619796355198002e+00 5.014949436797509179e+02
1.453719818360039273e+00 5.014918843572716014e+02
1.453819840364880323e+00 5.014887119262307351e+02
1.453919862369721372e+00 5.014854262237814737e+02
1.454019884374562199e+00 5.014820270895302201e+02
1.454119906379403249e+00 5.014785143655409456e+02
1.454219928384244298e+00 5.014748878963385437e+02
1.454319950389085569e+00 5.014711475289108193e+02
1.454419972393926619e+00 5.014672931127134916e+02
1.454519994398767668e+00 5.014633244996739450e+02
1.454620016403608940e+00 5.014592415441936737e+02
1.454720038408449767e+00 5.014550441031506125e+02
1.454820060413290816e+00 5.014507320359052756e+02
1.454920082418131866e+00 5.014463052042988238e+02
1.455020104422972915e+00 5.014417634726625579e+02
1.455120126427813965e+00 5.014371067078153601e+02
1.455220148432655236e+00 5.014323347790691514e+02
1.455320170437496285e+00 5.014274475582315631e+02
1.455420192442337113e+00 5.014224449196090063e+02
1.455520214447178162e+00 5.014173267400066152e+02
1.455620236452019434e+00 5.014120928987360344e+02
1.455720258456860483e+00 5.014067432776114970e+02
1.455820280461701532e+00 5.014012777609587488e+02
1.455920302466542582e+00 5.013956962356130589e+02
1.456020324471383409e+00 5.013899985909225734e+02
1.456120346476224459e+00 5.013841847187515555e+02
1.456220368481065730e+00 5.013782545134816928e+02
1.456320390485906779e+00 5.013722078720144282e+02
1.456420412490747829e+00 5.013660446937728352e+02
1.456520434495589100e+00 5.013597648807046312e+02
1.456620456500430150e+00 5.013533683372825749e+02
1.456720478505270977e+00 5.013468549705067403e+02
1.456820500510112026e+00 5.013402246899071315e+02
1.456920522514953076e+00 5.013334774075449332e+02
1.457020544519794125e+00 5.013266130380130789e+02
1.457120566524635397e+00 5.013196314984402306e+02
1.457220588529476446e+00 5.013125327084894707e+02
1.457320610534317495e+00 5.013053165903614286e+02
1.457420632539158323e+00 5.012979830687962135e+02
1.457520654543999594e+00 5.012905320710718797e+02
1.457620676548840644e+00 5.012829635270088602e+02
1.457720698553681693e+00 5.012752773689699097e+02
1.457820720558522742e+00 5.012674735318600483e+02
1.457920742563363792e+00 5.012595519531296304e+02
1.458020764568205063e+00 5.012515125727732084e+02
1.458120786573045891e+00 5.012433553333323175e+02
1.458220808577886940e+00 5.012350801798946804e+02
1.458320830582727989e+00 5.012266870600957418e+02
1.458420852587569261e+00 5.012181759241190093e+02
1.458520874592410310e+00 5.012095467246977023e+02
1.458620896597251360e+00 5.012007994171137852e+02
1.458720918602092409e+00 5.011919339591982521e+02
1.458820940606933236e+00 5.011829503113339683e+02
1.458920962611774286e+00 5.011738484364531132e+02
1.459020984616615557e+00 5.011646283000384869e+02
1.459121006621456607e+00 5.011552898701243635e+02
1.459221028626297656e+00 5.011458331172958651e+02
1.459321050631138927e+00 5.011362580146894175e+02
1.459421072635979977e+00 5.011265645379915554e+02
1.459521094640820804e+00 5.011167526654407993e+02
1.459621116645661854e+00 5.011068223778256652e+02
1.459721138650502903e+00 5.010967736584856311e+02
1.459821160655343952e+00 5.010866064933095458e+02
1.459921182660185224e+00 5.010763208707372200e+02
1.460021204665026273e+00 5.010659167817567550e+02
1.460121226669867323e+00 5.010553942199060202e+02
1.460221248674708150e+00 5.010447531812699822e+02
1.460321270679549421e+00 5.010339936644822387e+02
1.460421292684390471e+00 5.010231156707221771e+02
1.460521314689231520e+00 5.010121192037165656e+02
1.460621336694072570e+00 5.010010042697359154e+02
1.460721358698913619e+00 5.009897708775964702e+02
1.460821380703754890e+00 5.009784190386568525e+02
1.460921402708595718e+00 5.009669487668174952e+02
1.461021424713436767e+00 5.009553600785208118e+02
1.461121446718277817e+00 5.009436529927484116e+02
1.461221468723119088e+00 5.009318275310212130e+02
1.461321490727960137e+00 5.009198837173968855e+02
1.461421512732801187e+00 5.009078215784679742e+02
1.461521534737642236e+00 5.008956411433634912e+02
1.461621556742483063e+00 5.008833424437437998e+02
1.461721578747324113e+00 5.008709255138011258e+02
1.461821600752165384e+00 5.008583903902566590e+02
1.461921622757006434e+00 5.008457371123593589e+02
1.462021644761847483e+00 5.008329657218847615e+02
1.462121666766688755e+00 5.008200762631331600e+02
1.462221688771529804e+00 5.008070687829248300e+02
1.462321710776370631e+00 5.007939433306017349e+02
1.462421732781211681e+00 5.007806999580237743e+02
1.462521754786052730e+00 5.007673387195663395e+02
1.462621776790893779e+00 5.007538596721195177e+02
1.462721798795735051e+00 5.007402628750835447e+02
1.462821820800576100e+00 5.007265483903680661e+02
1.462921842805417150e+00 5.007127162823902040e+02
1.463021864810257977e+00 5.006987666180704082e+02
1.463121886815099248e+00 5.006846994668314892e+02
1.463221908819940298e+00 5.006705149005940143e+02
1.463321930824781347e+00 5.006562129937765917e+02
1.463421952829622397e+00 5.006417938232900724e+02
1.463521974834463446e+00 5.006272574685370955e+02
1.463621996839304717e+00 5.006126040114080524e+02
1.463722018844145545e+00 5.005978335362784151e+02
1.463822040848986594e+00 5.005829461300048706e+02
1.463922062853827644e+00 5.005679418819231046e+02
1.464022084858668915e+00 5.005528208838463797e+02
1.464122106863509964e+00 5.005375832300589991e+02
1.464222128868351014e+00 5.005222290173149418e+02
1.464322150873192063e+00 5.005067583448341111e+02
1.464422172878032891e+00 5.004911713142993790e+02
1.464522194882873940e+00 5.004754680298525500e+02
1.464622216887715211e+00 5.004596485980918033e+02
1.464722238892556261e+00 5.004437131280662925e+02
1.464822260897397310e+00 5.004276617312744975e+02
1.464922282902238582e+00 5.004114945216595061e+02
1.465022304907079631e+00 5.003952116156053762e+02
1.465122326911920458e+00 5.003788131319325316e+02
1.465222348916761508e+00 5.003622991918969092e+02
1.465322370921602557e+00 5.003456699191805228e+02
1.465422392926443607e+00 5.003289254398935100e+02
1.465522414931284878e+00 5.003120658825661167e+02
1.465622436936125927e+00 5.002950913781451163e+02
1.465722458940966977e+00 5.002780020599910245e+02
1.465822480945807804e+00 5.002607980638728122e+02
1.465922502950649076e+00 5.002434795279627338e+02
1.466022524955490125e+00 5.002260465928341659e+02
1.466122546960331174e+00 5.002084994014560948e+02
1.466222568965172224e+00 5.001908380991868057e+02
1.466322590970013273e+00 5.001730628337725193e+02
1.466422612974854545e+00 5.001551737553403427e+02
1.466522634979695372e+00 5.001371710163943476e+02
1.466622656984536421e+00 5.001190547718111929e+02
1.466722678989377471e+00 5.001008251788352936e+02
1.466822700994218742e+00 5.000824823970723969e+02
1.466922722999059792e+00 5.000640265884873088e+02
1.467022745003900841e+00 5.000454579173961065e+02
1.467122767008741890e+00 5.000267765504636372e+02
1.467222789013582718e+00 5.000079826566973225e+02
1.467322811018423767e+00 4.999890764074405638e+02
1.467422833023265039e+00 4.999700579763693327e+02
1.467522855028106088e+00 4.999509275394870542e+02
1.467622877032947137e+00 4.999316852751179567e+02
1.467722899037788409e+00 4.999123313639023536e+02
1.467822921042629458e+00 4.998928659887915273e+02
1.467922943047470286e+00 4.998732893350405675e+02
1.468022965052311335e+00 4.998536015902063241e+02
1.468122987057152384e+00 4.998338029441370054e+02
1.468223009061993434e+00 4.998138935889704726e+02
1.468323031066834705e+00 4.997938737191258269e+02
1.468423053071675755e+00 4.997737435312996581e+02
1.468523075076516804e+00 4.997535032244596209e+02
1.468623097081357631e+00 4.997331529998376141e+02
1.468723119086198903e+00 4.997126930609232431e+02
1.468823141091039952e+00 4.996921236134608080e+02
1.468923163095881002e+00 4.996714448654398097e+02
1.469023185100722051e+00 4.996506570270917678e+02
1.469123207105563100e+00 4.996297603108811245e+02
1.469223229110404372e+00 4.996087549315012097e+02
1.469323251115245199e+00 4.995876411058666804e+02
1.469423273120086249e+00 4.995664190531085751e+02
1.469523295124927298e+00 4.995450889945662993e+02
1.469623317129768569e+00 4.995236511537814863e+02
1.469723339134609619e+00 4.995021057564927105e+02
1.469823361139450668e+00 4.994804530306270181e+02
1.469923383144291718e+00 4.994586932062948677e+02
1.470023405149132545e+00 4.994368265157834230e+02
1.470123427153973594e+00 4.994148531935481401e+02
1.470223449158814866e+00 4.993927734762077080e+02
1.470323471163655915e+00 4.993705876025368866e+02
1.470423493168496965e+00 4.993482958134595151e+02
1.470523515173338236e+00 4.993258983520399852e+02
1.470623537178179285e+00 4.993033954634791485e+02
1.470723559183020113e+00 4.992807873951057900e+02
1.470823581187861162e+00 4.992580743963679311e+02
1.470923603192702211e+00 4.992352567188300441e+02
1.471023625197543261e+00 4.992123346161603195e+02
1.471123647202384532e+00 4.991893083441285626e+02
1.471223669207225582e+00 4.991661781605943133e+02
1.471323691212066631e+00 4.991429443255036063e+02
1.471423713216907458e+00 4.991196071008794206e+02
1.471523735221748730e+00 4.990961667508132678e+02
1.471623757226589779e+00 4.990726235414606435e+02
1.471723779231430829e+00 4.990489777410301713e+02
1.471823801236271878e+00 4.990252296197796227e+02
1.471923823241112927e+00 4.990013794500044924e+02
1.472023845245954199e+00 4.989774275060329956e+02
1.472123867250795026e+00 4.989533740642178259e+02
1.472223889255636076e+00 4.989292194029272878e+02
1.472323911260477125e+00 4.989049638025383047e+02
1.472423933265318396e+00 4.988806075454289157e+02
1.472523955270159446e+00 4.988561509159703746e+02
1.472623977275000495e+00 4.988315942005174861e+02
1.472723999279841545e+00 4.988069376874023533e+02
1.472824021284682372e+00 4.987821816669261921e+02
1.472924043289523421e+00 4.987573264313505206e+02
1.473024065294364693e+00 4.987323722748892578e+02
1.473124087299205742e+00 4.987073194937008793e+02
1.473224109304046792e+00 4.986821683858797769e+02
1.473324131308888063e+00 4.986569192514481870e+02
1.473424153313728890e+00 4.986315723923482324e+02
1.473524175318569940e+00 4.986061281124319748e+02
1.473624197323410989e+00 4.985805867174558443e+02
1.473724219328252039e+00 4.985549485150693272e+02
1.473824241333093088e+00 4.985292138148073491e+02
1.473924263337934359e+00 4.985033829280833402e+02
1.474024285342775409e+00 4.984774561681789464e+02
1.474124307347616236e+00 4.984514338502353894e+02
1.474224329352457286e+00 4.984253162912455082e+02
1.474324351357298557e+00 4.983991038100450623e+02
1.474424373362139606e+00 4.983727967273028980e+02
1.474524395366980656e+00 4.983463953655153773e+02
1.474624417371821705e+00 4.983199000489915420e+02
1.474724439376662755e+00 4.982933111038512379e+02
1.474824461381503582e+00 4.982666288580115861e+02
1.474924483386344853e+00 4.982398536411779446e+02
1.475024505391185903e+00 4.982129857848393613e+02
1.475124527396026952e+00 4.981860256222539647e+02
1.475224549400868224e+00 4.981589734884439622e+02
1.475324571405709273e+00 4.981318297201833047e+02
1.475424593410550322e+00 4.981045946559930826e+02
1.475524615415391150e+00 4.980772686361271440e+02
1.475624637420232199e+00 4.980498520025663538e+02
1.475724659425073249e+00 4.980223450990082483e+02
1.475824681429914520e+00 4.979947482708575990e+02
1.475924703434755569e+00 4.979670618652172607e+02
1.476024725439596619e+00 4.979392862308800431e+02
1.476124747444437890e+00 4.979114217183163760e+02
1.476224769449278718e+00 4.978834686796676579e+02
1.476324791454119767e+00 4.978554274687362522e+02
1.476424813458960816e+00 4.978272984409746869e+02
1.476524835463801866e+00 4.977990819534774118e+02
1.476624857468642915e+00 4.977707783649712496e+02
1.476724879473484187e+00 4.977423880358044244e+02
1.476824901478325236e+00 4.977139113279391722e+02
1.476924923483166063e+00 4.976853486049395769e+02
1.477024945488007113e+00 4.976567002319635549e+02
1.477124967492848384e+00 4.976279665757534758e+02
1.477224989497689434e+00 4.975991480046246807e+02
1.477325011502530483e+00 4.975702448884569549e+02
1.477425033507371532e+00 4.975412575986838419e+02
1.477525055512212582e+00 4.975121865082854811e+02
1.477625077517053409e+00 4.974830319917733732e+02
1.477725099521894681e+00 4.974537944251857766e+02
1.477825121526735730e+00 4.974244741860759973e+02
1.477925143531576779e+00 4.973950716535007359e+02
1.478025165536418051e+00 4.973655872080122435e+02
1.478125187541259100e+00 4.973360212316473508e+02
1.478225209546100150e+00 4.973063741079175202e+02
1.478325231550940977e+00 4.972766462217992967e+02
1.478425253555782026e+00 4.972468379597227113e+02
1.478525275560623076e+00 4.972169497095633233e+02
1.478625297565464347e+00 4.971869818606293734e+02
1.478725319570305397e+00 4.971569348036546216e+02
1.478825341575146446e+00 4.971268089307855575e+02
1.478925363579987717e+00 4.970966046355724757e+02
1.479025385584828545e+00 4.970663223129595281e+02
1.479125407589669594e+00 4.970359623592723892e+02
1.479225429594510643e+00 4.970055251722101843e+02
1.479325451599351693e+00 4.969750111508346890e+02
1.479425473604192742e+00 4.969444206955592449e+02
1.479525495609034014e+00 4.969137542081376751e+02
1.479625517613875063e+00 4.968830120916558144e+02
1.479725539618715890e+00 4.968521947505203116e+02
1.479825561623556940e+00 4.968213025904476012e+02
1.479925583628398211e+00 4.967903360184531039e+02
1.480025605633239261e+00 4.967592954428425855e+02
1.480125627638080310e+00 4.967281812731990271e+02
1.480225649642921359e+00 4.966969939203748936e+02
1.480325671647762409e+00 4.966657337964786620e+02
1.480425693652603236e+00 4.966344013148662953e+02
1.480525715657444508e+00 4.966029968901299867e+02
1.480625737662285557e+00 4.965715209380871329e+02
1.480725759667126606e+00 4.965399738757702721e+02
1.480825781671967878e+00 4.965083561214167389e+02
1.480925803676808927e+00 4.964766680944557038e+02
1.481025825681649977e+00 4.964449102155004994e+02
1.481125847686490804e+00 4.964130829063356600e+02
1.481225869691331853e+00 4.963811865899077134e+02
1.481325891696172903e+00 4.963492216903126746e+02
1.481425913701014174e+00 4.963171886327874063e+02
1.481525935705855224e+00 4.962850878436961466e+02
1.481625957710696273e+00 4.962529197505226648e+02
1.481725979715537544e+00 4.962206847818565620e+02
1.481826001720378372e+00 4.961883833673845174e+02
1.481926023725219421e+00 4.961560159378781805e+02
1.482026045730060471e+00 4.961235829251843938e+02
1.482126067734901520e+00 4.960910847622120059e+02
1.482226089739742569e+00 4.960585218829243672e+02
1.482326111744583841e+00 4.960258947223250061e+02
1.482426133749424890e+00 4.959932037164495569e+02
1.482526155754265718e+00 4.959604493023517762e+02
1.482626177759106767e+00 4.959276319180956989e+02
1.482726199763948038e+00 4.958947520027422797e+02
1.482826221768789088e+00 4.958618099963398436e+02
1.482926243773630137e+00 4.958288063399107841e+02
1.483026265778471187e+00 4.957957414754440606e+02
1.483126287783312236e+00 4.957626158458816690e+02
1.483226309788153063e+00 4.957294298951072733e+02
1.483326331792994335e+00 4.956961840679377929e+02
1.483426353797835384e+00 4.956628788101084524e+02
1.483526375802676434e+00 4.956295145682649945e+02
1.483626397807517705e+00 4.955960917899507763e+02
1.483726419812358754e+00 4.955626109235971626e+02
1.483826441817199804e+00 4.955290724185098270e+02
1.483926463822040631e+00 4.954954767248608505e+02
1.484026485826881681e+00 4.954618242936746810e+02
1.484126507831722730e+00 4.954281155768186409e+02
1.484226529836564001e+00 4.953943510269915578e+02
1.484326551841405051e+00 4.953605310977123963e+02
1.484426573846246100e+00 4.953266562433083209e+02
1.484526595851087372e+00 4.952927269189053163e+02
1.484626617855928199e+00 4.952587435804147162e+02
1.484726639860769248e+00 4.952247066845250743e+02
1.484826661865610298e+00 4.951906166886861911e+02
1.484926683870451347e+00 4.951564740511036575e+02
1.485026705875292397e+00 4.951222792307229952e+02
1.485126727880133668e+00 4.950880326872210730e+02
1.485226749884974717e+00 4.950537348809933178e+02
1.485326771889815545e+00 4.950193862731430272e+02
1.485426793894656594e+00 4.949849873254717636e+02
1.485526815899497866e+00 4.949505385004646314e+02
1.485626837904338915e+00 4.949160402612820917e+02
1.485726859909179964e+00 4.948814930717480252e+02
1.485826881914021014e+00 4.948468973963359190e+02
1.485926903918862063e+00 4.948122537001622732e+02
1.486026925923702890e+00 4.947775624489721622e+02
1.486126947928544162e+00 4.947428241091272412e+02
1.486226969933385211e+00 4.947080391475973329e+02
1.486326991938226261e+00 4.946732080319472971e+02
1.486427013943067532e+00 4.946383312303254343e+02
1.486527035947908582e+00 4.946034092114542773e+02
1.486627057952749631e+00 4.945684424446170055e+02
1.486727079957590458e+00 4.945334313996474975e+02
1.486827101962431508e+00 4.944983765469186778e+02
1.486927123967272557e+00 4.944632783573308643e+02
1.487027145972113829e+00 4.944281373023019341e+02
1.487127167976954878e+00 4.943929538537539088e+02
1.487227189981795927e+00 4.943577284841038590e+02
1.487327211986637199e+00 4.943224616662504332e+02
1.487427233991478026e+00 4.942871538735651029e+02
1.487527255996319075e+00 4.942518055798786918e+02
1.487627278001160125e+00 4.942164172594713705e+02
1.487727300006001174e+00 4.941809893870614587e+02
1.487827322010842224e+00 4.941455224377927493e+02
1.487927344015683495e+00 4.941100168872244467e+02
1.488027366020524545e+00 4.940744732113207647e+02
1.488127388025365372e+00 4.940388918864380230e+02
1.488227410030206421e+00 4.940032733893142449e+02
1.488327432035047693e+00 4.939676181970577318e+02
1.488427454039888742e+00 4.939319267871355805e+02
1.488527476044729791e+00 4.938961996373629972e+02
1.488627498049570841e+00 4.938604372258925537e+02
1.488727520054411890e+00 4.938246400312012270e+02
1.488827542059252718e+00 4.937888085320809068e+02
1.488927564064093989e+00 4.937529432076265152e+02
1.489027586068935038e+00 4.937170445372248082e+02
1.489127608073776088e+00 4.936811130005435189e+02
1.489227630078617359e+00 4.936451490775194202e+02
1.489327652083458409e+00 4.936091532483491164e+02
1.489427674088299458e+00 4.935731259934747754e+02
1.489527696093140285e+00 4.935370677935749200e+02
1.489627718097981335e+00 4.935009791295552759e+02
1.489727740102822384e+00 4.934648604825331404e+02
1.489827762107663656e+00 4.934287123338291963e+02
1.489927784112504705e+00 4.933925351649559730e+02
1.490027806117345754e+00 4.933563294576074441e+02
1.490127828122187026e+00 4.933200956936452712e+02
1.490227850127027853e+00 4.932838343550923241e+02
1.490327872131868903e+00 4.932475459241160820e+02
1.490427894136709952e+00 4.932112308830227221e+02
1.490527916141551001e+00 4.931748897142418855e+02
1.490627938146392051e+00 4.931385229003186623e+02
1.490727960151233322e+00 4.931021309239018819e+02
1.490827982156074150e+00 4.930657142677319484e+02
1.490928004160915199e+00 4.930292734146300972e+02
1.491028026165756248e+00 4.929928088474904939e+02
1.491128048170597520e+00 4.929563210492636358e+02
1.491228070175438569e+00 4.929198105029504404e+02
1.491328092180279619e+00 4.928832776915892282e+02
1.491428114185120668e+00 4.928467230982450928e+02
1.491528136189961495e+00 4.928101472059980779e+02
1.491628158194802545e+00 4.927735504979343091e+02
1.491728180199643816e+00 4.927369334571337163e+02
1.491828202204484866e+00 4.927002965666584942e+02
1.491928224209325915e+00 4.926636403095448031e+02
1.492028246214167186e+00 4.926269651687907185e+02
1.492128268219008236e+00 4.925902716273426449e+02
1.492228290223849063e+00 4.925535601680891773e+02
1.492328312228690113e+00 4.925168312738478562e+02
1.492428334233531162e+00 4.924800854273540267e+02
1.492528356238372211e+00 4.924433231112523117e+02
1.492628378243213483e+00 4.924065448080834244e+02
1.492728400248054532e+00 4.923697510002743911e+02
1.492828422252895582e+00 4.923329421701283763e+02
1.492928444257736409e+00 4.922961187998146215e+02
1.493028466262577680e+00 4.922592813713554278e+02
1.493128488267418730e+00 4.922224303666171750e+02
1.493228510272259779e+00 4.921855662673007714e+02
1.493328532277100829e+00 4.921486895549293195e+02
1.493428554281941878e+00 4.921118007108372581e+02
1.493528576286783149e+00 4.920749002161625754e+02
1.493628598291623977e+00 4.920379885518323704e+02
1.493728620296465026e+00 4.920010661985564866e+02
1.493828642301306076e+00 4.919641336368131306e+02
1.493928664306147347e+00 4.919271913468422781e+02
1.494028686310988396e+00 4.918902398086321455e+02
1.494128708315829446e+00 4.918532795019093555e+02
1.494228730320670495e+00 4.918163109061317755e+02
1.494328752325511322e+00 4.917793345004725438e+02
1.494428774330352372e+00 4.917423507638150113e+02
1.494528796335193643e+00 4.917053601747386438e+02
1.494628818340034693e+00 4.916683632115119735e+02
1.494728840344875742e+00 4.916313603520793549e+02
1.494828862349717014e+00 4.915943520740527788e+02
1.494928884354558063e+00 4.915573388547010154e+02
1.495028906359398890e+00 4.915203211709391553e+02
1.495128928364239940e+00 4.914832994993191733e+02
1.495228950369080989e+00 4.914462743160190143e+02
1.495328972373922038e+00 4.914092460968324758e+02
1.495428994378763310e+00 4.913722153171605100e+02
1.495529016383604359e+00 4.913351824519996853e+02
1.495629038388445409e+00 4.912981479759322383e+02
1.495729060393286236e+00 4.912611123631174905e+02
1.495829082398127508e+00 4.912240760872797409e+02
1.495929104402968557e+00 4.911870396217007624e+02
1.496029126407809606e+00 4.911500034392074667e+02
1.496129148412650656e+00 4.911129680121639467e+02
1.496229170417491705e+00 4.910759338124605620e+02
1.496329192422332977e+00 4.910389013115045600e+02
1.496429214427173804e+00 4.910018709802103558e+02
1.496529236432014853e+00 4.909648432889887317e+02
1.496629258436855903e+00 4.909278187077389362e+02
1.496729280441697174e+00 4.908907977058372580e+02
1.496829302446538223e+00 4.908537807521286140e+02
1.496929324451379273e+00 4.908167683149157483e+02
1.497029346456220322e+00 4.907797608619503080e+02
1.497129368461061150e+00 4.907427588604234074e+02
1.497229390465902199e+00 4.907057627769564760e+02
1.497329412470743470e+00 4.906687730775897194e+02
1.497429434475584520e+00 4.906317902277744452e+02
1.497529456480425569e+00 4.905948146923639115e+02
1.497629478485266841e+00 4.905578469356022424e+02
1.497729500490107890e+00 4.905208874211157308e+02
1.497829522494948717e+00 4.904839366119045962e+02
1.497929544499789767e+00 4.904469949703325256e+02
1.498029566504630816e+00 4.904100629581162707e+02
1.498129588509471866e+00 4.903731410363194527e+02
1.498229610514313137e+00 4.903362296653402836e+02
1.498329632519154186e+00 4.902993293049038925e+02
1.498429654523995236e+00 4.902624404140530601e+02
1.498529676528836063e+00 4.902255634511391804e+02
1.498629698533677335e+00 4.901886988738116884e+02
1.498729720538518384e+00 4.901518471390111245e+02
1.498829742543359433e+00 4.901150087029594715e+02
1.498929764548200483e+00 4.900781840211491271e+02
1.499029786553041532e+00 4.900413735483379583e+02
1.499129808557882804e+00 4.900045777385357724e+02
1.499229830562723631e+00 4.899677970449994291e+02
1.499329852567564680e+00 4.899310319202214714e+02
1.499429874572405730e+00 4.898942828159213150e+02
1.499529896577247001e+00 4.898575501830388248e+02
1.499629918582088051e+00 4.898208344717228897e+02
1.499729940586929100e+00 4.897841361313236348e+02
1.499829962591770149e+00 4.897474556103845202e+02
1.499929984596610977e+00 4.897107933566322799e+02
1.500030006601452026e+00 4.445932867724059179e+02
1.500130028606293298e+00 4.444513691353990907e+02
1.500230050611134347e+00 4.443094588037653807e+02
1.500330072615975396e+00 4.441675582358772658e+02
1.500430094620816668e+00 4.440256698899991648e+02
1.500530116625657717e+00 4.438837962242176900e+02
1.500630138630498545e+00 4.437419396963763916e+02
1.500730160635339594e+00 4.436001027640024290e+02
1.500830182640180643e+00 4.434582878842418268e+02
1.500930204645021693e+00 4.433164975137893862e+02
1.501030226649862964e+00 4.431747341088192798e+02
1.501130248654704014e+00 4.430330001249183738e+02
1.501230270659545063e+00 4.428912980170163678e+02
1.501330292664385890e+00 4.427496302393165024e+02
1.501430314669227162e+00 4.426079992452292231e+02
1.501530336674068211e+00 4.424664074873011259e+02
1.501630358678909261e+00 4.423248574171491896e+02
1.501730380683750310e+00 4.421833514853894371e+02
1.501830402688591359e+00 4.420418921415702584e+02
1.501930424693432631e+00 4.419004818341041414e+02
1.502030446698273458e+00 4.417591230101974702e+02
1.502130468703114508e+00 4.416178181157838480e+02
1.502230490707955557e+00 4.414765695954555440e+02
1.502330512712796828e+00 4.413353798923947124e+02
1.502430534717637878e+00 4.411942514483050672e+02
1.502530556722478927e+00 4.410531867033436129e+02
1.502630578727319977e+00 4.409121880960531144e+02
1.502730600732160804e+00 4.407712580632937147e+02
1.502830622737001853e+00 4.406303990401742681e+02
1.502930644741843125e+00 4.404896134599845254e+02
1.503030666746684174e+00 4.403489037541281164e+02
1.503130688751525224e+00 4.402082723520525178e+02
1.503230710756366495e+00 4.400677216811835706e+02
1.503330732761207544e+00 4.399272541668560734e+02
1.503430754766048372e+00 4.397868722322464237e+02
1.503530776770889421e+00 4.396465782983058261e+02
1.503630798775730470e+00 4.395063747836900347e+02
1.503730820780571520e+00 4.393662641046954604e+02
1.503830842785412791e+00 4.392262486751881170e+02
1.503930864790253841e+00 4.390863309065398425e+02
1.504030886795094890e+00 4.389465132075569613e+02
1.504130908799935717e+00 4.388067979844163915e+02
1.504230930804776989e+00 4.386671876405964667e+02
1.504330952809618038e+00 4.385276845768103158e+02
1.504430974814459088e+00 4.383882911909395830e+02
1.504530996819300137e+00 4.382490098779667278e+02
1.504631018824141186e+00 4.381098430299077791e+02
1.504731040828982458e+00 4.379707930357462260e+02
1.504831062833823285e+00 4.378318622813670800e+02
1.504931084838664335e+00 4.376930531494882644e+02
1.505031106843505384e+00 4.375543680195961542e+02
1.505131128848346656e+00 4.374158092678783305e+02
1.505231150853187705e+00 4.372773792671572437e+02
1.505331172858028754e+00 4.371390803868231387e+02
1.505431194862869804e+00 4.370009149927705607e+02
1.505531216867710631e+00 4.368628854473300294e+02
1.505631238872551680e+00 4.367249941092026120e+02
1.505731260877392952e+00 4.365872433333955200e+02
1.505831282882234001e+00 4.364496354711547497e+02
1.505931304887075051e+00 4.363121728699004507e+02
1.506031326891916322e+00 4.361748578731613861e+02
1.506131348896757371e+00 4.360376928205099603e+02
1.506231370901598199e+00 4.359006800474966212e+02
1.506331392906439248e+00 4.357638218855852301e+02
1.506431414911280298e+00 4.356271206620875773e+02
1.506531436916121347e+00 4.354905787000992632e+02
1.506631458920962618e+00 4.353541983184350102e+02
1.506731480925803668e+00 4.352179818315632929e+02
1.506831502930644717e+00 4.350819315495436967e+02
1.506931524935485545e+00 4.349460497779606953e+02
1.507031546940326816e+00 4.348103388178610089e+02
1.507131568945167865e+00 4.346748009656890872e+02
1.507231590950008915e+00 4.345394385132236152e+02
1.507331612954849964e+00 4.344042537475128825e+02
1.507431634959691014e+00 4.342692489508131644e+02
1.507531656964532285e+00 4.341344264005235800e+02
1.507631678969373112e+00 4.339997883691235643e+02
1.507731700974214162e+00 4.338653371241107379e+02
1.507831722979055211e+00 4.337310749279354809e+02
1.507931744983896483e+00 4.335970040379413035e+02
1.508031766988737532e+00 4.334631267063004429e+02
1.508131788993578581e+00 4.333294451799512217e+02
1.508231810998419409e+00 4.331959617005378504e+02
1.508331833003260458e+00 4.330626785043456266e+02
1.508431855008101508e+00 4.329295978222413623e+02
1.508531877012942779e+00 4.327967218796100610e+02
1.508631899017783828e+00 4.326640528962933558e+02
1.508731921022624878e+00 4.325315930865308474e+02
1.508831943027466149e+00 4.323993446588945631e+02
1.508931965032306977e+00 4.322673098162319434e+02
1.509031987037148026e+00 4.321354907556021203e+02
1.509132009041989075e+00 4.320038896682171981e+02
1.509232031046830125e+00 4.318725087393802369e+02
1.509332053051671174e+00 4.317413501484260223e+02
1.509432075056512446e+00 4.316104160686614364e+02
1.509532097061353495e+00 4.314797086673038393e+02
1.509632119066194322e+00 4.313492301054227482e+02
1.509732141071035372e+00 4.312189825378800379e+02
1.509832163075876643e+00 4.310889681132704823e+02
1.509932185080717693e+00 4.309591889738628083e+02
1.510032207085558742e+00 4.308296472555400669e+02
1.510132229090399791e+00 4.307003450877422210e+02
1.510232251095240841e+00 4.305712845934073130e+02
1.510332273100081668e+00 4.304424678889114375e+02
1.510432295104922940e+00 4.303138970840131492e+02
1.510532317109763989e+00 4.301855742817950841e+02
1.510632339114605038e+00 4.300575015786042172e+02
1.510732361119446310e+00 4.299296810639965543e+02
1.510832383124287359e+00 4.298021148206800035e+02
1.510932405129128409e+00 4.296748049244556569e+02
1.511032427133969236e+00 4.295477534441627085e+02
1.511132449138810285e+00 4.294209624416209863e+02
1.511232471143651335e+00 4.292944339715746196e+02
1.511332493148492606e+00 4.291681700816362763e+02
1.511432515153333656e+00 4.290421728122314562e+02
1.511532537158174705e+00 4.289164441965419883e+02
1.511632559163015976e+00 4.287909862604523710e+02
1.511732581167856804e+00 4.286658010224909958e+02
1.511832603172697853e+00 4.285408904937804664e+02
1.511932625177538903e+00 4.284162566779781400e+02
1.512032647182379952e+00 4.282919015712241162e+02
1.512132669187221001e+00 4.281678271620867235e+02
1.512232691192062273e+00 4.280440354315074387e+02
1.512332713196903322e+00 4.279205283527483061e+02
1.512432735201744149e+00 4.277973078913389031e+02
1.512532757206585199e+00 4.276743760050208039e+02
1.512632779211426470e+00 4.275517346436973867e+02
1.512732801216267520e+00 4.274293857493792075e+02
1.512832823221108569e+00 4.273073312561316470e+02
1.512932845225949618e+00 4.271855730900240360e+02
1.513032867230790668e+00 4.270641131690757675e+02
1.513132889235631495e+00 4.269429534032059337e+02
1.513232911240472767e+00 4.268220956941818258e+02
1.513332933245313816e+00 4.267015419355669792e+02
1.513432955250154865e+00 4.265812940126712078e+02
1.513532977254996137e+00 4.264613538024982518e+02
1.513632999259837186e+00 4.263417231736975737e+02
1.513733021264678236e+00 4.262224039865126315e+02
1.513833043269519063e+00 4.261033980927321636e+02
1.513933065274360112e+00 4.259847073356384044e+02
1.514033087279201162e+00 4.258663335499620075e+02
1.514133109284042433e+00 4.257482785618273624e+02
1.514233131288883483e+00 4.256305441887090524e+02
1.514333153293724532e+00 4.255131322393799564e+02
1.514433175298565804e+00 4.253960445138644673e+02
1.514533197303406631e+00 4.252792828033910837e+02
1.514633219308247680e+00 4.251628488903430139e+02
1.514733241313088730e+00 4.250467445482111657e+02
1.514833263317929779e+00 4.249309715415504343e+02
1.514933285322770828e+00 4.248155316259272354e+02
1.515033307327612100e+00 4.247004265478776688e+02
1.515133329332453149e+00 4.245856580448588034e+02
1.515233351337293977e+00 4.244712278452045666e+02
1.515333373342135026e+00 4.243571376680780531e+02
1.515433395346976297e+00 4.242433892234280393e+02
1.515533417351817347e+00 4.241299842119433379e+02
1.515633439356658396e+00 4.240169243250070394e+02
1.515733461361499446e+00 4.239042112446545616e+02
1.515833483366340495e+00 4.237918466435261280e+02
1.515933505371181322e+00 4.236798321848264095e+02
1.516033527376022594e+00 4.235681695222783105e+02
1.516133549380863643e+00 4.234568603000824396e+02
1.516233571385704693e+00 4.233459061528701568e+02
1.516333593390545964e+00 4.232353087056653749e+02
1.516433615395387013e+00 4.231250695738395962e+02
1.516533637400228063e+00 4.230151903630709853e+02
1.516633659405068890e+00 4.229056726693027599e+02
1.516733681409909940e+00 4.227965180787002168e+02
1.516833703414750989e+00 4.226877281676122493e+02
1.516933725419592260e+00 4.225793045025285437e+02
1.517033747424433310e+00 4.224712486400406419e+02
1.517133769429274359e+00 4.223635621268004456e+02
1.517233791434115631e+00 4.222562464994821880e+02
1.517333813438956458e+00 4.221493032847407108e+02
1.517433835443797507e+00 4.220427339991754820e+02
1.517533857448638557e+00 4.219365401492885326e+02
1.517633879453479606e+00 4.218307232314474504e+02
1.517733901458320656e+00 4.217252847318480917e+02
1.517833923463161927e+00 4.216202261264753020e+02
1.517933945468002976e+00 4.215155488810663655e+02
1.518033967472843804e+00 4.214112544510737735e+02
1.518133989477684853e+00 4.213073442816267971e+02
1.518234011482526125e+00 4.212038198074980642e+02
1.518334033487367174e+00 4.211006824530652466e+02
1.518434055492208223e+00 4.209979336322751351e+02
1.518534077497049273e+00 4.208955747486089081e+02
1.518634099501890322e+00 4.207936071950471728e+02
1.518734121506731150e+00 4.206920323540348932e+02
1.518834143511572421e+00 4.205908515974461466e+02
1.518934165516413470e+00 4.204900662865510412e+02
1.519034187521254520e+00 4.203896777719818374e+02
1.519134209526095791e+00 4.202896873936987845e+02
1.519234231530936841e+00 4.201900964809577772e+02
1.519334253535777890e+00 4.200909063522767042e+02
1.519434275540618717e+00 4.199921183154048663e+02
1.519534297545459767e+00 4.198937336672883021e+02
1.519634319550300816e+00 4.197957536940405134e+02
1.519734341555142088e+00 4.196981796709090986e+02
1.519834363559983137e+00 4.196010128622465913e+02
1.519934385564824186e+00 4.195042545214776624e+02
1.520034407569665458e+00 4.194079058910716071e+02
1.520134429574506285e+00 4.193119682025098882e+02
1.520234451579347335e+00 4.192164426762568610e+02
1.520334473584188384e+00 4.191213305217331708e+02
1.520434495589029433e+00 4.190266329372821019e+02
1.520534517593870483e+00 4.189323511101457029e+02
1.520634539598711754e+00 4.188384862164341484e+02
1.520734561603552804e+00 4.187450394210978288e+02
1.520834583608393631e+00 4.186520118779013728e+02
1.520934605613234680e+00 4.185594047293948847e+02
1.521034627618075952e+00 4.184672191068880238e+02
1.521134649622917001e+00 4.183754561304242543e+02
1.521234671627758051e+00 4.182841169087533899e+02
1.521334693632599100e+00 4.181932025393066965e+02
1.521434715637440149e+00 4.181027141081723357e+02
1.521534737642280977e+00 4.180126526900685349e+02
1.521634759647122248e+00 4.179230193483213611e+02
1.521734781651963297e+00 4.178338151348379483e+02
1.521834803656804347e+00 4.177450410900853512e+02
1.521934825661645618e+00 4.176566982430653070e+02
1.522034847666486668e+00 4.175687876112917252e+02
1.522134869671327717e+00 4.174813102007670977e+02
1.522234891676168544e+00 4.173942670059620923e+02
1.522334913681009594e+00 4.173076590097915641e+02
1.522434935685850643e+00 4.172214871835938652e+02
1.522534957690691915e+00 4.171357524871101532e+02
1.522634979695532964e+00 4.170504558684618814e+02
1.522735001700374013e+00 4.169655982641322680e+02
1.522835023705215285e+00 4.168811805989446384e+02
1.522935045710056112e+00 4.167972037860430419e+02
1.523035067714897162e+00 4.167136687268738910e+02
1.523135089719738211e+00 4.166305763111649298e+02
1.523235111724579260e+00 4.165479274169094879e+02
1.523335133729420310e+00 4.164657229103454483e+02
1.523435155734261581e+00 4.163839636459380813e+02
1.523535177739102631e+00 4.163026504663648097e+02
1.523635199743943458e+00 4.162217842024944048e+02
1.523735221748784507e+00 4.161413656733728885e+02
1.523835243753625779e+00 4.160613956862073906e+02
1.523935265758466828e+00 4.159818750363471622e+02
1.524035287763307878e+00 4.159028045072720943e+02
1.524135309768148927e+00 4.158241848705734469e+02
1.524235331772989976e+00 4.157460168859428222e+02
1.524335353777830804e+00 4.156683013011551111e+02
1.524435375782672075e+00 4.155910388520550214e+02
1.524535397787513125e+00 4.155142302625441175e+02
1.524635419792354174e+00 4.154378762445663824e+02
1.524735441797195445e+00 4.153619774980966213e+02
1.524835463802036495e+00 4.152865347111263645e+02
1.524935485806877544e+00 4.152115485596532949e+02
1.525035507811718372e+00 4.151370197076680597e+02
1.525135529816559421e+00 4.150629488071439823e+02
1.525235551821400470e+00 4.149893364980252954e+02
1.525335573826241742e+00 4.149161834082176483e+02
1.525435595831082791e+00 4.148434901535758286e+02
1.525535617835923841e+00 4.147712573378961451e+02
1.525635639840764668e+00 4.146994855529052870e+02
1.525735661845605939e+00 4.146281753782523083e+02
1.525835683850446989e+00 4.145573273814997037e+02
1.525935705855288038e+00 4.144869421181140865e+02
1.526035727860129088e+00 4.144170201314606743e+02
1.526135749864970137e+00 4.143475619527930007e+02
1.526235771869811408e+00 4.142785681012466057e+02
1.526335793874652236e+00 4.142100390838335215e+02
1.526435815879493285e+00 4.141419753954350540e+02
1.526535837884334335e+00 4.140743775187951314e+02
1.526635859889175606e+00 4.140072459245159280e+02
1.526735881894016655e+00 4.139405810710514402e+02
1.526835903898857705e+00 4.138743834047040195e+02
1.526935925903698754e+00 4.138086533596179493e+02
1.527035947908539582e+00 4.137433913577776821e+02
1.527135969913380631e+00 4.136785978090027811e+02
1.527235991918221902e+00 4.136142731109445094e+02
1.527336013923062952e+00 4.135504176490844657e+02
1.527436035927904001e+00 4.134870317967298661e+02
1.527536057932745273e+00 4.134241159150129192e+02
1.527636079937586322e+00 4.133616703528890639e+02
1.527736101942427149e+00 4.132996954471350932e+02
1.527836123947268199e+00 4.132381915223480746e+02
1.527936145952109248e+00 4.131771588909452930e+02
1.528036167956950298e+00 4.131165978531637961e+02
1.528136189961791569e+00 4.130565086970611901e+02
1.528236211966632618e+00 4.129968916985149576e+02
1.528336233971473668e+00 4.129377471212243904e+02
1.528436255976314495e+00 4.128790752167116693e+02
1.528536277981155767e+00 4.128208762243243655e+02
1.528636299985996816e+00 4.127631503712358949e+02
1.528736321990837865e+00 4.127058978724502367e+02
1.528836343995678915e+00 4.126491189308019898e+02
1.528936366000519964e+00 4.125928137369628530e+02
1.529036388005361236e+00 4.125369824694424778e+02
1.529136410010202063e+00 4.124816252945948349e+02
1.529236432015043112e+00 4.124267423666211698e+02
1.529336454019884162e+00 4.123723338275755168e+02
1.529436476024725433e+00 4.123183998073689054e+02
1.529536498029566483e+00 4.122649404237770341e+02
1.529636520034407532e+00 4.122119557824436242e+02
1.529736542039248581e+00 4.121594459768892307e+02
1.529836564044089409e+00 4.121074110885160735e+02
1.529936586048930458e+00 4.120558511866166214e+02
1.530036608053771729e+00 4.120047663283796169e+02
1.530136630058612779e+00 4.119541565588994558e+02
1.530236652063453828e+00 4.119040219111834631e+02
1.530336674068295100e+00 4.118543624061612718e+02
1.530436696073136149e+00 4.118051780526928383e+02
1.530536718077976976e+00 4.117564688475795833e+02
1.530636740082818026e+00 4.117082347755717251e+02
1.530736762087659075e+00 4.116604758093808982e+02
1.530836784092500125e+00 4.116131919096889078e+02
1.530936806097341396e+00 4.115663830251602349e+02
1.531036828102182445e+00 4.115200490924515293e+02
1.531136850107023495e+00 4.114741900362245701e+02
1.531236872111864322e+00 4.114288057691583731e+02
1.531336894116705594e+00 4.113838961919618100e+02
1.531436916121546643e+00 4.113394611933838405e+02
1.531536938126387692e+00 4.112955006502309061e+02
1.531636960131228742e+00 4.112520144273775031e+02
1.531736982136069791e+00 4.112090023777813030e+02
1.531837004140911063e+00 4.111664643424963970e+02
1.531937026145751890e+00 4.111244001506886434e+02
1.532037048150592939e+00 4.110828096196524370e+02
1.532137070155433989e+00 4.110416925548227596e+02
1.532237092160275260e+00 4.110010487497933127e+02
1.532337114165116310e+00 4.109608779863322638e+02
1.532437136169957359e+00 4.109211800343986738e+02
1.532537158174798408e+00 4.108819546521585266e+02
1.532637180179639236e+00 4.108432015860045112e+02
1.532737202184480285e+00 4.108049205705702889e+02
1.532837224189321557e+00 4.107671113287503317e+02
1.532937246194162606e+00 4.107297735717196474e+02
1.533037268199003655e+00 4.106929069989496384e+02
1.533137290203844927e+00 4.106565112982290771e+02
1.533237312208685976e+00 4.106205861456833190e+02
1.533337334213526804e+00 4.105851312057936866e+02
1.533437356218367853e+00 4.105501461314175913e+02
1.533537378223208902e+00 4.105156305638099639e+02
1.533637400228049952e+00 4.104815841326437749e+02
1.533737422232891223e+00 4.104480064560300434e+02
1.533837444237732273e+00 4.104148971405419388e+02
1.533937466242573322e+00 4.103822557812345053e+02
1.534037488247414149e+00 4.103500819616685931e+02
1.534137510252255421e+00 4.103183752539322313e+02
1.534237532257096470e+00 4.102871352186643890e+02
1.534337554261937520e+00 4.102563614050793035e+02
1.534437576266778569e+00 4.102260533509881952e+02
1.534537598271619618e+00 4.101962105828253016e+02
1.534637620276460890e+00 4.101668326156703870e+02
1.534737642281301717e+00 4.101379189532764258e+02
1.534837664286142767e+00 4.101094690880919416e+02
1.534937686290983816e+00 4.100814825012874394e+02
1.535037708295825087e+00 4.100539586627829749e+02
1.535137730300666137e+00 4.100268970312712327e+02
1.535237752305507186e+00 4.100002970542467438e+02
1.535337774310348236e+00 4.099741581680310105e+02
1.535437796315189063e+00 4.099484797978019515e+02
1.535537818320030112e+00 4.099232613576181166e+02
1.535637840324871384e+00 4.098985022504510312e+02
1.535737862329712433e+00 4.098742018682087860e+02
1.535837884334553483e+00 4.098503595917680968e+02
1.535937906339394754e+00 4.098269747910019305e+02
1.536037928344235803e+00 4.098040468248084380e+02
1.536137950349076631e+00 4.097815750411421618e+02
1.536237972353917680e+00 4.097595587770418888e+02
1.536337994358758730e+00 4.097379973586616870e+02
1.536438016363599779e+00 4.097168901013032496e+02
1.536538038368441050e+00 4.096962363094443731e+02
1.536638060373282100e+00 4.096760352767713584e+02
1.536738082378123149e+00 4.096562862862106726e+02
1.536838104382963976e+00 4.096369886099606674e+02
1.536938126387805248e+00 4.096181415095248894e+02
1.537038148392646297e+00 4.095997442357416958e+02
1.537138170397487347e+00 4.095817960288210884e+02
1.537238192402328396e+00 4.095642961183759212e+02
1.537338214407169446e+00 4.095472437234540735e+02
1.537438236412010717e+00 4.095306380525755117e+02
1.537538258416851544e+00 4.095144783037649177e+02
1.537638280421692594e+00 4.094987636645843168e+02
1.537738302426533643e+00 4.094834933121721861e+02
1.537838324431374915e+00 4.094686664132740930e+02
1.537938346436215964e+00 4.094542821242819741e+02
1.538038368441057013e+00 4.094403395912667634e+02
1.538138390445898063e+00 4.094268379500170454e+02
1.538238412450738890e+00 4.094137763260731617e+02
1.538338434455579939e+00 4.094011538347661485e+02
1.538438456460421211e+00 4.093889695812530931e+02
1.538538478465262260e+00 4.093772226605552760e+02
1.538638500470103310e+00 4.093659121575949484e+02
1.538738522474944581e+00 4.093550371472352936e+02
1.538838544479785631e+00 4.093445966943145891e+02
1.538938566484626458e+00 4.093345898536908862e+02
1.539038588489467507e+00 4.093250156702742402e+02
1.539138610494308557e+00 4.093158731790712181e+02
1.539238632499149606e+00 4.093071614052195173e+02
1.539338654503990877e+00 4.092988793640325298e+02
1.539438676508831927e+00 4.092910260610361206e+02
1.539538698513672976e+00 4.092836004920086452e+02
1.539638720518513804e+00 4.092766016430251739e+02
1.539738742523355075e+00 4.092700284904930186e+02
1.539838764528196124e+00 4.092638800011979470e+02
1.539938786533037174e+00 4.092581551323423810e+02
1.540038808537878223e+00 4.092528528315883136e+02
1.540138830542719273e+00 4.092479720370992595e+02
1.540238852547560544e+00 4.092435116775824326e+02
1.540338874552401371e+00 4.092394706723310946e+02
1.540438896557242421e+00 4.092358479312683812e+02
1.540538918562083470e+00 4.092326423549886272e+02
1.540638940566924742e+00 4.092298528348027844e+02
1.540738962571765791e+00 4.092274782527807133e+02
1.540838984576606840e+00 4.092255174817951229e+02
1.540939006581447890e+00 4.092239693855669316e+02
1.541039028586288717e+00 4.092228328187089232e+02
1.541139050591129767e+00 4.092221066267695733e+02
1.541239072595971038e+00 4.092217896462802855e+02
1.541339094600812087e+00 4.092218807047992186e+02
1.541439116605653137e+00 4.092223786209561354e+02
1.541539138610494408e+00 4.092232822045000376e+02
1.541639160615335458e+00 4.092245902563440154e+02
1.541739182620176285e+00 4.092263015686113476e+02
1.541839204625017334e+00 4.092284149246834204e+02
1.541939226629858384e+00 4.092309290992440651e+02
1.542039248634699433e+00 4.092338428583299219e+02
1.542139270639540705e+00 4.092371549593750615e+02
1.542239292644381754e+00 4.092408641512594727e+02
1.542339314649222803e+00 4.092449691743571520e+02
1.542439336654063631e+00 4.092494687605833974e+02
1.542539358658904902e+00 4.092543616334444323e+02
1.542639380663745952e+00 4.092596465080839607e+02
1.542739402668587001e+00 4.092653220913335872e+02
1.542839424673428050e+00 4.092713870817616453e+02
1.542939446678269100e+00 4.092778401697217419e+02
1.543039468683109927e+00 4.092846800374015857e+02
1.543139490687951199e+00 4.092919053588754537e+02
1.543239512692792248e+00 4.092995148001513144e+02
1.543339534697633297e+00 4.093075070192215890e+02
1.543439556702474569e+00 4.093158806661142535e+02
1.543539578707315618e+00 4.093246343829442253e+02
1.543639600712156668e+00 4.093337668039613959e+02
1.543739622716997495e+00 4.093432765556040636e+02
1.543839644721838544e+00 4.093531622565496946e+02
1.543939666726679594e+00 4.093634225177665371e+02
1.544039688731520865e+00 4.093740559425647803e+02
1.544139710736361915e+00 4.093850611266476562e+02
1.544239732741202964e+00 4.093964366581660101e+02
1.544339754746044235e+00 4.094081811177687769e+02
1.544439776750885063e+00 4.094202930786558454e+02
1.544539798755726112e+00 4.094327711066313213e+02
1.544639820760567162e+00 4.094456137601555952e+02
1.544739842765408211e+00 4.094588195903993437e+02
1.544839864770249260e+00 4.094723871412966787e+02
1.544939886775090532e+00 4.094863149495978405e+02
1.545039908779931581e+00 4.095006015449244501e+02
1.545139930784772409e+00 4.095152454498228849e+02
1.545239952789613458e+00 4.095302451798165748e+02
1.545339974794454729e+00 4.095455992434639256e+02
1.545439996799295779e+00 4.095613061424095918e+02
1.545540018804136828e+00 4.095773643714403534e+02
1.545640040808977878e+00 4.095937724185409365e+02
1.545740062813818927e+00 4.096105287649478441e+02
1.545840084818659754e+00 4.096276318852033000e+02
1.545940106823501026e+00 4.096450802472155601e+02
1.546040128828342075e+00 4.096628723123085933e+02
1.546140150833183124e+00 4.096810065352813126e+02
1.546240172838024396e+00 4.096994813644624287e+02
1.546340194842865445e+00 4.097182952417674073e+02
1.546440216847706495e+00 4.097374466027538347e+02
1.546540238852547322e+00 4.097569338766777491e+02
1.546640260857388371e+00 4.097767554865520196e+02
1.546740282862229421e+00 4.097969098491996078e+02
1.546840304867070692e+00 4.098173953753150727e+02
1.546940326871911742e+00 4.098382104695167527e+02
1.547040348876752791e+00 4.098593535304093507e+02
1.547140370881594063e+00 4.098808229506360021e+02
1.547240392886434890e+00 4.099026171169392114e+02
1.547340414891275939e+00 4.099247344102180932e+02
1.547440436896116989e+00 4.099471732055847610e+02
1.547540458900958038e+00 4.099699318724245813e+02
1.547640480905799087e+00 4.099930087744515959e+02
1.547740502910640359e+00 4.100164022697688893e+02
1.547840524915481408e+00 4.100401107109269105e+02
1.547940546920322236e+00 4.100641324449803164e+02
1.548040568925163285e+00 4.100884658135486802e+02
1.548140590930004556e+00 4.101131091528739034e+02
1.548240612934845606e+00 4.101380607938800154e+02
1.548340634939686655e+00 4.101633190622312668e+02
1.548440656944527705e+00 4.101888822783930095e+02
1.548540678949368754e+00 4.102147487576887670e+02
1.548640700954209581e+00 4.102409168103617958e+02
1.548740722959050853e+00 4.102673847416332364e+02
1.548840744963891902e+00 4.102941508517633906e+02
1.548940766968732952e+00 4.103212134361081098e+02
1.549040788973574223e+00 4.103485707851837105e+02
1.549140810978415272e+00 4.103762211847227945e+02
1.549240832983256322e+00 4.104041629157356965e+02
1.549340854988097149e+00 4.104323942545719888e+02
1.549440876992938199e+00 4.104609134729790867e+02
1.549540898997779248e+00 4.104897188381641513e+02
1.549640921002620519e+00 4.105188086128526379e+02
1.549740943007461569e+00 4.105481810553516766e+02
1.549840965012302618e+00 4.105778344196082230e+02
1.549940987017143890e+00 4.106077669552713019e+02
1.550041009021984717e+00 4.106379769077531705e+02
1.550141031026825766e+00 4.106684625182894592e+02
1.550241053031666816e+00 4.106992220240007327e+02
1.550341075036507865e+00 4.107302536579535399e+02
1.550441097041348915e+00 4.107615556492214068e+02
1.550541119046190186e+00 4.107931262229478193e+02
1.550641141051031235e+00 4.108249636004048284e+02
1.550741163055872063e+00 4.108570659990571130e+02
1.550841185060713112e+00 4.108894316326234275e+02
1.550941207065554384e+00 4.109220587111351506e+02
1.551041229070395433e+00 4.109549454410027352e+02
1.551141251075236482e+00 4.109880900250736886e+02
1.551241273080077532e+00 4.110214906626961806e+02
1.551341295084918581e+00 4.110551455497807183e+02
1.551441317089759409e+00 4.110890528788625033e+02
1.551541339094600680e+00 4.111232108391624251e+02
1.551641361099441729e+00 4.111576176166508958e+02
1.551741383104282779e+00 4.111922713941064558e+02
1.551841405109124050e+00 4.112271703511846681e+02
1.551941427113965100e+00 4.112623126644721765e+02
1.552041449118806149e+00 4.112976965075550311e+02
1.552141471123646976e+00 4.113333200510794541e+02
1.552241493128488026e+00 4.113691814628124348e+02
1.552341515133329075e+00 4.114052789077074976e+02
1.552441537138170347e+00 4.114416105479637054e+02
1.552541559143011396e+00 4.114781745430905175e+02
1.552641581147852445e+00 4.115149690499702047e+02
1.552741603152693717e+00 4.115519922229188978e+02
1.552841625157534544e+00 4.115892422137515609e+02
1.552941647162375594e+00 4.116267171718419604e+02
1.553041669167216643e+00 4.116644152441874098e+02
1.553141691172057692e+00 4.117023345754710135e+02
1.553241713176898742e+00 4.117404733081238533e+02
1.553341735181740013e+00 4.117788295823884823e+02
1.553441757186581063e+00 4.118174015363811122e+02
1.553541779191421890e+00 4.118561873061543110e+02
1.553641801196262939e+00 4.118951850257601563e+02
1.553741823201104211e+00 4.119343928273140705e+02
1.553841845205945260e+00 4.119738088410546766e+02
1.553941867210786310e+00 4.120134311954109307e+02
1.554041889215627359e+00 4.120532580170595907e+02
1.554141911220468408e+00 4.120932874309938256e+02
1.554241933225309236e+00 4.121335175605811401e+02
1.554341955230150507e+00 4.121739465276297665e+02
1.554441977234991557e+00 4.122145724524490902e+02
1.554541999239832606e+00 4.122553934539143938e+02
1.554642021244673877e+00 4.122964076495276231e+02
1.554742043249514927e+00 4.123376131554816766e+02
1.554842065254355976e+00 4.123790080867229335e+02
1.554942087259196803e+00 4.124205905570145205e+02
1.555042109264037853e+00 4.124623586789967931e+02
1.555142131268878902e+00 4.125043105642528189e+02
1.555242153273720174e+00 4.125464443233706788e+02
1.555342175278561223e+00 4.125887580660042886e+02
1.555442197283402272e+00 4.126312499009375756e+02
1.555542219288243544e+00 4.126739179361472907e+02
1.555642241293084371e+00 4.127167602788641716e+02
1.555742263297925421e+00 4.127597750356382562e+02
1.555842285302766470e+00 4.128029603123978859e+02
1.555942307307607519e+00 4.128463142145147913e+02
1.556042329312448569e+00 4.128898348468657105e+02
1.556142351317289840e+00 4.129335203138953716e+02
1.556242373322130890e+00 4.129773687196773153e+02
1.556342395326971717e+00 4.130213781679781277e+02
1.556442417331812766e+00 4.130655467623186610e+02
1.556542439336654038e+00 4.131098726060365607e+02
1.556642461341495087e+00 4.131543538023489646e+02
1.556742483346336137e+00 4.131989884544128699e+02
1.556842505351177186e+00 4.132437746653894806e+02
1.556942527356018235e+00 4.132887105385052564e+02
1.557042549360859063e+00 4.133337941771127930e+02
1.557142571365700334e+00 4.133790236847548840e+02
1.557242593370541384e+00 4.134243971652250593e+02
1.557342615375382433e+00 4.134699127226282940e+02
1.557442637380223704e+00 4.135155684614451275e+02
1.557542659385064754e+00 4.135613624865923157e+02
1.557642681389905803e+00 4.136072929034830850e+02
1.557742703394746631e+00 4.136533578180910240e+02
1.557842725399587680e+00 4.136995553370080643e+02
1.557942747404428729e+00 4.137458835675104751e+02
1.558042769409270001e+00 4.137923406176159347e+02
1.558142791414111050e+00 4.138389245961461143e+02
1.558242813418952100e+00 4.138856336127887516e+02
1.558342835423793371e+00 4.139324657781575638e+02
1.558442857428634198e+00 4.139794192038528990e+02
1.558542879433475248e+00 4.140264920025231845e+02
1.558642901438316297e+00 4.140736822879260899e+02
1.558742923443157347e+00 4.141209881749879855e+02
1.558842945447998396e+00 4.141684077798644807e+02
1.558942967452839667e+00 4.142159392200020989e+02
1.559042989457680717e+00 4.142635806141980197e+02
1.559143011462521544e+00 4.143113300826589693e+02
1.559243033467362594e+00 4.143591857470633499e+02
1.559343055472203865e+00 4.144071457306203001e+02
1.559443077477044914e+00 4.144552081581290963e+02
1.559543099481885964e+00 4.145033711560394067e+02
1.559643121486727013e+00 4.145516328525115455e+02
1.559743143491568063e+00 4.145999913774749075e+02
1.559843165496408890e+00 4.146484448626884500e+02
1.559943187501250161e+00 4.146969914417984455e+02
1.560043209506091211e+00 4.147456292503995883e+02
1.560143231510932260e+00 4.147943564260925768e+02
1.560243253515773532e+00 4.148431711085439133e+02
1.560343275520614581e+00 4.148920714395441109e+02
1.560443297525455408e+00 4.149410555630657313e+02
1.560543319530296458e+00 4.149901216253246616e+02
1.560643341535137507e+00 4.150392677748347978e+02
1.560743363539978557e+00 4.150884921624697199e+02
1.560843385544819828e+00 4.151377929415180574e+02
1.560943407549660877e+00 4.151871682677424928e+02
1.561043429554501927e+00 4.152366162994381398e+02
1.561143451559342754e+00 4.152861351974904665e+02
1.561243473564184026e+00 4.153357231254309454e+02
1.561343495569025075e+00 4.153853782494966254e+02
1.561443517573866124e+00 4.154350987386864063e+02
1.561543539578707174e+00 4.154848827648173710e+02
1.561643561583548223e+00 4.155347285025831070e+02
1.561743583588389495e+00 4.155846341296102651e+02
1.561843605593230322e+00 4.156345978265137546e+02
1.561943627598071371e+00 4.156846177769558039e+02
1.562043649602912421e+00 4.157346921676992793e+02
1.562143671607753692e+00 4.157848191886662903e+02
1.562243693612594742e+00 4.158349970329926464e+02
1.562343715617435791e+00 4.158852238970841881e+02
1.562443737622276840e+00 4.159354979806731194e+02
1.562543759627117668e+00 4.159858174868716105e+02
1.562643781631958717e+00 4.160361806222294945e+02
1.562743803636799989e+00 4.160865855967871312e+02
1.562843825641641038e+00 4.161370306241319099e+02
1.562943847646482087e+00 4.161875139214521937e+02
1.563043869651323359e+00 4.162380337095933100e+02
1.563143891656164408e+00 4.162885882131085964e+02
1.563243913661005235e+00 4.163391756603178919e+02
1.563343935665846285e+00 4.163897942833586399e+02
1.563443957670687334e+00 4.164404423182408550e+02
1.563543979675528384e+00 4.164911180049004429e+02
1.563644001680369655e+00 4.165418195872524620e+02
1.563744023685210704e+00 4.165925453132453526e+02
1.563844045690051754e+00 4.166432934349130619e+02
1.563944067694892581e+00 4.166940622084284200e+02
1.564044089699733853e+00 4.167448498941548110e+02
1.564144111704574902e+00 4.167956547567002872e+02
1.564244133709415951e+00 4.168464750649688995e+02
1.564344155714257001e+00 4.168973090922129359e+02
1.564444177719098050e+00 4.169481551160842514e+02
1.564544199723939322e+00 4.169990114186874166e+02
1.564644221728780149e+00 4.170498762866292282e+02
1.564744243733621198e+00 4.171007480110716870e+02
1.564844265738462248e+00 4.171516248877819066e+02
1.564944287743303519e+00 4.172025052171832158e+02
1.565044309748144569e+00 4.172533873044056349e+02
1.565144331752985618e+00 4.173042694593378883e+02
1.565244353757826667e+00 4.173551499966744700e+02
1.565344375762667495e+00 4.174060272359682813e+02
1.565444397767508544e+00 4.174568995016791177e+02
1.565544419772349816e+00 4.175077651232238622e+02
1.565644441777190865e+00 4.175586224350239490e+02
1.565744463782031914e+00 4.176094697765580577e+02
1.565844485786873186e+00 4.176603054924066214e+02
1.565944507791714235e+00 4.177111279323036115e+02
1.566044529796555063e+00 4.177619354511841152e+02
1.566144551801396112e+00 4.178127264092313453e+02
1.566244573806237161e+00 4.178634991719255822e+02
1.566344595811078211e+00 4.179142521100914109e+02
1.566444617815919482e+00 4.179649835999466063e+02
1.566544639820760532e+00 4.180156920231464142e+02
1.566644661825601581e+00 4.180663757668332892e+02
1.566744683830442408e+00 4.181170332236811191e+02
1.566844705835283680e+00 4.181676627919456450e+02
1.566944727840124729e+00 4.182182628755040810e+02
1.567044749844965779e+00 4.182688318839092858e+02
1.567144771849806828e+00 4.183193682324287579e+02
1.567244793854647877e+00 4.183698703420937477e+02
1.567344815859489149e+00 4.184203366397417199e+02
1.567444837864329976e+00 4.184707655580649543e+02
1.567544859869171026e+00 4.185211555356523832e+02
1.567644881874012075e+00 4.185715050170343261e+02
1.567744903878853346e+00 4.186218124527290456e+02
1.567844925883694396e+00 4.186720762992833897e+02
1.567944947888535445e+00 4.187222950193181532e+02
1.568044969893376495e+00 4.187724670815722448e+02
1.568144991898217322e+00 4.188225909609444670e+02
1.568245013903058371e+00 4.188726651385367745e+02
1.568345035907899643e+00 4.189226881016983270e+02
1.568445057912740692e+00 4.189726583440651098e+02
1.568545079917581742e+00 4.190225743656039867e+02
1.568645101922423013e+00 4.190724346726548788e+02
1.568745123927264062e+00 4.191222377779708950e+02
1.568845145932104890e+00 4.191719822007602829e+02
1.568945167936945939e+00 4.192216664667276973e+02
1.569045189941786989e+00 4.192712891081151270e+02
1.569145211946628038e+00 4.193208486637410601e+02
1.569245233951469309e+00 4.193703436790422643e+02
1.569345255956310359e+00 4.194197727061125534e+02
1.569445277961151408e+00 4.194691343037436013e+02
1.569545299965992236e+00 4.195184270374626863e+02
1.569645321970833507e+00 4.195676494795733902e+02
1.569745343975674556e+00 4.196168002091941389e+02
1.569845365980515606e+00 4.196658778122949229e+02
1.569945387985356655e+00 4.197148808817379404e+02
1.570045409990197705e+00 4.197638080173139201e+02
1.570145431995038976e+00 4.198126578257810024e+02
1.570245453999879803e+00 4.198614289209009485e+02
1.570345476004720853e+00 4.199101199234767137e+02
1.570445498009561902e+00 4.199587294613887707e+02
1.570545520014403174e+00 4.200072561696342177e+02
1.570645542019244223e+00 4.200556986903573033e+02
1.570745564024085272e+00 4.201040556728925708e+02
1.570845586028926322e+00 4.201523257737937342e+02
1.570945608033767149e+00 4.202005076568739241e+02
1.571045630038608198e+00 4.202485999932387131e+02
1.571145652043449470e+00 4.202966014613193693e+02
1.571245674048290519e+00 4.203445107469112827e+02
1.571345696053131569e+00 4.203923265432031258e+02
1.571445718057972840e+00 4.204400475508150521e+02
1.571545740062813890e+00 4.204876724778301877e+02
1.571645762067654717e+00 4.205352000398272594e+02
1.571745784072495766e+00 4.205826289599149277e+02
1.571845806077336816e+00 4.206299579687632786e+02
1.571945828082177865e+00 4.206771858046371335e+02
1.572045850087019137e+00 4.207243112134267449e+02
1.572145872091860186e+00 4.207713329486821294e+02
1.572245894096701235e+00 4.208182497716404669e+02
1.572345916101542063e+00 4.208650604512599784e+02
1.572445938106383334e+00 4.209117637642504519e+02
1.572545960111224383e+00 4.209583584951033117e+02
1.572645982116065433e+00 4.210048434361211775e+02
1.572746004120906482e+00 4.210512173874481050e+02
1.572846026125747532e+00 4.210974791570997127e+02
1.572946048130588803e+00 4.211436275609916038e+02
1.573046070135429630e+00 4.211896614229686975e+02
1.573146092140270680e+00 4.212355795748328546e+02
1.573246114145111729e+00 4.212813808563733460e+02
1.573346136149953001e+00 4.213270641153914653e+02
1.573446158154794050e+00 4.213726282077315091e+02
1.573546180159635099e+00 4.214180719973062423e+02
1.573646202164476149e+00 4.214633943561231604e+02
1.573746224169316976e+00 4.215085941643127967e+02
1.573846246174158026e+00 4.215536703101550984e+02
1.573946268178999297e+00 4.215986216901039825e+02
1.574046290183840346e+00 4.216434472088126881e+02
1.574146312188681396e+00 4.216881457791625962e+02
1.574246334193522667e+00 4.217327163222846593e+02
1.574346356198363717e+00 4.217771577675845265e+02
1.574446378203204544e+00 4.218214690527685775e+02
1.574546400208045593e+00 4.218656491238675130e+02
1.574646422212886643e+00 4.219096969352589213e+02
1.574746444217727692e+00 4.219536114496920618e+02
1.574846466222568964e+00 4.219973916383094661e+02
1.574946488227410013e+00 4.220410364806715506e+02
1.575046510232251062e+00 4.220845449647774785e+02
1.575146532237091890e+00 4.221279160870876694e+02
1.575246554241933161e+00 4.221711488525463665e+02
1.575346576246774211e+00 4.222142422746011903e+02
1.575446598251615260e+00 4.222571953752266154e+02
1.575546620256456309e+00 4.223000071849433539e+02
1.575646642261297359e+00 4.223426767428385915e+02
1.575746664266138630e+00 4.223852030965859967e+02
1.575846686270979458e+00 4.224275853024669800e+02
1.575946708275820507e+00 4.224698224253884291e+02
1.576046730280661556e+00 4.225119135389027178e+02
1.576146752285502828e+00 4.225538577252254413e+02
1.576246774290343877e+00 4.225956540752561068e+02
1.576346796295184927e+00 4.226373016885935954e+02
1.576446818300025976e+00 4.226787996735547495e+02
1.576546840304866803e+00 4.227201471471935292e+02
1.576646862309707853e+00 4.227613432353150529e+02
1.576746884314549124e+00 4.228023870724944686e+02
1.576846906319390174e+00 4.228432778020933256e+02
1.576946928324231223e+00 4.228840145762741258e+02
1.577046950329072494e+00 4.229245965560184004e+02
1.577146972333913544e+00 4.229650229111393287e+02
1.577246994338754371e+00 4.230052928202987914e+02
1.577347016343595421e+00 4.230454054710220362e+02
1.577447038348436470e+00 4.230853600597104105e+02
1.577547060353277519e+00 4.231251557916575052e+02
1.577647082358118791e+00 4.231647918810607507e+02
1.577747104362959840e+00 4.232042675510372192e+02
1.577847126367800668e+00 4.232435820336342545e+02
1.577947148372641717e+00 4.232827345698423755e+02
1.578047170377482988e+00 4.233217244096114769e+02
1.578147192382324038e+00 4.233605508118560579e+02
1.578247214387165087e+00 4.233992130444729582e+02
1.578347236392006137e+00 4.234377103843483496e+02
1.578447258396847186e+00 4.234760421173730833e+02
1.578547280401688013e+00 4.235142075384483178e+02
1.578647302406529285e+00 4.235522059515001274e+02
1.578747324411370334e+00 4.235900366694864374e+02
1.578847346416211384e+00 4.236276990144086767e+02
1.578947368421052655e+00 4.236651923173193381e+02
1.579047390425893704e+00 4.237025159183326650e+02
1.579147412430734754e+00 4.237396691666311881e+02
1.579247434435575581e+00 4.237766514204761847e+02
1.579347456440416630e+00 4.238134620472139318e+02
1.579447478445257680e+00 4.238501004232833225e+02
1.579547500450098951e+00 4.238865659342245067e+02
1.579647522454940001e+00 4.239228579746837795e+02
1.579747544459781050e+00 4.239589759484214824e+02
1.579847566464622322e+00 4.239949192683182559e+02
1.579947588469463149e+00 4.240306873563790759e+02
1.580047610474304198e+00 4.240662796437418365e+02
1.580147632479145248e+00 4.241016955706790554e+02
1.580247654483986297e+00 4.241369345866060598e+02
1.580347676488827346e+00 4.241719961500821228e+02
1.580447698493668618e+00 4.242068797288171709e+02
1.580547720498509667e+00 4.242415847996744560e+02
1.580647742503350495e+00 4.242761108486744774e+02
1.580747764508191544e+00 4.243104573709965734e+02
1.580847786513032815e+00 4.243446238709848899e+02
1.580947808517873865e+00 4.243786098621470728e+02
1.581047830522714914e+00 4.244124148671589865e+02
1.581147852527555964e+00 4.244460384178651680e+02
1.581247874532397013e+00 4.244794800552810443e+02
1.581347896537237840e+00 4.245127393295933871e+02
1.581447918542079112e+00 4.245458158001601987e+02
1.581547940546920161e+00 4.245787090355138389e+02
1.581647962551761211e+00 4.246114186133589214e+02
1.581747984556602482e+00 4.246439441205708931e+02
1.581848006561443531e+00 4.246762851531991600e+02
1.581948028566284581e+00 4.247084413164620855e+02
1.582048050571125408e+00 4.247404122247493206e+02
1.582148072575966458e+00 4.247721975016158922e+02
1.582248094580807507e+00 4.248037967797848182e+02
1.582348116585648778e+00 4.248352097011418209e+02
1.582448138590489828e+00 4.248664359167330531e+02
1.582548160595330877e+00 4.248974750867629950e+02
1.582648182600172149e+00 4.249283268805906459e+02
1.582748204605012976e+00 4.249589909767257154e+02
1.582848226609854025e+00 4.249894670628244739e+02
1.582948248614695075e+00 4.250197548356865695e+02
1.583048270619536124e+00 4.250498540012486615e+02
1.583148292624377174e+00 4.250797642745799294e+02
1.583248314629218445e+00 4.251094853798779809e+02
1.583348336634059494e+00 4.251390170504619164e+02
1.583448358638900322e+00 4.251683590287659626e+02
1.583548380643741371e+00 4.251975110663350392e+02
1.583648402648582643e+00 4.252264729238155496e+02
1.583748424653423692e+00 4.252552443709505496e+02
1.583848446658264741e+00 4.252838251865709935e+02
1.583948468663105791e+00 4.253122151585898791e+02
1.584048490667946840e+00 4.253404140839909360e+02
1.584148512672787668e+00 4.253684217688240210e+02
1.584248534677628939e+00 4.253962380281945457e+02
1.584348556682469988e+00 4.254238626862544379e+02
1.584448578687311038e+00 4.254512955761932176e+02
1.584548600692152309e+00 4.254785365402283901e+02
1.584648622696993359e+00 4.255055854295961808e+02
1.584748644701834408e+00 4.255324421045390295e+02
1.584848666706675235e+00 4.255591064342983145e+02
1.584948688711516285e+00 4.255855782970995733e+02
1.585048710716357334e+00 4.256118575801450561e+02
1.585148732721198606e+00 4.256379441795994580e+02
1.585248754726039655e+00 4.256638380005788918e+02
1.585348776730880704e+00 4.256895389571396890e+02
1.585448798735721976e+00 4.257150469722633943e+02
1.585548820740562803e+00 4.257403619778467601e+02
1.585648842745403853e+00 4.257654839146863424e+02
1.585748864750244902e+00 4.257904127324665069e+02
1.585848886755085951e+00 4.258151483897439675e+02
1.585948908759927001e+00 4.258396908539366450e+02
1.586048930764768272e+00 4.258640401013051360e+02
1.586148952769609322e+00 4.258881961169416854e+02
1.586248974774450149e+00 4.259121588947521104e+02
1.586348996779291198e+00 4.259359284374439767e+02
1.586449018784132470e+00 4.259595047565063055e+02
1.586549040788973519e+00 4.259828878721974661e+02
1.586649062793814569e+00 4.260060778135268720e+02
1.586749084798655618e+00 4.260290746182396333e+02
1.586849106803496667e+00 4.260518783327981964e+02
1.586949128808337495e+00 4.260744890123656887e+02
1.587049150813178766e+00 4.260969067207888656e+02
1.587149172818019816e+00 4.261191315305802618e+02
1.587249194822860865e+00 4.261411635228980685e+02
1.587349216827702136e+00 4.261630027875307292e+02
1.587449238832543186e+00 4.261846494228766460e+02
1.587549260837384235e+00 4.262061035359233756e+02
1.587649282842225062e+00 4.262273652422323380e+02
1.587749304847066112e+00 4.262484346659147150e+02
1.587849326851907161e+00 4.262693119396149086e+02
1.587949348856748433e+00 4.262899972044882588e+02
1.588049370861589482e+00 4.263104906101813754e+02
1.588149392866430532e+00 4.263307923148107648e+02
1.588249414871271803e+00 4.263509024849421394e+02
1.588349436876112630e+00 4.263708212955682484e+02
1.588449458880953680e+00 4.263905489300883573e+02
1.588549480885794729e+00 4.264100855802847150e+02
1.588649502890635778e+00 4.264294314463012370e+02
1.588749524895476828e+00 4.264485867366204275e+02
1.588849546900318099e+00 4.264675516680412102e+02
1.588949568905159149e+00 4.264863264656536330e+02
1.589049590909999976e+00 4.265049113628185182e+02
1.589149612914841025e+00 4.265233066011414849e+02
1.589249634919682297e+00 4.265415124304487335e+02
1.589349656924523346e+00 4.265595291087642522e+02
1.589449678929364396e+00 4.265773569022837250e+02
1.589549700934205445e+00 4.265949960853507719e+02
1.589649722939046494e+00 4.266124469404305160e+02
1.589749744943887322e+00 4.266297097580857667e+02
1.589849766948728593e+00 4.266467848369492799e+02
1.589949788953569643e+00 4.266636724836994290e+02
1.590049810958410692e+00 4.266803730130322378e+02
1.590149832963251963e+00 4.266968867476377909e+02
1.590249854968093013e+00 4.267132140181697082e+02
1.590349876972934062e+00 4.267293551632195658e+02
1.590449898977774890e+00 4.267453105292908049e+02
1.590549920982615939e+00 4.267610804707694001e+02
1.590649942987456988e+00 4.267766653498964047e+02
1.590749964992298260e+00 4.267920655367390737e+02
1.590849986997139309e+00 4.268072814091652276e+02
1.590950009001980359e+00 4.268223133528102835e+02
1.591050031006821630e+00 4.268371617610514477e+02
1.591150053011662457e+00 4.268518270349767363e+02
1.591250075016503507e+00 4.268663095833570083e+02
1.591350097021344556e+00 4.268806098226151562e+02
1.591450119026185606e+00 4.268947281767966047e+02
1.591550141031026655e+00 4.269086650775374778e+02
1.591650163035867926e+00 4.269224209640366894e+02
1.591750185040708976e+00 4.269359962830228596e+02
1.591850207045549803e+00 4.269493914887249275e+02
1.591950229050390853e+00 4.269626070428388402e+02
1.592050251055232124e+00 4.269756434144993591e+02
1.592150273060073173e+00 4.269885010802448733e+02
1.592250295064914223e+00 4.270011805239860223e+02
1.592350317069755272e+00 4.270136822369756828e+02
1.592450339074596322e+00 4.270260067177742940e+02
1.592550361079437149e+00 4.270381544722168883e+02
1.592650383084278420e+00 4.270501260133813162e+02
1.592750405089119470e+00 4.270619218615557315e+02
1.592850427093960519e+00 4.270735425442021551e+02
1.592950449098801791e+00 4.270849885959250400e+02
1.593050471103642840e+00 4.270962605584375638e+02
1.593150493108483889e+00 4.271073589805259871e+02
1.593250515113324717e+00 4.271182844180157190e+02
1.593350537118165766e+00 4.271290374337378353e+02
1.593450559123006816e+00 4.271396185974920741e+02
1.593550581127848087e+00 4.271500284860138095e+02
1.593650603132689136e+00 4.271602676829366487e+02
1.593750625137530186e+00 4.271703367787598040e+02
1.593850647142371457e+00 4.271802363708090411e+02
1.593950669147212285e+00 4.271899670632033121e+02
1.594050691152053334e+00 4.271995294668159886e+02
1.594150713156894383e+00 4.272089241992406983e+02
1.594250735161735433e+00 4.272181518847543771e+02
1.594350757166576482e+00 4.272272131542786155e+02
1.594450779171417754e+00 4.272361086453449275e+02
1.594550801176258803e+00 4.272448390020555280e+02
1.594650823181099630e+00 4.272534048750473517e+02
1.594750845185940680e+00 4.272618069214518641e+02
1.594850867190781951e+00 4.272700458048616383e+02
1.594950889195623001e+00 4.272781221952874944e+02
1.595050911200464050e+00 4.272860367691225179e+02
1.595150933205305099e+00 4.272937902091034630e+02
1.595250955210145927e+00 4.273013832042720423e+02
1.595350977214986976e+00 4.273088164499348522e+02
1.595450999219828248e+00 4.273160906476257423e+02
1.595551021224669297e+00 4.273232065050654001e+02
1.595651043229510346e+00 4.273301647361220716e+02
1.595751065234351618e+00 4.273369660607726814e+02
1.595851087239192667e+00 4.273436112050626434e+02
1.595951109244033495e+00 4.273501009010634561e+02
1.596051131248874544e+00 4.273564358868374597e+02
1.596151153253715593e+00 4.273626169063905991e+02
1.596251175258556643e+00 4.273686447096387724e+02
1.596351197263397914e+00 4.273745200523619019e+02
1.596451219268238964e+00 4.273802436961651665e+02
1.596551241273080013e+00 4.273858164084375630e+02
1.596651263277920840e+00 4.273912389623100125e+02
1.596751285282762112e+00 4.273965121366146036e+02
1.596851307287603161e+00 4.274016367158425282e+02
1.596951329292444210e+00 4.274066134901004261e+02
1.597051351297285260e+00 4.274114432550730385e+02
1.597151373302126309e+00 4.274161268119755164e+02
1.597251395306967581e+00 4.274206649675142557e+02
1.597351417311808408e+00 4.274250585338441510e+02
1.597451439316649457e+00 4.274293083285240300e+02
1.597551461321490507e+00 4.274334151744762380e+02
1.597651483326331778e+00 4.274373798999419591e+02
1.597751505331172828e+00 4.274412033384382994e+02
1.597851527336013877e+00 4.274448863287150857e+02
1.597951549340854926e+00 4.274484297147119491e+02
1.598051571345695754e+00 4.274518343455140439e+02
1.598151593350536803e+00 4.274551010753068567e+02
1.598251615355378075e+00 4.274582307633354503e+02
1.598351637360219124e+00 4.274612242738580790e+02
1.598451659365060173e+00 4.274640824761023623e+02
1.598551681369901445e+00 4.274668062442200380e+02
1.598651703374742494e+00 4.274693964572456935e+02
1.598751725379583322e+00 4.274718539990473687e+02
1.598851747384424371e+00 4.274741797582856861e+02
1.598951769389265420e+00 4.274763746283665569e+02
1.599051791394106470e+00 4.274784395073974110e+02
1.599151813398947741e+00 4.274803752981412117e+02
1.599251835403788791e+00 4.274821829079717190e+02
1.599351857408629840e+00 4.274838632488271060e+02
1.599451879413470667e+00 4.274854172371658478e+02
1.599551901418311939e+00 4.274868457939189170e+02
1.599651923423152988e+00 4.274881498444461840e+02
1.599751945427994038e+00 4.274893303184887827e+02
1.599851967432835087e+00 4.274903881501243745e+02
1.599951989437676136e+00 4.274913242777187747e+02
1.600052011442517408e+00 4.274921396438824672e+02
1.600152033447358235e+00 4.274928351954218897e+02
1.600252055452199285e+00 4.274934118832945842e+02
1.600352077457040334e+00 4.274938706625609939e+02
1.600452099461881605e+00 4.274942124923379652e+02
1.600552121466722655e+00 4.274944383357539550e+02
1.600652143471563704e+00 4.274945491598992930e+02
1.600752165476404754e+00 4.274945459357804225e+02
1.600852187481245581e+00 4.274944296382724360e+02
1.600952209486086630e+00 4.274942012460717820e+02
1.601052231490927902e+00 4.274938617416497095e+02
1.601152253495768951e+00 4.274934121112035541e+02
1.601252275500610001e+00 4.274928533446105803e+02
1.601352297505451272e+00 4.274921864353772776e+02
1.601452319510292321e+00 4.274914123805975237e+02
1.601552341515133149e+00 4.274905321808975032e+02
1.601652363519974198e+00 4.274895468403934160e+02
1.601752385524815248e+00 4.274884573666404890e+02
1.601852407529656297e+00 4.274872647705867621e+02
1.601952429534497568e+00 4.274859700665227820e+02
1.602052451539338618e+00 4.274845742720360136e+02
1.602152473544179667e+00 4.274830784079602495e+02
1.602252495549020495e+00 4.274814834983284300e+02
1.602352517553861766e+00 4.274797905703233027e+02
1.602452539558702815e+00 4.274780006542309252e+02
1.602552561563543865e+00 4.274761147833882546e+02
1.602652583568384914e+00 4.274741339941390947e+02
1.602752605573225964e+00 4.274720593257823111e+02
1.602852627578067235e+00 4.274698918205236851e+02
1.602952649582908062e+00 4.274676325234277670e+02
1.603052671587749112e+00 4.274652824823673427e+02
1.603152693592590161e+00 4.274628427479771062e+02
1.603252715597431433e+00 4.274603143736021593e+02
1.603352737602272482e+00 4.274576984152502064e+02
1.603452759607113531e+00 4.274549959315422711e+02
1.603552781611954581e+00 4.274522079836638113e+02
1.603652803616795408e+00 4.274493356353137301e+02
1.603752825621636457e+00 4.274463799526585035e+02
1.603852847626477729e+00 4.274433420042785201e+02
1.603952869631318778e+00 4.274402228611243686e+02
1.604052891636159828e+00 4.274370235964607900e+02
1.604152913641001099e+00 4.274337452858229653e+02
1.604252935645842149e+00 4.274303890069641056e+02
1.604352957650682976e+00 4.274269558398063964e+02
1.604452979655524025e+00 4.274234468663927373e+02
1.604553001660365075e+00 4.274198631708352423e+02
1.604653023665206124e+00 4.274162058392669223e+02
1.604753045670047396e+00 4.274124759597916636e+02
1.604853067674888445e+00 4.274086746224352282e+02
1.604953089679729494e+00 4.274048029190956868e+02
1.605053111684570322e+00 4.274008619434915204e+02
1.605153133689411593e+00 4.273968527911155206e+02
1.605253155694252643e+00 4.273927765591817547e+02
1.605353177699093692e+00 4.273886343465787832e+02
1.605453199703934741e+00 4.273844272538175346e+02
1.605553221708775791e+00 4.273801563829825909e+02
1.605653243713617062e+00 4.273758228376833586e+02
1.605753265718457889e+00 4.273714277230026255e+02
1.605853287723298939e+00 4.273669721454480737e+02
1.605953309728139988e+00 4.273624572129009493e+02
1.606053331732981260e+00 4.273578840345689969e+02
1.606153353737822309e+00 4.273532537209349584e+02
1.606253375742663358e+00 4.273485673837062109e+02
1.606353397747504408e+00 4.273438261357663350e+02
1.606453419752345235e+00 4.273390310911249230e+02
1.606553441757186285e+00 4.273341833648680677e+02
1.606653463762027556e+00 4.273292840731087381e+02
1.606753485766868605e+00 4.273243343329357913e+02
1.606853507771709655e+00 4.273193352623669625e+02
1.606953529776550926e+00 4.273142879802956600e+02
1.607053551781391976e+00 4.273091936064452625e+02
1.607153573786232803e+00 4.273040532613160281e+02
1.607253595791073852e+00 4.272988680661379703e+02
1.607353617795914902e+00 4.272936391428194156e+02
1.607453639800755951e+00 4.272883676138997089e+02
1.607553661805597223e+00 4.272830546024974865e+02
1.607653683810438272e+00 4.272777012322610517e+02
1.607753705815279321e+00 4.272723086273224453e+02
1.607853727820120149e+00 4.272668779122435581e+02
1.607953749824961420e+00 4.272614102119700306e+02
1.608053771829802470e+00 4.272559066517795259e+02
1.608153793834643519e+00 4.272503683572344926e+02
1.608253815839484568e+00 4.272447964541315741e+02
1.608353837844325618e+00 4.272391920684524962e+02
1.608453859849166889e+00 4.272335563263158633e+02
1.608553881854007717e+00 4.272278903539273074e+02
1.608653903858848766e+00 4.272221952775299769e+02
1.608753925863689815e+00 4.272164722233570160e+02
1.608853947868531087e+00 4.272107223175802346e+02
1.608953969873372136e+00 4.272049466862640656e+02
1.609053991878213186e+00 4.271991464553152582e+02
1.609154013883054235e+00 4.271933227504327419e+02
1.609254035887895062e+00 4.271874766970612427e+02
1.609354057892736112e+00 4.271816094203418288e+02
1.609454079897577383e+00 4.271757220450626846e+02
1.609554101902418433e+00 4.271698156956115326e+02
1.609654123907259482e+00 4.271638914959258955e+02
1.609754145912100753e+00 4.271579505694468253e+02
1.609854167916941803e+00 4.271519940390672900e+02
1.609954189921782630e+00 4.271460230270879492e+02
1.610054211926623680e+00 4.271400386551657107e+02
1.610154233931464729e+00 4.271340420442669483e+02
1.610254255936305778e+00 4.271280343146199812e+02
1.610354277941147050e+00 4.271220165856653352e+02
1.610454299945988099e+00 4.271159899760104963e+02
1.610554321950829149e+00 4.271099556033802855e+02
1.610654343955669976e+00 4.271039145845689973e+02
1.610754365960511247e+00 4.270978680353945265e+02
1.610854387965352297e+00 4.270918170706491424e+02
1.610954409970193346e+00 4.270857628040530471e+02
1.611054431975034396e+00 4.270797063482062299e+02
1.611154453979875445e+00 4.270736488145426506e+02
1.611254475984716716e+00 4.270675913132816959e+02
1.611354497989557544e+00 4.270615349533813969e+02
1.611454519994398593e+00 4.270554808424928979e+02
1.611554541999239643e+00 4.270494300869116273e+02
1.611654564004080914e+00 4.270433837915319941e+02
1.611754586008921963e+00 4.270373430597994684e+02
1.611854608013763013e+00 4.270313089936669826e+02
1.611954630018604062e+00 4.270252826935443977e+02
1.612054652023444890e+00 4.270192652582548476e+02
1.612154674028285939e+00 4.270132577849890936e+02
1.612254696033127210e+00 4.270072613692564687e+02
1.612354718037968260e+00 4.270012771048434956e+02
1.612454740042809309e+00 4.269953060837628982e+02
1.612554762047650581e+00 4.269893493962119351e+02
1.612654784052491408e+00 4.269834081305259019e+02
1.612754806057332457e+00 4.269774833731302124e+02
1.612854828062173507e+00 4.269715762084988455e+02
1.612954850067014556e+00 4.269656877191068816e+02
1.613054872071855605e+00 4.269598189853851977e+02
1.613154894076696877e+00 4.269539710856766987e+02
1.613254916081537926e+00 4.269481450961915243e+02
1.613354938086378754e+00 4.269423420909608922e+02
1.613454960091219803e+00 4.269365631417943518e+02
1.613554982096061075e+00 4.269308093182340258e+02
1.613655004100902124e+00 4.269250816875114083e+02
1.613755026105743173e+00 4.269193813145017202e+02
1.613855048110584223e+00 4.269137092616828681e+02
1.613955070115425272e+00 4.269080665890875252e+02
1.614055092120266099e+00 4.269024543542626020e+02
1.614155114125107371e+00 4.268968736122246241e+02
1.614255136129948420e+00 4.268913254154170431e+02
1.614355158134789470e+00 4.268858108136646479e+02
1.614455180139630741e+00 4.268803308541333195e+02
1.614555202144471791e+00 4.268748865812865461e+02
1.614655224149312840e+00 4.268694790368406302e+02
1.614755246154153667e+00 4.268641092597237048e+02
1.614855268158994717e+00 4.268587782860337256e+02
1.614955290163835766e+00 4.268534871489952707e+02
1.615055312168677037e+00 4.268482368789166230e+02
1.615155334173518087e+00 4.268430285031491849e+02
1.615255356178359136e+00 4.268378630460452428e+02
1.615355378183200408e+00 4.268327415289166424e+02
1.615455400188041235e+00 4.268276649699917584e+02
1.615555422192882284e+00 4.268226343843760446e+02
1.615655444197723334e+00 4.268176507840098566e+02
1.615755466202564383e+00 4.268127151776271262e+02
1.615855488207405433e+00 4.268078285707163673e+02
1.615955510212246704e+00 4.268029919654775313e+02
1.616055532217087753e+00 4.267982063607827286e+02
1.616155554221928581e+00 4.267934727521372906e+02
1.616255576226769630e+00 4.267887921316365691e+02
1.616355598231610902e+00 4.267841654879294424e+02
1.616455620236451951e+00 4.267795938061755123e+02
1.616555642241293000e+00 4.267750780680075309e+02
1.616655664246134050e+00 4.267706192514917802e+02
1.616755686250975099e+00 4.267662183310879414e+02
1.616855708255815927e+00 4.267618762776103267e+02
1.616955730260657198e+00 4.267575940581899658e+02
1.617055752265498247e+00 4.267533726362355537e+02
1.617155774270339297e+00 4.267492129713935469e+02
1.617255796275180568e+00 4.267451160195128068e+02
1.617355818280021618e+00 4.267410827326037861e+02
1.617455840284862667e+00 4.267371140588027174e+02
1.617555862289703494e+00 4.267332109423319935e+02
1.617655884294544544e+00 4.267293743234642989e+02
1.617755906299385593e+00 4.267256051384853777e+02
1.617855928304226865e+00 4.267219043196551524e+02
1.617955950309067914e+00 4.267182727951729930e+02
1.618055972313908963e+00 4.267147114891397450e+02
1.618155994318750235e+00 4.267112213215223733e+02
1.618256016323591062e+00 4.267078032081160472e+02
1.618356038328432112e+00 4.267044580605094666e+02
1.618456060333273161e+00 4.267011867860487655e+02
1.618556082338114210e+00 4.266979902878020425e+02
1.618656104342955260e+00 4.266948694645229807e+02
1.618756126347796531e+00 4.266918252106165710e+02
1.618856148352637581e+00 4.266888584161042104e+02
1.618956170357478408e+00 4.266859699665884591e+02
1.619056192362319457e+00 4.266831607432187639e+02
1.619156214367160729e+00 4.266804316226563287e+02
1.619256236372001778e+00 4.266777834770415438e+02
1.619356258376842828e+00 4.266752171739583446e+02
1.619456280381683877e+00 4.266727335764023223e+02
1.619556302386524926e+00 4.266703335427456523e+02
1.619656324391365754e+00 4.266680179267042945e+02
1.619756346396207025e+00 4.266657875773061619e+02
1.619856368401048075e+00 4.266636433388562182e+02
1.619956390405889124e+00 4.266615860509065215e+02
1.620056412410730395e+00 4.266596165482210381e+02
1.620156434415571445e+00 4.266577356607455158e+02
1.620256456420412494e+00 4.266559442135753670e+02
1.620356478425253322e+00 4.266542430269230408e+02
1.620456500430094371e+00 4.266526329160879527e+02
1.620556522434935420e+00 4.266511146914241976e+02
1.620656544439776692e+00 4.266496891583104798e+02
1.620756566444617741e+00 4.266483571171178824e+02
1.620856588449458791e+00 4.266471193631818437e+02
1.620956610454300062e+00 4.266459766867695862e+02
1.621056632459140889e+00 4.266449298730516375e+02
1.621156654463981939e+00 4.266439797020710216e+02
1.621256676468822988e+00 4.266431269487146665e+02
1.621356698473664038e+00 4.266423723826834475e+02
1.621456720478505087e+00 4.266417167684631977e+02
1.621556742483346358e+00 4.266411608652963992e+02
1.621656764488187408e+00 4.266407054271535344e+02
1.621756786493028235e+00 4.266403512027041529e+02
1.621856808497869284e+00 4.266400989352890178e+02
1.621956830502710556e+00 4.266399493628930486e+02
1.622056852507551605e+00 4.266399032181179223e+02
1.622156874512392655e+00 4.266399612281520035e+02
1.622256896517233704e+00 4.266401241147478913e+02
1.622356918522074753e+00 4.266403925941902457e+02
1.622456940526915581e+00 4.266407673772745284e+02
1.622556962531756852e+00 4.266412491692764206e+02
1.622656984536597902e+00 4.266418386699290863e+02
1.622757006541438951e+00 4.266425365733945227e+02
1.622857028546280223e+00 4.266433435682401978e+02
1.622957050551121272e+00 4.266442603374123337e+02
1.623057072555962321e+00 4.266452875582114075e+02
1.623157094560803149e+00 4.266464259022673673e+02
1.623257116565644198e+00 4.266476760355159286e+02
1.623357138570485247e+00 4.266490386181720851e+02
1.623457160575326519e+00 4.266505143047085085e+02
1.623557182580167568e+00 4.266521037438304234e+02
1.623657204585008618e+00 4.266538075784529838e+02
1.623757226589849889e+00 4.266556264456768872e+02
1.623857248594690716e+00 4.266575609767664332e+02
1.623957270599531766e+00 4.266596117971266722e+02
1.624057292604372815e+00 4.266617795262807817e+02
1.624157314609213865e+00 4.266640647778471021e+02
1.624257336614054914e+00 4.266664681595191837e+02
1.624357358618896185e+00 4.266689902730426525e+02
1.624457380623737235e+00 4.266716317141938362e+02
1.624557402628578062e+00 4.266743930727594716e+02
1.624657424633419112e+00 4.266772749325151608e+02
1.624757446638260383e+00 4.266802778712052486e+02
1.624857468643101432e+00 4.266834024605224727e+02
1.624957490647942482e+00 4.266866492660871586e+02
1.625057512652783531e+00 4.266900188474292008e+02
1.625157534657624581e+00 4.266935117579665757e+02
1.625257556662465408e+00 4.266971285449878337e+02
1.625357578667306679e+00 4.267008697496312948e+02
1.625457600672147729e+00 4.267047359068693595e+02
1.625557622676988778e+00 4.267087275454861128e+02
1.625657644681830050e+00 4.267128451880623743e+02
1.625757666686671099e+00 4.267170893509567122e+02
1.625857688691512148e+00 4.267214605442884476e+02
1.625957710696352976e+00 4.267259592719184980e+02
1.626057732701194025e+00 4.267305860314348251e+02
1.626157754706035075e+00 4.267353413141353258e+02
1.626257776710876346e+00 4.267402256050085043e+02
1.626357798715717395e+00 4.267452393827210244e+02
1.626457820720558445e+00 4.267503831195995758e+02
1.626557842725399716e+00 4.267556572816160383e+02
1.626657864730240544e+00 4.267610623283723612e+02
1.626757886735081593e+00 4.267665987130843632e+02
1.626857908739922642e+00 4.267722668825675783e+02
1.626957930744763692e+00 4.267780672772236699e+02
1.627057952749604741e+00 4.267840003310241173e+02
1.627157974754446013e+00 4.267900664714985055e+02
1.627257996759287062e+00 4.267962661197191210e+02
1.627358018764127889e+00 4.268025996902886732e+02
1.627458040768968939e+00 4.268090675913267091e+02
1.627558062773810210e+00 4.268156702244564826e+02
1.627658084778651260e+00 4.268224079847931307e+02
1.627758106783492309e+00 4.268292812609304292e+02
1.627858128788333358e+00 4.268362904349301061e+02
1.627958150793174408e+00 4.268434358823087678e+02
1.628058172798015235e+00 4.268507179720279510e+02
1.628158194802856507e+00 4.268581370664812766e+02
1.628258216807697556e+00 4.268656935214850137e+02
1.628358238812538605e+00 4.268733876862671650e+02
1.628458260817379877e+00 4.268812199034559853e+02
1.628558282822220926e+00 4.268891905090721934e+02
1.628658304827061976e+00 4.268972998325174331e+02
1.628758326831902803e+00 4.269055481965656327e+02
1.628858348836743852e+00 4.269139359173537969e+02
1.628958370841584902e+00 4.269224633043731387e+02
1.629058392846426173e+00 4.269311306604599281e+02
1.629158414851267223e+00 4.269399382817879314e+02
1.629258436856108272e+00 4.269488864578603966e+02
1.629358458860949543e+00 4.269579754715017543e+02
1.629458480865790371e+00 4.269672055988506827e+02
1.629558502870631420e+00 4.269765771093531157e+02
1.629658524875472470e+00 4.269860902657541715e+02
1.629758546880313519e+00 4.269957453240932637e+02
1.629858568885154568e+00 4.270055425336973371e+02
1.629958590889995840e+00 4.270154821371735352e+02
1.630058612894836667e+00 4.270255643704046520e+02
1.630158634899677716e+00 4.270357894625444715e+02
1.630258656904518766e+00 4.270461576360105482e+02
1.630358678909360037e+00 4.270566691064815359e+02
1.630458700914201087e+00 4.270673240828902522e+02
1.630558722919042136e+00 4.270781227674224851e+02
1.630658744923883186e+00 4.270890653555092058e+02
1.630758766928724013e+00 4.271001520358264543e+02
1.630858788933565062e+00 4.271113829902891439e+02
1.630958810938406334e+00 4.271227583940500381e+02
1.631058832943247383e+00 4.271342784154954302e+02
1.631158854948088432e+00 4.271459432162425855e+02
1.631258876952929704e+00 4.271577529511388889e+02
1.631358898957770753e+00 4.271697077682583767e+02
1.631458920962611581e+00 4.271818078089006008e+02
1.631558942967452630e+00 4.271940532075884107e+02
1.631658964972293679e+00 4.272064440920693187e+02
1.631758986977134729e+00 4.272189805833107243e+02
1.631859008981976000e+00 4.272316627955032118e+02
1.631959030986817050e+00 4.272444908360568547e+02
1.632059052991658099e+00 4.272574648056041156e+02
1.632159074996498926e+00 4.272705847979981399e+02
1.632259097001340198e+00 4.272838509003140643e+02
1.632359119006181247e+00 4.272972631928503233e+02
1.632459141011022297e+00 4.273108217491285359e+02
1.632559163015863346e+00 4.273245266358965182e+02
1.632659185020704395e+00 4.273383779131277151e+02
1.632759207025545667e+00 4.273523756340258046e+02
1.632859229030386494e+00 4.273665198450252092e+02
1.632959251035227544e+00 4.273808105857936539e+02
1.633059273040068593e+00 4.273952478892364297e+02
1.633159295044909864e+00 4.274098317814978145e+02
1.633259317049750914e+00 4.274245622819653363e+02
1.633359339054591963e+00 4.274394394032727860e+02
1.633459361059433013e+00 4.274544631513055037e+02
1.633559383064273840e+00 4.274696335252030508e+02
1.633659405069114889e+00 4.274849505173644388e+02
1.633759427073956161e+00 4.275004141134531324e+02
1.633859449078797210e+00 4.275160242924014256e+02
1.633959471083638260e+00 4.275317810264158425e+02
1.634059493088479531e+00 4.275476842809846971e+02
1.634159515093320580e+00 4.275637340148803105e+02
1.634259537098161408e+00 4.275799301801683896e+02
1.634359559103002457e+00 4.275962727222132003e+02
1.634459581107843507e+00 4.276127615796842178e+02
1.634559603112684556e+00 4.276293966845635737e+02
1.634659625117525827e+00 4.276461779621531605e+02
1.634759647122366877e+00 4.276631053310809421e+02
1.634859669127207926e+00 4.276801787033115829e+02
1.634959691132048754e+00 4.276973979841517917e+02
1.635059713136890025e+00 4.277147630722601548e+02
1.635159735141731074e+00 4.277322738596556064e+02
1.635259757146572124e+00 4.277499302317255570e+02
1.635359779151413173e+00 4.277677320672358974e+02
1.635459801156254223e+00 4.277856792383414586e+02
1.635559823161095494e+00 4.278037716105921504e+02
1.635659845165936321e+00 4.278220090429471156e+02
1.635759867170777371e+00 4.278403913877825744e+02
1.635859889175618420e+00 4.278589184909030791e+02
1.635959911180459692e+00 4.278775901915523718e+02
1.636059933185300741e+00 4.278964063224241272e+02
1.636159955190141790e+00 4.279153667096736058e+02
1.636259977194982840e+00 4.279344711729284541e+02
1.636359999199823667e+00 4.279537195253025743e+02
1.636460021204664717e+00 4.279731115734057880e+02
1.636560043209505988e+00 4.279926471173578193e+02
1.636660065214347037e+00 4.280123259508001183e+02
1.636760087219188087e+00 4.280321478609104133e+02
1.636860109224029358e+00 4.280521126284129423e+02
1.636960131228870408e+00 4.280722200275945397e+02
1.637060153233711235e+00 4.280924698263174832e+02
1.637160175238552284e+00 4.281128617860338750e+02
1.637260197243393334e+00 4.281333956617975787e+02
1.637360219248234383e+00 4.281540712022826938e+02
1.637460241253075655e+00 4.281748881497943557e+02
1.637560263257916704e+00 4.281958462402872669e+02
1.637660285262757753e+00 4.282169452033773496e+02
1.637760307267598581e+00 4.282381847623610156e+02
1.637860329272439852e+00 4.282595646342268765e+02
1.637960351277280902e+00 4.282810845296756384e+02
1.638060373282121951e+00 4.283027441531345971e+02
1.638160395286963000e+00 4.283245432027723609e+02
1.638260417291804050e+00 4.283464813705201095e+02
1.638360439296645321e+00 4.283685583420838157e+02
1.638460461301486148e+00 4.283907737969648792e+02
1.638560483306327198e+00 4.284131274084759298e+02
1.638660505311168247e+00 4.284356188437594710e+02
1.638760527316009519e+00 4.284582477638052751e+02
1.638860549320850568e+00 4.284810138234687429e+02
1.638960571325691618e+00 4.285039166714905718e+02
1.639060593330532667e+00 4.285269559505130701e+02
1.639160615335373494e+00 4.285501312971016432e+02
1.639260637340214544e+00 4.285734423417630978e+02
1.639360659345055815e+00 4.285968887089641157e+02
1.639460681349896864e+00 4.286204700171529112e+02
1.639560703354737914e+00 4.286441858787769092e+02
1.639660725359579185e+00 4.286680359003054832e+02
1.639760747364420235e+00 4.286920196822483717e+02
1.639860769369261062e+00 4.287161368191771089e+02
1.639960791374102111e+00 4.287403868997457721e+02
