9.000980215647441662e-01 4.946629734417570603e+02
9.001980435695853267e-01 4.946653222018337601e+02
9.002980655744263760e-01 4.946676530527152522e+02
9.003980875792673144e-01 4.946699660719048666e+02
9.004981095841084748e-01 4.946722613373078730e+02
9.005981315889495242e-01 4.946745389272268199e+02
9.006981535937905736e-01 4.946767989203559637e+02
9.007981755986316230e-01 4.946790413957752435e+02
9.008981976034726724e-01 4.946812664329451081e+02
9.009982196083138328e-01 4.946834741117024805e+02
9.010982416131547712e-01 4.946856645122525151e+02
9.011982636179959316e-01 4.946878377151662107e+02
9.012982856228369810e-01 4.946899938013724523e+02
9.013983076276779194e-01 4.946921328521530086e+02
9.014983296325190798e-01 4.946942549491388945e+02
9.015983516373602402e-01 4.946963601743024128e+02
9.016983736422012896e-01 4.946984486099519813e+02
9.017983956470422280e-01 4.947005203387279835e+02
9.018984176518833884e-01 4.947025754435968565e+02
9.019984396567244378e-01 4.947046140078426220e+02
9.020984616615654872e-01 4.947066361150665443e+02
9.021984836664065366e-01 4.947086418491765016e+02
9.022985056712475860e-01 4.947106312943841999e+02
9.023985276760886354e-01 4.947126045351974426e+02
9.024985496809296848e-01 4.947145616564176294e+02
9.025985716857708452e-01 4.947165027431307180e+02
9.026985936906118946e-01 4.947184278807030751e+02
9.027986156954528330e-01 4.947203371547761321e+02
9.028986377002939934e-01 4.947222306512594514e+02
9.029986597051351538e-01 4.947241084563261211e+02
9.030986817099760922e-01 4.947259706564062753e+02
9.031987037148171416e-01 4.947278173381815805e+02
9.032987257196583020e-01 4.947296485885793231e+02
9.033987477244993514e-01 4.947314644947667830e+02
9.034987697293404008e-01 4.947332651441454345e+02
9.035987917341814502e-01 4.947350506243455470e+02
9.036988137390224995e-01 4.947368210232191359e+02
9.037988357438635489e-01 4.947385764288349037e+02
9.038988577487045983e-01 4.947403169294728968e+02
9.039988797535457588e-01 4.947420426136176843e+02
9.040989017583868081e-01 4.947437535699523892e+02
9.041989237632277465e-01 4.947454498873560169e+02
9.042989457680689069e-01 4.947471316548904952e+02
9.043989677729100674e-01 4.947487989618022652e+02
9.044989897777510057e-01 4.947504518975130736e+02
9.045990117825920551e-01 4.947520905516129233e+02
9.046990337874332155e-01 4.947537150138568904e+02
9.047990557922742649e-01 4.947553253741572235e+02
9.048990777971153143e-01 4.947569217225771467e+02
9.049990998019563637e-01 4.947585041493273366e+02
9.050991218067974131e-01 4.947600727447569966e+02
9.051991438116384625e-01 4.947616275993497652e+02
9.052991658164795119e-01 4.947631688037175763e+02
9.053991878213206723e-01 4.947646964485940089e+02
9.054992098261617217e-01 4.947662106248284886e+02
9.055992318310026601e-01 4.947677114233808879e+02
9.056992538358438205e-01 4.947691989353150461e+02
9.057992758406849809e-01 4.947706732517918908e+02
9.058992978455259193e-01 4.947721344640657435e+02
9.059993198503669687e-01 4.947735826634764180e+02
9.060993418552081291e-01 4.947750179414433660e+02
9.061993638600491785e-01 4.947764403894602196e+02
9.062993858648902279e-01 4.947778500990884822e+02
9.063994078697312773e-01 4.947792471619518437e+02
9.064994298745723267e-01 4.947806316697295301e+02
9.065994518794133761e-01 4.947820037141513012e+02
9.066994738842544255e-01 4.947833633869898904e+02
9.067994958890955859e-01 4.947847107800554909e+02
9.068995178939366353e-01 4.947860459851912651e+02
9.069995398987775737e-01 4.947873690942651592e+02
9.070995619036187341e-01 4.947886801991654693e+02
9.071995839084598945e-01 4.947899793917923716e+02
9.072996059133008329e-01 4.947912667640556492e+02
9.073996279181418823e-01 4.947925424078642322e+02
9.074996499229830427e-01 4.947938064151254594e+02
9.075996719278240921e-01 4.947950588777329131e+02
9.076996939326651415e-01 4.947962998875651692e+02
9.077997159375061909e-01 4.947975295364772705e+02
9.078997379423472402e-01 4.947987479162957243e+02
9.079997599471882896e-01 4.947999551188123633e+02
9.080997819520293390e-01 4.948011512357779793e+02
9.081998039568704995e-01 4.948023363588946495e+02
9.082998259617115488e-01 4.948035105798137465e+02
9.083998479665524872e-01 4.948046739901259343e+02
9.084998699713936476e-01 4.948058266813571890e+02
9.085998919762348081e-01 4.948069687449619778e+02
9.086999139810757464e-01 4.948081002723175175e+02
9.087999359859167958e-01 4.948092213547166693e+02
9.088999579907579562e-01 4.948103320833647558e+02
9.089999799955990056e-01 4.948114325493697834e+02
9.091000020004400550e-01 4.948125228437386909e+02
9.092000240052811044e-01 4.948136030573714379e+02
9.093000460101221538e-01 4.948146732810531034e+02
9.094000680149632032e-01 4.948157336054501911e+02
9.095000900198042526e-01 4.948167841211028986e+02
9.096001120246454130e-01 4.948178249184196602e+02
9.097001340294864624e-01 4.948188560876706674e+02
9.098001560343274008e-01 4.948198777189828661e+02
9.099001780391685612e-01 4.948208899023338745e+02
9.100002000440097216e-01 4.948218927275439114e+02
9.101002220488506600e-01 4.948228862842727267e+02
9.102002440536917094e-01 4.948238706620110747e+02
9.103002660585328698e-01 4.948248459500765648e+02
9.104002880633739192e-01 4.948258122376067831e+02
9.105003100682149686e-01 4.948267696135529832e+02
9.106003320730560180e-01 4.948277181666751972e+02
9.107003540778970674e-01 4.948286579855355853e+02
9.108003760827381168e-01 4.948295891584918422e+02
9.109003980875791662e-01 4.948305117736928196e+02
9.110004200924203266e-01 4.948314259190708526e+02
9.111004420972612650e-01 4.948323316823372124e+02
9.112004641021023144e-01 4.948332291509749439e+02
9.113004861069434748e-01 4.948341184122343179e+02
9.114005081117846352e-01 4.948349995531261243e+02
9.115005301166255736e-01 4.948358726604148501e+02
9.116005521214666230e-01 4.948367378206156673e+02
9.117005741263077834e-01 4.948375951199836891e+02
9.118005961311487217e-01 4.948384446445135154e+02
9.119006181359898822e-01 4.948392864799302515e+02
9.120006401408309316e-01 4.948401207116840510e+02
9.121006621456719810e-01 4.948409474249438631e+02
9.122006841505130303e-01 4.948417667045932262e+02
9.123007061553540797e-01 4.948425786352225373e+02
9.124007281601952402e-01 4.948433833011249590e+02
9.125007501650361785e-01 4.948441807862883479e+02
9.126007721698772279e-01 4.948449711743924126e+02
9.127007941747183883e-01 4.948457545488004712e+02
9.128008161795595488e-01 4.948465309925545625e+02
9.129008381844004871e-01 4.948473005883703308e+02
9.130008601892415365e-01 4.948480634186294083e+02
9.131008821940826969e-01 4.948488195653766297e+02
9.132009041989236353e-01 4.948495691103104832e+02
9.133009262037647957e-01 4.948503121347813476e+02
9.134009482086058451e-01 4.948510487197825682e+02
9.135009702134468945e-01 4.948517789459465348e+02
9.136009922182879439e-01 4.948525028935399632e+02
9.137010142231289933e-01 4.948532206424546303e+02
9.138010362279701537e-01 4.948539322722052134e+02
9.139010582328110921e-01 4.948546378619225834e+02
9.140010802376521415e-01 4.948553374903476083e+02
9.141011022424933019e-01 4.948560312358264355e+02
9.142011242473344623e-01 4.948567191763029882e+02
9.143011462521754007e-01 4.948574013893174310e+02
9.144011682570164501e-01 4.948580779519955968e+02
9.145011902618576105e-01 4.948587489410473950e+02
9.146012122666985489e-01 4.948594144327592517e+02
9.147012342715397093e-01 4.948600745029893915e+02
9.148012562763807587e-01 4.948607292271622100e+02
9.149012782812218081e-01 4.948613786802621348e+02
9.150013002860628575e-01 4.948620229368289074e+02
9.151013222909039069e-01 4.948626620709532062e+02
9.152013442957450673e-01 4.948632961562680634e+02
9.153013663005860057e-01 4.948639252659467047e+02
9.154013883054270551e-01 4.948645494726961829e+02
9.155014103102682155e-01 4.948651688487506135e+02
9.156014323151093759e-01 4.948657834658673096e+02
9.157014543199503143e-01 4.948663933953214382e+02
9.158014763247913637e-01 4.948669987079003931e+02
9.159014983296325241e-01 4.948675994738983945e+02
9.160015203344734624e-01 4.948681957631106911e+02
9.161015423393146229e-01 4.948687876448296947e+02
9.162015643441556723e-01 4.948693751878388412e+02
9.163015863489967217e-01 4.948699584604072470e+02
9.164016083538377710e-01 4.948705375302855600e+02
9.165016303586788204e-01 4.948711124646982853e+02
9.166016523635199809e-01 4.948716833303428757e+02
9.167016743683609192e-01 4.948722501933799549e+02
9.168016963732019686e-01 4.948728131194317257e+02
9.169017183780431290e-01 4.948733721735754898e+02
9.170017403828842895e-01 4.948739274203376226e+02
9.171017623877252278e-01 4.948744789236905035e+02
9.172017843925662772e-01 4.948750267470465474e+02
9.173018063974074376e-01 4.948755709532529181e+02
9.174018284022483760e-01 4.948761116045867539e+02
9.175018504070895364e-01 4.948766487627509036e+02
9.176018724119305858e-01 4.948771824888681294e+02
9.177018944167716352e-01 4.948777128434764450e+02
9.178019164216126846e-01 4.948782398865245113e+02
9.179019384264537340e-01 4.948787636773661802e+02
9.180019604312948944e-01 4.948792842747567420e+02
9.181019824361358328e-01 4.948798017368469573e+02
9.182020044409768822e-01 4.948803161211791917e+02
9.183020264458180426e-01 4.948808274846820723e+02
9.184020484506592030e-01 4.948813358836653151e+02
9.185020704555001414e-01 4.948818413738167692e+02
9.186020924603411908e-01 4.948823440101960500e+02
9.187021144651823512e-01 4.948828438472299922e+02
9.188021364700232896e-01 4.948833409387094662e+02
9.189021584748644500e-01 4.948838353377827275e+02
9.190021804797054994e-01 4.948843270969529158e+02
9.191022024845465488e-01 4.948848162680721430e+02
9.192022244893875982e-01 4.948853029023368890e+02
9.193022464942286476e-01 4.948857870502839091e+02
9.194022684990698080e-01 4.948862687617869369e+02
9.195022905039107464e-01 4.948867480860499199e+02
9.196023125087517958e-01 4.948872250716041208e+02
9.197023345135929562e-01 4.948876997663034558e+02
9.198023565184338945e-01 4.948881722173194930e+02
9.199023785232750550e-01 4.948886424711390077e+02
9.200024005281161044e-01 4.948891105735574456e+02
9.201024225329572648e-01 4.948895765696751710e+02
9.202024445377982032e-01 4.948900405038947383e+02
9.203024665426393636e-01 4.948905024199143554e+02
9.204024885474804130e-01 4.948909623607261778e+02
9.205025105523213513e-01 4.948914203686099427e+02
9.206025325571625118e-01 4.948918764851297851e+02
9.207025545620035611e-01 4.948923307511303165e+02
9.208025765668447216e-01 4.948927832067328154e+02
9.209025985716856599e-01 4.948932338913296007e+02
9.210026205765267093e-01 4.948936828435821553e+02
9.211026425813678697e-01 4.948941301014154988e+02
9.212026645862088081e-01 4.948945757020152314e+02
9.213026865910499685e-01 4.948950196818231575e+02
9.214027085958910179e-01 4.948954620765330787e+02
9.215027306007321783e-01 4.948959029210878953e+02
9.216027526055731167e-01 4.948963422496751718e+02
9.217027746104142771e-01 4.948967800957227041e+02
9.218027966152553265e-01 4.948972164918963017e+02
9.219028186200962649e-01 4.948976514700948428e+02
9.220028406249374253e-01 4.948980850614460678e+02
9.221028626297784747e-01 4.948985172963054424e+02
9.222028846346196351e-01 4.948989482042499048e+02
9.223029066394605735e-01 4.948993778140741142e+02
9.224029286443016229e-01 4.948998061537908484e+02
9.225029506491427833e-01 4.949002332506206585e+02
9.226029726539837217e-01 4.949006591309957912e+02
9.227029946588248821e-01 4.949010838205512641e+02
9.228030166636659315e-01 4.949015073441240702e+02
9.229030386685070919e-01 4.949019297257480616e+02
9.230030606733480303e-01 4.949023509886530405e+02
9.231030826781891907e-01 4.949027711552590176e+02
9.232031046830302401e-01 4.949031902471734270e+02
9.233031266878711785e-01 4.949036082851895344e+02
9.234031486927123389e-01 4.949040252892810940e+02
9.235031706975533883e-01 4.949044412785989380e+02
9.236031927023945487e-01 4.949048562714715445e+02
9.237032147072354871e-01 4.949052702853960000e+02
9.238032367120765365e-01 4.949056833370401023e+02
9.239032587169176969e-01 4.949060954422372447e+02
9.240032807217586353e-01 4.949065066159824369e+02
9.241033027265997957e-01 4.949069168724310543e+02
9.242033247314408451e-01 4.949073262248946889e+02
9.243033467362820055e-01 4.949077346858381929e+02
9.244033687411229439e-01 4.949081422668784853e+02
9.245033907459641043e-01 4.949085489787792085e+02
9.246034127508051537e-01 4.949089548314500462e+02
9.247034347556460920e-01 4.949093598339422329e+02
9.248034567604872525e-01 4.949097639944472462e+02
9.249034787653283018e-01 4.949101673202931124e+02
9.250035007701694623e-01 4.949105698179418482e+02
9.251035227750104006e-01 4.949109714929877555e+02
9.252035447798514500e-01 4.949113723501536697e+02
9.253035667846926104e-01 4.949117723932889135e+02
9.254035887895335488e-01 4.949121716253657723e+02
9.255036107943747092e-01 4.949125700484795516e+02
9.256036327992157586e-01 4.949129676638439150e+02
9.257036548040569190e-01 4.949133644717882703e+02
9.258036768088978574e-01 4.949137604717570866e+02
9.259036988137390178e-01 4.949141556623056886e+02
9.260037208185800672e-01 4.949145500411003695e+02
9.261037428234210056e-01 4.949149436049135602e+02
9.262037648282621660e-01 4.949153363496222369e+02
9.263037868331032154e-01 4.949157282702072393e+02
9.264038088379443758e-01 4.949161193607498035e+02
9.265038308427853142e-01 4.949165096144291169e+02
9.266038528476263636e-01 4.949168990235218644e+02
9.267038748524675240e-01 4.949172875793983621e+02
9.268038968573084624e-01 4.949176752725215351e+02
9.269039188621496228e-01 4.949180620924444725e+02
9.270039408669906722e-01 4.949184480278093474e+02
9.271039628718318326e-01 4.949188330663450870e+02
9.272039848766727710e-01 4.949192171948647569e+02
9.273040068815139314e-01 4.949196003992652209e+02
9.274040288863549808e-01 4.949199826645239000e+02
9.275040508911959192e-01 4.949203639746984891e+02
9.276040728960370796e-01 4.949207443129233184e+02
9.277040949008781290e-01 4.949211236614106042e+02
9.278041169057192894e-01 4.949215020014458446e+02
9.279041389105602278e-01 4.949218793133877057e+02
9.280041609154012772e-01 4.949222555766671121e+02
9.281041829202424376e-01 4.949226307697843481e+02
9.282042049250833760e-01 4.949230048703082616e+02
9.283042269299245364e-01 4.949233778548751275e+02
9.284042489347655858e-01 4.949237496991864305e+02
9.285042709396065241e-01 4.949241203780089791e+02
9.286042929444476846e-01 4.949244898651726317e+02
9.287043149492888450e-01 4.949248581335681934e+02
9.288043369541298944e-01 4.949252251551483823e+02
9.289043589589708327e-01 4.949255909009245897e+02
9.290043809638119932e-01 4.949259553409671639e+02
9.291044029686530425e-01 4.949263184444030799e+02
9.292044249734940919e-01 4.949266801794170760e+02
9.293044469783351413e-01 4.949270405132476185e+02
9.294044689831761907e-01 4.949273994121881515e+02
9.295044909880173511e-01 4.949277568415859037e+02
9.296045129928582895e-01 4.949281127658396713e+02
9.297045349976994499e-01 4.949284671484012961e+02
9.298045570025404993e-01 4.949288199517717430e+02
9.299045790073814377e-01 4.949291711375036584e+02
9.300046010122225981e-01 4.949295206661988118e+02
9.301046230170637585e-01 4.949298684975069023e+02
9.302046450219048079e-01 4.949302145901265817e+02
9.303046670267457463e-01 4.949305589018034652e+02
9.304046890315869067e-01 4.949309013893310407e+02
9.305047110364279561e-01 4.949312420085479403e+02
9.306047330412690055e-01 4.949315807143401003e+02
9.307047550461100549e-01 4.949319174606379761e+02
9.308047770509511043e-01 4.949322522004175653e+02
9.309047990557922647e-01 4.949325848856998959e+02
9.310048210606332031e-01 4.949329154675514815e+02
9.311048430654743635e-01 4.949332438960806826e+02
9.312048650703154129e-01 4.949335701204419138e+02
9.313048870751563513e-01 4.949338940888328011e+02
9.314049090799975117e-01 4.949342157484953759e+02
9.315049310848386721e-01 4.949345350457141421e+02
9.316049530896797215e-01 4.949348519258181227e+02
9.317049750945206599e-01 4.949351663331804048e+02
9.318049970993618203e-01 4.949354782112161502e+02
9.319050191042028697e-01 4.949357875023859492e+02
9.320050411090439191e-01 4.949360941481929217e+02
9.321050631138849685e-01 4.949363980891855590e+02
9.322050851187260179e-01 4.949366992649553367e+02
9.323051071235671783e-01 4.949369976141386474e+02
9.324051291284081167e-01 4.949372930744167434e+02
9.325051511332492771e-01 4.949375855825162489e+02
9.326051731380903265e-01 4.949378750742087050e+02
9.327051951429312648e-01 4.949381614843115358e+02
9.328052171477724253e-01 4.949384447466889014e+02
9.329052391526135857e-01 4.949387247942520389e+02
9.330052611574546351e-01 4.949390015589588074e+02
9.331052831622955734e-01 4.949392749718151663e+02
9.332053051671367339e-01 4.949395449628764254e+02
9.333053271719777833e-01 4.949398114612460517e+02
9.334053491768188326e-01 4.949400743950786818e+02
9.335053711816598820e-01 4.949403336915790419e+02
9.336053931865009314e-01 4.949405892770028004e+02
9.337054151913420919e-01 4.949408410766594102e+02
9.338054371961830302e-01 4.949410890149104034e+02
9.339054592010241906e-01 4.949413330151723471e+02
9.340054812058652400e-01 4.949415729999159339e+02
9.341055032107061784e-01 4.949418088906688808e+02
9.342055252155473388e-01 4.949420406080162138e+02
9.343055472203884992e-01 4.949422680716000968e+02
9.344055692252295486e-01 4.949424912001233565e+02
9.345055912300704870e-01 4.949427099113490840e+02
9.346056132349116474e-01 4.949429241221021130e+02
9.347056352397526968e-01 4.949431337482697018e+02
9.348056572445937462e-01 4.949433387048055124e+02
9.349056792494347956e-01 4.949435389057260863e+02
9.350057012542758450e-01 4.949437342641180066e+02
9.351057232591170054e-01 4.949439246921346580e+02
9.352057452639579438e-01 4.949441101009997510e+02
9.353057672687991042e-01 4.949442904010086863e+02
9.354057892736401536e-01 4.949444655015301464e+02
9.355058112784810920e-01 4.949446353110075165e+02
9.356058332833222524e-01 4.949447997369604195e+02
9.357058552881634128e-01 4.949449586859864780e+02
9.358058772930044622e-01 4.949451120637630197e+02
9.359058992978454006e-01 4.949452597750502036e+02
9.360059213026865610e-01 4.949454017236892582e+02
9.361059433075276104e-01 4.949455378126082223e+02
9.362059653123686598e-01 4.949456679438217748e+02
9.363059873172097092e-01 4.949457920184337354e+02
9.364060093220507586e-01 4.949459099366391683e+02
9.365060313268919190e-01 4.949460215977259736e+02
9.366060533317328574e-01 4.949461269000765924e+02
9.367060753365740178e-01 4.949462257411718156e+02
9.368060973414150672e-01 4.949463180175907837e+02
9.369061193462560055e-01 4.949464036250147956e+02
9.370061413510971660e-01 4.949464824582290134e+02
9.371061633559383264e-01 4.949465544111238842e+02
9.372061853607792647e-01 4.949466193766988908e+02
9.373062073656203141e-01 4.949466772470639171e+02
9.374062293704614746e-01 4.949467279134421460e+02
9.375062513753025240e-01 4.949467712661722203e+02
9.376062733801435733e-01 4.949468071947105727e+02
9.377062953849846227e-01 4.949468355876347232e+02
9.378063173898256721e-01 4.949468563326445860e+02
9.379063393946667215e-01 4.949468693165664490e+02
9.380063613995077709e-01 4.949468744253539398e+02
9.381063834043489313e-01 4.949468715440929714e+02
9.382064054091899807e-01 4.949468605570021396e+02
9.383064274140309191e-01 4.949468413474367594e+02
9.384064494188720795e-01 4.949468137978924460e+02
9.385064714237132399e-01 4.949467777900043757e+02
9.386064934285541783e-01 4.949467332045570060e+02
9.387065154333952277e-01 4.949466799214776529e+02
9.388065374382363881e-01 4.949466178198486546e+02
9.389065594430774375e-01 4.949465467779042456e+02
9.390065814479184869e-01 4.949464666730362978e+02
9.391066034527595363e-01 4.949463773817958554e+02
9.392066254576005857e-01 4.949462787798985914e+02
9.393066474624416351e-01 4.949461707422250356e+02
9.394066694672826845e-01 4.949460531428264289e+02
9.395066914721238449e-01 4.949459258549258038e+02
9.396067134769648943e-01 4.949457887509228726e+02
9.397067354818058327e-01 4.949456417023965287e+02
9.398067574866469931e-01 4.949454845801087117e+02
9.399067794914881535e-01 4.949453172540073069e+02
9.400068014963290919e-01 4.949451395932294986e+02
9.401068235011701413e-01 4.949449514661054081e+02
9.402068455060113017e-01 4.949447527401628690e+02
9.403068675108523511e-01 4.949445432821286204e+02
9.404068895156934005e-01 4.949443229579337640e+02
9.405069115205344499e-01 4.949440916327165496e+02
9.406069335253754993e-01 4.949438491708264678e+02
9.407069555302165487e-01 4.949435954358277172e+02
9.408069775350575981e-01 4.949433302905028427e+02
9.409069995398987585e-01 4.949430535968571689e+02
9.410070215447398079e-01 4.949427652161210744e+02
9.411070435495807462e-01 4.949424650087564146e+02
9.412070655544219067e-01 4.949421528344576018e+02
9.413070875592630671e-01 4.949418285521580287e+02
9.414071095641040055e-01 4.949414920200315464e+02
9.415071315689450548e-01 4.949411430954990010e+02
9.416071535737862153e-01 4.949407816352312466e+02
9.417071755786272647e-01 4.949404074951517032e+02
9.418071975834683141e-01 4.949400205304431779e+02
9.419072195883093634e-01 4.949396205955499113e+02
9.420072415931504128e-01 4.949392075441837733e+02
9.421072635979914622e-01 4.949387812293257412e+02
9.422072856028325116e-01 4.949383415032334597e+02
9.423073076076736720e-01 4.949378882174418095e+02
9.424073296125147214e-01 4.949374212227716043e+02
9.425073516173556598e-01 4.949369403693299319e+02
9.426073736221968202e-01 4.949364455065168045e+02
9.427073956270379806e-01 4.949359364830296499e+02
9.428074176318789190e-01 4.949354131468663809e+02
9.429074396367199684e-01 4.949348753453317613e+02
9.430074616415611288e-01 4.949343229250402487e+02
9.431074836464021782e-01 4.949337557319214511e+02
9.432075056512432276e-01 4.949331736112249587e+02
9.433075276560842770e-01 4.949325764075248344e+02
9.434075496609253264e-01 4.949319639647233657e+02
9.435075716657663758e-01 4.949313361260574879e+02
9.436075936706074252e-01 4.949306927341033315e+02
9.437076156754485856e-01 4.949300336307778707e+02
9.438076376802896350e-01 4.949293586573489847e+02
9.439076596851305734e-01 4.949286676544365946e+02
9.440076816899717338e-01 4.949279604620180635e+02
9.441077036948128942e-01 4.949272369194347334e+02
9.442077256996538326e-01 4.949264968653946539e+02
9.443077477044948820e-01 4.949257401379802559e+02
9.444077697093360424e-01 4.949249665746502274e+02
9.445077917141770918e-01 4.949241760122483811e+02
9.446078137190181412e-01 4.949233682870046209e+02
9.447078357238591906e-01 4.949225432345431273e+02
9.448078577287002400e-01 4.949217006898861655e+02
9.449078797335412894e-01 4.949208404874602820e+02
9.450079017383823388e-01 4.949199624611007380e+02
9.451079237432234992e-01 4.949190664440562273e+02
9.452079457480645486e-01 4.949181522689959820e+02
9.453079677529054869e-01 4.949172197680130694e+02
9.454079897577466474e-01 4.949162687726310423e+02
9.455080117625878078e-01 4.949152991138092261e+02
9.456080337674287462e-01 4.949143106219477772e+02
9.457080557722697955e-01 4.949133031268938225e+02
9.458080777771109560e-01 4.949122764579453815e+02
9.459080997819518943e-01 4.949112304438593242e+02
9.460081217867930548e-01 4.949101649128534177e+02
9.461081437916341041e-01 4.949090796926165012e+02
9.462081657964751535e-01 4.949079746103097932e+02
9.463081878013162029e-01 4.949068494925753043e+02
9.464082098061572523e-01 4.949057041655399871e+02
9.465082318109984127e-01 4.949045384548227844e+02
9.466082538158393511e-01 4.949033521855381537e+02
9.467082758206804005e-01 4.949021451823050484e+02
9.468082978255215609e-01 4.949009172692494190e+02
9.469083198303627213e-01 4.948996682700125120e+02
9.470083418352036597e-01 4.948983980077554179e+02
9.471083638400447091e-01 4.948971063051651527e+02
9.472083858448858695e-01 4.948957929844601153e+02
9.473084078497268079e-01 4.948944578673977617e+02
9.474084298545679683e-01 4.948931007752784126e+02
9.475084518594090177e-01 4.948917215289528713e+02
9.476084738642500671e-01 4.948903199488266864e+02
9.477084958690911165e-01 4.948888958548686787e+02
9.478085178739321659e-01 4.948874490666145789e+02
9.479085398787733263e-01 4.948859794031741899e+02
9.480085618836142647e-01 4.948844866832382650e+02
9.481085838884553141e-01 4.948829707250820320e+02
9.482086058932964745e-01 4.948814313465755959e+02
9.483086278981376349e-01 4.948798683651858710e+02
9.484086499029785733e-01 4.948782815979851648e+02
9.485086719078196227e-01 4.948766708616572032e+02
9.486086939126607831e-01 4.948750359725027010e+02
9.487087159175017215e-01 4.948733767464464108e+02
9.488087379223428819e-01 4.948716929990422386e+02
9.489087599271839313e-01 4.948699845454814863e+02
9.490087819320249807e-01 4.948682512005981948e+02
9.491088039368660301e-01 4.948664927788751129e+02
9.492088259417070795e-01 4.948647090944497791e+02
9.493088479465482399e-01 4.948628999611229347e+02
9.494088699513891783e-01 4.948610651923637533e+02
9.495088919562302276e-01 4.948592046013156391e+02
9.496089139610713881e-01 4.948573180008036161e+02
9.497089359659125485e-01 4.948554052033413200e+02
9.498089579707534869e-01 4.948534660211363416e+02
9.499089799755945362e-01 4.948515002660973323e+02
9.500090019804356967e-01 4.948495077498414503e+02
9.501090239852766350e-01 4.948474882836992492e+02
9.502090459901177955e-01 4.948454416787229775e+02
9.503090679949588448e-01 4.948433677456930582e+02
9.504090899997998942e-01 4.948412662951229777e+02
9.505091120046409436e-01 4.948391371372678691e+02
9.506091340094819930e-01 4.948369800821309354e+02
9.507091560143231534e-01 4.948347949394701573e+02
9.508091780191640918e-01 4.948325815188045453e+02
9.509092000240051412e-01 4.948303396294209051e+02
9.510092220288463016e-01 4.948280690803823632e+02
9.511092440336874620e-01 4.948257696805313230e+02
9.512092660385284004e-01 4.948234412385016867e+02
9.513092880433694498e-01 4.948210835627209576e+02
9.514093100482106102e-01 4.948186964614199610e+02
9.515093320530515486e-01 4.948162797426381303e+02
9.516093540578927090e-01 4.948138332142318632e+02
9.517093760627337584e-01 4.948113566838802626e+02
9.518093980675748078e-01 4.948088499590925835e+02
9.519094200724158572e-01 4.948063128472160770e+02
9.520094420772569066e-01 4.948037451554404811e+02
9.521094640820980670e-01 4.948011466908085367e+02
9.522094860869390054e-01 4.947985172602193416e+02
9.523095080917800548e-01 4.947958566704384680e+02
9.524095300966212152e-01 4.947931647281035339e+02
9.525095521014623756e-01 4.947904412397319334e+02
9.526095741063033140e-01 4.947876860117258389e+02
9.527095961111443634e-01 4.947848988503828309e+02
9.528096181159855238e-01 4.947820795619005594e+02
9.529096401208264622e-01 4.947792279523844172e+02
9.530096621256676226e-01 4.947763438278552712e+02
9.531096841305086720e-01 4.947734269942545779e+02
9.532097061353497214e-01 4.947704772574552408e+02
9.533097281401907708e-01 4.947674944232662142e+02
9.534097501450318202e-01 4.947644782974388136e+02
9.535097721498729806e-01 4.947614286856775152e+02
9.536097941547139190e-01 4.947583453936430828e+02
9.537098161595549684e-01 4.947552282269629131e+02
9.538098381643961288e-01 4.947520769912372316e+02
9.539098601692372892e-01 4.947488914920458001e+02
9.540098821740782276e-01 4.947456715349555907e+02
9.541099041789192770e-01 4.947424169255287438e+02
9.542099261837604374e-01 4.947391274693296168e+02
9.543099481886013757e-01 4.947358029719315482e+02
9.544099701934425362e-01 4.947324432389228832e+02
9.545099921982835856e-01 4.947290480759188540e+02
9.546100142031245239e-01 4.947256172885644219e+02
9.547100362079656843e-01 4.947221506825429174e+02
9.548100582128067337e-01 4.947186480635854195e+02
9.549100802176478942e-01 4.947151092374743939e+02
9.550101022224888325e-01 4.947115340100546632e+02
9.551101242273298819e-01 4.947079221872388075e+02
9.552101462321710423e-01 4.947042735750150086e+02
9.553101682370119807e-01 4.947005879794549514e+02
9.554101902418531411e-01 4.946968652067213839e+02
9.555102122466941905e-01 4.946931050630731761e+02
9.556102342515353509e-01 4.946893073548776556e+02
9.557102562563762893e-01 4.946854718886115165e+02
9.558102782612174497e-01 4.946815984708752012e+02
9.559103002660584991e-01 4.946776869083951169e+02
9.560103222708994375e-01 4.946737370080336404e+02
9.561103442757405979e-01 4.946697485767961098e+02
9.562103662805816473e-01 4.946657214218376453e+02
9.563103882854228077e-01 4.946616553504715057e+02
9.564104102902637461e-01 4.946575501701769895e+02
9.565104322951047955e-01 4.946534056886057442e+02
9.566104542999459559e-01 4.946492217135895544e+02
9.567104763047868943e-01 4.946449980531480719e+02
9.568104983096280547e-01 4.946407345154976269e+02
9.569105203144691041e-01 4.946364309090559459e+02
9.570105423193102645e-01 4.946320870424523264e+02
9.571105643241512029e-01 4.946277027245339468e+02
9.572105863289923633e-01 4.946232777643732561e+02
9.573106083338334127e-01 4.946188119712765001e+02
9.574106303386743511e-01 4.946143051547904292e+02
9.575106523435155115e-01 4.946097571247092333e+02
9.576106743483565609e-01 4.946051676910842616e+02
9.577106963531977213e-01 4.946005366642293666e+02
9.578107183580386597e-01 4.945958638547296005e+02
9.579107403628797091e-01 4.945911490734493441e+02
9.580107623677208695e-01 4.945863921315379912e+02
9.581107843725618078e-01 4.945815928404387591e+02
9.582108063774029683e-01 4.945767510118963628e+02
9.583108283822440177e-01 4.945718664579648021e+02
9.584108503870851781e-01 4.945669389910133305e+02
9.585108723919261164e-01 4.945619684237361753e+02
9.586108943967672769e-01 4.945569545691590747e+02
9.587109164016083263e-01 4.945518972406453031e+02
9.588109384064492646e-01 4.945467962519073808e+02
9.589109604112904250e-01 4.945416514170099163e+02
9.590109824161314744e-01 4.945364625503800653e+02
9.591110044209726349e-01 4.945312294668148638e+02
9.592110264258135732e-01 4.945259519814869691e+02
9.593110484306546226e-01 4.945206299099552893e+02
9.594110704354957830e-01 4.945152630681686219e+02
9.595110924403367214e-01 4.945098512724779312e+02
9.596111144451778818e-01 4.945043943396389068e+02
9.597111364500189312e-01 4.944988920868238438e+02
9.598111584548600916e-01 4.944933443316260764e+02
9.599111804597010300e-01 4.944877508920693003e+02
9.600112024645421904e-01 4.944821115866145078e+02
9.601112244693832398e-01 4.944764262341670360e+02
9.602112464742241782e-01 4.944706946540857189e+02
9.603112684790653386e-01 4.944649166661886284e+02
9.604112904839063880e-01 4.944590920907610894e+02
9.605113124887475484e-01 4.944532207485643198e+02
9.606113344935884868e-01 4.944473024608407741e+02
9.607113564984295362e-01 4.944413370493235220e+02
9.608113785032706966e-01 4.944353243362443209e+02
9.609114005081116350e-01 4.944292641443377647e+02
9.610114225129527954e-01 4.944231562968518574e+02
9.611114445177938448e-01 4.944170006175554022e+02
9.612114665226350052e-01 4.944107969307432882e+02
9.613114885274759436e-01 4.944045450612461536e+02
9.614115105323171040e-01 4.943982448344365821e+02
9.615115325371581534e-01 4.943918960762372876e+02
9.616115545419990918e-01 4.943854986131279361e+02
9.617115765468402522e-01 4.943790522721529896e+02
9.618115985516813016e-01 4.943725568809289825e+02
9.619116205565224620e-01 4.943660122676519109e+02
9.620116425613634004e-01 4.943594182611046790e+02
9.621116645662044498e-01 4.943527746906648872e+02
9.622116865710456102e-01 4.943460813863110843e+02
9.623117085758865485e-01 4.943393381786318059e+02
9.624117305807277090e-01 4.943325448988304061e+02
9.625117525855687584e-01 4.943257013787361984e+02
9.626117745904099188e-01 4.943188074508082650e+02
9.627117965952508571e-01 4.943118629481442667e+02
9.628118186000920176e-01 4.943048677044873784e+02
9.629118406049330670e-01 4.942978215542350426e+02
9.630118626097740053e-01 4.942907243324433466e+02
9.631118846146151657e-01 4.942835758748378794e+02
9.632119066194562151e-01 4.942763760178175403e+02
9.633119286242972645e-01 4.942691245984644866e+02
9.634119506291383139e-01 4.942618214545492492e+02
9.635119726339793633e-01 4.942544664245402259e+02
9.636119946388205237e-01 4.942470593476088538e+02
9.637120166436614621e-01 4.942396000636385338e+02
9.638120386485026225e-01 4.942320884132293486e+02
9.639120606533436719e-01 4.942245242377081240e+02
9.640120826581846103e-01 4.942169073791338860e+02
9.641121046630257707e-01 4.942092376803055345e+02
9.642121266678669311e-01 4.942015149847687780e+02
9.643121486727079805e-01 4.941937391368227850e+02
9.644121706775489189e-01 4.941859099815283685e+02
9.645121926823900793e-01 4.941780273647140120e+02
9.646122146872311287e-01 4.941700911329845667e+02
9.647122366920721781e-01 4.941621011337254572e+02
9.648122586969132275e-01 4.941540572151127435e+02
9.649122807017542769e-01 4.941459592261174976e+02
9.650123027065954373e-01 4.941378070165160352e+02
9.651123247114363757e-01 4.941296004368923036e+02
9.652123467162775361e-01 4.941213393386505004e+02
9.653123687211185855e-01 4.941130235740156991e+02
9.654123907259595239e-01 4.941046529960470934e+02
9.655124127308006843e-01 4.940962274586399872e+02
9.656124347356418447e-01 4.940877468165351729e+02
9.657124567404828941e-01 4.940792109253249578e+02
9.658124787453238325e-01 4.940706196414606097e+02
9.659125007501649929e-01 4.940619728222583831e+02
9.660125227550060423e-01 4.940532703259069649e+02
9.661125447598470917e-01 4.940445120114744668e+02
9.662125667646881411e-01 4.940356977389141093e+02
9.663125887695291905e-01 4.940268273690716114e+02
9.664126107743703509e-01 4.940179007636919550e+02
9.665126327792112892e-01 4.940089177854275704e+02
9.666126547840524497e-01 4.939998782978402687e+02
9.667126767888934991e-01 4.939907821654145437e+02
9.668126987937344374e-01 4.939816292535585944e+02
9.669127207985755978e-01 4.939724194286137617e+02
9.670127428034167583e-01 4.939631525578608375e+02
9.671127648082578077e-01 4.939538285095259198e+02
9.672127868130987460e-01 4.939444471527883138e+02
9.673128088179399064e-01 4.939350083577840564e+02
9.674128308227809558e-01 4.939255119956153521e+02
9.675128528276220052e-01 4.939159579383571668e+02
9.676128748324630546e-01 4.939063460590610362e+02
9.677128968373041040e-01 4.938966762317646157e+02
9.678129188421452644e-01 4.938869483314954323e+02
9.679129408469862028e-01 4.938771622342778187e+02
9.680129628518273632e-01 4.938673178171422364e+02
9.681129848566684126e-01 4.938574149581263555e+02
9.682130068615093510e-01 4.938474535362860252e+02
9.683130288663505114e-01 4.938374334316988552e+02
9.684130508711916718e-01 4.938273545254716055e+02
9.685130728760327212e-01 4.938172166997466093e+02
9.686130948808736596e-01 4.938070198377063775e+02
9.687131168857148200e-01 4.937967638235816139e+02
9.688131388905558694e-01 4.937864485426562169e+02
9.689131608953969188e-01 4.937760738812742147e+02
9.690131829002379682e-01 4.937656397268456203e+02
9.691132049050790176e-01 4.937551459678510355e+02
9.692132269099201780e-01 4.937445924938502344e+02
9.693132489147611164e-01 4.937339791954861425e+02
9.694132709196022768e-01 4.937233059644914874e+02
9.695132929244433262e-01 4.937125726936961883e+02
9.696133149292842646e-01 4.937017792770294022e+02
9.697133369341254250e-01 4.936909256095302680e+02
9.698133589389665854e-01 4.936800115873496679e+02
9.699133809438076348e-01 4.936690371077581858e+02
9.700134029486485732e-01 4.936580020691523600e+02
9.701134249534897336e-01 4.936469063710588898e+02
9.702134469583307830e-01 4.936357499141407743e+02
9.703134689631718324e-01 4.936245326002036222e+02
9.704134909680128818e-01 4.936132543322015636e+02
9.705135129728539312e-01 4.936019150142412286e+02
9.706135349776950916e-01 4.935905145515893082e+02
9.707135569825360299e-01 4.935790528506772716e+02
9.708135789873771904e-01 4.935675298191061415e+02
9.709136009922182398e-01 4.935559453656538835e+02
9.710136229970591781e-01 4.935442994002794421e+02
9.711136450019003385e-01 4.935325918341284819e+02
9.712136670067414990e-01 4.935208225795385033e+02
9.713136890115825484e-01 4.935089915500461757e+02
9.714137110164234867e-01 4.934970986603891561e+02
9.715137330212646471e-01 4.934851438265149000e+02
9.716137550261056965e-01 4.934731269655842425e+02
9.717137770309467459e-01 4.934610479959761165e+02
9.718137990357877953e-01 4.934489068372946576e+02
9.719138210406288447e-01 4.934367034103725018e+02
9.720138430454698941e-01 4.934244376372769239e+02
9.721138650503109435e-01 4.934121094413154651e+02
9.722138870551521039e-01 4.933997187470388326e+02
9.723139090599931533e-01 4.933872654802492548e+02
9.724139310648340917e-01 4.933747495680023007e+02
9.725139530696752521e-01 4.933621709386143266e+02
9.726139750745164125e-01 4.933495295216655450e+02
9.727139970793573509e-01 4.933368252480059937e+02
9.728140190841984003e-01 4.933240580497603105e+02
9.729140410890395607e-01 4.933112278603326786e+02
9.730140630938806101e-01 4.932983346144111465e+02
9.731140850987216595e-01 4.932853782479719484e+02
9.732141071035627089e-01 4.932723586982865527e+02
9.733141291084037583e-01 4.932592759039231396e+02
9.734141511132448077e-01 4.932461298047539913e+02
9.735141731180858571e-01 4.932329203419581063e+02
9.736141951229270175e-01 4.932196474580279641e+02
9.737142171277680669e-01 4.932063110967711168e+02
9.738142391326090053e-01 4.931929112033173510e+02
9.739142611374501657e-01 4.931794477241223262e+02
9.740142831422913261e-01 4.931659206069713832e+02
9.741143051471322645e-01 4.931523298009844893e+02
9.742143271519733139e-01 4.931386752566211271e+02
9.743143491568144743e-01 4.931249569256830796e+02
9.744143711616555237e-01 4.931111747613196599e+02
9.745143931664965731e-01 4.930973287180337365e+02
9.746144151713376225e-01 4.930834187516815632e+02
9.747144371761786719e-01 4.930694448194809638e+02
9.748144591810197213e-01 4.930554068800145728e+02
9.749144811858607707e-01 4.930413048932318816e+02
9.750145031907019311e-01 4.930271388204558320e+02
9.751145251955429805e-01 4.930129086243850907e+02
9.752145472003839188e-01 4.929986142690996758e+02
9.753145692052250793e-01 4.929842557200623219e+02
9.754145912100662397e-01 4.929698329441261535e+02
9.755146132149071780e-01 4.929553459095340031e+02
9.756146352197482274e-01 4.929407945859263123e+02
9.757146572245893879e-01 4.929261789443418138e+02
9.758146792294304372e-01 4.929114989572240120e+02
9.759147012342714866e-01 4.928967545984216940e+02
9.760147232391125360e-01 4.928819458431957514e+02
9.761147452439535854e-01 4.928670726682209420e+02
9.762147672487946348e-01 4.928521350515892436e+02
9.763147892536356842e-01 4.928371329728145724e+02
9.764148112584768446e-01 4.928220664128357384e+02
9.765148332633178940e-01 4.928069353540194584e+02
9.766148552681588324e-01 4.927917397801642210e+02
9.767148772729999928e-01 4.927764796765028450e+02
9.768148992778411532e-01 4.927611550297082772e+02
9.769149212826820916e-01 4.927457658278923418e+02
9.770149432875231410e-01 4.927303120606144375e+02
9.771149652923643014e-01 4.927147937188798323e+02
9.772149872972053508e-01 4.926992107951463140e+02
9.773150093020464002e-01 4.926835632833245882e+02
9.774150313068874496e-01 4.926678511787832804e+02
9.775150533117284990e-01 4.926520744783521195e+02
9.776150753165695484e-01 4.926362331803221650e+02
9.777150973214105978e-01 4.926203272844516050e+02
9.778151193262517582e-01 4.926043567919687689e+02
9.779151413310928076e-01 4.925883217055717296e+02
9.780151633359337460e-01 4.925722220294344424e+02
9.781151853407749064e-01 4.925560577692082802e+02
9.782152073456160668e-01 4.925398289320238518e+02
9.783152293504570052e-01 4.925235355264955501e+02
9.784152513552980546e-01 4.925071775627226884e+02
9.785152733601392150e-01 4.924907550522924566e+02
9.786152953649802644e-01 4.924742680082821380e+02
9.787153173698213138e-01 4.924577164452622924e+02
9.788153393746623632e-01 4.924411003792992574e+02
9.789153613795034126e-01 4.924244198279563989e+02
9.790153833843444620e-01 4.924076748102978627e+02
9.791154053891855114e-01 4.923908653468895977e+02
9.792154273940266718e-01 4.923739914598018004e+02
9.793154493988677212e-01 4.923570531726130639e+02
9.794154714037086595e-01 4.923400505104100944e+02
9.795154934085498200e-01 4.923229834997893590e+02
9.796155154133909804e-01 4.923058521688629980e+02
9.797155374182319187e-01 4.922886565472571192e+02
9.798155594230729681e-01 4.922713966661144127e+02
9.799155814279141286e-01 4.922540725580981302e+02
9.800156034327551779e-01 4.922366842573919143e+02
9.801156254375962273e-01 4.922192317997017881e+02
9.802156474424372767e-01 4.922017152222589971e+02
9.803156694472783261e-01 4.921841345638212033e+02
9.804156914521193755e-01 4.921664898646736788e+02
9.805157134569604249e-01 4.921487811666320340e+02
9.806157354618015853e-01 4.921310085130432981e+02
9.807157574666425237e-01 4.921131719487865439e+02
9.808157794714835731e-01 4.920952715202766399e+02
9.809158014763247335e-01 4.920773072754628856e+02
9.810158234811658939e-01 4.920592792638336164e+02
9.811158454860068323e-01 4.920411875364139860e+02
9.812158674908478817e-01 4.920230321457715377e+02
9.813158894956890421e-01 4.920048131460125092e+02
9.814159115005299805e-01 4.919865305927872896e+02
9.815159335053711409e-01 4.919681845432900218e+02
9.816159555102121903e-01 4.919497750562592273e+02
9.817159775150532397e-01 4.919313021919801940e+02
9.818159995198942891e-01 4.919127660122837256e+02
9.819160215247353385e-01 4.918941665805501771e+02
9.820160435295764989e-01 4.918755039617086027e+02
9.821160655344174373e-01 4.918567782222367555e+02
9.822160875392584867e-01 4.918379894301648392e+02
9.823161095440996471e-01 4.918191376550726090e+02
9.824161315489408075e-01 4.918002229680946584e+02
9.825161535537817459e-01 4.917812454419159280e+02
9.826161755586227953e-01 4.917622051507769925e+02
9.827161975634639557e-01 4.917431021704718432e+02
9.828162195683048941e-01 4.917239365783494236e+02
9.829162415731460545e-01 4.917047084533137991e+02
9.830162635779871039e-01 4.916854178758256921e+02
9.831162855828281533e-01 4.916660649279007771e+02
9.832163075876692027e-01 4.916466496931125221e+02
9.833163295925102521e-01 4.916271722565912796e+02
9.834163515973514125e-01 4.916076327050240593e+02
9.835163736021923508e-01 4.915880311266552098e+02
9.836163956070334002e-01 4.915683676112877265e+02
9.837164176118745607e-01 4.915486422502815458e+02
9.838164396167157211e-01 4.915288551365547391e+02
9.839164616215566594e-01 4.915090063645832288e+02
9.840164836263977088e-01 4.914890960304008445e+02
9.841165056312388693e-01 4.914691242315992667e+02
9.842165276360798076e-01 4.914490910673279132e+02
9.843165496409209680e-01 4.914289966382941088e+02
9.844165716457620174e-01 4.914088410467613812e+02
9.845165936506030668e-01 4.913886243965520180e+02
9.846166156554441162e-01 4.913683467930433721e+02
9.847166376602851656e-01 4.913480083431716139e+02
9.848166596651263260e-01 4.913276091554258187e+02
9.849166816699672644e-01 4.913071493398534244e+02
9.850167036748083138e-01 4.912866290080555132e+02
9.851167256796494742e-01 4.912660482731881757e+02
9.852167476844906346e-01 4.912454072499618860e+02
9.853167696893315730e-01 4.912247060546389434e+02
9.854167916941726224e-01 4.912039448050363717e+02
9.855168136990137828e-01 4.911831236205215987e+02
9.856168357038547212e-01 4.911622426220133661e+02
9.857168577086958816e-01 4.911413019319816158e+02
9.858168797135369310e-01 4.911203016744440220e+02
9.859169017183779804e-01 4.910992419749681517e+02
9.860169237232190298e-01 4.910781229606693046e+02
9.861169457280600792e-01 4.910569447602073296e+02
9.862169677329012396e-01 4.910357075037892400e+02
9.863169897377421780e-01 4.910144113231655183e+02
9.864170117425832274e-01 4.909930563516292068e+02
9.865170337474243878e-01 4.909716427240162488e+02
9.866170557522655482e-01 4.909501705767028170e+02
9.867170777571064866e-01 4.909286400476045742e+02
9.868170997619475360e-01 4.909070512761733767e+02
9.869171217667886964e-01 4.908854044033994342e+02
9.870171437716296348e-01 4.908636995718073308e+02
9.871171657764707952e-01 4.908419369254551157e+02
9.872171877813118446e-01 4.908201166099325974e+02
9.873172097861528940e-01 4.907982387723595821e+02
9.874172317909939434e-01 4.907763035613852480e+02
9.875172537958349928e-01 4.907543111271849625e+02
9.876172758006761532e-01 4.907322616214595428e+02
9.877172978055170915e-01 4.907101551974339486e+02
9.878173198103581409e-01 4.906879920098530761e+02
9.879173418151993014e-01 4.906657722149816436e+02
9.880173638200404618e-01 4.906434959706038512e+02
9.881173858248814001e-01 4.906211634360175253e+02
9.882174078297224495e-01 4.905987747720348580e+02
9.883174298345636100e-01 4.905763301409795076e+02
9.884174518394045483e-01 4.905538297066844962e+02
9.885174738442457087e-01 4.905312736344897644e+02
9.886174958490867581e-01 4.905086620912412627e+02
9.887175178539278075e-01 4.904859952452861194e+02
9.888175398587688569e-01 4.904632732664725836e+02
9.889175618636099063e-01 4.904404963261461035e+02
9.890175838684510667e-01 4.904176645971489279e+02
9.891176058732920051e-01 4.903947782538156162e+02
9.892176278781330545e-01 4.903718374719707072e+02
9.893176498829742149e-01 4.903488424289279806e+02
9.894176718878151533e-01 4.903257933034852272e+02
9.895176938926563137e-01 4.903026902759230552e+02
9.896177158974973631e-01 4.902795335280039808e+02
9.897177379023385235e-01 4.902563232429642426e+02
9.898177599071794619e-01 4.902330596055174396e+02
9.899177819120206223e-01 4.902097428018475966e+02
9.900178039168616717e-01 4.901863730196074584e+02
9.901178259217026101e-01 4.901629504479149091e+02
9.902178479265437705e-01 4.901394752773513801e+02
9.903178699313848199e-01 4.901159476999575304e+02
9.904178919362259803e-01 4.900923679092309158e+02
9.905179139410669187e-01 4.900687361001218960e+02
9.906179359459079681e-01 4.900450524690309067e+02
9.907179579507491285e-01 4.900213172138071513e+02
9.908179799555900669e-01 4.899975305337416103e+02
9.909180019604312273e-01 4.899736926295665285e+02
9.910180239652722767e-01 4.899498037034517210e+02
9.911180459701134371e-01 4.899258639589994573e+02
9.912180679749543755e-01 4.899018736012429827e+02
9.913180899797955359e-01 4.898778328366418577e+02
9.914181119846365853e-01 4.898537418730801392e+02
9.915181339894775236e-01 4.898296009198593879e+02
9.916181559943186841e-01 4.898054101876982145e+02
9.917181779991597335e-01 4.897811698887280727e+02
9.918182000040008939e-01 4.897568802364869498e+02
9.919182220088418322e-01 4.897325414459198782e+02
9.920182440136828816e-01 4.897081537333715460e+02
9.921182660185240421e-01 4.896837173165836248e+02
9.922182880233649804e-01 4.896592324146913597e+02
9.923183100282061408e-01 4.896346992482193627e+02
9.924183320330471902e-01 4.896101180390764398e+02
9.925183540378883507e-01 4.895854890105538857e+02
9.926183760427292890e-01 4.895608123873190607e+02
9.927183980475704494e-01 4.895360883954126052e+02
9.928184200524114988e-01 4.895113172622444608e+02
9.929184420572524372e-01 4.894864992165883564e+02
9.930184640620935976e-01 4.894616344885783406e+02
9.931184860669346470e-01 4.894367233097044050e+02
9.932185080717758074e-01 4.894117659128088462e+02
9.933185300766167458e-01 4.893867625320805246e+02
9.934185520814577952e-01 4.893617134030509987e+02
9.935185740862989556e-01 4.893366187625909447e+02
9.936185960911398940e-01 4.893114788489035618e+02
9.937186180959810544e-01 4.892862939015227539e+02
9.938186401008221038e-01 4.892610641613060807e+02
9.939186621056632642e-01 4.892357898704314039e+02
9.940186841105042026e-01 4.892104712723906914e+02
9.941187061153453630e-01 4.891851086119883121e+02
9.942187281201864124e-01 4.891597021353341006e+02
9.943187501250273508e-01 4.891342520898369912e+02
9.944187721298685112e-01 4.891087587242031987e+02
9.945187941347095606e-01 4.890832222884303633e+02
9.946188161395507210e-01 4.890576430338026626e+02
9.947188381443916594e-01 4.890320212128841035e+02
9.948188601492327088e-01 4.890063570795160217e+02
9.949188821540738692e-01 4.889806508888106009e+02
9.950189041589148076e-01 4.889549028971448479e+02
9.951189261637559680e-01 4.889291133621588870e+02
9.952189481685970174e-01 4.889032825427465809e+02
9.953189701734381778e-01 4.888774106990529162e+02
9.954189921782791162e-01 4.888514980924683186e+02
9.955190141831202766e-01 4.888255449856224004e+02
9.956190361879613260e-01 4.887995516423794129e+02
9.957190581928022644e-01 4.887735183278333011e+02
9.958190801976434248e-01 4.887474453083003709e+02
9.959191022024844742e-01 4.887213328513162196e+02
9.960191242073256346e-01 4.886951812256285166e+02
9.961191462121665730e-01 4.886689907011929108e+02
9.962191682170076223e-01 4.886427615491649021e+02
9.963191902218487828e-01 4.886164940418972265e+02
9.964192122266897211e-01 4.885901884529323524e+02
9.965192342315308816e-01 4.885638450569967972e+02
9.966192562363719309e-01 4.885374641299968062e+02
9.967192782412130914e-01 4.885110459490102812e+02
9.968193002460540297e-01 4.884845907922835977e+02
9.969193222508951902e-01 4.884580989392230777e+02
9.970193442557362395e-01 4.884315706703914657e+02
9.971193662605771779e-01 4.884050062675003119e+02
9.972193882654183383e-01 4.883784060134049128e+02
9.973194102702593877e-01 4.883517701920974332e+02
9.974194322751005481e-01 4.883250990887016201e+02
9.975194542799414865e-01 4.882983929894674020e+02
9.976194762847825359e-01 4.882716521817629882e+02
9.977194982896236963e-01 4.882448769540686158e+02
9.978195202944646347e-01 4.882180675959733662e+02
9.979195422993057951e-01 4.881912243981657866e+02
9.980195643041468445e-01 4.881643476524288872e+02
9.981195863089877829e-01 4.881374376516332063e+02
9.982196083138289433e-01 4.881104946897314676e+02
9.983196303186701037e-01 4.880835190617519856e+02
9.984196523235111531e-01 4.880565110637909356e+02
9.985196743283520915e-01 4.880294709930082035e+02
9.986196963331932519e-01 4.880023991476176661e+02
9.987197183380343013e-01 4.879752958268847465e+02
9.988197403428753507e-01 4.879481613311168076e+02
9.989197623477164001e-01 4.879209959616562742e+02
9.990197843525574495e-01 4.878938000208785297e+02
9.991198063573986099e-01 4.878665738121779327e+02
9.992198283622395483e-01 4.878393176399679874e+02
9.993198503670807087e-01 4.878120318096709411e+02
9.994198723719217581e-01 4.877847166277117026e+02
9.995198943767626965e-01 4.877573724015121002e+02
9.996199163816038569e-01 4.877299994394811620e+02
9.997199383864450173e-01 4.877025980510132968e+02
9.998199603912860667e-01 4.876751685464762431e+02
9.999199823961270051e-01 4.876477112372068632e+02
1.000020004400968165e+00 4.392847766762484980e+02
1.000120026405809215e+00 4.391494950229463257e+02
1.000220048410650264e+00 4.390142458586089447e+02
1.000320070415491314e+00 4.388790314572127613e+02
1.000420092420332363e+00 4.387438540919920342e+02
1.000520114425173634e+00 4.386087160353782792e+02
1.000620136430014462e+00 4.384736195589393901e+02
1.000720158434855511e+00 4.383385669333183046e+02
1.000820180439696783e+00 4.382035604281728638e+02
1.000920202444537610e+00 4.380686023121143080e+02
1.001020224449378659e+00 4.379336948526470223e+02
1.001120246454219931e+00 4.377988403161079987e+02
1.001220268459060980e+00 4.376640409676051036e+02
1.001320290463902030e+00 4.375292990709575633e+02
1.001420312468743079e+00 4.373946168886344026e+02
1.001520334473584128e+00 4.372599966816944175e+02
1.001620356478425178e+00 4.371254407097259786e+02
1.001720378483266227e+00 4.369909512307849582e+02
1.001820400488107277e+00 4.368565305013362945e+02
1.001920422492948326e+00 4.367221807761921468e+02
1.002020444497789375e+00 4.365879043084519253e+02
1.002120466502630425e+00 4.364537033494418097e+02
1.002220488507471696e+00 4.363195801486552909e+02
1.002320510512312524e+00 4.361855369536921785e+02
1.002420532517153795e+00 4.360515760101980050e+02
1.002520554521994844e+00 4.359176995618050228e+02
1.002620576526835894e+00 4.357839098500713817e+02
1.002720598531676943e+00 4.356502091144215001e+02
1.002820620536517993e+00 4.355165995920864930e+02
1.002920642541359042e+00 4.353830835180430654e+02
1.003020664546200091e+00 4.352496631249557595e+02
1.003120686551041141e+00 4.351163406431141425e+02
1.003220708555882190e+00 4.349831183003771002e+02
1.003320730560723462e+00 4.348499983221097409e+02
1.003420752565564289e+00 4.347169829311262674e+02
1.003520774570405338e+00 4.345840743476292118e+02
1.003620796575246610e+00 4.344512747891507161e+02
1.003720818580087437e+00 4.343185864704933010e+02
1.003820840584928487e+00 4.341860116036699537e+02
1.003920862589769758e+00 4.340535523978462038e+02
1.004020884594610807e+00 4.339212110592798695e+02
1.004120906599451857e+00 4.337889897912639299e+02
1.004220928604292906e+00 4.336568907940649069e+02
1.004320950609133956e+00 4.335249162648673291e+02
1.004420972613975005e+00 4.333930683977124545e+02
1.004520994618816054e+00 4.332613493834414271e+02
1.004621016623657104e+00 4.331297614096359325e+02
1.004721038628498153e+00 4.329983066605598765e+02
1.004821060633339203e+00 4.328669873171023710e+02
1.004921082638180252e+00 4.327358055567175938e+02
1.005021104643021523e+00 4.326047635533680591e+02
1.005121126647862351e+00 4.324738634774672050e+02
1.005221148652703622e+00 4.323431074958195381e+02
1.005321170657544672e+00 4.322124977715644718e+02
1.005421192662385721e+00 4.320820364641192555e+02
1.005521214667226770e+00 4.319517257291197438e+02
1.005621236672067820e+00 4.318215677183645766e+02
1.005721258676908869e+00 4.316915645797566867e+02
1.005821280681749919e+00 4.315617184572472524e+02
1.005921302686590968e+00 4.314320314907776606e+02
1.006021324691432017e+00 4.313025058162241976e+02
1.006121346696273289e+00 4.311731435653393874e+02
1.006221368701114116e+00 4.310439468656963413e+02
1.006321390705955166e+00 4.309149178406325973e+02
1.006421412710796437e+00 4.307860586091923665e+02
1.006521434715637264e+00 4.306573712860728733e+02
1.006621456720478314e+00 4.305288579815651246e+02
1.006721478725319585e+00 4.304005208014996242e+02
1.006821500730160412e+00 4.302723618471914051e+02
1.006921522735001684e+00 4.301443832153813105e+02
1.007021544739842733e+00 4.300165869981843798e+02
1.007121566744683783e+00 4.298889752830315274e+02
1.007221588749524832e+00 4.297615501526156550e+02
1.007321610754365881e+00 4.296343136848350355e+02
1.007421632759206931e+00 4.295072679527405626e+02
1.007521654764047980e+00 4.293804150244791344e+02
1.007621676768889030e+00 4.292537569632396526e+02
1.007721698773730079e+00 4.291272958271994185e+02
1.007821720778571351e+00 4.290010336694666648e+02
1.007921742783412178e+00 4.288749725380307609e+02
1.008021764788253449e+00 4.287491144757045731e+02
1.008121786793094499e+00 4.286234615200725671e+02
1.008221808797935326e+00 4.284980157034361810e+02
1.008321830802776597e+00 4.283727790527601655e+02
1.008421852807617647e+00 4.282477535896201744e+02
1.008521874812458696e+00 4.281229413301488762e+02
1.008621896817299746e+00 4.279983442849820108e+02
1.008721918822140795e+00 4.278739644592076843e+02
1.008821940826981844e+00 4.277498038523114587e+02
1.008921962831822894e+00 4.276258644581253066e+02
1.009021984836663943e+00 4.275021482647740640e+02
1.009122006841504993e+00 4.273786572546247271e+02
1.009222028846346264e+00 4.272553934042329047e+02
1.009322050851187091e+00 4.271323586842912619e+02
1.009422072856028141e+00 4.270095550595797818e+02
1.009522094860869412e+00 4.268869844889110254e+02
1.009622116865710240e+00 4.267646489250815875e+02
1.009722138870551511e+00 4.266425503148198572e+02
1.009822160875392560e+00 4.265206905987352002e+02
1.009922182880233610e+00 4.263990717112677089e+02
1.010022204885074659e+00 4.262776955806359069e+02
1.010122226889915709e+00 4.261565641287896824e+02
1.010222248894756758e+00 4.260356792713574805e+02
1.010322270899597807e+00 4.259150429175959971e+02
1.010422292904438857e+00 4.257946569703437376e+02
1.010522314909279906e+00 4.256745233259679821e+02
1.010622336914121178e+00 4.255546438743165254e+02
1.010722358918962005e+00 4.254350204986697008e+02
1.010822380923803276e+00 4.253156550756903584e+02
1.010922402928644326e+00 4.251965494753749226e+02
1.011022424933485153e+00 4.250777055610055299e+02
1.011122446938326425e+00 4.249591251891013712e+02
1.011222468943167474e+00 4.248408102093706020e+02
1.011322490948008523e+00 4.247227624646626509e+02
1.011422512952849573e+00 4.246049837909208691e+02
1.011522534957690622e+00 4.244874760171338153e+02
1.011622556962531672e+00 4.243702409652892129e+02
1.011722578967372721e+00 4.242532804503262582e+02
1.011822600972213770e+00 4.241365962800896341e+02
1.011922622977054820e+00 4.240201902552818183e+02
1.012022644981896091e+00 4.239040641694175520e+02
1.012122666986736919e+00 4.237882198087772281e+02
1.012222688991577968e+00 4.236726589523610187e+02
1.012322710996419239e+00 4.235573833718432297e+02
1.012422733001260067e+00 4.234423948315277357e+02
1.012522755006101338e+00 4.233276950883010272e+02
1.012622777010942388e+00 4.232132858915882707e+02
1.012722799015783437e+00 4.230991689833093687e+02
1.012822821020624486e+00 4.229853460978312114e+02
1.012922843025465536e+00 4.228718189619278292e+02
1.013022865030306585e+00 4.227585892947330990e+02
1.013122887035147635e+00 4.226456588076970888e+02
1.013222909039988684e+00 4.225330292045448459e+02
1.013322931044829733e+00 4.224207021812306380e+02
1.013422953049671005e+00 4.223086794258957752e+02
1.013522975054511832e+00 4.221969626188250118e+02
1.013622997059353104e+00 4.220855534324056180e+02
1.013723019064194153e+00 4.219744535310832134e+02
1.013823041069034980e+00 4.218636645713208964e+02
1.013923063073876252e+00 4.217531882015557017e+02
1.014023085078717301e+00 4.216430260621596631e+02
1.014123107083558351e+00 4.215331797853950775e+02
1.014223129088399400e+00 4.214236509953767609e+02
1.014323151093240449e+00 4.213144413080286768e+02
1.014423173098081499e+00 4.212055523310440321e+02
1.014523195102922548e+00 4.210969856638457713e+02
1.014623217107763598e+00 4.209887428975455350e+02
1.014723239112604647e+00 4.208808256149033014e+02
1.014823261117445918e+00 4.207732353902893578e+02
1.014923283122286746e+00 4.206659737896438855e+02
1.015023305127127795e+00 4.205590423704382488e+02
1.015123327131969067e+00 4.204524426816354890e+02
1.015223349136809894e+00 4.203461762636534900e+02
1.015323371141651165e+00 4.202402446483243921e+02
1.015423393146492215e+00 4.201346493588585531e+02
1.015523415151333264e+00 4.200293919098061224e+02
1.015623437156174314e+00 4.199244738070185576e+02
1.015723459161015363e+00 4.198198965476130411e+02
1.015823481165856412e+00 4.197156616199348491e+02
1.015923503170697462e+00 4.196117705035209724e+02
1.016023525175538511e+00 4.195082246690623720e+02
1.016123547180379560e+00 4.194050255783703847e+02
1.016223569185220610e+00 4.193021746843377286e+02
1.016323591190061659e+00 4.191996734309064436e+02
1.016423613194902931e+00 4.190975232530297490e+02
1.016523635199743980e+00 4.189957255766382787e+02
1.016623657204584807e+00 4.188942818186057480e+02
1.016723679209426079e+00 4.187931933867129715e+02
1.016823701214267128e+00 4.186924616796158602e+02
1.016923723219107956e+00 4.185920880868090990e+02
1.017023745223949227e+00 4.184920739885955072e+02
1.017123767228790276e+00 4.183924207560490913e+02
1.017223789233631326e+00 4.182931297509859974e+02
1.017323811238472375e+00 4.181942023259280177e+02
1.017423833243313425e+00 4.180956398240733165e+02
1.017523855248154474e+00 4.179974435792626082e+02
1.017623877252995523e+00 4.178996149159463585e+02
1.017723899257836573e+00 4.178021551491558512e+02
1.017823921262677622e+00 4.177050655844697644e+02
1.017923943267518894e+00 4.176083475179843276e+02
1.018023965272359721e+00 4.175120022362819441e+02
1.018123987277200992e+00 4.174160310164003249e+02
1.018224009282042042e+00 4.173204351258046358e+02
1.018324031286883091e+00 4.172252158223548122e+02
1.018424053291724141e+00 4.171303743542785583e+02
1.018524075296565190e+00 4.170359119601389466e+02
1.018624097301406239e+00 4.169418298688102027e+02
1.018724119306247289e+00 4.168481292994439400e+02
1.018824141311088338e+00 4.167548114614453993e+02
1.018924163315929388e+00 4.166618775544416167e+02
1.019024185320770437e+00 4.165693287682569803e+02
1.019124207325611486e+00 4.164771662828826493e+02
1.019224229330452758e+00 4.163853912684527927e+02
1.019324251335293807e+00 4.162940048852144628e+02
1.019424273340134635e+00 4.162030082835046869e+02
1.019524295344975906e+00 4.161124026037201702e+02
1.019624317349816955e+00 4.160221889762957517e+02
1.019724339354657783e+00 4.159323685216751301e+02
1.019824361359499054e+00 4.158429423502875011e+02
1.019924383364340104e+00 4.157539115625222621e+02
1.020024405369181153e+00 4.156652772487048537e+02
1.020124427374022202e+00 4.155770404890719192e+02
1.020224449378863252e+00 4.154892023537465775e+02
1.020324471383704301e+00 4.154017639027163682e+02
1.020424493388545351e+00 4.153147261858080128e+02
1.020524515393386400e+00 4.152280902426662692e+02
1.020624537398227449e+00 4.151418571027297162e+02
1.020724559403068721e+00 4.150560277852081299e+02
1.020824581407909548e+00 4.149706032990626454e+02
1.020924603412750820e+00 4.148855846429804046e+02
1.021024625417591869e+00 4.148009728053562526e+02
1.021124647422432918e+00 4.147167687642700002e+02
1.021224669427273968e+00 4.146329734874650512e+02
1.021324691432115017e+00 4.145495879323291888e+02
1.021424713436956067e+00 4.144666130458747944e+02
1.021524735441797116e+00 4.143840497647157690e+02
1.021624757446638165e+00 4.143018990150515037e+02
1.021724779451479215e+00 4.142201617126459041e+02
1.021824801456320264e+00 4.141388387628093142e+02
1.021924823461161314e+00 4.140579310603778254e+02
1.022024845466002585e+00 4.139774394896984973e+02
1.022124867470843634e+00 4.138973649246072455e+02
1.022224889475684462e+00 4.138177082284149719e+02
1.022324911480525733e+00 4.137384702538879537e+02
1.022424933485366783e+00 4.136596518432315293e+02
1.022524955490207610e+00 4.135812538280728177e+02
1.022624977495048881e+00 4.135032770294454281e+02
1.022724999499889931e+00 4.134257222577736002e+02
1.022825021504730980e+00 4.133485903128541281e+02
1.022925043509572030e+00 4.132718819838435707e+02
1.023025065514413079e+00 4.131955980492429603e+02
1.023125087519254128e+00 4.131197392768808641e+02
1.023225109524095178e+00 4.130443064239016735e+02
1.023325131528936227e+00 4.129693002367502572e+02
1.023425153533777276e+00 4.128947214511576362e+02
1.023525175538618548e+00 4.128205707921291037e+02
1.023625197543459375e+00 4.127468489739297866e+02
1.023725219548300647e+00 4.126735567000723108e+02
1.023825241553141696e+00 4.126006946633057737e+02
1.023925263557982746e+00 4.125282635456006801e+02
1.024025285562823795e+00 4.124562640181396205e+02
1.024125307567664844e+00 4.123846967413051630e+02
1.024225329572505894e+00 4.123135623646685985e+02
1.024325351577346943e+00 4.122428615269794818e+02
1.024425373582187992e+00 4.121725948561543191e+02
1.024525395587029042e+00 4.121027629692678147e+02
1.024625417591870091e+00 4.120333664725418998e+02
1.024725439596711141e+00 4.119644059613369791e+02
1.024825461601552412e+00 4.118958820201424373e+02
1.024925483606393239e+00 4.118277952225685112e+02
1.025025505611234289e+00 4.117601461313363984e+02
1.025125527616075560e+00 4.116929352982723458e+02
1.025225549620916610e+00 4.116261632642977020e+02
1.025325571625757437e+00 4.115598305594223802e+02
1.025425593630598708e+00 4.114939377027384353e+02
1.025525615635439758e+00 4.114284852024125030e+02
1.025625637640280807e+00 4.113634735556781834e+02
1.025725659645121857e+00 4.112989032488324028e+02
1.025825681649962906e+00 4.112347747572285357e+02
1.025925703654803955e+00 4.111710885452702087e+02
1.026025725659645005e+00 4.111078450664068669e+02
1.026125747664486054e+00 4.110450447631294537e+02
1.026225769669327104e+00 4.109826880669645561e+02
1.026325791674168153e+00 4.109207753984716192e+02
1.026425813679009202e+00 4.108593071672385122e+02
1.026525835683850474e+00 4.107982837718792553e+02
1.026625857688691523e+00 4.107377056000286757e+02
1.026725879693532573e+00 4.106775730283410439e+02
1.026825901698373622e+00 4.106178864224879703e+02
1.026925923703214671e+00 4.105586461371556766e+02
1.027025945708055721e+00 4.104998525160430631e+02
1.027125967712896770e+00 4.104415058918601744e+02
1.027225989717737820e+00 4.103836065863280282e+02
1.027326011722578869e+00 4.103261549101775358e+02
1.027426033727419918e+00 4.102691511631472849e+02
1.027526055732260968e+00 4.102125956339862682e+02
1.027626077737102239e+00 4.101564886004525761e+02
1.027726099741943067e+00 4.101008303293133963e+02
1.027826121746784116e+00 4.100456210763466061e+02
1.027926143751625387e+00 4.099908610863425338e+02
1.028026165756466437e+00 4.099365505931048688e+02
1.028126187761307264e+00 4.098826898194523096e+02
1.028226209766148536e+00 4.098292789772214633e+02
1.028326231770989585e+00 4.097763182672679818e+02
1.028426253775830634e+00 4.097238078794715648e+02
1.028526275780671684e+00 4.096717479927376075e+02
1.028626297785512733e+00 4.096201387750012941e+02
1.028726319790353783e+00 4.095689803832316898e+02
1.028826341795194832e+00 4.095182729634345264e+02
1.028926363800035881e+00 4.094680166506589671e+02
1.029026385804876931e+00 4.094182115690004480e+02
1.029126407809717980e+00 4.093688578316076132e+02
1.029226429814559030e+00 4.093199555406861236e+02
1.029326451819400301e+00 4.092715047875058758e+02
1.029426473824241350e+00 4.092235056524066863e+02
1.029526495829082400e+00 4.091759582048039192e+02
1.029626517833923449e+00 4.091288625031969559e+02
1.029726539838764499e+00 4.090822185951754477e+02
1.029826561843605548e+00 4.090360265174266488e+02
1.029926583848446597e+00 4.089902862957442267e+02
1.030026605853287647e+00 4.089449979450339470e+02
1.030126627858128696e+00 4.089001614693257807e+02
1.030226649862969746e+00 4.088557768617796455e+02
1.030326671867810795e+00 4.088118441046962062e+02
1.030426693872652066e+00 4.087683631695252870e+02
1.030526715877492894e+00 4.087253340168769000e+02
1.030626737882333943e+00 4.086827565965297140e+02
1.030726759887175215e+00 4.086406308474425941e+02
1.030826781892016264e+00 4.085989566977659138e+02
1.030926803896857091e+00 4.085577340648505924e+02
1.031026825901698363e+00 4.085169628552607719e+02
1.031126847906539412e+00 4.084766429647858672e+02
1.031226869911380462e+00 4.084367742784526172e+02
1.031326891916221511e+00 4.083973566705364533e+02
1.031426913921062560e+00 4.083583900045738346e+02
1.031526935925903610e+00 4.083198741333779935e+02
1.031626957930744659e+00 4.082818088990485421e+02
1.031726979935585709e+00 4.082441941329883548e+02
1.031827001940426758e+00 4.082070296559152212e+02
1.031927023945267807e+00 4.081703152778760568e+02
1.032027045950108857e+00 4.081340507982646955e+02
1.032127067954950128e+00 4.080982360058330300e+02
1.032227089959791178e+00 4.080628706787073270e+02
1.032327111964632227e+00 4.080279545844047675e+02
1.032427133969473276e+00 4.079934874798486248e+02
1.032527155974314326e+00 4.079594691113838962e+02
1.032627177979155375e+00 4.079258992147952085e+02
1.032727199983996424e+00 4.078927775153218249e+02
1.032827221988837474e+00 4.078601037276752663e+02
1.032927243993678523e+00 4.078278775560581835e+02
1.033027265998519573e+00 4.077960986941801593e+02
1.033127288003360622e+00 4.077647668252768085e+02
1.033227310008201894e+00 4.077338816221273419e+02
1.033327332013042721e+00 4.077034427470739502e+02
1.033427354017883770e+00 4.076734498520407897e+02
1.033527376022725042e+00 4.076439025785520585e+02
1.033627398027565869e+00 4.076148005577532558e+02
1.033727420032406918e+00 4.075861434104290311e+02
1.033827442037248190e+00 4.075579307470265462e+02
1.033927464042089239e+00 4.075301621676712784e+02
1.034027486046930289e+00 4.075028372621927133e+02
1.034127508051771338e+00 4.074759556101416251e+02
1.034227530056612387e+00 4.074495167808136671e+02
1.034327552061453437e+00 4.074235203332698347e+02
1.034427574066294486e+00 4.073979658163598856e+02
1.034527596071135536e+00 4.073728527687427459e+02
1.034627618075976585e+00 4.073481807189095321e+02
1.034727640080817634e+00 4.073239491852089031e+02
1.034827662085658684e+00 4.073001576758664442e+02
1.034927684090499955e+00 4.072768056890099615e+02
1.035027706095340783e+00 4.072538927126943236e+02
1.035127728100182054e+00 4.072314182249232317e+02
1.035227750105023103e+00 4.072093816936753115e+02
1.035327772109864153e+00 4.071877825769275887e+02
1.035427794114705202e+00 4.071666203226816378e+02
1.035527816119546252e+00 4.071458943689872285e+02
1.035627838124387301e+00 4.071256041439700084e+02
1.035727860129228350e+00 4.071057490658541269e+02
1.035827882134069400e+00 4.070863285429913958e+02
1.035927904138910449e+00 4.070673419738866414e+02
1.036027926143751721e+00 4.070487887472229431e+02
1.036127948148592548e+00 4.070306682418907371e+02
1.036227970153433597e+00 4.070129798270133392e+02
1.036327992158274869e+00 4.069957228619753096e+02
1.036428014163115696e+00 4.069788966964504198e+02
1.036528036167956746e+00 4.069625006704286534e+02
1.036628058172798017e+00 4.069465341142456509e+02
1.036728080177639066e+00 4.069309963486105062e+02
1.036828102182480116e+00 4.069158866846350975e+02
1.036928124187321165e+00 4.069012044238634758e+02
1.037028146192162215e+00 4.068869488582998315e+02
1.037128168197003264e+00 4.068731192704411797e+02
1.037228190201844313e+00 4.068597149333035077e+02
1.037328212206685363e+00 4.068467351104551426e+02
1.037428234211526412e+00 4.068341790560454001e+02
1.037528256216367462e+00 4.068220460148374400e+02
1.037628278221208511e+00 4.068103352222357785e+02
1.037728300226049782e+00 4.067990459043218152e+02
1.037828322230890610e+00 4.067881772778818004e+02
1.037928344235731881e+00 4.067777285504417932e+02
1.038028366240572931e+00 4.067676989202967661e+02
1.038128388245413980e+00 4.067580875765453357e+02
1.038228410250255029e+00 4.067488936991210267e+02
1.038328432255096079e+00 4.067401164588257529e+02
1.038428454259937128e+00 4.067317550173635254e+02
1.038528476264778178e+00 4.067238085273716592e+02
1.038628498269619227e+00 4.067162761324570965e+02
1.038728520274460276e+00 4.067091569672292621e+02
1.038828542279301548e+00 4.067024501573330895e+02
1.038928564284142375e+00 4.066961548194860256e+02
1.039028586288983425e+00 4.066902700615093522e+02
1.039128608293824696e+00 4.066847949823668387e+02
1.039228630298665523e+00 4.066797286721963474e+02
1.039328652303506573e+00 4.066750702123472934e+02
1.039428674308347844e+00 4.066708186754167400e+02
1.039528696313188894e+00 4.066669731252830502e+02
1.039628718318029943e+00 4.066635326171448810e+02
1.039728740322870992e+00 4.066604961975550623e+02
1.039828762327712042e+00 4.066578629044578292e+02
1.039928784332553091e+00 4.066556317672282148e+02
1.040028806337394141e+00 4.066538018067051894e+02
1.040128828342235190e+00 4.066523720352308828e+02
1.040228850347076239e+00 4.066513414566892948e+02
1.040328872351917289e+00 4.066507090665422766e+02
1.040428894356758338e+00 4.066504738518682416e+02
1.040528916361599610e+00 4.066506347914000798e+02
1.040628938366440437e+00 4.066511908555650621e+02
1.040728960371281708e+00 4.066521410065216173e+02
1.040828982376122758e+00 4.066534841981991804e+02
1.040929004380963807e+00 4.066552193763381524e+02
1.041029026385804857e+00 4.066573454785277590e+02
1.041129048390645906e+00 4.066598614342462952e+02
1.041229070395486955e+00 4.066627661649020524e+02
1.041329092400328005e+00 4.066660585838715747e+02
1.041429114405169054e+00 4.066697375965413812e+02
1.041529136410010103e+00 4.066738021003471886e+02
1.041629158414851375e+00 4.066782509848159748e+02
1.041729180419692202e+00 4.066830831316062245e+02
1.041829202424533252e+00 4.066882974145486287e+02
1.041929224429374523e+00 4.066938926996879218e+02
1.042029246434215350e+00 4.066998678453251159e+02
1.042129268439056400e+00 4.067062217020581443e+02
1.042229290443897671e+00 4.067129531128238114e+02
1.042329312448738499e+00 4.067200609129413920e+02
1.042429334453579770e+00 4.067275439301528195e+02
1.042529356458420819e+00 4.067354009846675353e+02
1.042629378463261869e+00 4.067436308892041552e+02
1.042729400468102918e+00 4.067522324490323626e+02
1.042829422472943968e+00 4.067612044620184406e+02
1.042929444477785017e+00 4.067705457186678473e+02
1.043029466482626066e+00 4.067802550021664274e+02
1.043129488487467116e+00 4.067903310884277062e+02
1.043229510492308165e+00 4.068007727461352374e+02
1.043329532497149437e+00 4.068115787367860321e+02
1.043429554501990264e+00 4.068227478147358624e+02
1.043529576506831535e+00 4.068342787272446230e+02
1.043629598511672585e+00 4.068461702145178265e+02
1.043729620516513412e+00 4.068584210097552045e+02
1.043829642521354684e+00 4.068710298391935680e+02
1.043929664526195733e+00 4.068839954221535891e+02
1.044029686531036782e+00 4.068973164710828883e+02
1.044129708535877832e+00 4.069109916916035559e+02
1.044229730540718881e+00 4.069250197825579107e+02
1.044329752545559931e+00 4.069393994360532361e+02
1.044429774550400980e+00 4.069541293375093005e+02
1.044529796555242029e+00 4.069692081657037193e+02
1.044629818560083079e+00 4.069846345928179971e+02
1.044729840564924350e+00 4.070004072844853340e+02
1.044829862569765178e+00 4.070165248998378047e+02
1.044929884574606227e+00 4.070329860915505833e+02
1.045029906579447498e+00 4.070497895058921927e+02
1.045129928584288326e+00 4.070669337827702066e+02
1.045229950589129597e+00 4.070844175557786571e+02
1.045329972593970647e+00 4.071022394522458967e+02
1.045429994598811696e+00 4.071203980932833133e+02
1.045530016603652745e+00 4.071388920938305205e+02
1.045630038608493795e+00 4.071577200627071988e+02
1.045730060613334844e+00 4.071768806026577749e+02
1.045830082618175894e+00 4.071963723104015571e+02
1.045930104623016943e+00 4.072161937766819619e+02
1.046030126627857992e+00 4.072363435863134669e+02
1.046130148632699264e+00 4.072568203182307229e+02
1.046230170637540091e+00 4.072776225455378949e+02
1.046330192642381363e+00 4.072987488355590244e+02
1.046430214647222412e+00 4.073201977498843576e+02
1.046530236652063239e+00 4.073419678444219016e+02
1.046630258656904511e+00 4.073640576694467654e+02
1.046730280661745560e+00 4.073864657696489644e+02
1.046830302666586610e+00 4.074091906841862283e+02
1.046930324671427659e+00 4.074322309467302716e+02
1.047030346676268708e+00 4.074555850855203971e+02
1.047130368681109758e+00 4.074792516234114146e+02
1.047230390685950807e+00 4.075032290779229243e+02
1.047330412690791857e+00 4.075275159612934317e+02
1.047430434695632906e+00 4.075521107805269025e+02
1.047530456700474177e+00 4.075770120374464227e+02
1.047630478705315005e+00 4.076022182287422311e+02
1.047730500710156054e+00 4.076277278460250386e+02
1.047830522714997326e+00 4.076535393758749706e+02
1.047930544719838153e+00 4.076796512998946014e+02
1.048030566724679424e+00 4.077060620947580674e+02
1.048130588729520474e+00 4.077327702322641017e+02
1.048230610734361523e+00 4.077597741793866817e+02
1.048330632739202573e+00 4.077870723983262451e+02
1.048430654744043622e+00 4.078146633465624404e+02
1.048530676748884671e+00 4.078425454769044336e+02
1.048630698753725721e+00 4.078707172375434311e+02
1.048730720758566770e+00 4.078991770721053740e+02
1.048830742763407819e+00 4.079279234197014716e+02
1.048930764768249091e+00 4.079569547149801565e+02
1.049030786773089918e+00 4.079862693881823930e+02
1.049130808777931190e+00 4.080158658651896531e+02
1.049230830782772239e+00 4.080457425675793957e+02
1.049330852787613066e+00 4.080758979126757140e+02
1.049430874792454338e+00 4.081063303136041327e+02
1.049530896797295387e+00 4.081370381793411752e+02
1.049630918802136437e+00 4.081680199147691610e+02
1.049730940806977486e+00 4.081992739207292971e+02
1.049830962811818535e+00 4.082307985940738604e+02
1.049930984816659585e+00 4.082625923277175275e+02
1.050031006821500634e+00 4.082946535106937631e+02
1.050131028826341684e+00 4.083269805282058087e+02
1.050231050831182733e+00 4.083595717616793763e+02
1.050331072836024005e+00 4.083924255888180710e+02
1.050431094840864832e+00 4.084255403836539244e+02
1.050531116845705881e+00 4.084589145166034427e+02
1.050631138850547153e+00 4.084925463545195043e+02
1.050731160855387980e+00 4.085264342607450772e+02
1.050831182860229251e+00 4.085605765951674471e+02
1.050931204865070301e+00 4.085949717142703435e+02
1.051031226869911350e+00 4.086296179711895320e+02
1.051131248874752400e+00 4.086645137157656791e+02
1.051231270879593449e+00 4.086996572945975004e+02
1.051331292884434498e+00 4.087350470510965010e+02
1.051431314889275548e+00 4.087706813255407496e+02
1.051531336894116597e+00 4.088065584551288794e+02
1.051631358898957647e+00 4.088426767740331229e+02
1.051731380903798696e+00 4.088790346134542801e+02
1.051831402908639745e+00 4.089156303016769129e+02
1.051931424913481017e+00 4.089524621641201634e+02
1.052031446918322066e+00 4.089895285233950517e+02
1.052131468923162894e+00 4.090268276993570566e+02
1.052231490928004165e+00 4.090643580091616514e+02
1.052331512932845214e+00 4.091021177673168268e+02
1.052431534937686042e+00 4.091401052857383434e+02
1.052531556942527313e+00 4.091783188738040735e+02
1.052631578947368363e+00 4.092167568384085143e+02
1.052731600952209412e+00 4.092554174840170162e+02
1.052831622957050461e+00 4.092942991127193295e+02
1.052931644961891511e+00 4.093334000242853676e+02
1.053031666966732560e+00 4.093727185162183559e+02
1.053131688971573610e+00 4.094122528838112771e+02
1.053231710976414659e+00 4.094520014201984281e+02
1.053331732981255708e+00 4.094919624164127754e+02
1.053431754986096980e+00 4.095321341614381936e+02
1.053531776990937807e+00 4.095725149422660252e+02
1.053631798995779079e+00 4.096131030439473761e+02
1.053731821000620128e+00 4.096538967496504711e+02
1.053831843005461177e+00 4.096948943407109027e+02
1.053931865010302227e+00 4.097360940966925682e+02
1.054031887015143276e+00 4.097774942954341668e+02
1.054131909019984326e+00 4.098190932131114437e+02
1.054231931024825375e+00 4.098608891242864729e+02
1.054331953029666424e+00 4.099028803019651832e+02
1.054431975034507474e+00 4.099450650176493127e+02
1.054531997039348523e+00 4.099874415413938209e+02
1.054632019044189573e+00 4.100300081418591276e+02
1.054732041049030844e+00 4.100727630863667628e+02
1.054832063053871893e+00 4.101157046409527993e+02
1.054932085058712721e+00 4.101588310704242417e+02
1.055032107063553992e+00 4.102021406384113789e+02
1.055132129068395042e+00 4.102456316074233200e+02
1.055232151073235869e+00 4.102893022389019961e+02
1.055332173078077140e+00 4.103331507932786621e+02
1.055432195082918190e+00 4.103771755300231234e+02
1.055532217087759239e+00 4.104213747077041035e+02
1.055632239092600289e+00 4.104657465840397208e+02
1.055732261097441338e+00 4.105102894159528546e+02
1.055832283102282387e+00 4.105550014596259416e+02
1.055932305107123437e+00 4.105998809705546364e+02
1.056032327111964486e+00 4.106449262036018126e+02
1.056132349116805536e+00 4.106901354130518484e+02
1.056232371121646807e+00 4.107355068526658215e+02
1.056332393126487634e+00 4.107810387757334638e+02
1.056432415131328906e+00 4.108267294351299483e+02
1.056532437136169955e+00 4.108725770833666502e+02
1.056632459141011005e+00 4.109185799726479331e+02
1.056732481145852054e+00 4.109647363549241845e+02
1.056832503150693103e+00 4.110110444819446229e+02
1.056932525155534153e+00 4.110575026053120382e+02
1.057032547160375202e+00 4.111041089765371339e+02
1.057132569165216252e+00 4.111508618470907663e+02
1.057232591170057301e+00 4.111977594684591395e+02
1.057332613174898350e+00 4.112448000921957032e+02
1.057432635179739400e+00 4.112919819699755521e+02
1.057532657184580671e+00 4.113393033536509620e+02
1.057632679189421721e+00 4.113867624952999904e+02
1.057732701194262548e+00 4.114343576472847417e+02
1.057832723199103819e+00 4.114820870623006499e+02
1.057932745203944869e+00 4.115299489934337771e+02
1.058032767208785696e+00 4.115779416942100397e+02
1.058132789213626967e+00 4.116260634186501761e+02
1.058232811218468017e+00 4.116743124213235205e+02
1.058332833223309066e+00 4.117226869573984231e+02
1.058432855228150116e+00 4.117711852826984114e+02
1.058532877232991165e+00 4.118198056537512457e+02
1.058632899237832214e+00 4.118685463278451380e+02
1.058732921242673264e+00 4.119174055630790576e+02
1.058832943247514313e+00 4.119663816184153120e+02
1.058932965252355363e+00 4.120154727537339454e+02
1.059032987257196634e+00 4.120646772298828182e+02
1.059133009262037461e+00 4.121139933087313239e+02
1.059233031266878733e+00 4.121634192532209795e+02
1.059333053271719782e+00 4.122129533274202231e+02
1.059433075276560832e+00 4.122625937965729577e+02
1.059533097281401881e+00 4.123123389271536325e+02
1.059633119286242930e+00 4.123621869869170382e+02
1.059733141291083980e+00 4.124121362449503749e+02
1.059833163295925029e+00 4.124621849717260602e+02
1.059933185300766079e+00 4.125123314391501594e+02
1.060033207305607128e+00 4.125625739206185472e+02
1.060133229310448177e+00 4.126129106910634619e+02
1.060233251315289227e+00 4.126633400270073935e+02
1.060333273320130498e+00 4.127138602066131625e+02
1.060433295324971326e+00 4.127644695097357612e+02
1.060533317329812375e+00 4.128151662179725463e+02
1.060633339334653646e+00 4.128659486147131474e+02
1.060733361339494696e+00 4.129168149851919907e+02
1.060833383344335523e+00 4.129677636165374679e+02
1.060933405349176795e+00 4.130187927978226980e+02
1.061033427354017844e+00 4.130699008201149809e+02
1.061133449358858893e+00 4.131210859765283772e+02
1.061233471363699943e+00 4.131723465622701497e+02
1.061333493368540992e+00 4.132236808746938550e+02
1.061433515373382042e+00 4.132750872133478310e+02
1.061533537378223091e+00 4.133265638800237411e+02
1.061633559383064140e+00 4.133781091788080744e+02
1.061733581387905190e+00 4.134297214161302918e+02
1.061833603392746239e+00 4.134813989008129056e+02
1.061933625397587289e+00 4.135331399441191707e+02
1.062033647402428560e+00 4.135849428598034478e+02
1.062133669407269609e+00 4.136368059641600894e+02
1.062233691412110659e+00 4.136887275760707894e+02
1.062333713416951708e+00 4.137407060170542081e+02
1.062433735421792758e+00 4.137927396113148575e+02
1.062533757426633807e+00 4.138448266857897693e+02
1.062633779431474856e+00 4.138969655701979491e+02
1.062733801436315906e+00 4.139491545970881816e+02
1.062833823441156955e+00 4.140013921018861538e+02
1.062933845445998005e+00 4.140536764229424307e+02
1.063033867450839054e+00 4.141060059015818524e+02
1.063133889455680325e+00 4.141583788821469625e+02
1.063233911460521153e+00 4.142107937120492807e+02
1.063333933465362202e+00 4.142632487418136407e+02
1.063433955470203474e+00 4.143157423251266778e+02
1.063533977475044523e+00 4.143682728188833835e+02
1.063633999479885350e+00 4.144208385832316708e+02
1.063734021484726622e+00 4.144734379816223395e+02
1.063834043489567671e+00 4.145260693808529595e+02
1.063934065494408721e+00 4.145787311511138569e+02
1.064034087499249770e+00 4.146314216660352940e+02
1.064134109504090819e+00 4.146841393027330014e+02
1.064234131508931869e+00 4.147368824418527424e+02
1.064334153513772918e+00 4.147896494676168686e+02
1.064434175518613968e+00 4.148424387678698508e+02
1.064534197523455017e+00 4.148952487341214237e+02
1.064634219528296066e+00 4.149480777615932539e+02
1.064734241533137116e+00 4.150009242492646990e+02
1.064834263537978387e+00 4.150537865999140195e+02
1.064934285542819437e+00 4.151066632201652737e+02
1.065034307547660486e+00 4.151595525205324861e+02
1.065134329552501535e+00 4.152124529154632455e+02
1.065234351557342585e+00 4.152653628233814516e+02
1.065334373562183634e+00 4.153182806667330169e+02
1.065434395567024684e+00 4.153712048720280450e+02
1.065534417571865733e+00 4.154241338698842014e+02
1.065634439576706782e+00 4.154770660950700290e+02
1.065734461581547832e+00 4.155299999865490577e+02
1.065834483586388881e+00 4.155829339875189703e+02
1.065934505591230153e+00 4.156358665454590096e+02
1.066034527596070980e+00 4.156887961121685748e+02
1.066134549600912029e+00 4.157417211438111622e+02
1.066234571605753301e+00 4.157946401009555188e+02
1.066334593610594350e+00 4.158475514486177644e+02
1.066434615615435177e+00 4.159004536563027727e+02
1.066534637620276449e+00 4.159533451980468612e+02
1.066634659625117498e+00 4.160062245524559330e+02
1.066734681629958548e+00 4.160590902027494167e+02
1.066834703634799597e+00 4.161119406367998295e+02
1.066934725639640646e+00 4.161647743471724539e+02
1.067034747644481696e+00 4.162175898311686524e+02
1.067134769649322745e+00 4.162703855908624178e+02
1.067234791654163795e+00 4.163231601331422098e+02
1.067334813659004844e+00 4.163759119697501205e+02
1.067434835663845893e+00 4.164286396173225171e+02
1.067534857668686943e+00 4.164813415974280133e+02
1.067634879673528214e+00 4.165340164366061799e+02
1.067734901678369264e+00 4.165866626664093246e+02
1.067834923683210313e+00 4.166392788234373938e+02
1.067934945688051362e+00 4.166918634493786158e+02
1.068034967692892412e+00 4.167444150910478129e+02
1.068134989697733461e+00 4.167969323004232365e+02
1.068235011702574511e+00 4.168494136346852770e+02
1.068335033707415560e+00 4.169018576562546627e+02
1.068435055712256609e+00 4.169542629328270777e+02
1.068535077717097659e+00 4.170066280374139183e+02
1.068635099721938708e+00 4.170589515483767968e+02
1.068735121726779980e+00 4.171112320494647179e+02
1.068835143731620807e+00 4.171634681298515943e+02
1.068935165736461856e+00 4.172156583841705810e+02
1.069035187741303128e+00 4.172678014125520463e+02
1.069135209746143955e+00 4.173198958206576208e+02
1.069235231750985005e+00 4.173719402197172599e+02
1.069335253755826276e+00 4.174239332265636335e+02
1.069435275760667325e+00 4.174758734636674262e+02
1.069535297765508375e+00 4.175277595591722957e+02
1.069635319770349424e+00 4.175795901469292630e+02
1.069735341775190474e+00 4.176313638665324106e+02
1.069835363780031523e+00 4.176830793633502026e+02
1.069935385784872572e+00 4.177347352885617511e+02
1.070035407789713622e+00 4.177863302991909222e+02
1.070135429794554671e+00 4.178378630581368611e+02
1.070235451799395721e+00 4.178893322342111674e+02
1.070335473804236770e+00 4.179407365021672831e+02
1.070435495809078041e+00 4.179920745427341444e+02
1.070535517813918869e+00 4.180433450426514810e+02
1.070635539818760140e+00 4.180945466946974989e+02
1.070735561823601190e+00 4.181456781977247488e+02
1.070835583828442239e+00 4.181967382566890592e+02
1.070935605833283288e+00 4.182477255826834153e+02
1.071035627838124338e+00 4.182986388929668351e+02
1.071135649842965387e+00 4.183494769109976801e+02
1.071235671847806437e+00 4.184002383664631566e+02
1.071335693852647486e+00 4.184509219953090451e+02
1.071435715857488535e+00 4.185015265397720441e+02
1.071535737862329807e+00 4.185520507484089876e+02
1.071635759867170634e+00 4.186024933761250395e+02
1.071735781872011684e+00 4.186528531842049574e+02
1.071835803876852955e+00 4.187031289403420260e+02
1.071935825881693782e+00 4.187533194186671608e+02
1.072035847886534832e+00 4.188034233997761930e+02
1.072135869891376103e+00 4.188534396707615883e+02
1.072235891896217153e+00 4.189033670252366619e+02
1.072335913901058202e+00 4.189532042633665014e+02
1.072435935905899251e+00 4.190029501918946835e+02
1.072535957910740301e+00 4.190526036241705015e+02
1.072635979915581350e+00 4.191021633801771600e+02
1.072736001920422400e+00 4.191516282865569565e+02
1.072836023925263449e+00 4.192009971766394187e+02
1.072936045930104498e+00 4.192502688904683623e+02
1.073036067934945548e+00 4.192994422748254237e+02
1.073136089939786597e+00 4.193485161832580843e+02
1.073236111944627869e+00 4.193974894761056476e+02
1.073336133949468696e+00 4.194463610205231703e+02
1.073436155954309967e+00 4.194951296905063600e+02
1.073536177959151017e+00 4.195437943669190872e+02
1.073636199963992066e+00 4.195923539375137352e+02
1.073736221968833116e+00 4.196408072969600198e+02
1.073836243973674165e+00 4.196891533468659645e+02
1.073936265978515214e+00 4.197373909958021159e+02
1.074036287983356264e+00 4.197855191593262703e+02
1.074136309988197313e+00 4.198335367600058134e+02
1.074236331993038362e+00 4.198814427274415948e+02
1.074336353997879634e+00 4.199292359982878224e+02
1.074436376002720461e+00 4.199769155162788934e+02
1.074536398007561511e+00 4.200244802322479813e+02
1.074636420012402782e+00 4.200719291041504562e+02
1.074736442017243609e+00 4.201192610970861097e+02
1.074836464022084659e+00 4.201664751833178002e+02
1.074936486026925930e+00 4.202135703422962933e+02
1.075036508031766980e+00 4.202605455606778264e+02
1.075136530036608029e+00 4.203073998323460501e+02
1.075236552041449078e+00 4.203541321584339130e+02
1.075336574046290128e+00 4.204007415473396918e+02
1.075436596051131177e+00 4.204472270147496715e+02
1.075536618055972227e+00 4.204935875836578134e+02
1.075636640060813276e+00 4.205398222843830354e+02
1.075736662065654325e+00 4.205859301545886524e+02
1.075836684070495375e+00 4.206319102393023286e+02
1.075936706075336424e+00 4.206777615909326755e+02
1.076036728080177696e+00 4.207234832692888062e+02
1.076136750085018523e+00 4.207690743415960242e+02
1.076236772089859794e+00 4.208145338825158888e+02
1.076336794094700844e+00 4.208598609741623022e+02
1.076436816099541893e+00 4.209050547061166867e+02
1.076536838104382943e+00 4.209501141754486753e+02
1.076636860109223992e+00 4.209950384867277648e+02
1.076736882114065041e+00 4.210398267520429272e+02
1.076836904118906091e+00 4.210844780910176155e+02
1.076936926123747140e+00 4.211289916308240890e+02
1.077036948128588190e+00 4.211733665062004093e+02
1.077136970133429239e+00 4.212176018594640823e+02
1.077236992138270288e+00 4.212616968405265538e+02
1.077337014143111338e+00 4.213056506069100919e+02
1.077437036147952609e+00 4.213494623237578480e+02
1.077537058152793437e+00 4.213931311638520469e+02
1.077637080157634486e+00 4.214366563076245598e+02
1.077737102162475757e+00 4.214800369431711715e+02
1.077837124167316585e+00 4.215232722662649394e+02
1.077937146172157856e+00 4.215663614803675046e+02
1.078037168176998906e+00 4.216093037966451220e+02
1.078137190181839955e+00 4.216520984339750839e+02
1.078237212186681004e+00 4.216947446189630000e+02
1.078337234191522054e+00 4.217372415859512103e+02
1.078437256196363103e+00 4.217795885770319728e+02
1.078537278201204153e+00 4.218217848420566725e+02
1.078637300206045202e+00 4.218638296386483262e+02
1.078737322210886251e+00 4.219057222322107918e+02
1.078837344215727523e+00 4.219474618959399095e+02
1.078937366220568350e+00 4.219890479108318573e+02
1.079037388225409622e+00 4.220304795656950319e+02
1.079137410230250671e+00 4.220717561571576653e+02
1.079237432235091498e+00 4.221128769896772042e+02
1.079337454239932770e+00 4.221538413755494048e+02
1.079437476244773819e+00 4.221946486349168026e+02
1.079537498249614869e+00 4.222352980957767272e+02
1.079637520254455918e+00 4.222757890939891467e+02
1.079737542259296967e+00 4.223161209732841144e+02
1.079837564264138017e+00 4.223562930852704085e+02
1.079937586268979066e+00 4.223963047894401939e+02
1.080037608273820116e+00 4.224361554531787988e+02
1.080137630278661165e+00 4.224758444517677844e+02
1.080237652283502436e+00 4.225153711683948927e+02
1.080337674288343264e+00 4.225547349941568882e+02
1.080437696293184313e+00 4.225939353280667774e+02
1.080537718298025585e+00 4.226329715770586972e+02
1.080637740302866412e+00 4.226718431559931446e+02
1.080737762307707683e+00 4.227105494876617513e+02
1.080837784312548733e+00 4.227490900027920020e+02
1.080937806317389782e+00 4.227874641400503606e+02
1.081037828322230832e+00 4.228256713460485798e+02
1.081137850327071881e+00 4.228637110753444404e+02
1.081237872331912930e+00 4.229015827904476623e+02
1.081337894336753980e+00 4.229392859618213265e+02
1.081437916341595029e+00 4.229768200678847734e+02
1.081537938346436079e+00 4.230141845950182073e+02
1.081637960351277350e+00 4.230513790375623557e+02
1.081737982356118177e+00 4.230884028978215383e+02
1.081838004360959449e+00 4.231252556860656568e+02
1.081938026365800498e+00 4.231619369205310477e+02
1.082038048370641325e+00 4.231984461274225851e+02
1.082138070375482597e+00 4.232347828409120325e+02
1.082238092380323646e+00 4.232709466031418515e+02
1.082338114385164696e+00 4.233069369642244055e+02
1.082438136390005745e+00 4.233427534822405391e+02
1.082538158394846795e+00 4.233783957232402599e+02
1.082638180399687844e+00 4.234138632612434208e+02
1.082738202404528893e+00 4.234491556782369344e+02
1.082838224409369943e+00 4.234842725641744323e+02
1.082938246414210992e+00 4.235192135169759240e+02
1.083038268419052264e+00 4.235539781425244996e+02
1.083138290423893091e+00 4.235885660546643976e+02
1.083238312428734140e+00 4.236229768752013456e+02
1.083338334433575412e+00 4.236572102338963077e+02
1.083438356438416239e+00 4.236912657684658257e+02
1.083538378443257510e+00 4.237251431245771869e+02
1.083638400448098560e+00 4.237588419558462647e+02
1.083738422452939609e+00 4.237923619238325728e+02
1.083838444457780659e+00 4.238257026980364230e+02
1.083938466462621708e+00 4.238588639558959130e+02
1.084038488467462757e+00 4.238918453827792518e+02
1.084138510472303807e+00 4.239246466719824298e+02
1.084238532477144856e+00 4.239572675247248412e+02
1.084338554481985906e+00 4.239897076501417814e+02
1.084438576486827177e+00 4.240219667652808653e+02
1.084538598491668004e+00 4.240540445950960020e+02
1.084638620496509276e+00 4.240859408724396076e+02
1.084738642501350325e+00 4.241176553380582845e+02
1.084838664506191153e+00 4.241491877405865125e+02
1.084938686511032424e+00 4.241805378365368142e+02
1.085038708515873473e+00 4.242117053902962311e+02
1.085138730520714523e+00 4.242426901741171150e+02
1.085238752525555572e+00 4.242734919681090560e+02
1.085338774530396622e+00 4.243041105602326297e+02
1.085438796535237671e+00 4.243345457462889954e+02
1.085538818540078720e+00 4.243647973299130172e+02
1.085638840544919770e+00 4.243948651225646813e+02
1.085738862549760819e+00 4.244247489435189209e+02
1.085838884554601869e+00 4.244544486198575441e+02
1.085938906559442918e+00 4.244839639864586616e+02
1.086038928564283967e+00 4.245132948859873068e+02
1.086138950569125239e+00 4.245424411688863984e+02
1.086238972573966066e+00 4.245714026933644618e+02
1.086338994578807338e+00 4.246001793253869891e+02
1.086439016583648387e+00 4.246287709386636493e+02
1.086539038588489436e+00 4.246571774146398184e+02
1.086639060593330486e+00 4.246853986424823120e+02
1.086739082598171535e+00 4.247134345190700628e+02
1.086839104603012585e+00 4.247412849489812743e+02
1.086939126607853634e+00 4.247689498444808578e+02
1.087039148612694683e+00 4.247964291255090075e+02
1.087139170617535733e+00 4.248237227196683534e+02
1.087239192622376782e+00 4.248508305622103762e+02
1.087339214627217832e+00 4.248777525960231287e+02
1.087439236632059103e+00 4.249044887716177072e+02
1.087539258636900152e+00 4.249310390471139272e+02
1.087639280641740980e+00 4.249574033882269077e+02
1.087739302646582251e+00 4.249835817682526340e+02
1.087839324651423301e+00 4.250095741680549963e+02
1.087939346656264128e+00 4.250353805760483965e+02
1.088039368661105399e+00 4.250610009881858673e+02
1.088139390665946449e+00 4.250864354079412806e+02
1.088239412670787498e+00 4.251116838462953638e+02
1.088339434675628548e+00 4.251367463217207501e+02
1.088439456680469597e+00 4.251616228601643002e+02
1.088539478685310646e+00 4.251863134950315271e+02
1.088639500690151696e+00 4.252108182671718168e+02
1.088739522694992745e+00 4.252351372248588177e+02
1.088839544699833795e+00 4.252592704237773660e+02
1.088939566704675066e+00 4.252832179270021697e+02
1.089039588709515893e+00 4.253069798049837686e+02
1.089139610714357165e+00 4.253305561355305144e+02
1.089239632719198214e+00 4.253539470037879937e+02
1.089339654724039264e+00 4.253771525022246465e+02
1.089439676728880313e+00 4.254001727306117004e+02
1.089539698733721362e+00 4.254230077960038443e+02
1.089639720738562412e+00 4.254456578127219473e+02
1.089739742743403461e+00 4.254681229023339597e+02
1.089839764748244511e+00 4.254904031936342790e+02
1.089939786753085560e+00 4.255124988226260143e+02
1.090039808757926609e+00 4.255344099324995568e+02
1.090139830762767659e+00 4.255561366736154127e+02
1.090239852767608930e+00 4.255776792034802156e+02
1.090339874772449980e+00 4.255990376867287068e+02
1.090439896777290807e+00 4.256202122951046931e+02
1.090539918782132078e+00 4.256412032074353533e+02
1.090639940786973128e+00 4.256620106096157770e+02
1.090739962791813955e+00 4.256826346945829300e+02
1.090839984796655227e+00 4.257030756622979766e+02
1.090940006801496276e+00 4.257233337197217793e+02
1.091040028806337325e+00 4.257434090807938674e+02
1.091140050811178375e+00 4.257633019664108929e+02
1.091240072816019424e+00 4.257830126044033250e+02
1.091340094820860473e+00 4.258025412295137357e+02
1.091440116825701523e+00 4.258218880833732669e+02
1.091540138830542572e+00 4.258410534144779831e+02
1.091640160835383622e+00 4.258600374781677829e+02
1.091740182840224893e+00 4.258788405366004213e+02
1.091840204845065720e+00 4.258974628587299094e+02
1.091940226849906992e+00 4.259159047202799115e+02
1.092040248854748041e+00 4.259341664037247028e+02
1.092140270859589091e+00 4.259522481982580757e+02
1.092240292864430140e+00 4.259701503997737859e+02
1.092340314869271189e+00 4.259878733108398023e+02
1.092440336874112239e+00 4.260054172406721023e+02
1.092540358878953288e+00 4.260227825051103423e+02
1.092640380883794338e+00 4.260399694265927337e+02
1.092740402888635387e+00 4.260569783341308039e+02
1.092840424893476436e+00 4.260738095632823956e+02
1.092940446898317486e+00 4.260904634561258604e+02
1.093040468903158757e+00 4.261069403612361270e+02
1.093140490907999807e+00 4.261232406336552003e+02
1.093240512912840634e+00 4.261393646348675475e+02
1.093340534917681905e+00 4.261553127327734387e+02
1.093440556922522955e+00 4.261710853016606961e+02
1.093540578927363782e+00 4.261866827221788867e+02
1.093640600932205054e+00 4.262021053813114122e+02
1.093740622937046103e+00 4.262173536723480538e+02
1.093840644941887152e+00 4.262324279948569483e+02
1.093940666946728202e+00 4.262473287546579286e+02
1.094040688951569251e+00 4.262620563637925670e+02
1.094140710956410301e+00 4.262766112404974024e+02
1.094240732961251350e+00 4.262909938091751769e+02
1.094340754966092399e+00 4.263052045003653348e+02
1.094440776970933449e+00 4.263192437507168506e+02
1.094540798975774498e+00 4.263331120029579324e+02
1.094640820980615548e+00 4.263468097058675994e+02
1.094740842985456819e+00 4.263603373142438500e+02
1.094840864990297868e+00 4.263736952888797305e+02
1.094940886995138918e+00 4.263868840965274671e+02
1.095040908999979967e+00 4.263999042098725454e+02
1.095140931004821017e+00 4.264127561075015365e+02
1.095240953009662066e+00 4.264254402738739032e+02
1.095340975014503115e+00 4.264379571992893148e+02
1.095440997019344165e+00 4.264503073798588844e+02
1.095541019024185214e+00 4.264624913174729954e+02
1.095641041029026264e+00 4.264745095197722549e+02
1.095741063033867313e+00 4.264863625001144101e+02
1.095841085038708584e+00 4.264980507775448473e+02
1.095941107043549412e+00 4.265095748767639066e+02
1.096041129048390461e+00 4.265209353280963569e+02
1.096141151053231733e+00 4.265321326674580860e+02
1.096241173058072782e+00 4.265431674363265984e+02
1.096341195062913609e+00 4.265540401817069665e+02
1.096441217067754881e+00 4.265647514561013054e+02
1.096541239072595930e+00 4.265753018174740419e+02
1.096641261077436980e+00 4.265856918292225828e+02
1.096741283082278029e+00 4.265959220601415609e+02
1.096841305087119078e+00 4.266059930843932761e+02
1.096941327091960128e+00 4.266159054814700085e+02
1.097041349096801177e+00 4.266256598361676424e+02
1.097141371101642227e+00 4.266352567385462180e+02
1.097241393106483276e+00 4.266446967838995761e+02
1.097341415111324325e+00 4.266539805727215935e+02
1.097441437116165375e+00 4.266631087106717359e+02
1.097541459121006646e+00 4.266720818085423730e+02
1.097641481125847696e+00 4.266809004822241604e+02
1.097741503130688745e+00 4.266895653526713659e+02
1.097841525135529794e+00 4.266980770458681604e+02
1.097941547140370844e+00 4.267064361927960476e+02
1.098041569145211893e+00 4.267146434293961761e+02
1.098141591150052943e+00 4.267226993965361430e+02
1.098241613154893992e+00 4.267306047399760587e+02
1.098341635159735041e+00 4.267383601103330193e+02
1.098441657164576091e+00 4.267459661630463188e+02
1.098541679169417140e+00 4.267534235583408986e+02
1.098641701174258412e+00 4.267607329611941509e+02
1.098741723179099239e+00 4.267678950412995391e+02
1.098841745183940288e+00 4.267749104730311274e+02
1.098941767188781560e+00 4.267817799354077692e+02
1.099041789193622609e+00 4.267885041120579217e+02
1.099141811198463436e+00 4.267950836911834358e+02
1.099241833203304708e+00 4.268015193655234043e+02
1.099341855208145757e+00 4.268078118323184071e+02
1.099441877212986807e+00 4.268139617932742453e+02
1.099541899217827856e+00 4.268199699545257317e+02
1.099641921222668906e+00 4.268258370265992880e+02
1.099741943227509955e+00 4.268315637243786114e+02
1.099841965232351004e+00 4.268371507670649407e+02
1.099941987237192054e+00 4.268425988781430647e+02
1.100042009242033103e+00 4.268479087853434066e+02
1.100142031246874152e+00 4.268530812206041674e+02
1.100242053251715202e+00 4.268581169200368208e+02
1.100342075256556473e+00 4.268630166238855281e+02
1.100442097261397523e+00 4.268677810764922924e+02
1.100542119266238572e+00 4.268724110262587601e+02
1.100642141271079621e+00 4.268769072256105801e+02
1.100742163275920671e+00 4.268812704309547144e+02
1.100842185280761720e+00 4.268855014026486856e+02
1.100942207285602770e+00 4.268896009049578311e+02
1.101042229290443819e+00 4.268935697060196048e+02
1.101142251295284868e+00 4.268974085778046970e+02
1.101242273300125918e+00 4.269011182960804831e+02
1.101342295304966967e+00 4.269046996403707794e+02
1.101442317309808239e+00 4.269081533939206565e+02
1.101542339314649066e+00 4.269114803436539205e+02
1.101642361319490115e+00 4.269146812801396322e+02
1.101742383324331387e+00 4.269177569975496453e+02
1.101842405329172436e+00 4.269207082936239885e+02
1.101942427334013264e+00 4.269235359696273235e+02
1.102042449338854535e+00 4.269262408303159759e+02
1.102142471343695584e+00 4.269288236838943931e+02
1.102242493348536634e+00 4.269312853419793896e+02
1.102342515353377683e+00 4.269336266195598455e+02
1.102442537358218733e+00 4.269358483349596440e+02
1.102542559363059782e+00 4.269379513097943573e+02
1.102642581367900831e+00 4.269399363689383335e+02
1.102742603372741881e+00 4.269418043404805303e+02
1.102842625377582930e+00 4.269435560556880205e+02
1.102942647382423980e+00 4.269451923489657474e+02
1.103042669387265029e+00 4.269467140578165072e+02
1.103142691392106300e+00 4.269481220228043981e+02
1.103242713396947128e+00 4.269494170875124155e+02
1.103342735401788399e+00 4.269506000985041396e+02
1.103442757406629449e+00 4.269516719052843428e+02
1.103542779411470498e+00 4.269526333602595969e+02
1.103642801416311547e+00 4.269534853186981422e+02
1.103742823421152597e+00 4.269542286386907222e+02
1.103842845425993646e+00 4.269548641811093148e+02
1.103942867430834696e+00 4.269553928095714355e+02
1.104042889435675745e+00 4.269558153903939228e+02
1.104142911440516794e+00 4.269561327925603678e+02
1.104242933445358066e+00 4.269563458876750701e+02
1.104342955450198893e+00 4.269564555499268863e+02
1.104442977455039943e+00 4.269564626560479041e+02
1.104542999459881214e+00 4.269563680852737093e+02
1.104643021464722041e+00 4.269561727193021738e+02
1.104743043469563091e+00 4.269558774422559964e+02
1.104843065474404362e+00 4.269554831406404674e+02
1.104943087479245412e+00 4.269549907033039062e+02
1.105043109484086461e+00 4.269544010213976435e+02
1.105143131488927510e+00 4.269537149883358893e+02
1.105243153493768560e+00 4.269529334997552610e+02
1.105343175498609609e+00 4.269520574534753337e+02
1.105443197503450659e+00 4.269510877494569741e+02
1.105543219508291708e+00 4.269500252897631754e+02
1.105643241513132757e+00 4.269488709785190395e+02
1.105743263517973807e+00 4.269476257218701676e+02
1.105843285522814856e+00 4.269462904279440636e+02
1.105943307527656128e+00 4.269448660068073309e+02
1.106043329532496955e+00 4.269433533704284400e+02
1.106143351537338226e+00 4.269417534326347550e+02
1.106243373542179276e+00 4.269400671090737092e+02
1.106343395547020325e+00 4.269382953171719350e+02
1.106443417551861375e+00 4.269364389760942800e+02
1.106543439556702424e+00 4.269344990067046979e+02
1.106643461561543473e+00 4.269324763315252085e+02
1.106743483566384523e+00 4.269303718746941740e+02
1.106843505571225572e+00 4.269281865619290670e+02
1.106943527576066622e+00 4.269259213204829280e+02
1.107043549580907893e+00 4.269235770791055415e+02
1.107143571585748720e+00 4.269211547680027934e+02
1.107243593590589770e+00 4.269186553187967093e+02
1.107343615595431041e+00 4.269160796644838456e+02
1.107443637600271868e+00 4.269134287393965224e+02
1.107543659605112918e+00 4.269107034791606452e+02
1.107643681609954189e+00 4.269079048206573361e+02
1.107743703614795239e+00 4.269050337019813242e+02
1.107843725619636288e+00 4.269020910624005296e+02
1.107943747624477338e+00 4.268990778423170696e+02
1.108043769629318387e+00 4.268959949832255347e+02
1.108143791634159436e+00 4.268928434276730854e+02
1.108243813639000486e+00 4.268896241192204570e+02
1.108343835643841535e+00 4.268863380023989862e+02
1.108443857648682584e+00 4.268829860226732649e+02
1.108543879653523634e+00 4.268795691264002699e+02
1.108643901658364683e+00 4.268760882607876965e+02
1.108743923663205955e+00 4.268725443738552485e+02
1.108843945668046782e+00 4.268689384143942789e+02
1.108943967672888053e+00 4.268652713319286249e+02
1.109043989677729103e+00 4.268615440766726579e+02
1.109144011682570152e+00 4.268577575994915492e+02
1.109244033687411202e+00 4.268539128518636971e+02
1.109344055692252251e+00 4.268500107858381512e+02
1.109444077697093300e+00 4.268460523539966402e+02
1.109544099701934350e+00 4.268420385094114522e+02
1.109644121706775399e+00 4.268379702056080305e+02
1.109744143711616449e+00 4.268338483965244450e+02
1.109844165716457720e+00 4.268296740364704078e+02
1.109944187721298547e+00 4.268254480800902684e+02
1.110044209726139597e+00 4.268211714823198122e+02
1.110144231730980868e+00 4.268168451983502791e+02
1.110244253735821696e+00 4.268124701835866404e+02
1.110344275740662745e+00 4.268080473936084900e+02
1.110444297745504016e+00 4.268035777841308231e+02
1.110544319750345066e+00 4.267990623109660078e+02
1.110644341755186115e+00 4.267945019299821183e+02
1.110744363760027165e+00 4.267898975970643960e+02
1.110844385764868214e+00 4.267852502680773341e+02
1.110944407769709263e+00 4.267805608988242625e+02
1.111044429774550313e+00 4.267758304450086939e+02
1.111144451779391362e+00 4.267710598621952158e+02
1.111244473784232412e+00 4.267662501057714621e+02
1.111344495789073461e+00 4.267614021309071859e+02
1.111444517793914510e+00 4.267565168925177659e+02
1.111544539798755782e+00 4.267515953452234498e+02
1.111644561803596609e+00 4.267466384433126336e+02
1.111744583808437881e+00 4.267416471407011045e+02
1.111844605813278930e+00 4.267366223908970255e+02
1.111944627818119757e+00 4.267315651469573936e+02
1.112044649822961029e+00 4.267264763614537628e+02
1.112144671827802078e+00 4.267213569864326814e+02
1.112244693832643128e+00 4.267162079733768110e+02
1.112344715837484177e+00 4.267110302731686602e+02
1.112444737842325226e+00 4.267058248360500556e+02
1.112544759847166276e+00 4.267005926115855345e+02
1.112644781852007325e+00 4.266953345486252260e+02
1.112744803856848375e+00 4.266900515952651176e+02
1.112844825861689424e+00 4.266847446988105617e+02
1.112944847866530695e+00 4.266794148057393841e+02
1.113044869871371523e+00 4.266740628616618665e+02
1.113144891876212572e+00 4.266686898112859581e+02
1.113244913881053844e+00 4.266632965983786221e+02
1.113344935885894671e+00 4.266578841657283192e+02
1.113444957890735942e+00 4.266524534551091392e+02
1.113544979895576992e+00 4.266470054072412950e+02
1.113645001900418041e+00 4.266415409617575278e+02
1.113745023905259091e+00 4.266360610571632606e+02
1.113845045910100140e+00 4.266305666308014111e+02
1.113945067914941189e+00 4.266250586188150464e+02
1.114045089919782239e+00 4.266195379561110030e+02
1.114145111924623288e+00 4.266140055763238479e+02
1.114245133929464338e+00 4.266084624117787030e+02
1.114345155934305609e+00 4.266029093934554908e+02
1.114445177939146436e+00 4.265973474509527250e+02
1.114545199943987708e+00 4.265917775124516993e+02
1.114645221948828757e+00 4.265862005046795957e+02
1.114745243953669585e+00 4.265806173528752652e+02
1.114845265958510856e+00 4.265750289807516538e+02
1.114945287963351905e+00 4.265694363104622084e+02
1.115045309968192955e+00 4.265638402625629624e+02
1.115145331973034004e+00 4.265582417559798500e+02
1.115245353977875054e+00 4.265526417079715884e+02
1.115345375982716103e+00 4.265470410340950025e+02
1.115445397987557152e+00 4.265414406481704646e+02
1.115545419992398202e+00 4.265358414622462533e+02
1.115645441997239251e+00 4.265302443865650730e+02
1.115745464002080523e+00 4.265246503295270486e+02
1.115845486006921350e+00 4.265190601976582911e+02
1.115945508011762399e+00 4.265134748955736086e+02
1.116045530016603671e+00 4.265078953259446735e+02
1.116145552021444498e+00 4.265023223894640978e+02
1.116245574026285770e+00 4.264967569848115545e+02
1.116345596031126819e+00 4.264912000086222292e+02
1.116445618035967868e+00 4.264856523554492469e+02
1.116545640040808918e+00 4.264801149177330331e+02
1.116645662045649967e+00 4.264745885857676626e+02
1.116745684050491016e+00 4.264690742476648211e+02
1.116845706055332066e+00 4.264635727893247008e+02
1.116945728060173115e+00 4.264580850943985979e+02
1.117045750065014165e+00 4.264526120442603201e+02
1.117145772069855436e+00 4.264471545179689542e+02
1.117245794074696263e+00 4.264417133922401604e+02
1.117345816079537535e+00 4.264362895414114973e+02
1.117445838084378584e+00 4.264308838374101924e+02
1.117545860089219412e+00 4.264254971497214228e+02
1.117645882094060683e+00 4.264201303453564265e+02
1.117745904098901732e+00 4.264147842888198738e+02
1.117845926103742782e+00 4.264094598420780358e+02
1.117945948108583831e+00 4.264041578645282016e+02
1.118045970113424881e+00 4.263988792129669037e+02
1.118145992118265930e+00 4.263936247415564367e+02
1.118246014123106979e+00 4.263883953017972317e+02
1.118346036127948029e+00 4.263831917424940343e+02
1.118446058132789078e+00 4.263780149097262893e+02
1.118546080137630350e+00 4.263728656468175018e+02
1.118646102142471177e+00 4.263677447943033485e+02
1.118746124147312226e+00 4.263626531899032557e+02
1.118846146152153498e+00 4.263575916684885101e+02
1.118946168156994325e+00 4.263525610620526436e+02
1.119046190161835597e+00 4.263475621996823293e+02
1.119146212166676646e+00 4.263425959075265723e+02
1.119246234171517695e+00 4.263376630087665262e+02
1.119346256176358745e+00 4.263327643235872983e+02
1.119446278181199794e+00 4.263279006691495852e+02
1.119546300186040844e+00 4.263230728595576124e+02
1.119646322190881893e+00 4.263182817058324758e+02
1.119746344195722942e+00 4.263135280158825253e+02
1.119846366200563992e+00 4.263088125944749436e+02
1.119946388205405263e+00 4.263041362432073242e+02
1.120046410210246091e+00 4.262994997604786249e+02
1.120146432215087362e+00 4.262949039414623940e+02
1.120246454219928411e+00 4.262903495780782350e+02
1.120346476224769239e+00 4.262858374589628738e+02
1.120446498229610510e+00 4.262813683694448628e+02
1.120546520234451560e+00 4.262769430915143971e+02
1.120646542239292387e+00 4.262725624037994407e+02
1.120746564244133658e+00 4.262682270815348033e+02
1.120846586248974708e+00 4.262639378965378683e+02
1.120946608253815757e+00 4.262596956171815918e+02
1.121046630258656807e+00 4.262555010083671050e+02
1.121146652263497856e+00 4.262513548314977925e+02
1.121246674268338905e+00 4.262472578444522355e+02
1.121346696273179955e+00 4.262432108015606218e+02
1.121446718278021004e+00 4.262392144535756984e+02
1.121546740282862054e+00 4.262352695476491817e+02
1.121646762287703325e+00 4.262313768273068035e+02
1.121746784292544152e+00 4.262275370324201731e+02
1.121846806297385424e+00 4.262237508991845516e+02
1.121946828302226473e+00 4.262200191600929884e+02
1.122046850307067523e+00 4.262163425439114235e+02
1.122146872311908572e+00 4.262127217756534492e+02
1.122246894316749621e+00 4.262091575765580842e+02
1.122346916321590671e+00 4.262056506640622047e+02
1.122446938326431720e+00 4.262022017517803079e+02
1.122546960331272770e+00 4.261988115494780232e+02
1.122646982336113819e+00 4.261954807630503410e+02
1.122747004340954868e+00 4.261922100944964313e+02
1.122847026345795918e+00 4.261890002418970766e+02
1.122947048350637189e+00 4.261858518993926737e+02
1.123047070355478239e+00 4.261827657571595864e+02
1.123147092360319066e+00 4.261797425013862721e+02
1.123247114365160337e+00 4.261767828142533290e+02
1.123347136370001387e+00 4.261738873739089968e+02
1.123447158374842214e+00 4.261710568544488069e+02
1.123547180379683486e+00 4.261682919258921061e+02
1.123647202384524535e+00 4.261655932541622747e+02
1.123747224389365584e+00 4.261629615010628527e+02
1.123847246394206634e+00 4.261603973242589518e+02
1.123947268399047683e+00 4.261579013772535518e+02
1.124047290403888733e+00 4.261554743093691400e+02
1.124147312408729782e+00 4.261531167657245192e+02
1.124247334413570831e+00 4.261508293872164472e+02
1.124347356418411881e+00 4.261486128104979798e+02
1.124447378423253152e+00 4.261464676679595414e+02
1.124547400428093979e+00 4.261443945877078363e+02
1.124647422432935251e+00 4.261423941935465791e+02
1.124747444437776300e+00 4.261404671049579065e+02
1.124847466442617350e+00 4.261386139370820842e+02
1.124947488447458399e+00 4.261368353006984648e+02
1.125047510452299449e+00 4.261351318022067858e+02
1.125147532457140498e+00 4.261335040436096051e+02
1.125247554461981547e+00 4.261319526224918377e+02
1.125347576466822597e+00 4.261304781320038160e+02
1.125447598471663646e+00 4.261290811608440094e+02
1.125547620476504695e+00 4.261277622932380496e+02
1.125647642481345745e+00 4.261265221089254283e+02
1.125747664486187016e+00 4.261253611831382955e+02
1.125847686491028066e+00 4.261242800865871345e+02
1.125947708495868893e+00 4.261232793854412648e+02
1.126047730500710164e+00 4.261223596413137216e+02
1.126147752505551214e+00 4.261215214112449985e+02
1.126247774510392041e+00 4.261207652476846874e+02
1.126347796515233313e+00 4.261200916984764149e+02
1.126447818520074362e+00 4.261195013068438584e+02
1.126547840524915411e+00 4.261189946113706242e+02
1.126647862529756461e+00 4.261185721459895603e+02
1.126747884534597510e+00 4.261182344399639987e+02
1.126847906539438560e+00 4.261179820178728619e+02
1.126947928544279609e+00 4.261178153995980438e+02
1.127047950549120658e+00 4.261177351003083231e+02
1.127147972553961708e+00 4.261177416304441294e+02
1.127247994558802979e+00 4.261178354957045258e+02
1.127348016563643807e+00 4.261180171970333959e+02
1.127448038568485078e+00 4.261182872306036984e+02
1.127548060573326127e+00 4.261186460878062690e+02
1.127648082578167177e+00 4.261190942552345291e+02
1.127748104583008226e+00 4.261196322146722650e+02
1.127848126587849276e+00 4.261202604430807241e+02
1.127948148592690325e+00 4.261209794125852000e+02
1.128048170597531374e+00 4.261217895904632087e+02
1.128148192602372424e+00 4.261226914391322680e+02
1.128248214607213473e+00 4.261236854161363681e+02
1.128348236612054523e+00 4.261247719741361379e+02
1.128448258616895572e+00 4.261259515608951460e+02
1.128548280621736843e+00 4.261272246192704074e+02
1.128648302626577893e+00 4.261285915871995371e+02
1.128748324631418720e+00 4.261300528976908026e+02
1.128848346636259992e+00 4.261316089788118688e+02
1.128948368641101041e+00 4.261332602536791683e+02
1.129048390645941868e+00 4.261350071404476694e+02
1.129148412650783140e+00 4.261368500523005878e+02
1.129248434655624189e+00 4.261387893974393251e+02
1.129348456660465239e+00 4.261408255790748285e+02
1.129448478665306288e+00 4.261429589954167341e+02
1.129548500670147337e+00 4.261451900396647261e+02
1.129648522674988387e+00 4.261475190999987035e+02
1.129748544679829436e+00 4.261499465595722427e+02
1.129848566684670486e+00 4.261524727965010584e+02
1.129948588689511535e+00 4.261550981838559551e+02
1.130048610694352584e+00 4.261578230896553237e+02
1.130148632699193634e+00 4.261606478768559896e+02
1.130248654704034905e+00 4.261635729033457665e+02
1.130348676708875955e+00 4.261665985219370896e+02
1.130448698713717004e+00 4.261697250803572388e+02
1.130548720718558053e+00 4.261729529212445868e+02
1.130648742723399103e+00 4.261762823821378561e+02
1.130748764728240152e+00 4.261797137954732762e+02
1.130848786733081202e+00 4.261832474885761712e+02
1.130948808737922251e+00 4.261868837836535704e+02
1.131048830742763300e+00 4.261906229977914791e+02
1.131148852747604350e+00 4.261944654429460115e+02
1.131248874752445399e+00 4.261984114259392982e+02
1.131348896757286671e+00 4.262024612484553359e+02
1.131448918762127498e+00 4.262066152070315184e+02
1.131548940766968547e+00 4.262108735930568741e+02
1.131648962771809819e+00 4.262152366927662115e+02
1.131748984776650868e+00 4.262197047872359690e+02
1.131849006781491696e+00 4.262242781523784174e+02
1.131949028786332967e+00 4.262289570589409209e+02
1.132049050791174016e+00 4.262337417724987745e+02
1.132149072796015066e+00 4.262386325534532716e+02
1.132249094800856115e+00 4.262436296570286345e+02
1.132349116805697165e+00 4.262487333332672961e+02
1.132449138810538214e+00 4.262539438270297296e+02
1.132549160815379263e+00 4.262592613779887643e+02
1.132649182820220313e+00 4.262646862206285050e+02
1.132749204825061362e+00 4.262702185842425138e+02
1.132849226829902411e+00 4.262758586929303419e+02
1.132949248834743461e+00 4.262816067655972461e+02
1.133049270839584732e+00 4.262874630159523122e+02
1.133149292844425782e+00 4.262934276525052724e+02
1.133249314849266831e+00 4.262995008785677555e+02
1.133349336854107881e+00 4.263056828922507293e+02
1.133449358858948930e+00 4.263119738864646706e+02
1.133549380863789979e+00 4.263183740489185425e+02
1.133649402868631029e+00 4.263248835621188846e+02
1.133749424873472078e+00 4.263315026033716322e+02
1.133849446878313127e+00 4.263382313447801835e+02
1.133949468883154177e+00 4.263450699532462522e+02
1.134049490887995226e+00 4.263520185904716300e+02
1.134149512892836498e+00 4.263590774129573333e+02
1.134249534897677325e+00 4.263662465720059345e+02
1.134349556902518374e+00 4.263735262137211066e+02
1.134449578907359646e+00 4.263809164790110344e+02
1.134549600912200695e+00 4.263884175035886415e+02
1.134649622917041523e+00 4.263960294179731818e+02
1.134749644921882794e+00 4.264037523474937643e+02
1.134849666926723843e+00 4.264115864122904895e+02
1.134949688931564893e+00 4.264195317273174055e+02
1.135049710936405942e+00 4.264275884023441563e+02
1.135149732941246992e+00 4.264357565419604725e+02
1.135249754946088041e+00 4.264440362455778200e+02
1.135349776950929090e+00 4.264524276074344016e+02
1.135449798955770140e+00 4.264609307165968062e+02
1.135549820960611189e+00 4.264695456569648968e+02
1.135649842965452239e+00 4.264782725072745961e+02
1.135749864970293288e+00 4.264871113411048213e+02
1.135849886975134559e+00 4.264960622268781663e+02
1.135949908979975609e+00 4.265051252278682341e+02
1.136049930984816658e+00 4.265143004022023092e+02
1.136149952989657708e+00 4.265235878028693151e+02
1.136249974994498757e+00 4.265329874777212922e+02
1.136349996999339806e+00 4.265424994694819247e+02
1.136450019004180856e+00 4.265521238157499511e+02
1.136550041009021905e+00 4.265618605490067239e+02
1.136650063013862955e+00 4.265717096966208715e+02
1.136750085018704004e+00 4.265816712808560283e+02
1.136850107023545053e+00 4.265917453188744730e+02
1.136950129028386325e+00 4.266019318227470194e+02
1.137050151033227152e+00 4.266122307994585299e+02
1.137150173038068202e+00 4.266226422509146801e+02
1.137250195042909473e+00 4.266331661739483252e+02
1.137350217047750522e+00 4.266438025603296182e+02
1.137450239052591350e+00 4.266545513967707848e+02
1.137550261057432621e+00 4.266654126649363548e+02
1.137650283062273671e+00 4.266763863414488469e+02
1.137750305067114720e+00 4.266874723978995689e+02
1.137850327071955769e+00 4.266986708008543019e+02
1.137950349076796819e+00 4.267099815118646120e+02
1.138050371081637868e+00 4.267214044874750698e+02
1.138150393086478918e+00 4.267329396792325724e+02
1.138250415091319967e+00 4.267445870336960070e+02
1.138350437096161016e+00 4.267563464924444361e+02
1.138450459101002066e+00 4.267682179920893759e+02
1.138550481105843115e+00 4.267802014642813333e+02
1.138650503110684387e+00 4.267922968357216860e+02
1.138750525115525214e+00 4.268045040281742786e+02
1.138850547120366485e+00 4.268168229584710502e+02
1.138950569125207535e+00 4.268292535385292013e+02
1.139050591130048584e+00 4.268417956753555700e+02
1.139150613134889634e+00 4.268544492710625491e+02
1.139250635139730683e+00 4.268672142228764983e+02
1.139350657144571732e+00 4.268800904231496247e+02
1.139450679149412782e+00 4.268930777593729999e+02
1.139550701154253831e+00 4.269061761141853140e+02
1.139650723159094881e+00 4.269193853653879387e+02
1.139750745163936152e+00 4.269327053859558987e+02
1.139850767168776979e+00 4.269461360440481599e+02
1.139950789173618029e+00 4.269596772030234888e+02
1.140050811178459300e+00 4.269733287214513098e+02
