1.000020004400968165e+00 4.689770152074674456e+02
1.000120026405809215e+00 4.689138591124198570e+02
1.000220048410650264e+00 4.688507720134311967e+02
1.000320070415491314e+00 4.687877547811063437e+02
1.000420092420332363e+00 4.687248082844063219e+02
1.000520114425173634e+00 4.686619333906249949e+02
1.000620136430014462e+00 4.685991309653696248e+02
1.000720158434855511e+00 4.685364018725379651e+02
1.000820180439696783e+00 4.684737469742973985e+02
1.000920202444537610e+00 4.684111671310642464e+02
1.001020224449378659e+00 4.683486632014812585e+02
1.001120246454219931e+00 4.682862360423973769e+02
1.001220268459060980e+00 4.682238865088466468e+02
1.001320290463902030e+00 4.681616154540263892e+02
1.001420312468743079e+00 4.680994237292769071e+02
1.001520334473584128e+00 4.680373121840611930e+02
1.001620356478425178e+00 4.679752816659421342e+02
1.001720378483266227e+00 4.679133330205632433e+02
1.001820400488107277e+00 4.678514670916272848e+02
1.001920422492948326e+00 4.677896847208766644e+02
1.002020444497789375e+00 4.677279867480708049e+02
1.002120466502630425e+00 4.676663740109676723e+02
1.002220488507471696e+00 4.676048473453017778e+02
1.002320510512312524e+00 4.675434075847651911e+02
1.002420532517153795e+00 4.674820555609854864e+02
1.002520554521994844e+00 4.674207921035074378e+02
1.002620576526835894e+00 4.673596180397705666e+02
1.002720598531676943e+00 4.672985341950909515e+02
1.002820620536517993e+00 4.672375413926411056e+02
1.002920642541359042e+00 4.671766404534274670e+02
1.003020664546200091e+00 4.671158321962745958e+02
1.003120686551041141e+00 4.670551174378013570e+02
1.003220708555882190e+00 4.669944969924030147e+02
1.003320730560723462e+00 4.669339716722326443e+02
1.003420752565564289e+00 4.668735422871786795e+02
1.003520774570405338e+00 4.668132096448483708e+02
1.003620796575246610e+00 4.667529745505457299e+02
1.003720818580087437e+00 4.666928378072532837e+02
1.003820840584928487e+00 4.666328002156139974e+02
1.003920862589769758e+00 4.665728625739095605e+02
1.004020884594610807e+00 4.665130256780427658e+02
1.004120906599451857e+00 4.664532903215181250e+02
1.004220928604292906e+00 4.663936572954229405e+02
1.004320950609133956e+00 4.663341273884077509e+02
1.004420972613975005e+00 4.662747013866687666e+02
1.004520994618816054e+00 4.662153800739280314e+02
1.004621016623657104e+00 4.661561642314143796e+02
1.004721038628498153e+00 4.660970546378460995e+02
1.004821060633339203e+00 4.660380520694121174e+02
1.004921082638180252e+00 4.659791572997523303e+02
1.005021104643021523e+00 4.659203710999407804e+02
1.005121126647862351e+00 4.658616942384663275e+02
1.005221148652703622e+00 4.658031274812154834e+02
1.005321170657544672e+00 4.657446715914527999e+02
1.005421192662385721e+00 4.656863273298044987e+02
1.005521214667226770e+00 4.656280954542395421e+02
1.005621236672067820e+00 4.655699767200519545e+02
1.005721258676908869e+00 4.655119718798428039e+02
1.005821280681749919e+00 4.654540816835044552e+02
1.005921302686590968e+00 4.653963068781984589e+02
1.006021324691432017e+00 4.653386482083439546e+02
1.006121346696273289e+00 4.652811064155957865e+02
1.006221368701114116e+00 4.652236822388287010e+02
1.006321390705955166e+00 4.651663764141206343e+02
1.006421412710796437e+00 4.651091896747349210e+02
1.006521434715637264e+00 4.650521227511036386e+02
1.006621456720478314e+00 4.649951763708097019e+02
1.006721478725319585e+00 4.649383512585715152e+02
1.006821500730160412e+00 4.648816481362250670e+02
1.006921522735001684e+00 4.648250677227074448e+02
1.007021544739842733e+00 4.647686107340409762e+02
1.007121566744683783e+00 4.647122778833157781e+02
1.007221588749524832e+00 4.646560698806742380e+02
1.007321610754365881e+00 4.645999874332931086e+02
1.007421632759206931e+00 4.645440312453702632e+02
1.007521654764047980e+00 4.644882020181051985e+02
1.007621676768889030e+00 4.644325004496859606e+02
1.007721698773730079e+00 4.643769272352714097e+02
1.007821720778571351e+00 4.643214830669747926e+02
1.007921742783412178e+00 4.642661686338514073e+02
1.008021764788253449e+00 4.642109846218788789e+02
1.008121786793094499e+00 4.641559317139447103e+02
1.008221808797935326e+00 4.641010105898291727e+02
1.008321830802776597e+00 4.640462219261903556e+02
1.008421852807617647e+00 4.639915663965493309e+02
1.008521874812458696e+00 4.639370446712756006e+02
1.008621896817299746e+00 4.638826574175694191e+02
1.008721918822140795e+00 4.638284052994508215e+02
1.008821940826981844e+00 4.637742889777413211e+02
1.008921962831822894e+00 4.637203091100518009e+02
1.009021984836663943e+00 4.636664663507656314e+02
1.009122006841504993e+00 4.636127613510264496e+02
1.009222028846346264e+00 4.635591947587219011e+02
1.009322050851187091e+00 4.635057672184699982e+02
1.009422072856028141e+00 4.634524793716061595e+02
1.009522094860869412e+00 4.633993318561665546e+02
1.009622116865710240e+00 4.633463253068764516e+02
1.009722138870551511e+00 4.632934603551355508e+02
1.009822160875392560e+00 4.632407376290037178e+02
1.009922182880233610e+00 4.631881577531881931e+02
1.010022204885074659e+00 4.631357213490290974e+02
1.010122226889915709e+00 4.630834290344868123e+02
1.010222248894756758e+00 4.630312814241293040e+02
1.010322270899597807e+00 4.629792791291161507e+02
1.010422292904438857e+00 4.629274227571884239e+02
1.010522314909279906e+00 4.628757129126548762e+02
1.010622336914121178e+00 4.628241501963775590e+02
1.010722358918962005e+00 4.627727352057611370e+02
1.010822380923803276e+00 4.627214685347382783e+02
1.010922402928644326e+00 4.626703507737593100e+02
1.011022424933485153e+00 4.626193825097774379e+02
1.011122446938326425e+00 4.625685643262380040e+02
1.011222468943167474e+00 4.625178968030653550e+02
1.011322490948008523e+00 4.624673805166514740e+02
1.011422512952849573e+00 4.624170160398437588e+02
1.011522534957690622e+00 4.623668039419322895e+02
1.011622556962531672e+00 4.623167447886399941e+02
1.011722578967372721e+00 4.622668391421071874e+02
1.011822600972213770e+00 4.622170875608860570e+02
1.011922622977054820e+00 4.621674905999228145e+02
1.012022644981896091e+00 4.621180488105507038e+02
1.012122666986736919e+00 4.620687627404774389e+02
1.012222688991577968e+00 4.620196329337726411e+02
1.012322710996419239e+00 4.619706599308594264e+02
1.012422733001260067e+00 4.619218442685026389e+02
1.012522755006101338e+00 4.618731864797968001e+02
1.012622777010942388e+00 4.618246870941571842e+02
1.012722799015783437e+00 4.617763466373086203e+02
1.012822821020624486e+00 4.617281656312741234e+02
1.012922843025465536e+00 4.616801445943673912e+02
1.013022865030306585e+00 4.616322840411791049e+02
1.013122887035147635e+00 4.615845844825685731e+02
1.013222909039988684e+00 4.615370464256552623e+02
1.013322931044829733e+00 4.614896703738062342e+02
1.013422953049671005e+00 4.614424568266283586e+02
1.013522975054511832e+00 4.613954062799575695e+02
1.013622997059353104e+00 4.613485192258504526e+02
1.013723019064194153e+00 4.613017961525739565e+02
1.013823041069034980e+00 4.612552375445973212e+02
1.013923063073876252e+00 4.612088438825807657e+02
1.014023085078717301e+00 4.611626156433701453e+02
1.014123107083558351e+00 4.611165532999834227e+02
1.014223129088399400e+00 4.610706573216065749e+02
1.014323151093240449e+00 4.610249281735817135e+02
1.014423173098081499e+00 4.609793663173998084e+02
1.014523195102922548e+00 4.609339722106922181e+02
1.014623217107763598e+00 4.608887463072230730e+02
1.014723239112604647e+00 4.608436890568787021e+02
1.014823261117445918e+00 4.607988009056629721e+02
1.014923283122286746e+00 4.607540822956872262e+02
1.015023305127127795e+00 4.607095336651630078e+02
1.015123327131969067e+00 4.606651554483935911e+02
1.015223349136809894e+00 4.606209480757694337e+02
1.015323371141651165e+00 4.605769119737559549e+02
1.015423393146492215e+00 4.605330475648906940e+02
1.015523415151333264e+00 4.604893552677740445e+02
1.015623437156174314e+00 4.604458354970619212e+02
1.015723459161015363e+00 4.604024886634591667e+02
1.015823481165856412e+00 4.603593151737141511e+02
1.015923503170697462e+00 4.603163154306103024e+02
1.016023525175538511e+00 4.602734898329596263e+02
1.016123547180379560e+00 4.602308387755979311e+02
1.016223569185220610e+00 4.601883626493761312e+02
1.016323591190061659e+00 4.601460618411559835e+02
1.016423613194902931e+00 4.601039367338040051e+02
1.016523635199743980e+00 4.600619877061831176e+02
1.016623657204584807e+00 4.600202151331506002e+02
1.016723679209426079e+00 4.599786193855485408e+02
1.016823701214267128e+00 4.599372008302019026e+02
1.016923723219107956e+00 4.598959598299097706e+02
1.017023745223949227e+00 4.598548967434424526e+02
1.017123767228790276e+00 4.598140119255344871e+02
1.017223789233631326e+00 4.597733057268814605e+02
1.017323811238472375e+00 4.597327784941333562e+02
1.017423833243313425e+00 4.596924305698909166e+02
1.017523855248154474e+00 4.596522622927003567e+02
1.017623877252995523e+00 4.596122739970479074e+02
1.017723899257836573e+00 4.595724660133579391e+02
1.017823921262677622e+00 4.595328386679851747e+02
1.017923943267518894e+00 4.594933922832144049e+02
1.018023965272359721e+00 4.594541271772529285e+02
1.018123987277200992e+00 4.594150436642281647e+02
1.018224009282042042e+00 4.593761420541837879e+02
1.018324031286883091e+00 4.593374226530764872e+02
1.018424053291724141e+00 4.592988857627709649e+02
1.018524075296565190e+00 4.592605316810377190e+02
1.018624097301406239e+00 4.592223607015494053e+02
1.018724119306247289e+00 4.591843731138768590e+02
1.018824141311088338e+00 4.591465692034878430e+02
1.018924163315929388e+00 4.591089492517422741e+02
1.019024185320770437e+00 4.590715135358902899e+02
1.019124207325611486e+00 4.590342623290690653e+02
1.019224229330452758e+00 4.589971959003008806e+02
1.019324251335293807e+00 4.589603145144890277e+02
1.019424273340134635e+00 4.589236184324195733e+02
1.019524295344975906e+00 4.588871079107531159e+02
1.019624317349816955e+00 4.588507832020284809e+02
1.019724339354657783e+00 4.588146445546561267e+02
1.019824361359499054e+00 4.587786922129200775e+02
1.019924383364340104e+00 4.587429264169732619e+02
1.020024405369181153e+00 4.587073474028378541e+02
1.020124427374022202e+00 4.586719554024033414e+02
1.020224449378863252e+00 4.586367506434252164e+02
1.020324471383704301e+00 4.586017333495223056e+02
1.020424493388545351e+00 4.585669037401782475e+02
1.020524515393386400e+00 4.585322620307393890e+02
1.020624537398227449e+00 4.584978084324124552e+02
1.020724559403068721e+00 4.584635431522663680e+02
1.020824581407909548e+00 4.584294663932306548e+02
1.020924603412750820e+00 4.583955783540944253e+02
1.021024625417591869e+00 4.583618792295059166e+02
1.021124647422432918e+00 4.583283692099741984e+02
1.021224669427273968e+00 4.582950484818662744e+02
1.021324691432115017e+00 4.582619172274092989e+02
1.021424713436956067e+00 4.582289756246907473e+02
1.021524735441797116e+00 4.581962238476568245e+02
1.021624757446638165e+00 4.581636620661145685e+02
1.021724779451479215e+00 4.581312904457309969e+02
1.021824801456320264e+00 4.580991091480366890e+02
1.021924823461161314e+00 4.580671183304222041e+02
1.022024845466002585e+00 4.580353181461429131e+02
1.022124867470843634e+00 4.580037087443171231e+02
1.022224889475684462e+00 4.579722902699297151e+02
1.022324911480525733e+00 4.579410628638312915e+02
1.022424933485366783e+00 4.579100266627408473e+02
1.022524955490207610e+00 4.578791817992475899e+02
1.022624977495048881e+00 4.578485284018104835e+02
1.022724999499889931e+00 4.578180665947633656e+02
1.022825021504730980e+00 4.577877964983125025e+02
1.022925043509572030e+00 4.577577182285430695e+02
1.023025065514413079e+00 4.577278318974188664e+02
1.023125087519254128e+00 4.576981376127841372e+02
1.023225109524095178e+00 4.576686354783674915e+02
1.023325131528936227e+00 4.576393255937836670e+02
1.023425153533777276e+00 4.576102080545356330e+02
1.023525175538618548e+00 4.575812829520181708e+02
1.023625197543459375e+00 4.575525503735206030e+02
1.023725219548300647e+00 4.575240104022286118e+02
1.023825241553141696e+00 4.574956631172301513e+02
1.023925263557982746e+00 4.574675085935149355e+02
1.024025285562823795e+00 4.574395469019809184e+02
1.024125307567664844e+00 4.574117781094356019e+02
1.024225329572505894e+00 4.573842022786009238e+02
1.024325351577346943e+00 4.573568194681171235e+02
1.024425373582187992e+00 4.573296297325449586e+02
1.024525395587029042e+00 4.573026331223712191e+02
1.024625417591870091e+00 4.572758296840121943e+02
1.024725439596711141e+00 4.572492194598178230e+02
1.024825461601552412e+00 4.572228024880762405e+02
1.024925483606393239e+00 4.571965788030180420e+02
1.025025505611234289e+00 4.571705484348196364e+02
1.025125527616075560e+00 4.571447114096108635e+02
1.025225549620916610e+00 4.571190677494769261e+02
1.025325571625757437e+00 4.570936174724638477e+02
1.025425593630598708e+00 4.570683605925851225e+02
1.025525615635439758e+00 4.570432971198244445e+02
1.025625637640280807e+00 4.570184270601423009e+02
1.025725659645121857e+00 4.569937504154818271e+02
1.025825681649962906e+00 4.569692671837725584e+02
1.025925703654803955e+00 4.569449773589377628e+02
1.026025725659645005e+00 4.569208809308991590e+02
1.026125747664486054e+00 4.568969778855827144e+02
1.026225769669327104e+00 4.568732682049251821e+02
1.026325791674168153e+00 4.568497518668784778e+02
1.026425813679009202e+00 4.568264288454194002e+02
1.026525835683850474e+00 4.568032991105515066e+02
1.026625857688691523e+00 4.567803626283143785e+02
1.026725879693532573e+00 4.567576193607895902e+02
1.026825901698373622e+00 4.567350692661060521e+02
1.026925923703214671e+00 4.567127122984487642e+02
1.027025945708055721e+00 4.566905484080639326e+02
1.027125967712896770e+00 4.566685775412668704e+02
1.027225989717737820e+00 4.566467996404483074e+02
1.027326011722578869e+00 4.566252146440824617e+02
1.027426033727419918e+00 4.566038224867331223e+02
1.027526055732260968e+00 4.565826230990626300e+02
1.027626077737102239e+00 4.565616164078381303e+02
1.027726099741943067e+00 4.565408023359391336e+02
1.027826121746784116e+00 4.565201808023656440e+02
1.027926143751625387e+00 4.564997517222461738e+02
1.028026165756466437e+00 4.564795150068457588e+02
1.028126187761307264e+00 4.564594705635732907e+02
1.028226209766148536e+00 4.564396182959897033e+02
1.028326231770989585e+00 4.564199581038170095e+02
1.028426253775830634e+00 4.564004898829460330e+02
1.028526275780671684e+00 4.563812135254453324e+02
1.028626297785512733e+00 4.563621289195692725e+02
1.028726319790353783e+00 4.563432359497671769e+02
1.028826341795194832e+00 4.563245344966910579e+02
1.028926363800035881e+00 4.563060244372063039e+02
1.029026385804876931e+00 4.562877056443990682e+02
1.029126407809717980e+00 4.562695779875863877e+02
1.029226429814559030e+00 4.562516413323243682e+02
1.029326451819400301e+00 4.562338955404190983e+02
1.029426473824241350e+00 4.562163404699340390e+02
1.029526495829082400e+00 4.561989759752008808e+02
1.029626517833923449e+00 4.561818019068292642e+02
1.029726539838764499e+00 4.561648181117154195e+02
1.029826561843605548e+00 4.561480244330531946e+02
1.029926583848446597e+00 4.561314207103433773e+02
1.030026605853287647e+00 4.561150067794029610e+02
1.030126627858128696e+00 4.560987824723766835e+02
1.030226649862969746e+00 4.560827476177470885e+02
1.030326671867810795e+00 4.560669020403433365e+02
1.030426693872652066e+00 4.560512455613536531e+02
1.030526715877492894e+00 4.560357779983341970e+02
1.030626737882333943e+00 4.560204991652205422e+02
1.030726759887175215e+00 4.560054088723381938e+02
1.030826781892016264e+00 4.559905069264134454e+02
1.030926803896857091e+00 4.559757931305843499e+02
1.031026825901698363e+00 4.559612672844112922e+02
1.031126847906539412e+00 4.559469291838879599e+02
1.031226869911380462e+00 4.559327786214543607e+02
1.031326891916221511e+00 4.559188153860059742e+02
1.031426913921062560e+00 4.559050392629048929e+02
1.031526935925903610e+00 4.558914500339943743e+02
1.031626957930744659e+00 4.558780474776068559e+02
1.031726979935585709e+00 4.558648313685775975e+02
1.031827001940426758e+00 4.558518014782556520e+02
1.031927023945267807e+00 4.558389575745158027e+02
1.032027045950108857e+00 4.558262994217716937e+02
1.032127067954950128e+00 4.558138267809863464e+02
1.032227089959791178e+00 4.558015394096844375e+02
1.032327111964632227e+00 4.557894370619651454e+02
1.032427133969473276e+00 4.557775194885145993e+02
1.032527155974314326e+00 4.557657864366168496e+02
1.032627177979155375e+00 4.557542376501688750e+02
1.032727199983996424e+00 4.557428728696903590e+02
1.032827221988837474e+00 4.557316918323377308e+02
1.032927243993678523e+00 4.557206942719173526e+02
1.033027265998519573e+00 4.557098799188979115e+02
1.033127288003360622e+00 4.556992485004225273e+02
1.033227310008201894e+00 4.556887997403225654e+02
1.033327332013042721e+00 4.556785333591309382e+02
1.033427354017883770e+00 4.556684490740952924e+02
1.033527376022725042e+00 4.556585465991897763e+02
1.033627398027565869e+00 4.556488256451306711e+02
1.033727420032406918e+00 4.556392859193869640e+02
1.033827442037248190e+00 4.556299271261981403e+02
1.033927464042089239e+00 4.556207489665827666e+02
1.034027486046930289e+00 4.556117511383558849e+02
1.034127508051771338e+00 4.556029333361408362e+02
1.034227530056612387e+00 4.555942952513833575e+02
1.034327552061453437e+00 4.555858365723669294e+02
1.034427574066294486e+00 4.555775569842248274e+02
1.034527596071135536e+00 4.555694561689551847e+02
1.034627618075976585e+00 4.555615338054337258e+02
1.034727640080817634e+00 4.555537895694317285e+02
1.034827662085658684e+00 4.555462231336256309e+02
1.034927684090499955e+00 4.555388341676140271e+02
1.035027706095340783e+00 4.555316223379328449e+02
1.035127728100182054e+00 4.555245873080669412e+02
1.035227750105023103e+00 4.555177287384670990e+02
1.035327772109864153e+00 4.555110462865637828e+02
1.035427794114705202e+00 4.555045396067832257e+02
1.035527816119546252e+00 4.554982083505593664e+02
1.035627838124387301e+00 4.554920521663523232e+02
1.035727860129228350e+00 4.554860706996595923e+02
1.035827882134069400e+00 4.554802635930345218e+02
1.035927904138910449e+00 4.554746304860992723e+02
1.036027926143751721e+00 4.554691710155609599e+02
1.036127948148592548e+00 4.554638848152259811e+02
1.036227970153433597e+00 4.554587715160164407e+02
1.036327992158274869e+00 4.554538307459840212e+02
1.036428014163115696e+00 4.554490621303278886e+02
1.036528036167956746e+00 4.554444652914079370e+02
1.036628058172798017e+00 4.554400398487609891e+02
1.036728080177639066e+00 4.554357854191160300e+02
1.036828102182480116e+00 4.554317016164117717e+02
1.036928124187321165e+00 4.554277880518106372e+02
1.037028146192162215e+00 4.554240443337139936e+02
1.037128168197003264e+00 4.554204700677808546e+02
1.037228190201844313e+00 4.554170648569411242e+02
1.037328212206685363e+00 4.554138283014123658e+02
1.037428234211526412e+00 4.554107599987166282e+02
1.037528256216367462e+00 4.554078595436965315e+02
1.037628278221208511e+00 4.554051265285291379e+02
1.037728300226049782e+00 4.554025605427470396e+02
1.037828322230890610e+00 4.554001611732494439e+02
1.037928344235731881e+00 4.553979280043217841e+02
1.038028366240572931e+00 4.553958606176506123e+02
1.038128388245413980e+00 4.553939585923420168e+02
1.038228410250255029e+00 4.553922215049353781e+02
1.038328432255096079e+00 4.553906489294222411e+02
1.038428454259937128e+00 4.553892404372628562e+02
1.038528476264778178e+00 4.553879955974009590e+02
1.038628498269619227e+00 4.553869139762817895e+02
1.038728520274460276e+00 4.553859951378710775e+02
1.038828542279301548e+00 4.553852386436671509e+02
1.038928564284142375e+00 4.553846440527229333e+02
1.039028586288983425e+00 4.553842109216585072e+02
1.039128608293824696e+00 4.553839388046818044e+02
1.039228630298665523e+00 4.553838272536027034e+02
1.039328652303506573e+00 4.553838758178522994e+02
1.039428674308347844e+00 4.553840840444995592e+02
1.039528696313188894e+00 4.553844514782673514e+02
1.039628718318029943e+00 4.553849776615513179e+02
1.039728740322870992e+00 4.553856621344366431e+02
1.039828762327712042e+00 4.553865044347149933e+02
1.039928784332553091e+00 4.553875040979023652e+02
1.040028806337394141e+00 4.553886606572564801e+02
1.040128828342235190e+00 4.553899736437941215e+02
1.040228850347076239e+00 4.553914425863089264e+02
1.040328872351917289e+00 4.553930670113888937e+02
1.040428894356758338e+00 4.553948464434341759e+02
1.040528916361599610e+00 4.553967804046737911e+02
1.040628938366440437e+00 4.553988684151855182e+02
1.040728960371281708e+00 4.554011099929107331e+02
1.040828982376122758e+00 4.554035046536745881e+02
1.040929004380963807e+00 4.554060519112028942e+02
1.041029026385804857e+00 4.554087512771397996e+02
1.041129048390645906e+00 4.554116022610660366e+02
1.041229070395486955e+00 4.554146043705168836e+02
1.041329092400328005e+00 4.554177571110004124e+02
1.041429114405169054e+00 4.554210599860147681e+02
1.041529136410010103e+00 4.554245124970664165e+02
1.041629158414851375e+00 4.554281141436892426e+02
1.041729180419692202e+00 4.554318644234608655e+02
1.041829202424533252e+00 4.554357628320225331e+02
1.041929224429374523e+00 4.554398088630959478e+02
1.042029246434215350e+00 4.554440020085032756e+02
1.042129268439056400e+00 4.554483417581829485e+02
1.042229290443897671e+00 4.554528276002097300e+02
1.042329312448738499e+00 4.554574590208128484e+02
1.042429334453579770e+00 4.554622355043936182e+02
1.042529356458420819e+00 4.554671565335440846e+02
1.042629378463261869e+00 4.554722215890657253e+02
1.042729400468102918e+00 4.554774301499877538e+02
1.042829422472943968e+00 4.554827816935855935e+02
1.042929444477785017e+00 4.554882756953994658e+02
1.043029466482626066e+00 4.554939116292516132e+02
1.043129488487467116e+00 4.554996889672665361e+02
1.043229510492308165e+00 4.555056071798899211e+02
1.043329532497149437e+00 4.555116657359043302e+02
1.043429554501990264e+00 4.555178641024506305e+02
1.043529576506831535e+00 4.555242017450462981e+02
1.043629598511672585e+00 4.555306781276013908e+02
1.043729620516513412e+00 4.555372927124412286e+02
1.043829642521354684e+00 4.555440449603217417e+02
1.043929664526195733e+00 4.555509343304503886e+02
1.044029686531036782e+00 4.555579602805037212e+02
1.044129708535877832e+00 4.555651222666450622e+02
1.044229730540718881e+00 4.555724197435458223e+02
1.044329752545559931e+00 4.555798521644029506e+02
1.044429774550400980e+00 4.555874189809569543e+02
1.044529796555242029e+00 4.555951196435123620e+02
1.044629818560083079e+00 4.556029536009546064e+02
1.044729840564924350e+00 4.556109203007702035e+02
1.044829862569765178e+00 4.556190191890664209e+02
1.044929884574606227e+00 4.556272497105867387e+02
1.045029906579447498e+00 4.556356113087337576e+02
1.045129928584288326e+00 4.556441034255852287e+02
1.045229950589129597e+00 4.556527255019140057e+02
1.045329972593970647e+00 4.556614769772075419e+02
1.045429994598811696e+00 4.556703572896856258e+02
1.045530016603652745e+00 4.556793658763189683e+02
1.045630038608493795e+00 4.556885021728500647e+02
1.045730060613334844e+00 4.556977656138104180e+02
1.045830082618175894e+00 4.557071556325396955e+02
1.045930104623016943e+00 4.557166716612057371e+02
1.046030126627857992e+00 4.557263131308223478e+02
1.046130148632699264e+00 4.557360794712678853e+02
1.046230170637540091e+00 4.557459701113054962e+02
1.046330192642381363e+00 4.557559844786018175e+02
1.046430214647222412e+00 4.557661219997451099e+02
1.046530236652063239e+00 4.557763821002641862e+02
1.046630258656904511e+00 4.557867642046492165e+02
1.046730280661745560e+00 4.557972677363672460e+02
1.046830302666586610e+00 4.558078921178854443e+02
1.046930324671427659e+00 4.558186367706856572e+02
1.047030346676268708e+00 4.558295011152876555e+02
1.047130368681109758e+00 4.558404845712643123e+02
1.047230390685950807e+00 4.558515865572621237e+02
1.047330412690791857e+00 4.558628064910213880e+02
1.047430434695632906e+00 4.558741437893928605e+02
1.047530456700474177e+00 4.558855978683573653e+02
1.047630478705315005e+00 4.558971681430470539e+02
1.047730500710156054e+00 4.559088540277600146e+02
1.047830522714997326e+00 4.559206549359826113e+02
1.047930544719838153e+00 4.559325702804070488e+02
1.048030566724679424e+00 4.559445994729511540e+02
1.048130588729520474e+00 4.559567419247751445e+02
1.048230610734361523e+00 4.559689970463035706e+02
1.048330632739202573e+00 4.559813642472406627e+02
1.048430654744043622e+00 4.559938429365927277e+02
1.048530676748884671e+00 4.560064325226844062e+02
1.048630698753725721e+00 4.560191324131791362e+02
1.048730720758566770e+00 4.560319420150962628e+02
1.048830742763407819e+00 4.560448607348316159e+02
1.048930764768249091e+00 4.560578879781742785e+02
1.049030786773089918e+00 4.560710231503285286e+02
1.049130808777931190e+00 4.560842656559286752e+02
1.049230830782772239e+00 4.560976148990605452e+02
1.049330852787613066e+00 4.561110702832789343e+02
1.049430874792454338e+00 4.561246312116280706e+02
1.049530896797295387e+00 4.561382970866570190e+02
1.049630918802136437e+00 4.561520673104418506e+02
1.049730940806977486e+00 4.561659412846017290e+02
1.049830962811818535e+00 4.561799184103195444e+02
1.049930984816659585e+00 4.561939980883582848e+02
1.050031006821500634e+00 4.562081797190813859e+02
1.050131028826341684e+00 4.562224627024718302e+02
1.050231050831182733e+00 4.562368464381473814e+02
1.050331072836024005e+00 4.562513303253833783e+02
1.050431094840864832e+00 4.562659137631268891e+02
1.050531116845705881e+00 4.562805961500200169e+02
1.050631138850547153e+00 4.562953768844143951e+02
1.050731160855387980e+00 4.563102553643901160e+02
1.050831182860229251e+00 4.563252309877773314e+02
1.050931204865070301e+00 4.563403031521693265e+02
1.051031226869911350e+00 4.563554712549461101e+02
1.051131248874752400e+00 4.563707346932895348e+02
1.051231270879593449e+00 4.563860928642021690e+02
1.051331292884434498e+00 4.564015451645254302e+02
1.051431314889275548e+00 4.564170909909591956e+02
1.051531336894116597e+00 4.564327297400780594e+02
1.051631358898957647e+00 4.564484608083510579e+02
1.051731380903798696e+00 4.564642835921580968e+02
1.051831402908639745e+00 4.564801974878101873e+02
1.051931424913481017e+00 4.564962018915653061e+02
1.052031446918322066e+00 4.565122961996476647e+02
1.052131468923162894e+00 4.565284798082660132e+02
1.052231490928004165e+00 4.565447521136308637e+02
1.052331512932845214e+00 4.565611125119720555e+02
1.052431534937686042e+00 4.565775603995573420e+02
1.052531556942527313e+00 4.565940951727103538e+02
1.052631578947368363e+00 4.566107162278282203e+02
1.052731600952209412e+00 4.566274229613985085e+02
1.052831622957050461e+00 4.566442147700182659e+02
1.052931644961891511e+00 4.566610910504108460e+02
1.053031666966732560e+00 4.566780511994435301e+02
1.053131688971573610e+00 4.566950946141461145e+02
1.053231710976414659e+00 4.567122206917268841e+02
1.053331732981255708e+00 4.567294288295921092e+02
1.053431754986096980e+00 4.567467184253611094e+02
1.053531776990937807e+00 4.567640888768861487e+02
1.053631798995779079e+00 4.567815395822679534e+02
1.053731821000620128e+00 4.567990699398741867e+02
1.053831843005461177e+00 4.568166793483561605e+02
1.053931865010302227e+00 4.568343672066670820e+02
1.054031887015143276e+00 4.568521329140768330e+02
1.054131909019984326e+00 4.568699758701926612e+02
1.054231931024825375e+00 4.568878954749729928e+02
1.054331953029666424e+00 4.569058911287473279e+02
1.054431975034507474e+00 4.569239622322302807e+02
1.054531997039348523e+00 4.569421081865421002e+02
1.054632019044189573e+00 4.569603283932223690e+02
1.054732041049030844e+00 4.569786222542483074e+02
1.054832063053871893e+00 4.569969891720517126e+02
1.054932085058712721e+00 4.570154285495357840e+02
1.055032107063553992e+00 4.570339397900916651e+02
1.055132129068395042e+00 4.570525222976144732e+02
1.055232151073235869e+00 4.570711754765206933e+02
1.055332173078077140e+00 4.570898987317654019e+02
1.055432195082918190e+00 4.571086914688569323e+02
1.055532217087759239e+00 4.571275530938750649e+02
1.055632239092600289e+00 4.571464830134858062e+02
1.055732261097441338e+00 4.571654806349600335e+02
1.055832283102282387e+00 4.571845453661876491e+02
1.055932305107123437e+00 4.572036766156950307e+02
1.056032327111964486e+00 4.572228737926600388e+02
1.056132349116805536e+00 4.572421363069301492e+02
1.056232371121646807e+00 4.572614635690363230e+02
1.056332393126487634e+00 4.572808549902105142e+02
1.056432415131328906e+00 4.573003099824016431e+02
1.056532437136169955e+00 4.573198279582893520e+02
1.056632459141011005e+00 4.573394083313037868e+02
1.056732481145852054e+00 4.573590505156374775e+02
1.056832503150693103e+00 4.573787539262626751e+02
1.056932525155534153e+00 4.573985179789484619e+02
1.057032547160375202e+00 4.574183420902733701e+02
1.057132569165216252e+00 4.574382256776433451e+02
1.057232591170057301e+00 4.574581681593061262e+02
1.057332613174898350e+00 4.574781689543663106e+02
1.057432635179739400e+00 4.574982274828026334e+02
1.057532657184580671e+00 4.575183431654809283e+02
1.057632679189421721e+00 4.575385154241701002e+02
1.057732701194262548e+00 4.575587436815585534e+02
1.057832723199103819e+00 4.575790273612674355e+02
1.057932745203944869e+00 4.575993658878663268e+02
1.058032767208785696e+00 4.576197586868894405e+02
1.058132789213626967e+00 4.576402051848482415e+02
1.058232811218468017e+00 4.576607048092482160e+02
1.058332833223309066e+00 4.576812569886026836e+02
1.058432855228150116e+00 4.577018611524480320e+02
1.058532877232991165e+00 4.577225167313564498e+02
1.058632899237832214e+00 4.577432231569547412e+02
1.058732921242673264e+00 4.577639798619342173e+02
1.058832943247514313e+00 4.577847862800670100e+02
1.058932965252355363e+00 4.578056418462217039e+02
1.059032987257196634e+00 4.578265459963753301e+02
1.059133009262037461e+00 4.578474981676285438e+02
1.059233031266878733e+00 4.578684977982205169e+02
1.059333053271719782e+00 4.578895443275416710e+02
1.059433075276560832e+00 4.579106371961487980e+02
1.059533097281401881e+00 4.579317758457779632e+02
1.059633119286242930e+00 4.579529597193596260e+02
1.059733141291083980e+00 4.579741882610310881e+02
1.059833163295925029e+00 4.579954609161510461e+02
1.059933185300766079e+00 4.580167771313126650e+02
1.060033207305607128e+00 4.580381363543573343e+02
1.060133229310448177e+00 4.580595380343891065e+02
1.060233251315289227e+00 4.580809816217870321e+02
1.060333273320130498e+00 4.581024665682169825e+02
1.060433295324971326e+00 4.581239923266488745e+02
1.060533317329812375e+00 4.581455583513667875e+02
1.060633339334653646e+00 4.581671640979822087e+02
1.060733361339494696e+00 4.581888090234486981e+02
1.060833383344335523e+00 4.582104925860734284e+02
1.060933405349176795e+00 4.582322142455298035e+02
1.061033427354017844e+00 4.582539734628720680e+02
1.061133449358858893e+00 4.582757697005463342e+02
1.061233471363699943e+00 4.582976024224032585e+02
1.061333493368540992e+00 4.583194710937121954e+02
1.061433515373382042e+00 4.583413751811717134e+02
1.061533537378223091e+00 4.583633141529230670e+02
1.061633559383064140e+00 4.583852874785619633e+02
1.061733581387905190e+00 4.584072946291516928e+02
1.061833603392746239e+00 4.584293350772338727e+02
1.061933625397587289e+00 4.584514082968427147e+02
1.062033647402428560e+00 4.584735137635143474e+02
1.062133669407269609e+00 4.584956509543001175e+02
1.062233691412110659e+00 4.585178193477790387e+02
1.062333713416951708e+00 4.585400184240679664e+02
1.062433735421792758e+00 4.585622476648351267e+02
1.062533757426633807e+00 4.585845065533095521e+02
1.062633779431474856e+00 4.586067945742944403e+02
1.062733801436315906e+00 4.586291112141774420e+02
1.062833823441156955e+00 4.586514559609422577e+02
1.062933845445998005e+00 4.586738283041800059e+02
1.063033867450839054e+00 4.586962277351013881e+02
1.063133889455680325e+00 4.587186537465447032e+02
1.063233911460521153e+00 4.587411058329906268e+02
1.063333933465362202e+00 4.587635834905704542e+02
1.063433955470203474e+00 4.587860862170778091e+02
1.063533977475044523e+00 4.588086135119797859e+02
1.063633999479885350e+00 4.588311648764266124e+02
1.063734021484726622e+00 4.588537398132630756e+02
1.063834043489567671e+00 4.588763378270388671e+02
1.063934065494408721e+00 4.588989584240184740e+02
1.064034087499249770e+00 4.589216011121912402e+02
1.064134109504090819e+00 4.589442654012831326e+02
1.064234131508931869e+00 4.589669508027648135e+02
1.064334153513772918e+00 4.589896568298636907e+02
1.064434175518613968e+00 4.590123829975718195e+02
1.064534197523455017e+00 4.590351288226576685e+02
1.064634219528296066e+00 4.590578938236741919e+02
1.064734241533137116e+00 4.590806775209701982e+02
1.064834263537978387e+00 4.591034794366983078e+02
1.064934285542819437e+00 4.591262990948251286e+02
1.065034307547660486e+00 4.591491360211411461e+02
1.065134329552501535e+00 4.591719897432695348e+02
1.065234351557342585e+00 4.591948597906754799e+02
1.065334373562183634e+00 4.592177456946755569e+02
1.065434395567024684e+00 4.592406469884454623e+02
1.065534417571865733e+00 4.592635632070315523e+02
1.065634439576706782e+00 4.592864938873563005e+02
1.065734461581547832e+00 4.593094385682310872e+02
1.065834483586388881e+00 4.593323967903607468e+02
1.065934505591230153e+00 4.593553680963557895e+02
1.066034527596070980e+00 4.593783520307384833e+02
1.066134549600912029e+00 4.594013481399517218e+02
1.066234571605753301e+00 4.594243559723685735e+02
1.066334593610594350e+00 4.594473750782981938e+02
1.066434615615435177e+00 4.594704050099969663e+02
1.066534637620276449e+00 4.594934453216740167e+02
1.066634659625117498e+00 4.595164955695007620e+02
1.066734681629958548e+00 4.595395553116163683e+02
1.066834703634799597e+00 4.595626241081390049e+02
1.066934725639640646e+00 4.595857015211707335e+02
1.067034747644481696e+00 4.596087871148063755e+02
1.067134769649322745e+00 4.596318804551413564e+02
1.067234791654163795e+00 4.596549811102774470e+02
1.067334813659004844e+00 4.596780886503305510e+02
1.067434835663845893e+00 4.597012026474399704e+02
1.067534857668686943e+00 4.597243226757727825e+02
1.067634879673528214e+00 4.597474483115317412e+02
1.067734901678369264e+00 4.597705791329638032e+02
1.067834923683210313e+00 4.597937147203641075e+02
1.067934945688051362e+00 4.598168546560846153e+02
1.068034967692892412e+00 4.598399985245405333e+02
1.068134989697733461e+00 4.598631459122170213e+02
1.068235011702574511e+00 4.598862964076735125e+02
1.068335033707415560e+00 4.599094496015538880e+02
1.068435055712256609e+00 4.599326050865893762e+02
1.068535077717097659e+00 4.599557624576063404e+02
1.068635099721938708e+00 4.599789213115312805e+02
1.068735121726779980e+00 4.600020812473983369e+02
1.068835143731620807e+00 4.600252418663546905e+02
1.068935165736461856e+00 4.600484027716640867e+02
1.069035187741303128e+00 4.600715635687162148e+02
1.069135209746143955e+00 4.600947238650297777e+02
1.069235231750985005e+00 4.601178832702581758e+02
1.069335253755826276e+00 4.601410413961962149e+02
1.069435275760667325e+00 4.601641978567839146e+02
1.069535297765508375e+00 4.601873522681127042e+02
1.069635319770349424e+00 4.602105042484304818e+02
1.069735341775190474e+00 4.602336534181460479e+02
1.069835363780031523e+00 4.602567993998339944e+02
1.069935385784872572e+00 4.602799418182401041e+02
1.070035407789713622e+00 4.603030803002862399e+02
1.070135429794554671e+00 4.603262144750740390e+02
1.070235451799395721e+00 4.603493439738904272e+02
1.070335473804236770e+00 4.603724684302109154e+02
1.070435495809078041e+00 4.603955874797050001e+02
1.070535517813918869e+00 4.604187007602405970e+02
1.070635539818760140e+00 4.604418079118865990e+02
1.070735561823601190e+00 4.604649085769188446e+02
1.070835583828442239e+00 4.604880023998224488e+02
1.070935605833283288e+00 4.605110890272968618e+02
1.071035627838124338e+00 4.605341681082592800e+02
1.071135649842965387e+00 4.605572392938478288e+02
1.071235671847806437e+00 4.605803022374262241e+02
1.071335693852647486e+00 4.606033565945855344e+02
1.071435715857488535e+00 4.606264020231491259e+02
1.071535737862329807e+00 4.606494381831759029e+02
1.071635759867170634e+00 4.606724647369620698e+02
1.071735781872011684e+00 4.606954813490462470e+02
1.071835803876852955e+00 4.607184876862098690e+02
1.071935825881693782e+00 4.607414834174832095e+02
1.072035847886534832e+00 4.607644682141454950e+02
1.072135869891376103e+00 4.607874417497297372e+02
1.072235891896217153e+00 4.608104037000232438e+02
1.072335913901058202e+00 4.608333537430716547e+02
1.072435935905899251e+00 4.608562915591810452e+02
1.072535957910740301e+00 4.608792168309203134e+02
1.072635979915581350e+00 4.609021292431231700e+02
1.072736001920422400e+00 4.609250284828898998e+02
1.072836023925263449e+00 4.609479142395906024e+02
1.072936045930104498e+00 4.609707862048661582e+02
1.073036067934945548e+00 4.609936440726296496e+02
1.073136089939786597e+00 4.610164875390699990e+02
1.073236111944627869e+00 4.610393163026519687e+02
1.073336133949468696e+00 4.610621300641179801e+02
1.073436155954309967e+00 4.610849285264898754e+02
1.073536177959151017e+00 4.611077113950711350e+02
1.073636199963992066e+00 4.611304783774455700e+02
1.073736221968833116e+00 4.611532291834819262e+02
1.073836243973674165e+00 4.611759635253329748e+02
1.073936265978515214e+00 4.611986811174363652e+02
1.074036287983356264e+00 4.612213816765154206e+02
1.074136309988197313e+00 4.612440649215823214e+02
1.074236331993038362e+00 4.612667305739360017e+02
1.074336353997879634e+00 4.612893783571636277e+02
1.074436376002720461e+00 4.613120079971420182e+02
1.074536398007561511e+00 4.613346192220370199e+02
1.074636420012402782e+00 4.613572117623039617e+02
1.074736442017243609e+00 4.613797853506899855e+02
1.074836464022084659e+00 4.614023397222299536e+02
1.074936486026925930e+00 4.614248746142505979e+02
1.075036508031766980e+00 4.614473897663692128e+02
1.075136530036608029e+00 4.614698849204913813e+02
1.075236552041449078e+00 4.614923598208155227e+02
1.075336574046290128e+00 4.615148142138269804e+02
1.075436596051131177e+00 4.615372478483023997e+02
1.075536618055972227e+00 4.615596604753060319e+02
1.075636640060813276e+00 4.615820518481908721e+02
1.075736662065654325e+00 4.616044217225979196e+02
1.075836684070495375e+00 4.616267698564541888e+02
1.075936706075336424e+00 4.616490960099729364e+02
1.076036728080177696e+00 4.616713999456534339e+02
1.076136750085018523e+00 4.616936814282773867e+02
1.076236772089859794e+00 4.617159402249109235e+02
1.076336794094700844e+00 4.617381761049011288e+02
1.076436816099541893e+00 4.617603888398761569e+02
1.076536838104382943e+00 4.617825782037421618e+02
1.076636860109223992e+00 4.618047439726840366e+02
1.076736882114065041e+00 4.618268859251622871e+02
1.076836904118906091e+00 4.618490038419114398e+02
1.076936926123747140e+00 4.618710975059389057e+02
1.077036948128588190e+00 4.618931667025242405e+02
1.077136970133429239e+00 4.619152112192138588e+02
1.077236992138270288e+00 4.619372308458214320e+02
1.077337014143111338e+00 4.619592253744272625e+02
1.077437036147952609e+00 4.619811945993724294e+02
1.077537058152793437e+00 4.620031383172590722e+02
1.077637080157634486e+00 4.620250563269472650e+02
1.077737102162475757e+00 4.620469484295527991e+02
1.077837124167316585e+00 4.620688144284449095e+02
1.077937146172157856e+00 4.620906541292414431e+02
1.078037168176998906e+00 4.621124673398115874e+02
1.078137190181839955e+00 4.621342538702655247e+02
1.078237212186681004e+00 4.621560135329585250e+02
1.078337234191522054e+00 4.621777461424829880e+02
1.078437256196363103e+00 4.621994515156691818e+02
1.078537278201204153e+00 4.622211294715784788e+02
1.078637300206045202e+00 4.622427798315040945e+02
1.078737322210886251e+00 4.622644024189639254e+02
1.078837344215727523e+00 4.622859970597000370e+02
1.078937366220568350e+00 4.623075635816744011e+02
1.079037388225409622e+00 4.623291018150637228e+02
1.079137410230250671e+00 4.623506115922584172e+02
1.079237432235091498e+00 4.623720927478573230e+02
1.079337454239932770e+00 4.623935451186641785e+02
1.079437476244773819e+00 4.624149685436841537e+02
1.079537498249614869e+00 4.624363628641190189e+02
1.079637520254455918e+00 4.624577279233645868e+02
1.079737542259296967e+00 4.624790635670040615e+02
1.079837564264138017e+00 4.625003696428074136e+02
1.079937586268979066e+00 4.625216460007238197e+02
1.080037608273820116e+00 4.625428924928790479e+02
1.080137630278661165e+00 4.625641089735704554e+02
1.080237652283502436e+00 4.625852952992633504e+02
1.080337674288343264e+00 4.626064513285844555e+02
1.080437696293184313e+00 4.626275769223190650e+02
1.080537718298025585e+00 4.626486719434055885e+02
1.080637740302866412e+00 4.626697362569310030e+02
1.080737762307707683e+00 4.626907697301254530e+02
1.080837784312548733e+00 4.627117722323577595e+02
1.080937806317389782e+00 4.627327436351295660e+02
1.081037828322230832e+00 4.627536838120718130e+02
1.081137850327071881e+00 4.627745926389377473e+02
1.081237872331912930e+00 4.627954699935979761e+02
1.081337894336753980e+00 4.628163157560367154e+02
1.081437916341595029e+00 4.628371298083433771e+02
1.081537938346436079e+00 4.628579120347099547e+02
1.081637960351277350e+00 4.628786623214247129e+02
1.081737982356118177e+00 4.628993805568644575e+02
1.081838004360959449e+00 4.629200666314920340e+02
1.081938026365800498e+00 4.629407204378474034e+02
1.082038048370641325e+00 4.629613418705450272e+02
1.082138070375482597e+00 4.629819308262630670e+02
1.082238092380323646e+00 4.630024872037437831e+02
1.082338114385164696e+00 4.630230109037819943e+02
1.082438136390005745e+00 4.630435018292214409e+02
1.082538158394846795e+00 4.630639598849476215e+02
1.082638180399687844e+00 4.630843849778827348e+02
1.082738202404528893e+00 4.631047770169772662e+02
1.082838224409369943e+00 4.631251359132056109e+02
1.082938246414210992e+00 4.631454615795584573e+02
1.083038268419052264e+00 4.631657539310359653e+02
1.083138290423893091e+00 4.631860128846411158e+02
1.083238312428734140e+00 4.632062383593745380e+02
1.083338334433575412e+00 4.632264302762255852e+02
1.083438356438416239e+00 4.632465885581664224e+02
1.083538378443257510e+00 4.632667131301453765e+02
1.083638400448098560e+00 4.632868039190790341e+02
1.083738422452939609e+00 4.633068608538460467e+02
1.083838444457780659e+00 4.633268838652802515e+02
1.083938466462621708e+00 4.633468728861614636e+02
1.084038488467462757e+00 4.633668278512112124e+02
1.084138510472303807e+00 4.633867486970823961e+02
1.084238532477144856e+00 4.634066353623542227e+02
1.084338554481985906e+00 4.634264877875235129e+02
1.084438576486827177e+00 4.634463059149972537e+02
1.084538598491668004e+00 4.634660896890856066e+02
1.084638620496509276e+00 4.634858390559944610e+02
1.084738642501350325e+00 4.635055539638149753e+02
1.084838664506191153e+00 4.635252343625208482e+02
1.084938686511032424e+00 4.635448802039553016e+02
1.085038708515873473e+00 4.635644914418268741e+02
1.085138730520714523e+00 4.635840680316994735e+02
1.085238752525555572e+00 4.636036099309851579e+02
1.085338774530396622e+00 4.636231170989362340e+02
1.085438796535237671e+00 4.636425894966353098e+02
1.085538818540078720e+00 4.636620270869904061e+02
1.085638840544919770e+00 4.636814298347241561e+02
1.085738862549760819e+00 4.637007977063652788e+02
1.085838884554601869e+00 4.637201306702424972e+02
1.085938906559442918e+00 4.637394286964744197e+02
1.086038928564283967e+00 4.637586917569606157e+02
1.086138950569125239e+00 4.637779198253745108e+02
1.086238972573966066e+00 4.637971128771542340e+02
1.086338994578807338e+00 4.638162708894936372e+02
1.086439016583648387e+00 4.638353938413337119e+02
1.086539038588489436e+00 4.638544817133542892e+02
1.086639060593330486e+00 4.638735344879646050e+02
1.086739082598171535e+00 4.638925521492950566e+02
1.086839104603012585e+00 4.639115346831881084e+02
1.086939126607853634e+00 4.639304820771880600e+02
1.087039148612694683e+00 4.639493943205350206e+02
1.087139170617535733e+00 4.639682714041528016e+02
1.087239192622376782e+00 4.639871133206406171e+02
1.087339214627217832e+00 4.640059200642658652e+02
1.087439236632059103e+00 4.640246916309525886e+02
1.087539258636900152e+00 4.640434280182718680e+02
1.087639280641740980e+00 4.640621292254355126e+02
1.087739302646582251e+00 4.640807952532837248e+02
1.087839324651423301e+00 4.640994261042766311e+02
1.087939346656264128e+00 4.641180217824862098e+02
1.088039368661105399e+00 4.641365822935841265e+02
1.088139390665946449e+00 4.641551076448344020e+02
1.088239412670787498e+00 4.641735978450829521e+02
1.088339434675628548e+00 4.641920529047481523e+02
1.088439456680469597e+00 4.642104728358107764e+02
1.088539478685310646e+00 4.642288576518046170e+02
1.088639500690151696e+00 4.642472073678075049e+02
1.088739522694992745e+00 4.642655220004291436e+02
1.088839544699833795e+00 4.642838015678040620e+02
1.088939566704675066e+00 4.643020460895792780e+02
1.089039588709515893e+00 4.643202555869071375e+02
1.089139610714357165e+00 4.643384300824327511e+02
1.089239632719198214e+00 4.643565696002839900e+02
1.089339654724039264e+00 4.643746741660640964e+02
1.089439676728880313e+00 4.643927438068393485e+02
1.089539698733721362e+00 4.644107785511291127e+02
1.089639720738562412e+00 4.644287784288958392e+02
1.089739742743403461e+00 4.644467434715365357e+02
1.089839764748244511e+00 4.644646737118687838e+02
1.089939786753085560e+00 4.644825691841244293e+02
1.090039808757926609e+00 4.645004299239364514e+02
1.090139830762767659e+00 4.645182559683306067e+02
1.090239852767608930e+00 4.645360473557142313e+02
1.090339874772449980e+00 4.645538041258637350e+02
1.090439896777290807e+00 4.645715263199192577e+02
1.090539918782132078e+00 4.645892139803682994e+02
1.090639940786973128e+00 4.646068671510394097e+02
1.090739962791813955e+00 4.646244858770892279e+02
1.090839984796655227e+00 4.646420702049943543e+02
1.090940006801496276e+00 4.646596201825375374e+02
1.091040028806337325e+00 4.646771358587997724e+02
1.091140050811178375e+00 4.646946172841473981e+02
1.091240072816019424e+00 4.647120645102240815e+02
1.091340094820860473e+00 4.647294775899378010e+02
1.091440116825701523e+00 4.647468565774505009e+02
1.091540138830542572e+00 4.647642015281674048e+02
1.091640160835383622e+00 4.647815124987274089e+02
1.091740182840224893e+00 4.647987895469904061e+02
1.091840204845065720e+00 4.648160327320280203e+02
1.091940226849906992e+00 4.648332421141103055e+02
1.092040248854748041e+00 4.648504177546985829e+02
1.092140270859589091e+00 4.648675597164311171e+02
1.092240292864430140e+00 4.648846680631121444e+02
1.092340314869271189e+00 4.649017428597048252e+02
1.092440336874112239e+00 4.649187841723153269e+02
1.092540358878953288e+00 4.649357920681845826e+02
1.092640380883794338e+00 4.649527666156765804e+02
1.092740402888635387e+00 4.649697078842671658e+02
1.092840424893476436e+00 4.649866159445338099e+02
1.092940446898317486e+00 4.650034908681420802e+02
1.093040468903158757e+00 4.650203327278376833e+02
1.093140490907999807e+00 4.650371415974327647e+02
1.093240512912840634e+00 4.650539175517952799e+02
1.093340534917681905e+00 4.650706606668396716e+02
1.093440556922522955e+00 4.650873710195125454e+02
1.093540578927363782e+00 4.651040486877844273e+02
1.093640600932205054e+00 4.651206937506358372e+02
1.093740622937046103e+00 4.651373062880480802e+02
1.093840644941887152e+00 4.651538863809905706e+02
1.093940666946728202e+00 4.651704341114112253e+02
1.094040688951569251e+00 4.651869495622219119e+02
1.094140710956410301e+00 4.652034328172916275e+02
1.094240732961251350e+00 4.652198839614312647e+02
1.094340754966092399e+00 4.652363030803841184e+02
1.094440776970933449e+00 4.652526902608141199e+02
1.094540798975774498e+00 4.652690455902946383e+02
1.094640820980615548e+00 4.652853691572966000e+02
1.094740842985456819e+00 4.653016610511771205e+02
1.094840864990297868e+00 4.653179213621693293e+02
1.094940886995138918e+00 4.653341501813690684e+02
1.095040908999979967e+00 4.653503476007246036e+02
1.095140931004821017e+00 4.653665137130254834e+02
1.095240953009662066e+00 4.653826486118889534e+02
1.095340975014503115e+00 4.653987523917525095e+02
1.095440997019344165e+00 4.654148251478580391e+02
1.095541019024185214e+00 4.654308669762430668e+02
1.095641041029026264e+00 4.654468779737277373e+02
1.095741063033867313e+00 4.654628582379055501e+02
1.095841085038708584e+00 4.654788078671297740e+02
1.095941107043549412e+00 4.654947269605017368e+02
1.096041129048390461e+00 4.655106156178618448e+02
1.096141151053231733e+00 4.655264739397747462e+02
1.096241173058072782e+00 4.655423020275210320e+02
1.096341195062913609e+00 4.655580999830831388e+02
1.096441217067754881e+00 4.655738679091359131e+02
1.096541239072595930e+00 4.655896059090333665e+02
1.096641261077436980e+00 4.656053140867981028e+02
1.096741283082278029e+00 4.656209925471094948e+02
1.096841305087119078e+00 4.656366413952937364e+02
1.096941327091960128e+00 4.656522607373078699e+02
1.097041349096801177e+00 4.656678506797355794e+02
1.097141371101642227e+00 4.656834113297672957e+02
1.097241393106483276e+00 4.656989427951953644e+02
1.097341415111324325e+00 4.657144451844000059e+02
1.097441437116165375e+00 4.657299186063365823e+02
1.097541459121006646e+00 4.657453631705264456e+02
1.097641481125847696e+00 4.657607789870440911e+02
1.097741503130688745e+00 4.657761661665064139e+02
1.097841525135529794e+00 4.657915248200596920e+02
1.097941547140370844e+00 4.658068550593712303e+02
1.098041569145211893e+00 4.658221569966141260e+02
1.098141591150052943e+00 4.658374307444585725e+02
1.098241613154893992e+00 4.658526764160590119e+02
1.098341635159735041e+00 4.658678941250441312e+02
1.098441657164576091e+00 4.658830839855039017e+02
1.098541679169417140e+00 4.658982461119774712e+02
1.098641701174258412e+00 4.659133806194459453e+02
1.098741723179099239e+00 4.659284876233161867e+02
1.098841745183940288e+00 4.659435672394118910e+02
1.098941767188781560e+00 4.659586195839614220e+02
1.099041789193622609e+00 4.659736447735870684e+02
1.099141811198463436e+00 4.659886429252928792e+02
1.099241833203304708e+00 4.660036141564550007e+02
1.099341855208145757e+00 4.660185585848078631e+02
1.099441877212986807e+00 4.660334763284353699e+02
1.099541899217827856e+00 4.660483675057580513e+02
1.099641921222668906e+00 4.660632322355219230e+02
1.099741943227509955e+00 4.660780706367877428e+02
1.099841965232351004e+00 4.660928828289203807e+02
1.099941987237192054e+00 4.661076689315754038e+02
1.100042009242033103e+00 4.661224290646902659e+02
1.100142031246874152e+00 4.661371633484717449e+02
1.100242053251715202e+00 4.661518719033854836e+02
1.100342075256556473e+00 4.661665548501450189e+02
1.100442097261397523e+00 4.661812123096980827e+02
1.100542119266238572e+00 4.661958444032201783e+02
1.100642141271079621e+00 4.662104512520994604e+02
1.100742163275920671e+00 4.662250329779283220e+02
1.100842185280761720e+00 4.662395897024898090e+02
1.100942207285602770e+00 4.662541215477480705e+02
1.101042229290443819e+00 4.662686286358380130e+02
1.101142251295284868e+00 4.662831110890538753e+02
1.101242273300125918e+00 4.662975690298370637e+02
1.101342295304966967e+00 4.663120025807664888e+02
1.101442317309808239e+00 4.663264118645482199e+02
1.101542339314649066e+00 4.663407970040018995e+02
1.101642361319490115e+00 4.663551581220530124e+02
1.101742383324331387e+00 4.663694953417204943e+02
1.101842405329172436e+00 4.663838087861067834e+02
1.101942427334013264e+00 4.663980985783853725e+02
1.102042449338854535e+00 4.664123648417923391e+02
1.102142471343695584e+00 4.664266076996133847e+02
1.102242493348536634e+00 4.664408272751755931e+02
1.102342515353377683e+00 4.664550236918337873e+02
1.102442537358218733e+00 4.664691970729634249e+02
1.102542559363059782e+00 4.664833475419462729e+02
1.102642581367900831e+00 4.664974752221628478e+02
1.102742603372741881e+00 4.665115802369811604e+02
1.102842625377582930e+00 4.665256627097450064e+02
1.102942647382423980e+00 4.665397227637644164e+02
1.103042669387265029e+00 4.665537605223041737e+02
1.103142691392106300e+00 4.665677761085768225e+02
1.103242713396947128e+00 4.665817696457274337e+02
1.103342735401788399e+00 4.665957412568266136e+02
1.103442757406629449e+00 4.666096910648593621e+02
1.103542779411470498e+00 4.666236191927147274e+02
1.103642801416311547e+00 4.666375257631747218e+02
1.103742823421152597e+00 4.666514108989060219e+02
1.103842845425993646e+00 4.666652747224468385e+02
1.103942867430834696e+00 4.666791173562027097e+02
1.104042889435675745e+00 4.666929389224264924e+02
1.104142911440516794e+00 4.667067395432189869e+02
1.104242933445358066e+00 4.667205193405126238e+02
1.104342955450198893e+00 4.667342784360625387e+02
1.104442977455039943e+00 4.667480169514371937e+02
1.104542999459881214e+00 4.667617350080091683e+02
1.104643021464722041e+00 4.667754327269432224e+02
1.104743043469563091e+00 4.667891102291889638e+02
1.104843065474404362e+00 4.668027676354691380e+02
1.104943087479245412e+00 4.668164050662712725e+02
1.105043109484086461e+00 4.668300226418365355e+02
1.105143131488927510e+00 4.668436204821519482e+02
1.105243153493768560e+00 4.668571987069377656e+02
1.105343175498609609e+00 4.668707574356425312e+02
1.105443197503450659e+00 4.668842967874289798e+02
1.105543219508291708e+00 4.668978168811664204e+02
1.105643241513132757e+00 4.669113178354232332e+02
1.105743263517973807e+00 4.669247997684529992e+02
1.105843285522814856e+00 4.669382627981897826e+02
1.105943307527656128e+00 4.669517070422351139e+02
1.106043329532496955e+00 4.669651326178520776e+02
1.106143351537338226e+00 4.669785396419526364e+02
1.106243373542179276e+00 4.669919282310917197e+02
1.106343395547020325e+00 4.670052985014561955e+02
1.106443417551861375e+00 4.670186505688552643e+02
1.106543439556702424e+00 4.670319845487139787e+02
1.106643461561543473e+00 4.670453005560611359e+02
1.106743483566384523e+00 4.670585987055231953e+02
1.106843505571225572e+00 4.670718791113133079e+02
1.106943527576066622e+00 4.670851418872232443e+02
1.107043549580907893e+00 4.670983871466145843e+02
1.107143571585748720e+00 4.671116150024105877e+02
1.107243593590589770e+00 4.671248255670867593e+02
1.107343615595431041e+00 4.671380189526619233e+02
1.107443637600271868e+00 4.671511952706908346e+02
1.107543659605112918e+00 4.671643546322538327e+02
1.107643681609954189e+00 4.671774971479504757e+02
1.107743703614795239e+00 4.671906229278901037e+02
1.107843725619636288e+00 4.672037320816820056e+02
1.107943747624477338e+00 4.672168247184308711e+02
1.108043769629318387e+00 4.672299009467247970e+02
1.108143791634159436e+00 4.672429608746278973e+02
1.108243813639000486e+00 4.672560046096739370e+02
1.108343835643841535e+00 4.672690322588562708e+02
1.108443857648682584e+00 4.672820439286203396e+02
1.108543879653523634e+00 4.672950397248569061e+02
1.108643901658364683e+00 4.673080197528915392e+02
1.108743923663205955e+00 4.673209841174794974e+02
1.108843945668046782e+00 4.673339329227958387e+02
1.108943967672888053e+00 4.673468662724285423e+02
1.109043989677729103e+00 4.673597842693715165e+02
1.109144011682570152e+00 4.673726870160145381e+02
1.109244033687411202e+00 4.673855746141375107e+02
1.109344055692252251e+00 4.673984471649042689e+02
1.109444077697093300e+00 4.674113047688512665e+02
1.109544099701934350e+00 4.674241475258834839e+02
1.109644121706775399e+00 4.674369755352651055e+02
1.109744143711616449e+00 4.674497888956136649e+02
1.109844165716457720e+00 4.674625877048910070e+02
1.109944187721298547e+00 4.674753720603986267e+02
1.110044209726139597e+00 4.674881420587676075e+02
1.110144231730980868e+00 4.675008977959535059e+02
1.110244253735821696e+00 4.675136393672290183e+02
1.110344275740662745e+00 4.675263668671757387e+02
1.110444297745504016e+00 4.675390803896796115e+02
1.110544319750345066e+00 4.675517800279218363e+02
1.110644341755186115e+00 4.675644658743735818e+02
1.110744363760027165e+00 4.675771380207881407e+02
1.110844385764868214e+00 4.675897965581954168e+02
1.110944407769709263e+00 4.676024415768939662e+02
1.111044429774550313e+00 4.676150731664459386e+02
1.111144451779391362e+00 4.676276914156688918e+02
1.111244473784232412e+00 4.676402964126323241e+02
1.111344495789073461e+00 4.676528882446472721e+02
1.111444517793914510e+00 4.676654669982629002e+02
1.111544539798755782e+00 4.676780327592600770e+02
1.111644561803596609e+00 4.676905856126438721e+02
1.111744583808437881e+00 4.677031256426384402e+02
1.111844605813278930e+00 4.677156529326817918e+02
1.111944627818119757e+00 4.677281675654172091e+02
1.112044649822961029e+00 4.677406696226897225e+02
1.112144671827802078e+00 4.677531591855401416e+02
1.112244693832643128e+00 4.677656363341972678e+02
1.112344715837484177e+00 4.677781011480747679e+02
1.112444737842325226e+00 4.677905537057642960e+02
1.112544759847166276e+00 4.678029940850292405e+02
1.112644781852007325e+00 4.678154223628008594e+02
1.112744803856848375e+00 4.678278386151712880e+02
1.112844825861689424e+00 4.678402429173887640e+02
1.112944847866530695e+00 4.678526353438530805e+02
1.113044869871371523e+00 4.678650159681088780e+02
1.113144891876212572e+00 4.678773848628416090e+02
1.113244913881053844e+00 4.678897420998720236e+02
1.113344935885894671e+00 4.679020877501515088e+02
1.113444957890735942e+00 4.679144218837558924e+02
1.113544979895576992e+00 4.679267445698818619e+02
1.113645001900418041e+00 4.679390558768422466e+02
1.113745023905259091e+00 4.679513558720593096e+02
1.113845045910100140e+00 4.679636446220635548e+02
1.113945067914941189e+00 4.679759221924848021e+02
1.114045089919782239e+00 4.679881886480507660e+02
1.114145111924623288e+00 4.680004440525817131e+02
1.114245133929464338e+00 4.680126884689855729e+02
1.114345155934305609e+00 4.680249219592539589e+02
1.114445177939146436e+00 4.680371445844579057e+02
1.114545199943987708e+00 4.680493564047442305e+02
1.114645221948828757e+00 4.680615574793291671e+02
1.114745243953669585e+00 4.680737478664972286e+02
1.114845265958510856e+00 4.680859276235953530e+02
1.114945287963351905e+00 4.680980968070296058e+02
1.115045309968192955e+00 4.681102554722613149e+02
1.115145331973034004e+00 4.681224036738021823e+02
1.115245353977875054e+00 4.681345414652130899e+02
1.115345375982716103e+00 4.681466688990972216e+02
1.115445397987557152e+00 4.681587860270990404e+02
1.115545419992398202e+00 4.681708928998992292e+02
1.115645441997239251e+00 4.681829895672129851e+02
1.115745464002080523e+00 4.681950760777842788e+02
1.115845486006921350e+00 4.682071524793843764e+02
1.115945508011762399e+00 4.682192188188079740e+02
1.116045530016603671e+00 4.682312751418702987e+02
1.116145552021444498e+00 4.682433214934029593e+02
1.116245574026285770e+00 4.682553579172528089e+02
1.116345596031126819e+00 4.682673844562774548e+02
1.116445618035967868e+00 4.682794011523430981e+02
1.116545640040808918e+00 4.682914080463217488e+02
1.116645662045649967e+00 4.683034051780877576e+02
1.116745684050491016e+00 4.683153925865158271e+02
1.116845706055332066e+00 4.683273703094787948e+02
1.116945728060173115e+00 4.683393383838442219e+02
1.117045750065014165e+00 4.683512968454725183e+02
1.117145772069855436e+00 4.683632457292142135e+02
1.117245794074696263e+00 4.683751850689076264e+02
1.117345816079537535e+00 4.683871148973781828e+02
1.117445838084378584e+00 4.683990352464335842e+02
1.117545860089219412e+00 4.684109461468638642e+02
1.117645882094060683e+00 4.684228476284379781e+02
1.117745904098901732e+00 4.684347397199034049e+02
1.117845926103742782e+00 4.684466224489824526e+02
1.117945948108583831e+00 4.684584958423723720e+02
1.118045970113424881e+00 4.684703599257425708e+02
1.118145992118265930e+00 4.684822147237322270e+02
1.118246014123106979e+00 4.684940602599509134e+02
1.118346036127948029e+00 4.685058965569743918e+02
1.118446058132789078e+00 4.685177236363458633e+02
1.118546080137630350e+00 4.685295415185730121e+02
1.118646102142471177e+00 4.685413502231263578e+02
1.118746124147312226e+00 4.685531497684396527e+02
1.118846146152153498e+00 4.685649401719075513e+02
1.118946168156994325e+00 4.685767214498852695e+02
1.119046190161835597e+00 4.685884936176863675e+02
1.119146212166676646e+00 4.686002566895837731e+02
1.119246234171517695e+00 4.686120106788064277e+02
1.119346256176358745e+00 4.686237555975407645e+02
1.119446278181199794e+00 4.686354914569301400e+02
1.119546300186040844e+00 4.686472182670715938e+02
1.119646322190881893e+00 4.686589360370180657e+02
1.119746344195722942e+00 4.686706447747766333e+02
1.119846366200563992e+00 4.686823444873080575e+02
1.119946388205405263e+00 4.686940351805275213e+02
1.120046410210246091e+00 4.687057168593019583e+02
1.120146432215087362e+00 4.687173895274531787e+02
1.120246454219928411e+00 4.687290531877555964e+02
1.120346476224769239e+00 4.687407078419358868e+02
1.120446498229610510e+00 4.687523534906753184e+02
1.120546520234451560e+00 4.687639901336065691e+02
1.120646542239292387e+00 4.687756177693177619e+02
1.120746564244133658e+00 4.687872363953483728e+02
1.120846586248974708e+00 4.687988460081941753e+02
1.120946608253815757e+00 4.688104466033032622e+02
1.121046630258656807e+00 4.688220381750801380e+02
1.121146652263497856e+00 4.688336207168838996e+02
1.121246674268338905e+00 4.688451942210296011e+02
1.121346696273179955e+00 4.688567586787895607e+02
1.121446718278021004e+00 4.688683140803930200e+02
1.121546740282862054e+00 4.688798604150277924e+02
1.121646762287703325e+00 4.688913976708411155e+02
1.121746784292544152e+00 4.689029258349398788e+02
1.121846806297385424e+00 4.689144448933921581e+02
1.121946828302226473e+00 4.689259548312288644e+02
1.122046850307067523e+00 4.689374556324452215e+02
1.122146872311908572e+00 4.689489472799994019e+02
1.122246894316749621e+00 4.689604297558174153e+02
1.122346916321590671e+00 4.689719030407906644e+02
1.122446938326431720e+00 4.689833671147825953e+02
1.122546960331272770e+00 4.689948219566249463e+02
1.122646982336113819e+00 4.690062675441226929e+02
1.122747004340954868e+00 4.690177038540545027e+02
1.122847026345795918e+00 4.690291308621743838e+02
1.122947048350637189e+00 4.690405485432138448e+02
1.123047070355478239e+00 4.690519568708851352e+02
1.123147092360319066e+00 4.690633558178797102e+02
1.123247114365160337e+00 4.690747453558738016e+02
1.123347136370001387e+00 4.690861254555293272e+02
1.123447158374842214e+00 4.690974960864950276e+02
1.123547180379683486e+00 4.691088572174103888e+02
1.123647202384524535e+00 4.691202088159063806e+02
1.123747224389365584e+00 4.691315508486102885e+02
1.123847246394206634e+00 4.691428832811445773e+02
1.123947268399047683e+00 4.691542060781322334e+02
1.124047290403888733e+00 4.691655192031993806e+02
1.124147312408729782e+00 4.691768226189751658e+02
1.124247334413570831e+00 4.691881162870981257e+02
1.124347356418411881e+00 4.691994001682168687e+02
1.124447378423253152e+00 4.692106742219928606e+02
1.124547400428093979e+00 4.692219384071043464e+02
1.124647422432935251e+00 4.692331926812488518e+02
1.124747444437776300e+00 4.692444370011458545e+02
1.124847466442617350e+00 4.692556713225412750e+02
1.124947488447458399e+00 4.692668956002088407e+02
1.125047510452299449e+00 4.692781097879548611e+02
1.125147532457140498e+00 4.692893138386211263e+02
1.125247554461981547e+00 4.693005077040879200e+02
1.125347576466822597e+00 4.693116913352774873e+02
1.125447598471663646e+00 4.693228646821596612e+02
1.125547620476504695e+00 4.693340276937511248e+02
1.125647642481345745e+00 4.693451803181230275e+02
1.125747664486187016e+00 4.693563225024039411e+02
1.125847686491028066e+00 4.693674541927820769e+02
1.125947708495868893e+00 4.693785753345109129e+02
1.126047730500710164e+00 4.693896858719117517e+02
1.126147752505551214e+00 4.694007857483795760e+02
1.126247774510392041e+00 4.694118749063845826e+02
1.126347796515233313e+00 4.694229532874779807e+02
1.126447818520074362e+00 4.694340208322967101e+02
1.126547840524915411e+00 4.694450774805660558e+02
1.126647862529756461e+00 4.694561231711056166e+02
1.126747884534597510e+00 4.694671578418323179e+02
1.126847906539438560e+00 4.694781814297652431e+02
1.126947928544279609e+00 4.694891938710306363e+02
1.127047950549120658e+00 4.695001951008661081e+02
1.127147972553961708e+00 4.695111850536254678e+02
1.127247994558802979e+00 4.695221636627831003e+02
1.127348016563643807e+00 4.695331308609399343e+02
1.127448038568485078e+00 4.695440865798257164e+02
1.127548060573326127e+00 4.695550307503067415e+02
1.127648082578167177e+00 4.695659633023885817e+02
1.127748104583008226e+00 4.695768841652228502e+02
1.127848126587849276e+00 4.695877932671110671e+02
1.127948148592690325e+00 4.695986905355098315e+02
1.128048170597531374e+00 4.696095758970375300e+02
1.128148192602372424e+00 4.696204492774775190e+02
1.128248214607213473e+00 4.696313106017843211e+02
1.128348236612054523e+00 4.696421597940899915e+02
1.128448258616895572e+00 4.696529967777074717e+02
1.128548280621736843e+00 4.696638214751372971e+02
1.128648302626577893e+00 4.696746338080740202e+02
1.128748324631418720e+00 4.696854336974101329e+02
1.128848346636259992e+00 4.696962210632424330e+02
1.128948368641101041e+00 4.697069958248782768e+02
1.129048390645941868e+00 4.697177579008396151e+02
1.129148412650783140e+00 4.697285072088715765e+02
1.129248434655624189e+00 4.697392436659459918e+02
1.129348456660465239e+00 4.697499671882678740e+02
1.129448478665306288e+00 4.697606776912830924e+02
1.129548500670147337e+00 4.697713750896816123e+02
1.129648522674988387e+00 4.697820592974052829e+02
1.129748544679829436e+00 4.697927302276549995e+02
1.129848566684670486e+00 4.698033877928940569e+02
1.129948588689511535e+00 4.698140319048574156e+02
1.130048610694352584e+00 4.698246624745558506e+02
1.130148632699193634e+00 4.698352794122836258e+02
1.130248654704034905e+00 4.698458826276244622e+02
1.130348676708875955e+00 4.698564720294581889e+02
1.130448698713717004e+00 4.698670475259665409e+02
1.130548720718558053e+00 4.698776090246414014e+02
1.130648742723399103e+00 4.698881564322893496e+02
1.130748764728240152e+00 4.698986896550401866e+02
1.130848786733081202e+00 4.699092085983529046e+02
1.130948808737922251e+00 4.699197131670221097e+02
1.131048830742763300e+00 4.699302032651855257e+02
1.131148852747604350e+00 4.699406787963307579e+02
1.131248874752445399e+00 4.699511396633021150e+02
1.131348896757286671e+00 4.699615857683076001e+02
1.131448918762127498e+00 4.699720170129256189e+02
1.131548940766968547e+00 4.699824332981131647e+02
1.131648962771809819e+00 4.699928345242123555e+02
1.131748984776650868e+00 4.700032205909568006e+02
1.131849006781491696e+00 4.700135913974798427e+02
1.131949028786332967e+00 4.700239468423224025e+02
1.132049050791174016e+00 4.700342868234386060e+02
1.132149072796015066e+00 4.700446112382036290e+02
1.132249094800856115e+00 4.700549199834228489e+02
1.132349116805697165e+00 4.700652129553374152e+02
1.132449138810538214e+00 4.700754900496323785e+02
1.132549160815379263e+00 4.700857511614444775e+02
1.132649182820220313e+00 4.700959961853694722e+02
1.132749204825061362e+00 4.701062250154697040e+02
1.132849226829902411e+00 4.701164375452822242e+02
1.132949248834743461e+00 4.701266336678257289e+02
1.133049270839584732e+00 4.701368132756100522e+02
1.133149292844425782e+00 4.701469762606419636e+02
1.133249314849266831e+00 4.701571225144337518e+02
1.133349336854107881e+00 4.701672519280119218e+02
1.133449358858948930e+00 4.701773643919240726e+02
1.133549380863789979e+00 4.701874597962474809e+02
1.133649402868631029e+00 4.701975380305973431e+02
1.133749424873472078e+00 4.702075989841341084e+02
1.133849446878313127e+00 4.702176425455720050e+02
1.133949468883154177e+00 4.702276686031869417e+02
1.134049490887995226e+00 4.702376770448252614e+02
1.134149512892836498e+00 4.702476677579119837e+02
1.134249534897677325e+00 4.702576406294582512e+02
1.134349556902518374e+00 4.702675955460700266e+02
1.134449578907359646e+00 4.702775323939568466e+02
1.134549600912200695e+00 4.702874510589401780e+02
1.134649622917041523e+00 4.702973514264610344e+02
1.134749644921882794e+00 4.703072333815879347e+02
1.134849666926723843e+00 4.703170968090286692e+02
1.134949688931564893e+00 4.703269415931350181e+02
1.135049710936405942e+00 4.703367676179132673e+02
1.135149732941246992e+00 4.703465747670323935e+02
1.135249754946088041e+00 4.703563629238319663e+02
1.135349776950929090e+00 4.703661319713328339e+02
1.135449798955770140e+00 4.703758817922428648e+02
1.135549820960611189e+00 4.703856122689692825e+02
1.135649842965452239e+00 4.703953232836234406e+02
1.135749864970293288e+00 4.704050147180328736e+02
1.135849886975134559e+00 4.704146864537479473e+02
1.135949908979975609e+00 4.704243383720526595e+02
1.136049930984816658e+00 4.704339703539715742e+02
1.136149952989657708e+00 4.704435822802802818e+02
1.136249974994498757e+00 4.704531740315130151e+02
1.136349996999339806e+00 4.704627454879725974e+02
1.136450019004180856e+00 4.704722965297391966e+02
1.136550041009021905e+00 4.704818270366788511e+02
1.136650063013862955e+00 4.704913368884537022e+02
1.136750085018704004e+00 4.705008259645296675e+02
1.136850107023545053e+00 4.705102941441862185e+02
1.136950129028386325e+00 4.705197413065256455e+02
1.137050151033227152e+00 4.705291673304821529e+02
1.137150173038068202e+00 4.705385720948309540e+02
1.137250195042909473e+00 4.705479554781967977e+02
1.137350217047750522e+00 4.705573173590647116e+02
1.137450239052591350e+00 4.705666576157876761e+02
1.137550261057432621e+00 4.705759761265977659e+02
1.137650283062273671e+00 4.705852727696126294e+02
1.137750305067114720e+00 4.705945474228479952e+02
1.137850327071955769e+00 4.706037999642239811e+02
1.137950349076796819e+00 4.706130302715775997e+02
1.138050371081637868e+00 4.706222382226702621e+02
1.138150393086478918e+00 4.706314236951961334e+02
1.138250415091319967e+00 4.706405865667940702e+02
1.138350437096161016e+00 4.706497267150555217e+02
1.138450459101002066e+00 4.706588440175345340e+02
1.138550481105843115e+00 4.706679383517567317e+02
1.138650503110684387e+00 4.706770095952294923e+02
1.138750525115525214e+00 4.706860576254504167e+02
1.138850547120366485e+00 4.706950823199185265e+02
1.138950569125207535e+00 4.707040835561429049e+02
1.139050591130048584e+00 4.707130612116504267e+02
1.139150613134889634e+00 4.707220151639991741e+02
1.139250635139730683e+00 4.707309452907853142e+02
1.139350657144571732e+00 4.707398514696526490e+02
1.139450679149412782e+00 4.707487335783043818e+02
1.139550701154253831e+00 4.707575914945101658e+02
1.139650723159094881e+00 4.707664250961175298e+02
1.139750745163936152e+00 4.707752342610611436e+02
1.139850767168776979e+00 4.707840188673712873e+02
1.139950789173618029e+00 4.707927787931857324e+02
1.140050811178459300e+00 4.708015139167576990e+02
1.140150833183300128e+00 4.708102241164667703e+02
1.140250855188141177e+00 4.708189092708276462e+02
1.140350877192982448e+00 4.708275692585001480e+02
1.140450899197823498e+00 4.708362039582985403e+02
1.140550921202664547e+00 4.708448132492029572e+02
1.140650943207505597e+00 4.708533970103677575e+02
1.140750965212346646e+00 4.708619551211307339e+02
1.140850987217187695e+00 4.708704874610241973e+02
1.140951009222028745e+00 4.708789939097848674e+02
1.141051031226869794e+00 4.708874743473622857e+02
1.141151053231710844e+00 4.708959286539293885e+02
1.141251075236551893e+00 4.709043567098926815e+02
1.141351097241392942e+00 4.709127583959014487e+02
1.141451119246234214e+00 4.709211335928585527e+02
1.141551141251075041e+00 4.709294821819279377e+02
1.141651163255916313e+00 4.709378040445475904e+02
1.141751185260757362e+00 4.709460990624368151e+02
1.141851207265598411e+00 4.709543671176071484e+02
1.141951229270439461e+00 4.709626080923720224e+02
1.142051251275280510e+00 4.709708218693572803e+02
1.142151273280121559e+00 4.709790083315094762e+02
1.142251295284962609e+00 4.709871673621071295e+02
1.142351317289803658e+00 4.709952988447693656e+02
1.142451339294644708e+00 4.710034026634672273e+02
1.142551361299485979e+00 4.710114787025314627e+02
1.142651383304326806e+00 4.710195268466652578e+02
1.142751405309167856e+00 4.710275469809502624e+02
1.142851427314009127e+00 4.710355389908601751e+02
1.142951449318849955e+00 4.710435027622682469e+02
1.143051471323691004e+00 4.710514381814576836e+02
1.143151493328532275e+00 4.710593451351306271e+02
1.143251515333373325e+00 4.710672235104206038e+02
1.143351537338214374e+00 4.710750731948993462e+02
1.143451559343055424e+00 4.710828940765876496e+02
1.143551581347896473e+00 4.710906860439659454e+02
1.143651603352737522e+00 4.710984489859832252e+02
1.143751625357578572e+00 4.711061827920663063e+02
1.143851647362419621e+00 4.711138873521313712e+02
1.143951669367260671e+00 4.711215625565924938e+02
1.144051691372101720e+00 4.711292082963704502e+02
1.144151713376942769e+00 4.711368244629048263e+02
1.144251735381784041e+00 4.711444109481618625e+02
1.144351757386624868e+00 4.711519676446455378e+02
1.144451779391466140e+00 4.711594944454050733e+02
1.144551801396307189e+00 4.711669912440473809e+02
1.144651823401148238e+00 4.711744579347453055e+02
1.144751845405989288e+00 4.711818944122470612e+02
1.144851867410830337e+00 4.711893005718864060e+02
1.144951889415671387e+00 4.711966763095924193e+02
1.145051911420512436e+00 4.712040215218983121e+02
1.145151933425353485e+00 4.712113361059531371e+02
1.145251955430194535e+00 4.712186199595283256e+02
1.145351977435035806e+00 4.712258729810296245e+02
1.145451999439876634e+00 4.712330950695049978e+02
1.145552021444717683e+00 4.712402861246574730e+02
1.145652043449558954e+00 4.712474460468487791e+02
1.145752065454399782e+00 4.712545747371161724e+02
1.145852087459240831e+00 4.712616720971755626e+02
1.145952109464082103e+00 4.712687380294339050e+02
1.146052131468923152e+00 4.712757724370006827e+02
1.146152153473764201e+00 4.712827752236915444e+02
1.146252175478605251e+00 4.712897462940450168e+02
1.146352197483446300e+00 4.712966855533250623e+02
1.146452219488287350e+00 4.713035929075359718e+02
1.146552241493128399e+00 4.713104682634275377e+02
1.146652263497969448e+00 4.713173115285080144e+02
1.146752285502810498e+00 4.713241226110504272e+02
1.146852307507651547e+00 4.713309014201031459e+02
1.146952329512492597e+00 4.713376478655002870e+02
1.147052351517333868e+00 4.713443618578689325e+02
1.147152373522174695e+00 4.713510433086398166e+02
1.147252395527015967e+00 4.713576921300561935e+02
1.147352417531857016e+00 4.713643082351816247e+02
1.147452439536697844e+00 4.713708915379118594e+02
1.147552461541539115e+00 4.713774419529829629e+02
1.147652483546380164e+00 4.713839593959783087e+02
1.147752505551221214e+00 4.713904437833399470e+02
1.147852527556062263e+00 4.713968950323775289e+02
1.147952549560903313e+00 4.714033130612772311e+02
1.148052571565744362e+00 4.714096977891094866e+02
1.148152593570585411e+00 4.714160491358403533e+02
1.148252615575426461e+00 4.714223670223367435e+02
1.148352637580267510e+00 4.714286513703796686e+02
1.148452659585108782e+00 4.714349021026706055e+02
1.148552681589949609e+00 4.714411191428406482e+02
1.148652703594790658e+00 4.714473024154590348e+02
1.148752725599631930e+00 4.714534518460440040e+02
1.148852747604472757e+00 4.714595673610688209e+02
1.148952769609314029e+00 4.714656488879713834e+02
1.149052791614155078e+00 4.714716963551649656e+02
1.149152813618996127e+00 4.714777096920433905e+02
1.149252835623837177e+00 4.714836888289920012e+02
1.149352857628678226e+00 4.714896336973964708e+02
1.149452879633519276e+00 4.714955442296500223e+02
1.149552901638360325e+00 4.715014203591628075e+02
1.149652923643201374e+00 4.715072620203695237e+02
1.149752945648042424e+00 4.715130691487400441e+02
1.149852967652883695e+00 4.715188416807847034e+02
1.149952989657724522e+00 4.715245795540655536e+02
1.150053011662565794e+00 4.715302827072022751e+02
1.150153033667406843e+00 4.715359510798833753e+02
1.150253055672247671e+00 4.715415846128714747e+02
1.150353077677088942e+00 4.715471832480133685e+02
1.150453099681929992e+00 4.715527469282472453e+02
1.150553121686771041e+00 4.715582755976132034e+02
1.150653143691612090e+00 4.715637692012564912e+02
1.150753165696453140e+00 4.715692276854417742e+02
1.150853187701294189e+00 4.715746509975554090e+02
1.150953209706135238e+00 4.715800390861181768e+02
1.151053231710976288e+00 4.715853919007898298e+02
1.151153253715817337e+00 4.715907093923792672e+02
1.151253275720658609e+00 4.715959915128503326e+02
1.151353297725499436e+00 4.716012382153319891e+02
1.151453319730340485e+00 4.716064494541240038e+02
1.151553341735181757e+00 4.716116251847063268e+02
1.151653363740022584e+00 4.716167653637461967e+02
1.151753385744863856e+00 4.716218699491045072e+02
1.151853407749704905e+00 4.716269388998456975e+02
1.151953429754545954e+00 4.716319721762447443e+02
1.152053451759387004e+00 4.716369697397925052e+02
1.152153473764228053e+00 4.716419315532063479e+02
1.152253495769069103e+00 4.716468575804354941e+02
1.152353517773910152e+00 4.716517477866690342e+02
1.152453539778751201e+00 4.716566021383434304e+02
1.152553561783592251e+00 4.716614206031496792e+02
1.152653583788433522e+00 4.716662031500407011e+02
1.152753605793274350e+00 4.716709497492382184e+02
1.152853627798115621e+00 4.716756603722398040e+02
1.152953649802956670e+00 4.716803349918268395e+02
1.153053671807797498e+00 4.716849735820701426e+02
1.153153693812638769e+00 4.716895761183383797e+02
1.153253715817479819e+00 4.716941425773044898e+02
1.153353737822320868e+00 4.716986729369529598e+02
1.153453759827161917e+00 4.717031671765845999e+02
1.153553781832002967e+00 4.717076252768267182e+02
1.153653803836844016e+00 4.717120472196375545e+02
1.153753825841685066e+00 4.717164329883130449e+02
1.153853847846526115e+00 4.717207825674950072e+02
1.153953869851367164e+00 4.717250959431759725e+02
1.154053891856208436e+00 4.717293731027065178e+02
1.154153913861049263e+00 4.717336140348019740e+02
1.154253935865890313e+00 4.717378187295486214e+02
1.154353957870731584e+00 4.717419871784094312e+02
1.154453979875572411e+00 4.717461193742318528e+02
1.154554001880413683e+00 4.717502153112522478e+02
1.154654023885254732e+00 4.717542749851041322e+02
1.154754045890095782e+00 4.717582983928223257e+02
1.154854067894936831e+00 4.717622855328505125e+02
1.154954089899777880e+00 4.717662364050465271e+02
1.155054111904618930e+00 4.717701510106887213e+02
1.155154133909459979e+00 4.717740293524811932e+02
1.155254155914301029e+00 4.717778714345611775e+02
1.155354177919142078e+00 4.717816772625036492e+02
1.155454199923983127e+00 4.717854468433265538e+02
1.155554221928824177e+00 4.717891801854980258e+02
1.155654243933665448e+00 4.717928772989413346e+02
1.155754265938506498e+00 4.717965381950394317e+02
1.155854287943347325e+00 4.718001628866432497e+02
1.155954309948188596e+00 4.718037513880733513e+02
1.156054331953029646e+00 4.718073037151290805e+02
1.156154353957870473e+00 4.718108198850902681e+02
1.156254375962711745e+00 4.718142999167268954e+02
1.156354397967552794e+00 4.718177438302998326e+02
1.156454419972393843e+00 4.718211516475682856e+02
1.156554441977234893e+00 4.718245233917955943e+02
1.156654463982075942e+00 4.718278590877529268e+02
1.156754485986916992e+00 4.718311587617237706e+02
1.156854507991758041e+00 4.718344224415102417e+02
1.156954529996599090e+00 4.718376501564382011e+02
1.157054552001440140e+00 4.718408419373600964e+02
1.157154574006281411e+00 4.718439978166607034e+02
1.157254596011122239e+00 4.718471178282628102e+02
1.157354618015963510e+00 4.718502020076304007e+02
1.157454640020804559e+00 4.718532503917739973e+02
1.157554662025645609e+00 4.718562630192543565e+02
1.157654684030486658e+00 4.718592399301870728e+02
1.157754706035327708e+00 4.718621811662487175e+02
1.157854728040168757e+00 4.718650867706765553e+02
1.157954750045009806e+00 4.718679567882794572e+02
1.158054772049850856e+00 4.718707912654363099e+02
1.158154794054691905e+00 4.718735902501018131e+02
1.158254816059532954e+00 4.718763537918111979e+02
1.158354838064374004e+00 4.718790819416843760e+02
1.158454860069215275e+00 4.718817747524291804e+02
1.158554882074056325e+00 4.718844322783436382e+02
1.158654904078897152e+00 4.718870545753236456e+02
1.158754926083738424e+00 4.718896417008619437e+02
1.158854948088579473e+00 4.718921937140559635e+02
1.158954970093420300e+00 4.718947106756081666e+02
1.159054992098261572e+00 4.718971926478314458e+02
1.159155014103102621e+00 4.718996396946520235e+02
1.159255036107943670e+00 4.719020518816123513e+02
1.159355058112784720e+00 4.719044292758735537e+02
1.159455080117625769e+00 4.719067719462221930e+02
1.159555102122466819e+00 4.719090799630690753e+02
1.159655124127307868e+00 4.719113533984544802e+02
1.159755146132148917e+00 4.719135923260512868e+02
1.159855168136989967e+00 4.719157968211674188e+02
1.159955190141831238e+00 4.719179669607477194e+02
1.160055212146672066e+00 4.719201028233791249e+02
1.160155234151513337e+00 4.719222044892909480e+02
1.160255256156354386e+00 4.719242720403591420e+02
1.160355278161195436e+00 4.719263055601079486e+02
1.160455300166036485e+00 4.719283051337121719e+02
1.160555322170877535e+00 4.719302708480013280e+02
1.160655344175718584e+00 4.719322027914597584e+02
1.160755366180559633e+00 4.719341010542300978e+02
1.160855388185400683e+00 4.719359657281162299e+02
1.160955410190241732e+00 4.719377969065827756e+02
1.161055432195082782e+00 4.719395946847602090e+02
1.161155454199923831e+00 4.719413591594455397e+02
1.161255476204765102e+00 4.719430904291028810e+02
1.161355498209606152e+00 4.719447885938683953e+02
1.161455520214446979e+00 4.719464537555491574e+02
1.161555542219288251e+00 4.719480860176257693e+02
1.161655564224129300e+00 4.719496854852546903e+02
1.161755586228970127e+00 4.719512522652697726e+02
1.161855608233811399e+00 4.719527864661818057e+02
1.161955630238652448e+00 4.719542881981827236e+02
1.162055652243493498e+00 4.719557575731452630e+02
1.162155674248334547e+00 4.719571947046239302e+02
1.162255696253175596e+00 4.719585997078571609e+02
1.162355718258016646e+00 4.719599726997676044e+02
1.162455740262857695e+00 4.719613137989648521e+02
1.162555762267698745e+00 4.719626231257436757e+02
1.162655784272539794e+00 4.719639008020869255e+02
1.162755806277381065e+00 4.719651469516658153e+02
1.162855828282221893e+00 4.719663616998402631e+02
1.162955850287063164e+00 4.719675451736603122e+02
1.163055872291904214e+00 4.719686975018663588e+02
1.163155894296745263e+00 4.719698188148890949e+02
1.163255916301586312e+00 4.719709092448512138e+02
1.163355938306427362e+00 4.719719689255656476e+02
1.163455960311268411e+00 4.719729979925382395e+02
1.163555982316109461e+00 4.719739965829670609e+02
1.163656004320950510e+00 4.719749648357413321e+02
1.163756026325791559e+00 4.719759028914432974e+02
1.163856048330632609e+00 4.719768108923470891e+02
1.163956070335473658e+00 4.719776889824192949e+02
1.164056092340314930e+00 4.719785373073182200e+02
1.164156114345155757e+00 4.719793560143941704e+02
1.164256136349996806e+00 4.719801452526874073e+02
1.164356158354838078e+00 4.719809051729309317e+02
1.164456180359679127e+00 4.719816359275467903e+02
1.164556202364519955e+00 4.719823376706486897e+02
1.164656224369361226e+00 4.719830105580378472e+02
1.164756246374202275e+00 4.719836547472044117e+02
1.164856268379043325e+00 4.719842703973267248e+02
1.164956290383884374e+00 4.719848576692703546e+02
1.165056312388725424e+00 4.719854167255855373e+02
1.165156334393566473e+00 4.719859477305088262e+02
1.165256356398407522e+00 4.719864508499597378e+02
1.165356378403248572e+00 4.719869262515411492e+02
1.165456400408089621e+00 4.719873741045363431e+02
1.165556422412930671e+00 4.719877945799103145e+02
1.165656444417771720e+00 4.719881878503043140e+02
1.165756466422612991e+00 4.719885540900395426e+02
1.165856488427454041e+00 4.719888934751111265e+02
1.165956510432295090e+00 4.719892061831881165e+02
1.166056532437136140e+00 4.719894923936129771e+02
1.166156554441977189e+00 4.719897522873972093e+02
1.166256576446818238e+00 4.719899860472229420e+02
1.166356598451659288e+00 4.719901938574369069e+02
1.166456620456500337e+00 4.719903759040524847e+02
1.166556642461341387e+00 4.719905323747437365e+02
1.166656664466182436e+00 4.719906634588468251e+02
1.166756686471023485e+00 4.719907693473546146e+02
1.166856708475864757e+00 4.719908502329166708e+02
1.166956730480705584e+00 4.719909063098357365e+02
1.167056752485546633e+00 4.719909377740661967e+02
1.167156774490387905e+00 4.719909448232091336e+02
1.167256796495228954e+00 4.719909276565130654e+02
1.167356818500069782e+00 4.719908864748690007e+02
1.167456840504911053e+00 4.719908214808073126e+02
1.167556862509752102e+00 4.719907328784973402e+02
1.167656884514593152e+00 4.719906208737405677e+02
1.167756906519434201e+00 4.719904856739731827e+02
1.167856928524275251e+00 4.719903274882569804e+02
1.167956950529116300e+00 4.719901465272793644e+02
1.168056972533957349e+00 4.719899430033501631e+02
1.168156994538798399e+00 4.719897171303972527e+02
1.168257016543639448e+00 4.719894691239645113e+02
1.168357038548480498e+00 4.719891992012068727e+02
1.168457060553321547e+00 4.719889075808869734e+02
1.168557082558162818e+00 4.719885944833724238e+02
1.168657104563003868e+00 4.719882601306315451e+02
1.168757126567844917e+00 4.719879047462294466e+02
1.168857148572685967e+00 4.719875285553247863e+02
1.168957170577527016e+00 4.719871317846648822e+02
1.169057192582368065e+00 4.719867146625825853e+02
1.169157214587209115e+00 4.719862774189912216e+02
1.169257236592050164e+00 4.719858202853814646e+02
1.169357258596891214e+00 4.719853434948169024e+02
1.169457280601732263e+00 4.719848472819288645e+02
1.169557302606573312e+00 4.719843318829128975e+02
1.169657324611414584e+00 4.719837975355236495e+02
1.169757346616255411e+00 4.719832444790719137e+02
1.169857368621096461e+00 4.719826729544171258e+02
1.169957390625937732e+00 4.719820832039653169e+02
1.170057412630778781e+00 4.719814754716626908e+02
1.170157434635619609e+00 4.719808500029926677e+02
1.170257456640460880e+00 4.719802070449687790e+02
1.170357478645301930e+00 4.719795468461297787e+02
1.170457500650142979e+00 4.719788696565376540e+02
1.170557522654984028e+00 4.719781757277686438e+02
1.170657544659825078e+00 4.719774653129103967e+02
1.170757566664666127e+00 4.719767386665541835e+02
1.170857588669507177e+00 4.719759960447944991e+02
1.170957610674348226e+00 4.719752377052171255e+02
1.171057632679189275e+00 4.719744639068990182e+02
1.171157654684030325e+00 4.719736749103994953e+02
1.171257676688871374e+00 4.719728709777563722e+02
1.171357698693712646e+00 4.719720523724782879e+02
1.171457720698553695e+00 4.719712193595422036e+02
1.171557742703394744e+00 4.719703722053838533e+02
1.171657764708235794e+00 4.719695111778935370e+02
1.171757786713076843e+00 4.719686365464101527e+02
1.171857808717917893e+00 4.719677485817154547e+02
1.171957830722758942e+00 4.719668475560268348e+02
1.172057852727599991e+00 4.719659337429908419e+02
1.172157874732441041e+00 4.719650074176795442e+02
1.172257896737282090e+00 4.719640688565802975e+02
1.172357918742123140e+00 4.719631183375919363e+02
1.172457940746964411e+00 4.719621561400179530e+02
1.172557962751805238e+00 4.719611825445588238e+02
1.172657984756646288e+00 4.719601978333064380e+02
1.172758006761487559e+00 4.719592022897361403e+02
1.172858028766328387e+00 4.719581961987015006e+02
1.172958050771169436e+00 4.719571798464269818e+02
1.173058072776010707e+00 4.719561535204993561e+02
1.173158094780851757e+00 4.719551175098626459e+02
1.173258116785692806e+00 4.719540721048101659e+02
1.173358138790533856e+00 4.719530175969787820e+02
1.173458160795374905e+00 4.719519542793377695e+02
1.173558182800215954e+00 4.719508824461872791e+02
1.173658204805057004e+00 4.719498023931456601e+02
1.173758226809898053e+00 4.719487144171451973e+02
1.173858248814739103e+00 4.719476188164237556e+02
1.173958270819580152e+00 4.719465158905167073e+02
1.174058292824421201e+00 4.719454059402502821e+02
1.174158314829262473e+00 4.719442892677323584e+02
1.174258336834103300e+00 4.719431661763471197e+02
1.174358358838944572e+00 4.719420369707444252e+02
1.174458380843785621e+00 4.719409019568334429e+02
1.174558402848626670e+00 4.719397614417755449e+02
1.174658424853467720e+00 4.719386157339736201e+02
1.174758446858308769e+00 4.719374651430667882e+02
1.174858468863149819e+00 4.719363099799199972e+02
1.174958490867990868e+00 4.719351505566173728e+02
1.175058512872831917e+00 4.719339871864540328e+02
1.175158534877672967e+00 4.719328201839250596e+02
1.175258556882514238e+00 4.719316498647211233e+02
1.175358578887355065e+00 4.719304765457166013e+02
1.175458600892196115e+00 4.719293005449624161e+02
1.175558622897037386e+00 4.719281221816783614e+02
1.175658644901878214e+00 4.719269417762420744e+02
1.175758666906719263e+00 4.719257596501823286e+02
1.175858688911560535e+00 4.719245761261691996e+02
1.175958710916401584e+00 4.719233915280051974e+02
1.176058732921242633e+00 4.719222061806182182e+02
1.176158754926083683e+00 4.719210204100488681e+02
1.176258776930924732e+00 4.719198345434447788e+02
1.176358798935765781e+00 4.719186489090498071e+02
1.176458820940606831e+00 4.719174638361957932e+02
1.176558842945447880e+00 4.719162796552910208e+02
1.176658864950288930e+00 4.719150966978156134e+02
1.176758886955129979e+00 4.719139152963065840e+02
1.176858908959971028e+00 4.719127357843522077e+02
1.176958930964812300e+00 4.719115584965817334e+02
1.177058952969653127e+00 4.719103837686552083e+02
1.177158974974494399e+00 4.719092119372535876e+02
1.177258996979335448e+00 4.719080433400705488e+02
1.177359018984176497e+00 4.719068783158021461e+02
1.177459040989017547e+00 4.719057172041357830e+02
1.177559062993858596e+00 4.719045603457424249e+02
1.177659084998699646e+00 4.719034080822646615e+02
1.177759107003540695e+00 4.719022607563093743e+02
1.177859129008381744e+00 4.719011187114343784e+02
1.177959151013222794e+00 4.718999822921418854e+02
1.178059173018064065e+00 4.718988518438659412e+02
1.178159195022904893e+00 4.718977277129624781e+02
1.178259217027745942e+00 4.718966102467004475e+02
1.178359239032587213e+00 4.718954997932501101e+02
1.178459261037428041e+00 4.718943967016745660e+02
1.178559283042269090e+00 4.718933013219162831e+02
1.178659305047110362e+00 4.718922140047909579e+02
1.178759327051951411e+00 4.718911351019717699e+02
1.178859349056792460e+00 4.718900649659838678e+02
1.178959371061633510e+00 4.718890039501909541e+02
1.179059393066474559e+00 4.718879524087847699e+02
1.179159415071315609e+00 4.718869106967755442e+02
1.179259437076156658e+00 4.718858791699803987e+02
1.179359459080997707e+00 4.718848581850126038e+02
1.179459481085838757e+00 4.718838480992707218e+02
1.179559503090679806e+00 4.718828492709296256e+02
1.179659525095520856e+00 4.718818620589250372e+02
1.179759547100362127e+00 4.718808868229472182e+02
1.179859569105202954e+00 4.718799239234273273e+02
1.179959591110044226e+00 4.718789737215270179e+02
1.180059613114885275e+00 4.718780365791280360e+02
1.180159635119726325e+00 4.718771128588192028e+02
1.180259657124567374e+00 4.718762029238874902e+02
1.180359679129408423e+00 4.718753071383042652e+02
1.180459701134249473e+00 4.718744258667157965e+02
1.180559723139090522e+00 4.718735594744319997e+02
1.180659745143931572e+00 4.718727083274130791e+02
1.180759767148772621e+00 4.718718727922600351e+02
1.180859789153613892e+00 4.718710532362023855e+02
1.180959811158454720e+00 4.718702500270866267e+02
1.181059833163295769e+00 4.718694635333646943e+02
1.181159855168137041e+00 4.718686941240819692e+02
1.181259877172977868e+00 4.718679421688666480e+02
1.181359899177818917e+00 4.718672080379166687e+02
1.181459921182660189e+00 4.718664921019889675e+02
1.181559943187501016e+00 4.718657947323866324e+02
1.181659965192342288e+00 4.718651163009489551e+02
1.181759987197183337e+00 4.718644571800368226e+02
1.181860009202024386e+00 4.718638177425236222e+02
1.181960031206865436e+00 4.718631983617810306e+02
1.182060053211706485e+00 4.718625994116680999e+02
1.182160075216547535e+00 4.718620212665186955e+02
1.182260097221388584e+00 4.718614643011304679e+02
1.182360119226229633e+00 4.718609288907512109e+02
1.182460141231070683e+00 4.718604154110680042e+02
1.182560163235911954e+00 4.718599242381936847e+02
1.182660185240752782e+00 4.718594557486565577e+02
1.182760207245594053e+00 4.718590103193864707e+02
1.182860229250435102e+00 4.718585883277021367e+02
1.182960251255275930e+00 4.718581901513006756e+02
1.183060273260117201e+00 4.718578161682440850e+02
1.183160295264958251e+00 4.718574667569464509e+02
1.183260317269799300e+00 4.718571422961621238e+02
1.183360339274640349e+00 4.718568431649742934e+02
1.183460361279481399e+00 4.718565697427783903e+02
1.183560383284322448e+00 4.718563224092760038e+02
1.183660405289163497e+00 4.718561015444565783e+02
1.183760427294004547e+00 4.718559075285870676e+02
1.183860449298845596e+00 4.718557407422003394e+02
1.183960471303686868e+00 4.718556015660798266e+02
1.184060493308527695e+00 4.718554903812498651e+02
1.184160515313368744e+00 4.718554075689605156e+02
1.184260537318210016e+00 4.718553535106755135e+02
1.184360559323050843e+00 4.718553285880609565e+02
1.184460581327892115e+00 4.718553331829701847e+02
1.184560603332733164e+00 4.718553676774321275e+02
1.184660625337574213e+00 4.718554324536389117e+02
1.184760647342415263e+00 4.718555278939312529e+02
1.184860669347256312e+00 4.718556543807881098e+02
1.184960691352097362e+00 4.718558122968108819e+02
1.185060713356938411e+00 4.718560020247125522e+02
1.185160735361779460e+00 4.718562239473038744e+02
1.185260757366620510e+00 4.718564784474801286e+02
1.185360779371461781e+00 4.718567659082092973e+02
1.185460801376302609e+00 4.718570867125159793e+02
1.185560823381143880e+00 4.718574412434733745e+02
1.185660845385984929e+00 4.718578298841840706e+02
1.185760867390825757e+00 4.718582530177723697e+02
1.185860889395667028e+00 4.718587110273674625e+02
1.185960911400508078e+00 4.718592042960924573e+02
1.186060933405349127e+00 4.718597332070494303e+02
1.186160955410190176e+00 4.718602981433069772e+02
1.186260977415031226e+00 4.718608994878882754e+02
1.186360999419872275e+00 4.718615376237547707e+02
1.186461021424713325e+00 4.718622129337963429e+02
1.186561043429554374e+00 4.718629258008164697e+02
1.186661065434395423e+00 4.718636766075165951e+02
1.186761087439236695e+00 4.718644657364884551e+02
1.186861109444077522e+00 4.718652935701940123e+02
1.186961131448918572e+00 4.718661604909569292e+02
1.187061153453759843e+00 4.718670668809481299e+02
1.187161175458600670e+00 4.718680131221714760e+02
1.187261197463441942e+00 4.718689995964507489e+02
1.187361219468282991e+00 4.718700266854158372e+02
1.187461241473124041e+00 4.718710947704911405e+02
1.187561263477965090e+00 4.718722042328793691e+02
1.187661285482806139e+00 4.718733554535505164e+02
1.187761307487647189e+00 4.718745488132265109e+02
1.187861329492488238e+00 4.718757846923695070e+02
1.187961351497329288e+00 4.718770634711664798e+02
1.188061373502170337e+00 4.718783855295180842e+02
1.188161395507011608e+00 4.718797512470225684e+02
1.188261417511852436e+00 4.718811610029633812e+02
1.188361439516693707e+00 4.718826151762978043e+02
1.188461461521534757e+00 4.718841141456381365e+02
1.188561483526375584e+00 4.718856582892442475e+02
1.188661505531216855e+00 4.718872479850062405e+02
1.188761527536057905e+00 4.718888836104310940e+02
1.188861549540898954e+00 4.718905655426309522e+02
1.188961571545740004e+00 4.718922941583074362e+02
1.189061593550581053e+00 4.718940698337398771e+02
1.189161615555422102e+00 4.718958929447708215e+02
1.189261637560263152e+00 4.718977638667924452e+02
1.189361659565104201e+00 4.718996829747330253e+02
1.189461681569945251e+00 4.719016506430434674e+02
1.189561703574786522e+00 4.719036672456841188e+02
1.189661725579627349e+00 4.719057331561106139e+02
1.189761747584468399e+00 4.719078487472599477e+02
1.189861769589309670e+00 4.719100143915382546e+02
1.189961791594150498e+00 4.719122304608052900e+02
1.190061813598991769e+00 4.719144973263634029e+02
1.190161835603832818e+00 4.719168153589409940e+02
1.190261857608673868e+00 4.719191849286816023e+02
1.190361879613514917e+00 4.719216064051275339e+02
1.190461901618355967e+00 4.719240801572103692e+02
1.190561923623197016e+00 4.719266065532324319e+02
1.190661945628038065e+00 4.719291859608566710e+02
1.190761967632879115e+00 4.719318187470926205e+02
1.190861989637720164e+00 4.719345052782819607e+02
1.190962011642561214e+00 4.719372459200848766e+02
1.191062033647402263e+00 4.719400410374679495e+02
1.191162055652243534e+00 4.719428909946883550e+02
1.191262077657084584e+00 4.719457961552823235e+02
1.191362099661925411e+00 4.719487568820513843e+02
1.191462121666766683e+00 4.719517735370475293e+02
1.191562143671607732e+00 4.719548464815609350e+02
1.191662165676448559e+00 4.719579760761058651e+02
1.191762187681289831e+00 4.719611626804075399e+02
1.191862209686130880e+00 4.719644066533881528e+02
1.191962231690971930e+00 4.719677083531545350e+02
1.192062253695812979e+00 4.719710681369832059e+02
1.192162275700654028e+00 4.719744863613076973e+02
1.192262297705495078e+00 4.719779633817043987e+02
1.192362319710336127e+00 4.719814995528820418e+02
1.192462341715177176e+00 4.719850952286632833e+02
1.192562363720018226e+00 4.719887507619754388e+02
1.192662385724859497e+00 4.719924665048357610e+02
1.192762407729700325e+00 4.719962428083376267e+02
1.192862429734541596e+00 4.720000800226380875e+02
1.192962451739382645e+00 4.720039784969431480e+02
1.193062473744223695e+00 4.720079385794964537e+02
1.193162495749064744e+00 4.720119606175639433e+02
1.193262517753905794e+00 4.720160449574220820e+02
1.193362539758746843e+00 4.720201919443436509e+02
1.193462561763587892e+00 4.720244019225853549e+02
1.193562583768428942e+00 4.720286752353740098e+02
1.193662605773269991e+00 4.720330122248927864e+02
1.193762627778111041e+00 4.720374132322697278e+02
1.193862649782952090e+00 4.720418785975617766e+02
1.193962671787793361e+00 4.720464086597461346e+02
1.194062693792634411e+00 4.720510037567025847e+02
1.194162715797475238e+00 4.720556642252021220e+02
1.194262737802316510e+00 4.720603904008944482e+02
1.194362759807157559e+00 4.720651826182946138e+02
1.194462781811998386e+00 4.720700412107694319e+02
1.194562803816839658e+00 4.720749665105254280e+02
1.194662825821680707e+00 4.720799588485950267e+02
1.194762847826521757e+00 4.720850185548234208e+02
1.194862869831362806e+00 4.720901459578569757e+02
1.194962891836203855e+00 4.720953413851288474e+02
1.195062913841044905e+00 4.721006051628468185e+02
1.195162935845885954e+00 4.721059376159809062e+02
1.195262957850727004e+00 4.721113390682490945e+02
1.195362979855568053e+00 4.721168098421064769e+02
1.195463001860409324e+00 4.721223502587308758e+02
1.195563023865250152e+00 4.721279606380108476e+02
1.195663045870091423e+00 4.721336412985327797e+02
1.195763067874932473e+00 4.721393925575686126e+02
1.195863089879773522e+00 4.721452147310630494e+02
1.195963111884614571e+00 4.721511081336202551e+02
1.196063133889455621e+00 4.721570730784924308e+02
1.196163155894296670e+00 4.721631098775661712e+02
1.196263177899137720e+00 4.721692188413506415e+02
1.196363199903978769e+00 4.721754002789652986e+02
1.196463221908819818e+00 4.721816544981269885e+02
1.196563243913660868e+00 4.721879818051377811e+02
1.196663265918501917e+00 4.721943825048722374e+02
1.196763287923343189e+00 4.722008569007653023e+02
1.196863309928184238e+00 4.722074052948005942e+02
1.196963331933025065e+00 4.722140279874962516e+02
1.197063353937866337e+00 4.722207252778968041e+02
1.197163375942707386e+00 4.722274974635555509e+02
1.197263397947548214e+00 4.722343448405262052e+02
1.197363419952389485e+00 4.722412677033499904e+02
1.197463441957230534e+00 4.722482663450433051e+02
1.197563463962071584e+00 4.722553410570852179e+02
1.197663485966912633e+00 4.722624921294060414e+02
1.197763507971753683e+00 4.722697198503763047e+02
1.197863529976594732e+00 4.722770245067923724e+02
1.197963551981435781e+00 4.722844063838674629e+02
1.198063573986276831e+00 4.722918657652181764e+02
1.198163595991117880e+00 4.722994029328524448e+02
1.198263617995959152e+00 4.723070181671584464e+02
1.198363640000799979e+00 4.723147117468943748e+02
1.198463662005641250e+00 4.723224839491732610e+02
1.198563684010482300e+00 4.723303350494541064e+02
1.198663706015323349e+00 4.723382653215303435e+02
1.198763728020164399e+00 4.723462750375170458e+02
1.198863750025005448e+00 4.723543644678400142e+02
1.198963772029846497e+00 4.723625338812246355e+02
1.199063794034687547e+00 4.723707835446841159e+02
1.199163816039528596e+00 4.723791137235085102e+02
1.199263838044369646e+00 4.723875246812539217e+02
1.199363860049210695e+00 4.723960166797288593e+02
1.199463882054051744e+00 4.724045899789862233e+02
1.199563904058893016e+00 4.724132448373111401e+02
1.199663926063733843e+00 4.724219815112088554e+02
1.199763948068574893e+00 4.724308002553943879e+02
1.199863970073416164e+00 4.724397013227817865e+02
1.199963992078257213e+00 4.724486849644734434e+02
1.200064014083098041e+00 4.724577514297487824e+02
1.200164036087939312e+00 4.724669009660528332e+02
1.200264058092780362e+00 4.724761338189864546e+02
1.200364080097621411e+00 4.724854502322957046e+02
1.200464102102462460e+00 4.724948504478600739e+02
1.200564124107303510e+00 4.725043347056838456e+02
1.200664146112144559e+00 4.725139032438826234e+02
1.200764168116985608e+00 4.725235562986761693e+02
1.200864190121826658e+00 4.725332941043751589e+02
1.200964212126667707e+00 4.725431168933727122e+02
1.201064234131508757e+00 4.725530248961326265e+02
1.201164256136349806e+00 4.725630183411807934e+02
1.201264278141191078e+00 4.725730974550934889e+02
1.201364300146032127e+00 4.725832624624877099e+02
1.201464322150873176e+00 4.725935135860111700e+02
1.201564344155714226e+00 4.726038510463325792e+02
1.201664366160555275e+00 4.726142750621307300e+02
1.201764388165396324e+00 4.726247858500855159e+02
1.201864410170237374e+00 4.726353836248681546e+02
1.201964432175078423e+00 4.726460685991307287e+02
1.202064454179919473e+00 4.726568409834959539e+02
1.202164476184760522e+00 4.726677009865492209e+02
1.202264498189601571e+00 4.726786488148280796e+02
1.202364520194442843e+00 4.726896846728113246e+02
1.202464542199283670e+00 4.727008087629129136e+02
1.202564564204124720e+00 4.727120212854688361e+02
1.202664586208965991e+00 4.727233224387298947e+02
1.202764608213807040e+00 4.727347124188515863e+02
1.202864630218647868e+00 4.727461914198856903e+02
1.202964652223489139e+00 4.727577596337700925e+02
1.203064674228330189e+00 4.727694172503208847e+02
1.203164696233171238e+00 4.727811644572217915e+02
1.203264718238012287e+00 4.727930014400161554e+02
1.203364740242853337e+00 4.728049283820984101e+02
1.203464762247694386e+00 4.728169454647038492e+02
1.203564784252535436e+00 4.728290528669021455e+02
1.203664806257376485e+00 4.728412507655854142e+02
1.203764828262217534e+00 4.728535393354626422e+02
1.203864850267058584e+00 4.728659187490492855e+02
1.203964872271899633e+00 4.728783891766593683e+02
1.204064894276740905e+00 4.728909507863975819e+02
1.204164916281581954e+00 4.729036037441497342e+02
1.204264938286423003e+00 4.729163482135743948e+02
1.204364960291264053e+00 4.729291843560971529e+02
1.204464982296105102e+00 4.729421123308985102e+02
1.204565004300946152e+00 4.729551322949099585e+02
1.204665026305787201e+00 4.729682444028024975e+02
1.204765048310628250e+00 4.729814488069800973e+02
1.204865070315469300e+00 4.729947456575725937e+02
1.204965092320310349e+00 4.730081351024271044e+02
1.205065114325151399e+00 4.730216172870988203e+02
1.205165136329992670e+00 4.730351923548473678e+02
1.205265158334833497e+00 4.730488604466245306e+02
1.205365180339674547e+00 4.730626217010689629e+02
1.205465202344515818e+00 4.730764762545000508e+02
1.205565224349356868e+00 4.730904242409087601e+02
1.205665246354197695e+00 4.731044657919500196e+02
1.205765268359038966e+00 4.731186010369363544e+02
1.205865290363880016e+00 4.731328301028310079e+02
1.205965312368721065e+00 4.731471531142404388e+02
1.206065334373562115e+00 4.731615701934073854e+02
1.206165356378403164e+00 4.731760814602038181e+02
1.206265378383244213e+00 4.731906870321240604e+02
1.206365400388085263e+00 4.732053870242781386e+02
1.206465422392926312e+00 4.732201815493857566e+02
1.206565444397767362e+00 4.732350707177685081e+02
1.206665466402608411e+00 4.732500546373436237e+02
1.206765488407449460e+00 4.732651334136185142e+02
1.206865510412290732e+00 4.732803071496828693e+02
1.206965532417131781e+00 4.732955759462033711e+02
1.207065554421972831e+00 4.733109399014178393e+02
1.207165576426813880e+00 4.733263991111277846e+02
1.207265598431654929e+00 4.733419536686933498e+02
1.207365620436495979e+00 4.733576036650264314e+02
1.207465642441337028e+00 4.733733491885861895e+02
1.207565664446178078e+00 4.733891903253718283e+02
1.207665686451019127e+00 4.734051271589170256e+02
1.207765708455860176e+00 4.734211597702865220e+02
1.207865730460701226e+00 4.734372882380653209e+02
1.207965752465542497e+00 4.734535126383602801e+02
1.208065774470383325e+00 4.734698330447876060e+02
1.208165796475224374e+00 4.734862495284723991e+02
1.208265818480065645e+00 4.735027621580424011e+02
1.208365840484906473e+00 4.735193709996211169e+02
1.208465862489747522e+00 4.735360761168235513e+02
1.208565884494588794e+00 4.735528775707524574e+02
1.208665906499429843e+00 4.735697754199918563e+02
1.208765928504270892e+00 4.735867697206024900e+02
1.208865950509111942e+00 4.736038605261180692e+02
1.208965972513952991e+00 4.736210478875385661e+02
1.209065994518794041e+00 4.736383318533285660e+02
1.209166016523635090e+00 4.736557124694089680e+02
1.209266038528476139e+00 4.736731897791558481e+02
1.209366060533317189e+00 4.736907638233952298e+02
1.209466082538158238e+00 4.737084346403970585e+02
1.209566104542999287e+00 4.737262022658741216e+02
1.209666126547840559e+00 4.737440667329743746e+02
1.209766148552681386e+00 4.737620280722801454e+02
1.209866170557522658e+00 4.737800863118025632e+02
1.209966192562363707e+00 4.737982414769779780e+02
1.210066214567204756e+00 4.738164935906631854e+02
1.210166236572045806e+00 4.738348426731348013e+02
1.210266258576886855e+00 4.738532887420819861e+02
1.210366280581727905e+00 4.738718318126053077e+02
1.210466302586568954e+00 4.738904718972129331e+02
1.210566324591410003e+00 4.739092090058160238e+02
1.210666346596251053e+00 4.739280431457282248e+02
1.210766368601092324e+00 4.739469743216583879e+02
1.210866390605933152e+00 4.739660025357114250e+02
1.210966412610774201e+00 4.739851277873843856e+02
1.211066434615615472e+00 4.740043500735612270e+02
1.211166456620456300e+00 4.740236693885131558e+02
1.211266478625297349e+00 4.740430857238940234e+02
1.211366500630138621e+00 4.740625990687378248e+02
1.211466522634979670e+00 4.740822094094570502e+02
1.211566544639820719e+00 4.741019167298397861e+02
1.211666566644661769e+00 4.741217210110467022e+02
1.211766588649502818e+00 4.741416222316091194e+02
1.211866610654343868e+00 4.741616203674290659e+02
1.211966632659184917e+00 4.741817153917720589e+02
1.212066654664025966e+00 4.742019072752706279e+02
1.212166676668867016e+00 4.742221959859188019e+02
1.212266698673708065e+00 4.742425814890715969e+02
1.212366720678549115e+00 4.742630637474431410e+02
1.212466742683390386e+00 4.742836427211051387e+02
1.212566764688231213e+00 4.743043183674852799e+02
1.212666786693072485e+00 4.743250906413646817e+02
1.212766808697913534e+00 4.743459594948787981e+02
1.212866830702754584e+00 4.743669248775135543e+02
1.212966852707595633e+00 4.743879867361065408e+02
1.213066874712436682e+00 4.744091450148432614e+02
1.213166896717277732e+00 4.744303996552588387e+02
1.213266918722118781e+00 4.744517505962350583e+02
1.213366940726959831e+00 4.744731977740008801e+02
1.213466962731800880e+00 4.744947411221300513e+02
1.213566984736642151e+00 4.745163805715423564e+02
1.213667006741482979e+00 4.745381160505016851e+02
1.213767028746324028e+00 4.745599474846160888e+02
1.213867050751165300e+00 4.745818747968374964e+02
1.213967072756006127e+00 4.746038979074612598e+02
1.214067094760847176e+00 4.746260167341248462e+02
1.214167116765688448e+00 4.746482311918100550e+02
1.214267138770529497e+00 4.746705411928403464e+02
1.214367160775370547e+00 4.746929466468841383e+02
1.214467182780211596e+00 4.747154474609509975e+02
1.214567204785052645e+00 4.747380435393948801e+02
1.214667226789893695e+00 4.747607347839136196e+02
1.214767248794734744e+00 4.747835210935492114e+02
1.214867270799575794e+00 4.748064023646872442e+02
1.214967292804416843e+00 4.748293784910605382e+02
1.215067314809257892e+00 4.748524493637462456e+02
1.215167336814098942e+00 4.748756148711691480e+02
1.215267358818940213e+00 4.748988748991010880e+02
1.215367380823781041e+00 4.749222293306630718e+02
1.215467402828622312e+00 4.749456780463253267e+02
1.215567424833463361e+00 4.749692209239094041e+02
1.215667446838304411e+00 4.749928578385884066e+02
1.215767468843145460e+00 4.750165886628884664e+02
1.215867490847986510e+00 4.750404132666921555e+02
1.215967512852827559e+00 4.750643315172364396e+02
1.216067534857668608e+00 4.750883432791176233e+02
1.216167556862509658e+00 4.751124484142906681e+02
1.216267578867350707e+00 4.751366467820722619e+02
1.216367600872191757e+00 4.751609382391425243e+02
1.216467622877032806e+00 4.751853226395469392e+02
1.216567644881873855e+00 4.752097998346976055e+02
1.216667666886715127e+00 4.752343696733769889e+02
1.216767688891555954e+00 4.752590320017391150e+02
1.216867710896397003e+00 4.752837866633107069e+02
1.216967732901238275e+00 4.753086334989969259e+02
1.217067754906079102e+00 4.753335723470802350e+02
1.217167776910920374e+00 4.753586030432260259e+02
1.217267798915761423e+00 4.753837254204833016e+02
1.217367820920602473e+00 4.754089393092872911e+02
1.217467842925443522e+00 4.754342445374647923e+02
1.217567864930284571e+00 4.754596409302344000e+02
1.217667886935125621e+00 4.754851283102113939e+02
1.217767908939966670e+00 4.755107064974089894e+02
1.217867930944807719e+00 4.755363753092433399e+02
1.217967952949648769e+00 4.755621345605372881e+02
1.218067974954490040e+00 4.755879840635208780e+02
1.218167996959330868e+00 4.756139236278384601e+02
1.218268018964172139e+00 4.756399530605493737e+02
1.218368040969013189e+00 4.756660721661328353e+02
1.218468062973854016e+00 4.756922807464932816e+02
1.218568084978695287e+00 4.757185786009603703e+02
1.218668106983536337e+00 4.757449655262965962e+02
1.218768128988377386e+00 4.757714413167003613e+02
1.218868150993218435e+00 4.757980057638082485e+02
1.218968172998059485e+00 4.758246586567023542e+02
1.219068195002900534e+00 4.758513997819115957e+02
1.219168217007741584e+00 4.758782289234183054e+02
1.219268239012582633e+00 4.759051458626615840e+02
1.219368261017423682e+00 4.759321503785424738e+02
1.219468283022264954e+00 4.759592422474281648e+02
1.219568305027105781e+00 4.759864212431565420e+02
1.219668327031946831e+00 4.760136871370421545e+02
1.219768349036788102e+00 4.760410396978799668e+02
1.219868371041628929e+00 4.760684786919511566e+02
1.219968393046470201e+00 4.760960038830276631e+02
1.220068415051311250e+00 4.761236150323776428e+02
1.220168437056152300e+00 4.761513118987705866e+02
1.220268459060993349e+00 4.761790942384833443e+02
1.220368481065834398e+00 4.762069618053050135e+02
1.220468503070675448e+00 4.762349143505418851e+02
1.220568525075516497e+00 4.762629516230242643e+02
1.220668547080357547e+00 4.762910733691123255e+02
1.220768569085198596e+00 4.763192793326996934e+02
1.220868591090039867e+00 4.763475692552225951e+02
1.220968613094880695e+00 4.763759428756628154e+02
1.221068635099721966e+00 4.764043999305566217e+02
1.221168657104563016e+00 4.764329401539976061e+02
1.221268679109403843e+00 4.764615632776466896e+02
1.221368701114245114e+00 4.764902690307339981e+02
1.221468723119086164e+00 4.765190571400709132e+02
1.221568745123927213e+00 4.765479273300504133e+02
1.221668767128768263e+00 4.765768793226592379e+02
1.221768789133609312e+00 4.766059128374796501e+02
1.221868811138450361e+00 4.766350275917004069e+02
1.221968833143291411e+00 4.766642233001202271e+02
1.222068855148132460e+00 4.766934996751577955e+02
1.222168877152973510e+00 4.767228564268556283e+02
1.222268899157814781e+00 4.767522932628893955e+02
1.222368921162655608e+00 4.767818098885742302e+02
1.222468943167496658e+00 4.768114060068724598e+02
1.222568965172337929e+00 4.768410813183998016e+02
1.222668987177178757e+00 4.768708355214351968e+02
1.222769009182020028e+00 4.769006683119245054e+02
1.222869031186861077e+00 4.769305793834923293e+02
1.222969053191702127e+00 4.769605684274458781e+02
1.223069075196543176e+00 4.769906351327865082e+02
1.223169097201384226e+00 4.770207791862133035e+02
1.223269119206225275e+00 4.770510002721346154e+02
1.223369141211066324e+00 4.770812980726744286e+02
1.223469163215907374e+00 4.771116722676805466e+02
1.223569185220748423e+00 4.771421225347328345e+02
1.223669207225589695e+00 4.771726485491509493e+02
1.223769229230430522e+00 4.772032499840041169e+02
1.223869251235271793e+00 4.772339265101182946e+02
1.223969273240112843e+00 4.772646777960844702e+02
1.224069295244953670e+00 4.772955035082680979e+02
1.224169317249794942e+00 4.773264033108165449e+02
1.224269339254635991e+00 4.773573768656696643e+02
1.224369361259477040e+00 4.773884238325669003e+02
1.224469383264318090e+00 4.774195438690570654e+02
1.224569405269159139e+00 4.774507366305060714e+02
1.224669427274000189e+00 4.774820017701071038e+02
1.224769449278841238e+00 4.775133389388902287e+02
1.224869471283682287e+00 4.775447477857303511e+02
1.224969493288523337e+00 4.775762279573562523e+02
1.225069515293364386e+00 4.776077790983614477e+02
1.225169537298205436e+00 4.776394008512119171e+02
1.225269559303046485e+00 4.776710928562573031e+02
1.225369581307887756e+00 4.777028547517381867e+02
1.225469603312728584e+00 4.777346861737985364e+02
1.225569625317569855e+00 4.777665867564924724e+02
1.225669647322410905e+00 4.777985561317960332e+02
1.225769669327251954e+00 4.778305939296175211e+02
1.225869691332093003e+00 4.778626997778047212e+02
1.225969713336934053e+00 4.778948733021575208e+02
1.226069735341775102e+00 4.779271141264367770e+02
1.226169757346616151e+00 4.779594218723746621e+02
1.226269779351457201e+00 4.779917961596854639e+02
1.226369801356298250e+00 4.780242366060741119e+02
1.226469823361139300e+00 4.780567428272488542e+02
1.226569845365980349e+00 4.780893144369304082e+02
1.226669867370821621e+00 4.781219510468619660e+02
1.226769889375662670e+00 4.781546522668212447e+02
1.226869911380503497e+00 4.781874177046303771e+02
1.226969933385344769e+00 4.782202469661652913e+02
1.227069955390185818e+00 4.782531396553692389e+02
1.227169977395026645e+00 4.782860953742618904e+02
1.227269999399867917e+00 4.783191137229494529e+02
1.227370021404708966e+00 4.783521942996377447e+02
1.227470043409550016e+00 4.783853367006424833e+02
1.227570065414391065e+00 4.784185405203998585e+02
1.227670087419232114e+00 4.784518053514773328e+02
1.227770109424073164e+00 4.784851307845858628e+02
1.227870131428914213e+00 4.785185164085919496e+02
1.227970153433755263e+00 4.785519618105269046e+02
1.228070175438596312e+00 4.785854665756002078e+02
1.228170197443437583e+00 4.786190302872091706e+02
1.228270219448278411e+00 4.786526525269529202e+02
1.228370241453119682e+00 4.786863328746426305e+02
1.228470263457960732e+00 4.787200709083116976e+02
1.228570285462801781e+00 4.787538662042302349e+02
1.228670307467642830e+00 4.787877183369167824e+02
1.228770329472483880e+00 4.788216268791472885e+02
1.228870351477324929e+00 4.788555914019709689e+02
1.228970373482165979e+00 4.788896114747188335e+02
1.229070395487007028e+00 4.789236866650180673e+02
1.229170417491848077e+00 4.789578165388032858e+02
1.229270439496689127e+00 4.789920006603287561e+02
1.229370461501530176e+00 4.790262385921821533e+02
1.229470483506371448e+00 4.790605298952929161e+02
1.229570505511212497e+00 4.790948741289493000e+02
1.229670527516053324e+00 4.791292708508081546e+02
1.229770549520894596e+00 4.791637196169083381e+02
1.229870571525735645e+00 4.791982199816826551e+02
1.229970593530576473e+00 4.792327714979711573e+02
1.230070615535417744e+00 4.792673737170329673e+02
1.230170637540258793e+00 4.793020261885599211e+02
1.230270659545099843e+00 4.793367284606893577e+02
1.230370681549940892e+00 4.793714800800156581e+02
1.230470703554781942e+00 4.794062805916050252e+02
1.230570725559622991e+00 4.794411295390066243e+02
1.230670747564464040e+00 4.794760264642670222e+02
1.230770769569305090e+00 4.795109709079426921e+02
1.230870791574146139e+00 4.795459624091125761e+02
1.230970813578987411e+00 4.795810005053926943e+02
1.231070835583828238e+00 4.796160847329473995e+02
1.231170857588669509e+00 4.796512146265047249e+02
1.231270879593510559e+00 4.796863897193686626e+02
1.231370901598351608e+00 4.797216095434313274e+02
1.231470923603192658e+00 4.797568736291895561e+02
1.231570945608033707e+00 4.797921815057550816e+02
1.231670967612874756e+00 4.798275327008700515e+02
1.231770989617715806e+00 4.798629267409200452e+02
1.231871011622556855e+00 4.798983631509480006e+02
1.231971033627397905e+00 4.799338414546667764e+02
1.232071055632238954e+00 4.799693611744735335e+02
1.232171077637080003e+00 4.800049218314652535e+02
1.232271099641921275e+00 4.800405229454494815e+02
1.232371121646762324e+00 4.800761640349600725e+02
1.232471143651603152e+00 4.801118446172708900e+02
1.232571165656444423e+00 4.801475642084095057e+02
1.232671187661285472e+00 4.801833223231708985e+02
1.232771209666126300e+00 4.802191184751326318e+02
1.232871231670967571e+00 4.802549521766679845e+02
1.232971253675808621e+00 4.802908229389591952e+02
1.233071275680649670e+00 4.803267302720144016e+02
1.233171297685490719e+00 4.803626736846787253e+02
1.233271319690331769e+00 4.803986526846512106e+02
1.233371341695172818e+00 4.804346667784972169e+02
1.233471363700013868e+00 4.804707154716633681e+02
1.233571385704854917e+00 4.805067982684925596e+02
1.233671407709695966e+00 4.805429146722370319e+02
1.233771429714537016e+00 4.805790641850746852e+02
1.233871451719378065e+00 4.806152463081217547e+02
1.233971473724219337e+00 4.806514605414487278e+02
1.234071495729060386e+00 4.806877063840933033e+02
1.234171517733901435e+00 4.807239833340769906e+02
1.234271539738742485e+00 4.807602908884190924e+02
1.234371561743583534e+00 4.807966285431498932e+02
1.234471583748424584e+00 4.808329957933270862e+02
1.234571605753265633e+00 4.808693921330510079e+02
1.234671627758106682e+00 4.809058170554769731e+02
1.234771649762947732e+00 4.809422700528324981e+02
1.234871671767788781e+00 4.809787506164310003e+02
1.234971693772629830e+00 4.810152582366871457e+02
1.235071715777471102e+00 4.810517924031310031e+02
1.235171737782311929e+00 4.810883526044239602e+02
1.235271759787152979e+00 4.811249383283734460e+02
1.235371781791994250e+00 4.811615490619478805e+02
1.235471803796835299e+00 4.811981842912919092e+02
1.235571825801676127e+00 4.812348435017399879e+02
1.235671847806517398e+00 4.812715261778340619e+02
1.235771869811358448e+00 4.813082318033368665e+02
1.235871891816199497e+00 4.813449598612477303e+02
1.235971913821040546e+00 4.813817098338180358e+02
1.236071935825881596e+00 4.814184812025650899e+02
1.236171957830722645e+00 4.814552734482894607e+02
1.236271979835563695e+00 4.814920860510883358e+02
1.236372001840404744e+00 4.815289184903725186e+02
1.236472023845245793e+00 4.815657702448793316e+02
1.236572045850086843e+00 4.816026407926914317e+02
1.236672067854927892e+00 4.816395296112483493e+02
1.236772089859769164e+00 4.816764361773659857e+02
1.236872111864610213e+00 4.817133599672476407e+02
1.236972133869451262e+00 4.817503004565029983e+02
1.237072155874292312e+00 4.817872571201615415e+02
1.237172177879133361e+00 4.818242294326893216e+02
1.237272199883974411e+00 4.818612168680035097e+02
1.237372221888815460e+00 4.818982188994881994e+02
1.237472243893656509e+00 4.819352350000106640e+02
1.237572265898497559e+00 4.819722646419355101e+02
1.237672287903338608e+00 4.820093072971412198e+02
1.237772309908179658e+00 4.820463624370360094e+02
1.237872331913020929e+00 4.820834295325728363e+02
1.237972353917861756e+00 4.821205080542645760e+02
1.238072375922702806e+00 4.821575974722013598e+02
1.238172397927544077e+00 4.821946972560644440e+02
1.238272419932385127e+00 4.822318068751424107e+02
1.238372441937225954e+00 4.822689257983483344e+02
1.238472463942067225e+00 4.823060534942327990e+02
1.238572485946908275e+00 4.823431894310015196e+02
1.238672507951749324e+00 4.823803330765308601e+02
1.238772529956590374e+00 4.824174838983828977e+02
1.238872551961431423e+00 4.824546413638219065e+02
1.238972573966272472e+00 4.824918049398303310e+02
1.239072595971113522e+00 4.825289740931228266e+02
1.239172617975954571e+00 4.825661482901639374e+02
1.239272639980795621e+00 4.826033269971832169e+02
1.239372661985636670e+00 4.826405096801909167e+02
1.239472683990477719e+00 4.826776958049948121e+02
1.239572705995318991e+00 4.827148848372135035e+02
1.239672728000160040e+00 4.827520762422944927e+02
1.239772750005001090e+00 4.827892694855302693e+02
1.239872772009842139e+00 4.828264640320726357e+02
1.239972794014683188e+00 4.828636593469484524e+02
