1.400048015364916631e+00 4.979691969712228001e+02
1.400148047375160187e+00 4.979623949591226619e+02
1.400248079385403299e+00 4.979556642581534902e+02
1.400348111395646411e+00 4.979490051372234802e+02
1.400448143405889967e+00 4.979424178629160451e+02
1.400548175416133079e+00 4.979359026994771966e+02
1.400648207426376413e+00 4.979294599088034943e+02
1.400748239436619746e+00 4.979230897504307904e+02
1.400848271446862858e+00 4.979167924815228616e+02
1.400948303457106192e+00 4.979105683568601535e+02
1.401048335467349526e+00 4.979044176288263657e+02
1.401148367477592638e+00 4.978983405474012329e+02
1.401248399487835972e+00 4.978923373601441540e+02
1.401348431498079306e+00 4.978864083121875410e+02
1.401448463508322639e+00 4.978805536462224381e+02
1.401548495518565751e+00 4.978747736024894834e+02
1.401648527528809085e+00 4.978690684187670286e+02
1.401748559539052419e+00 4.978634383303606228e+02
1.401848591549295531e+00 4.978578835700915306e+02
1.401948623559539087e+00 4.978524043682865567e+02
1.402048655569782198e+00 4.978470009527679281e+02
1.402148687580025310e+00 4.978416735488405038e+02
1.402248719590268866e+00 4.978364223792851249e+02
1.402348751600511978e+00 4.978312476643432660e+02
1.402448783610755534e+00 4.978261496217116360e+02
1.402548815620998646e+00 4.978211284665271137e+02
1.402648847631241757e+00 4.978161844113601546e+02
1.402748879641485313e+00 4.978113176662035926e+02
1.402848911651728425e+00 4.978065284384620099e+02
1.402948943661971981e+00 4.978018169329414491e+02
1.403048975672215093e+00 4.977971833518417952e+02
1.403149007682458205e+00 4.977926278947436458e+02
1.403249039692701761e+00 4.977881507586010912e+02
1.403349071702944872e+00 4.977837521377309713e+02
1.403449103713188206e+00 4.977794322238035534e+02
1.403549135723431540e+00 4.977751912058338917e+02
1.403649167733674652e+00 4.977710292701696062e+02
1.403749199743917986e+00 4.977669466004853689e+02
1.403849231754161320e+00 4.977629433777713643e+02
1.403949263764404654e+00 4.977590197803238539e+02
1.404049295774647765e+00 4.977551759837371037e+02
1.404149327784891099e+00 4.977514121608941196e+02
1.404249359795134433e+00 4.977477284819573811e+02
1.404349391805377545e+00 4.977441251143615659e+02
1.404449423815621101e+00 4.977406022228012716e+02
1.404549455825864213e+00 4.977371599692262407e+02
1.404649487836107324e+00 4.977337985128311857e+02
1.404749519846350880e+00 4.977305180100461257e+02
1.404849551856593992e+00 4.977273186145301906e+02
1.404949583866837326e+00 4.977242004771618440e+02
1.405049615877080660e+00 4.977211637460308111e+02
1.405149647887323772e+00 4.977182085664304054e+02
1.405249679897567106e+00 4.977153350808494565e+02
1.405349711907810439e+00 4.977125434289634995e+02
1.405449743918053773e+00 4.977098337476280108e+02
1.405549775928296885e+00 4.977072061708699380e+02
1.405649807938540219e+00 4.977046608298801402e+02
1.405749839948783553e+00 4.977021978530057709e+02
1.405849871959026665e+00 4.976998173657433995e+02
1.405949903969270220e+00 4.976975194907294053e+02
1.406049935979513332e+00 4.976953043477363394e+02
1.406149967989756444e+00 4.976931720536619537e+02
1.406250000000000000e+00 4.976911227225242556e+02
1.406350032010243112e+00 4.976891564654534932e+02
1.406450064020486668e+00 4.976872733906855046e+02
1.406550096030729780e+00 4.976854736035550104e+02
1.406650128040972891e+00 4.976837572064885080e+02
1.406750160051216447e+00 4.976821242989986445e+02
1.406850192061459559e+00 4.976805749776750645e+02
1.406950224071703115e+00 4.976791093361797493e+02
1.407050256081946227e+00 4.976777274652413325e+02
1.407150288092189339e+00 4.976764294526470280e+02
1.407250320102432894e+00 4.976752153832379122e+02
1.407350352112676006e+00 4.976740853388999994e+02
1.407450384122919340e+00 4.976730393985628780e+02
1.407550416133162674e+00 4.976720776381889095e+02
1.407650448143405786e+00 4.976712001307720357e+02
1.407750480153649120e+00 4.976704069463257269e+02
1.407850512163892454e+00 4.976696981518851999e+02
1.407950544174135787e+00 4.976690738114943997e+02
1.408050576184378899e+00 4.976685339862063984e+02
1.408150608194622233e+00 4.976680787340744700e+02
1.408250640204865567e+00 4.976677081101479985e+02
1.408350672215108679e+00 4.976674221664666788e+02
1.408450704225352235e+00 4.976672209520569368e+02
1.408550736235595346e+00 4.976671045129245954e+02
1.408650768245838458e+00 4.976670728920527722e+02
1.408750800256082014e+00 4.976671261293945463e+02
1.408850832266325126e+00 4.976672642618699456e+02
1.408950864276568460e+00 4.976674873233599783e+02
1.409050896286811794e+00 4.976677953447041887e+02
1.409150928297054906e+00 4.976681883536937789e+02
1.409250960307298239e+00 4.976686663750682555e+02
1.409350992317541573e+00 4.976692294305138944e+02
1.409451024327784907e+00 4.976698775386545321e+02
1.409551056338028019e+00 4.976706107150514526e+02
1.409651088348271353e+00 4.976714289721980435e+02
1.409751120358514687e+00 4.976723323195162720e+02
1.409851152368757798e+00 4.976733207633532174e+02
1.409951184379001354e+00 4.976743943069770921e+02
1.410051216389244466e+00 4.976755529505737741e+02
1.410151248399487578e+00 4.976767966912435668e+02
1.410251280409731134e+00 4.976781255229979024e+02
1.410351312419974246e+00 4.976795394367561585e+02
1.410451344430217802e+00 4.976810384203420767e+02
1.410551376440460913e+00 4.976826224584816600e+02
1.410651408450704025e+00 4.976842915327997616e+02
1.410751440460947581e+00 4.976860456218170725e+02
1.410851472471190693e+00 4.976878847009485867e+02
1.410951504481434249e+00 4.976898087424984851e+02
1.411051536491677361e+00 4.976918177156609886e+02
1.411151568501920472e+00 4.976939115865154122e+02
1.411251600512164028e+00 4.976960903180250284e+02
1.411351632522407140e+00 4.976983538700344525e+02
1.411451664532650474e+00 4.977007021992680507e+02
1.411551696542893808e+00 4.977031352593276665e+02
1.411651728553136920e+00 4.977056530006906314e+02
1.411751760563380254e+00 4.977082553707085708e+02
1.411851792573623587e+00 4.977109423136041642e+02
1.411951824583866699e+00 4.977137137704727365e+02
1.412051856594110033e+00 4.977165696792771428e+02
1.412151888604353367e+00 4.977195099748486200e+02
1.412251920614596701e+00 4.977225345888856509e+02
1.412351952624839813e+00 4.977256434499515194e+02
1.412451984635083146e+00 4.977288364834740833e+02
1.412552016645326480e+00 4.977321136117454330e+02
1.412652048655569592e+00 4.977354747539186519e+02
1.412752080665813148e+00 4.977389198260113972e+02
1.412852112676056260e+00 4.977424487409007838e+02
1.412952144686299372e+00 4.977460614083256019e+02
1.413052176696542928e+00 4.977497577348850086e+02
1.413152208706786039e+00 4.977535376240384153e+02
1.413252240717029373e+00 4.977574009761049183e+02
1.413352272727272707e+00 4.977613476882638679e+02
1.413452304737515819e+00 4.977653776545549817e+02
1.413552336747759153e+00 4.977694907658768670e+02
1.413652368758002487e+00 4.977736869099892374e+02
1.413752400768245820e+00 4.977779659715133675e+02
1.413852432778488932e+00 4.977823278319292513e+02
1.413952464788732266e+00 4.977867723695803761e+02
1.414052496798975600e+00 4.977912994596720182e+02
1.414152528809218712e+00 4.977959089742723222e+02
1.414252560819462268e+00 4.978006007823141204e+02
1.414352592829705380e+00 4.978053747495929429e+02
1.414452624839948491e+00 4.978102307387728729e+02
1.414552656850192047e+00 4.978151686093835337e+02
1.414652688860435159e+00 4.978201882178236701e+02
1.414752720870678715e+00 4.978252894173616028e+02
1.414852752880921827e+00 4.978304720581365928e+02
1.414952784891164939e+00 4.978357359871615699e+02
1.415052816901408494e+00 4.978410810483230762e+02
1.415152848911651606e+00 4.978465070823849032e+02
1.415252880921895162e+00 4.978520139269895708e+02
1.415352912932138274e+00 4.978576014166583263e+02
1.415452944942381386e+00 4.978632693827964886e+02
1.415552976952624942e+00 4.978690176536938452e+02
1.415653008962868054e+00 4.978748460545268699e+02
1.415753040973111387e+00 4.978807544073616782e+02
1.415853072983354721e+00 4.978867425311569832e+02
1.415953104993597833e+00 4.978928102417654031e+02
1.416053137003841167e+00 4.978989573519388614e+02
1.416153169014084501e+00 4.979051836713268813e+02
1.416253201024327835e+00 4.979114890064856809e+02
1.416353233034570946e+00 4.979178731608749331e+02
1.416453265044814280e+00 4.979243359348665763e+02
1.416553297055057614e+00 4.979308771257436774e+02
1.416653329065300726e+00 4.979374965277067417e+02
1.416753361075544282e+00 4.979441939318763843e+02
1.416853393085787394e+00 4.979509691262956039e+02
1.416953425096030506e+00 4.979578218959359788e+02
1.417053457106274061e+00 4.979647520226992583e+02
1.417153489116517173e+00 4.979717592854226496e+02
1.417253521126760507e+00 4.979788434598823983e+02
1.417353553137003841e+00 4.979860043187979954e+02
1.417453585147246953e+00 4.979932416318360424e+02
1.417553617157490287e+00 4.980005551656158786e+02
1.417653649167733620e+00 4.980079446837116279e+02
1.417753681177976954e+00 4.980154099466601565e+02
1.417853713188220066e+00 4.980229507119619825e+02
1.417953745198463400e+00 4.980305667340899163e+02
1.418053777208706734e+00 4.980382577644896287e+02
1.418153809218949846e+00 4.980460235515890872e+02
1.418253841229193402e+00 4.980538638408001475e+02
1.418353873239436513e+00 4.980617783745259999e+02
1.418453905249679625e+00 4.980697668921653189e+02
1.418553937259923181e+00 4.980778291301172089e+02
1.418653969270166293e+00 4.980859648217883660e+02
1.418754001280409849e+00 4.980941736975980803e+02
1.418854033290652961e+00 4.981024554849824426e+02
1.418954065300896072e+00 4.981108099084021887e+02
1.419054097311139628e+00 4.981192366893468488e+02
1.419154129321382740e+00 4.981277355463435015e+02
1.419254161331626296e+00 4.981363061949599569e+02
1.419354193341869408e+00 4.981449483478120897e+02
1.419454225352112520e+00 4.981536617145699779e+02
1.419554257362356076e+00 4.981624460019663729e+02
1.419654289372599187e+00 4.981713009137990298e+02
1.419754321382842521e+00 4.981802261509415075e+02
1.419854353393085855e+00 4.981892214113477735e+02
1.419954385403328967e+00 4.981982863900586267e+02
1.420054417413572301e+00 4.982074207792116454e+02
1.420154449423815635e+00 4.982166242680438586e+02
1.420254481434058969e+00 4.982258965429023192e+02
1.420354513444302080e+00 4.982352372872501860e+02
1.420454545454545414e+00 4.982446461816737155e+02
1.420554577464788748e+00 4.982541229038903339e+02
1.420654609475031860e+00 4.982636671287558556e+02
1.420754641485275416e+00 4.982732785282723285e+02
1.420854673495518528e+00 4.982829567715958774e+02
1.420954705505761639e+00 4.982927015250444924e+02
1.421054737516005195e+00 4.983025124521050202e+02
1.421154769526248307e+00 4.983123892134436232e+02
1.421254801536491641e+00 4.983223314669111801e+02
1.421354833546734975e+00 4.983323388675532897e+02
1.421454865556978087e+00 4.983424110676187411e+02
1.421554897567221420e+00 4.983525477165662778e+02
1.421654929577464754e+00 4.983627484610750571e+02
1.421754961587708088e+00 4.983730129450521531e+02
1.421854993597951200e+00 4.983833408096421635e+02
1.421955025608194534e+00 4.983937316932348267e+02
1.422055057618437868e+00 4.984041852314760490e+02
1.422155089628680980e+00 4.984147010572737031e+02
1.422255121638924535e+00 4.984252788008115544e+02
1.422355153649167647e+00 4.984359180895523309e+02
1.422455185659410759e+00 4.984466185482531273e+02
1.422555217669654315e+00 4.984573797989709192e+02
1.422655249679897427e+00 4.984682014610734768e+02
1.422755281690140983e+00 4.984790831512487443e+02
1.422855313700384094e+00 4.984900244835152989e+02
1.422955345710627206e+00 4.985010250692308205e+02
1.423055377720870762e+00 4.985120845171034034e+02
1.423155409731113874e+00 4.985232024331997991e+02
1.423255441741356986e+00 4.985343784209586033e+02
1.423355473751600542e+00 4.985456120811965661e+02
1.423455505761843654e+00 4.985569030121216656e+02
1.423555537772087209e+00 4.985682508093429988e+02
1.423655569782330321e+00 4.985796550658800470e+02
1.423755601792573433e+00 4.985911153721754658e+02
1.423855633802816989e+00 4.986026313161027019e+02
1.423955665813060101e+00 4.986142024829800334e+02
1.424055697823303435e+00 4.986258284555793239e+02
1.424155729833546769e+00 4.986375088141378455e+02
1.424255761843789880e+00 4.986492431363683409e+02
1.424355793854033214e+00 4.986610309974720394e+02
1.424455825864276548e+00 4.986728719701471277e+02
1.424555857874519882e+00 4.986847656246030169e+02
1.424655889884762994e+00 4.986967115285695513e+02
1.424755921895006328e+00 4.987087092473103098e+02
1.424855953905249661e+00 4.987207583436320419e+02
1.424955985915492773e+00 4.987328583778980828e+02
1.425056017925736329e+00 4.987450089080399493e+02
1.425156049935979441e+00 4.987572094895682540e+02
1.425256081946222553e+00 4.987694596755856651e+02
1.425356113956466109e+00 4.987817590167978210e+02
1.425456145966709220e+00 4.987941070615270291e+02
1.425556177976952554e+00 4.988065033557223842e+02
1.425656209987195888e+00 4.988189474429748316e+02
1.425756241997439000e+00 4.988314388645271720e+02
1.425856274007682334e+00 4.988439771592867942e+02
1.425956306017925668e+00 4.988565618638390333e+02
1.426056338028169002e+00 4.988691925124605291e+02
1.426156370038412113e+00 4.988818686371300259e+02
1.426256402048655447e+00 4.988945897675425840e+02
1.426356434058898781e+00 4.989073554311216867e+02
1.426456466069141893e+00 4.989201651530326558e+02
1.426556498079385449e+00 4.989330184561955548e+02
1.426656530089628561e+00 4.989459148612991157e+02
1.426756562099871672e+00 4.989588538868122782e+02
1.426856594110115228e+00 4.989718350489994236e+02
1.426956626120358340e+00 4.989848578619319710e+02
1.427056658130601896e+00 4.989979218375035543e+02
1.427156690140845008e+00 4.990110264854419597e+02
1.427256722151088120e+00 4.990241713133241888e+02
1.427356754161331676e+00 4.990373558265895895e+02
1.427456786171574787e+00 4.990505795285531576e+02
1.427556818181818343e+00 4.990638419204198044e+02
1.427656850192061455e+00 4.990771425012997042e+02
1.427756882202304567e+00 4.990904807682193223e+02
1.427856914212548123e+00 4.991038562161384107e+02
1.427956946222791235e+00 4.991172683379624004e+02
1.428056978233034569e+00 4.991307166245576354e+02
1.428157010243277902e+00 4.991442005647655833e+02
1.428257042253521014e+00 4.991577196454169325e+02
1.428357074263764348e+00 4.991712733513456897e+02
1.428457106274007682e+00 4.991848611654051524e+02
1.428557138284251016e+00 4.991984825684816087e+02
1.428657170294494128e+00 4.992121370395086615e+02
1.428757202304737461e+00 4.992258240554833151e+02
1.428857234314980795e+00 4.992395430914792769e+02
1.428957266325223907e+00 4.992532936206636691e+02
1.429057298335467463e+00 4.992670751143108987e+02
1.429157330345710575e+00 4.992808870418170386e+02
1.429257362355953687e+00 4.992947288707168241e+02
1.429357394366197243e+00 4.993086000666987161e+02
1.429457426376440354e+00 4.993225000936174638e+02
1.429557458386683688e+00 4.993364284135142839e+02
1.429657490396927022e+00 4.993503844866270924e+02
1.429757522407170134e+00 4.993643677714098317e+02
1.429857554417413468e+00 4.993783777245465672e+02
1.429957586427656802e+00 4.993924138009669491e+02
1.430057618437900135e+00 4.994064754538633224e+02
1.430157650448143247e+00 4.994205621347046531e+02
1.430257682458386581e+00 4.994346732932530131e+02
1.430357714468629915e+00 4.994488083775810878e+02
1.430457746478873027e+00 4.994629668340855346e+02
1.430557778489116583e+00 4.994771481075052861e+02
1.430657810499359694e+00 4.994913516409363865e+02
1.430757842509602806e+00 4.995055768758491581e+02
1.430857874519846362e+00 4.995198232521028103e+02
1.430957906530089474e+00 4.995340902079639136e+02
1.431057938540333030e+00 4.995483771801210082e+02
1.431157970550576142e+00 4.995626836037030216e+02
1.431258002560819254e+00 4.995770089122927970e+02
1.431358034571062809e+00 4.995913525379464204e+02
1.431458066581305921e+00 4.996057139112087953e+02
1.431558098591549477e+00 4.996200924611309802e+02
1.431658130601792589e+00 4.996344876152850816e+02
1.431758162612035701e+00 4.996488987997827849e+02
1.431858194622279257e+00 4.996633254392928620e+02
1.431958226632522369e+00 4.996777669570558942e+02
1.432058258642765702e+00 4.996922227749028593e+02
1.432158290653009036e+00 4.997066923132717875e+02
1.432258322663252148e+00 4.997211749912248706e+02
1.432358354673495482e+00 4.997356702264654587e+02
1.432458386683738816e+00 4.997501774353553969e+02
1.432558418693982150e+00 4.997646960329325907e+02
1.432658450704225261e+00 4.997792254329281718e+02
1.432758482714468595e+00 4.997937650477833813e+02
1.432858514724711929e+00 4.998083142886674750e+02
1.432958546734955041e+00 4.998228725654953450e+02
1.433058578745198597e+00 4.998374392869457097e+02
1.433158610755441709e+00 4.998520138604762906e+02
1.433258642765684820e+00 4.998665956923437079e+02
1.433358674775928376e+00 4.998811841876214430e+02
1.433458706786171488e+00 4.998957787502153565e+02
1.433558738796414822e+00 4.999103787828840950e+02
1.433658770806658156e+00 4.999249836872546098e+02
1.433758802816901268e+00 4.999395928638417672e+02
1.433858834827144602e+00 4.999542057120651180e+02
1.433958866837387935e+00 4.999688216302681099e+02
1.434058898847631047e+00 4.999834400157354821e+02
1.434158930857874381e+00 4.999980602647102614e+02
1.434258962868117715e+00 5.000126817724140551e+02
1.434358994878361049e+00 5.000273039330646725e+02
1.434459026888604161e+00 5.000419261398912454e+02
1.434559058898847494e+00 5.000565477851578180e+02
1.434659090909090828e+00 5.000711682601777852e+02
1.434759122919333940e+00 5.000857869553336741e+02
1.434859154929577496e+00 5.001004032600943674e+02
1.434959186939820608e+00 5.001150165630361357e+02
1.435059218950063720e+00 5.001296262518578715e+02
1.435159250960307276e+00 5.001442317134017799e+02
1.435259282970550387e+00 5.001588323336715689e+02
1.435359314980793943e+00 5.001734274978502413e+02
1.435459346991037055e+00 5.001880165903196485e+02
1.435559379001280167e+00 5.002025989946786240e+02
1.435659411011523723e+00 5.002171740937623099e+02
1.435759443021766835e+00 5.002317412696600627e+02
1.435859475032010391e+00 5.002462999037345526e+02
1.435959507042253502e+00 5.002608493766416018e+02
1.436059539052496614e+00 5.002753890683477493e+02
1.436159571062740170e+00 5.002899183581484408e+02
1.436259603072983282e+00 5.003044366246899699e+02
1.436359635083226616e+00 5.003189432459849399e+02
1.436459667093469950e+00 5.003334375994336369e+02
1.436559699103713061e+00 5.003479190618427879e+02
1.436659731113956395e+00 5.003623870094429549e+02
1.436759763124199729e+00 5.003768408179096809e+02
1.436859795134443063e+00 5.003912798623815661e+02
1.436959827144686175e+00 5.004057035174790826e+02
1.437059859154929509e+00 5.004201111573248113e+02
1.437159891165172843e+00 5.004345021555622566e+02
1.437259923175415954e+00 5.004488758853741501e+02
1.437359955185659510e+00 5.004632317195030282e+02
1.437459987195902622e+00 5.004775690302701605e+02
1.437560019206145734e+00 5.004918871895941379e+02
1.437660051216389290e+00 5.005061855690107109e+02
1.437760083226632402e+00 5.005204635396935373e+02
1.437860115236875735e+00 5.005347204724703261e+02
1.437960147247119069e+00 5.005489557378454037e+02
1.438060179257362181e+00 5.005631687060176205e+02
1.438160211267605515e+00 5.005773587468997334e+02
1.438260243277848849e+00 5.005915252301391547e+02
1.438360275288092183e+00 5.006056675251353454e+02
1.438460307298335294e+00 5.006197850010619845e+02
1.438560339308578628e+00 5.006338770268833969e+02
1.438660371318821962e+00 5.006479429713765512e+02
1.438760403329065074e+00 5.006619822031514104e+02
1.438860435339308630e+00 5.006759940906659949e+02
1.438960467349551742e+00 5.006899780022512232e+02
1.439060499359794854e+00 5.007039333061276238e+02
1.439160531370038409e+00 5.007178593704255150e+02
1.439260563380281521e+00 5.007317555632050130e+02
1.439360595390525077e+00 5.007456212524753596e+02
1.439460627400768189e+00 5.007594558062151009e+02
1.439560659411011301e+00 5.007732585923911870e+02
1.439660691421254857e+00 5.007870289789784692e+02
1.439760723431497969e+00 5.008007663339809596e+02
1.439860755441741524e+00 5.008144700254497366e+02
1.439960787451984636e+00 5.008281394215032947e+02
1.440060819462227748e+00 5.008417738903488043e+02
1.440160851472471304e+00 5.008553728002984258e+02
1.440260883482714416e+00 5.008689355197931263e+02
1.440360915492957750e+00 5.008824614174195062e+02
1.440460947503201083e+00 5.008959498619308874e+02
1.440560979513444195e+00 5.009094002222670383e+02
1.440661011523687529e+00 5.009228118675732730e+02
1.440761043533930863e+00 5.009361841672212563e+02
1.440861075544174197e+00 5.009495164908287848e+02
1.440961107554417309e+00 5.009628082082774654e+02
1.441061139564660643e+00 5.009760586897365897e+02
1.441161171574903976e+00 5.009892673056784815e+02
1.441261203585147088e+00 5.010024334269018027e+02
1.441361235595390644e+00 5.010155564245491178e+02
1.441461267605633756e+00 5.010286356701284376e+02
1.441561299615876868e+00 5.010416705355313525e+02
1.441661331626120424e+00 5.010546603930547462e+02
1.441761363636363535e+00 5.010676046154190999e+02
1.441861395646606869e+00 5.010805025757881594e+02
1.441961427656850203e+00 5.010933536477911048e+02
1.442061459667093315e+00 5.011061572055386932e+02
1.442161491677336649e+00 5.011189126236470202e+02
1.442261523687579983e+00 5.011316192772539466e+02
1.442361555697823317e+00 5.011442765420409842e+02
1.442461587708066428e+00 5.011568837942523942e+02
1.442561619718309762e+00 5.011694404107154242e+02
1.442661651728553096e+00 5.011819457688585544e+02
1.442761683738796208e+00 5.011943992467340649e+02
1.442861715749039764e+00 5.012068002230347474e+02
1.442961747759282876e+00 5.012191480771159604e+02
1.443061779769525987e+00 5.012314421890144445e+02
1.443161811779769543e+00 5.012436819394678764e+02
1.443261843790012655e+00 5.012558667099347645e+02
1.443361875800256211e+00 5.012679958826152529e+02
1.443461907810499323e+00 5.012800688404684024e+02
1.443561939820742435e+00 5.012920849672345867e+02
1.443661971830985991e+00 5.013040436474528292e+02
1.443762003841229102e+00 5.013159442664829726e+02
1.443862035851472658e+00 5.013277862105225609e+02
1.443962067861715770e+00 5.013395688666286105e+02
1.444062099871958882e+00 5.013512916227363689e+02
1.444162131882202438e+00 5.013629538676788115e+02
1.444262163892445550e+00 5.013745549912062529e+02
1.444362195902688883e+00 5.013860943840068103e+02
1.444462227912932217e+00 5.013975714377246504e+02
1.444562259923175329e+00 5.014089855449801689e+02
1.444662291933418663e+00 5.014203360993898286e+02
1.444762323943661997e+00 5.014316224955847474e+02
1.444862355953905331e+00 5.014428441292311618e+02
1.444962387964148443e+00 5.014540003970479916e+02
1.445062419974391776e+00 5.014650906968303161e+02
1.445162451984635110e+00 5.014761144274635853e+02
1.445262483994878222e+00 5.014870709889470390e+02
1.445362516005121556e+00 5.014979597824108168e+02
1.445462548015364890e+00 5.015087802101364218e+02
1.445562580025608002e+00 5.015195316755747399e+02
1.445662612035851557e+00 5.015302135833674697e+02
1.445762644046094669e+00 5.015408253393641758e+02
1.445862676056337781e+00 5.015513663506427520e+02
1.445962708066581337e+00 5.015618360255282369e+02
1.446062740076824449e+00 5.015722337736125382e+02
1.446162772087067783e+00 5.015825590057712589e+02
1.446262804097311117e+00 5.015928111341872864e+02
1.446362836107554228e+00 5.016029895723643790e+02
1.446462868117797562e+00 5.016130937351509260e+02
1.446562900128040896e+00 5.016231230387559776e+02
1.446662932138284230e+00 5.016330769007702770e+02
1.446762964148527342e+00 5.016429547401826312e+02
1.446862996158770676e+00 5.016527559774019664e+02
1.446963028169014009e+00 5.016624800342733579e+02
1.447063060179257121e+00 5.016721263340984365e+02
1.447163092189500677e+00 5.016816943016547157e+02
1.447263124199743789e+00 5.016911833632118487e+02
1.447363156209986901e+00 5.017005929465530016e+02
1.447463188220230457e+00 5.017099224809925317e+02
1.447563220230473569e+00 5.017191713973946889e+02
1.447663252240717124e+00 5.017283391281915215e+02
1.447763284250960236e+00 5.017374251074025437e+02
1.447863316261203348e+00 5.017464287706528694e+02
1.447963348271446904e+00 5.017553495551911737e+02
1.448063380281690016e+00 5.017641868999091912e+02
1.448163412291933572e+00 5.017729402453591661e+02
1.448263444302176683e+00 5.017816090337720993e+02
1.448363476312419795e+00 5.017901927090779282e+02
1.448463508322663351e+00 5.017986907169207598e+02
1.448563540332906463e+00 5.018071025046799605e+02
1.448663572343149797e+00 5.018154275214864128e+02
1.448763604353393131e+00 5.018236652182414446e+02
1.448863636363636243e+00 5.018318150476355299e+02
1.448963668373879576e+00 5.018398764641644902e+02
1.449063700384122910e+00 5.018478489241491616e+02
1.449163732394366244e+00 5.018557318857531868e+02
1.449263764404609356e+00 5.018635248090000118e+02
1.449363796414852690e+00 5.018712271557914733e+02
1.449463828425096024e+00 5.018788383899249084e+02
1.449563860435339135e+00 5.018863579771125387e+02
1.449663892445582691e+00 5.018937853849964199e+02
1.449763924455825803e+00 5.019011200831690758e+02
1.449863956466068915e+00 5.019083615431887324e+02
1.449963988476312471e+00 5.019155092385975649e+02
1.450064020486555583e+00 5.019225626449407400e+02
1.450164052496798917e+00 5.019295212397808541e+02
1.450264084507042250e+00 5.019363845027180560e+02
1.450364116517285362e+00 5.019431519154060766e+02
1.450464148527528696e+00 5.019498229615702485e+02
1.450564180537772030e+00 5.019563971270217735e+02
1.450664212548015364e+00 5.019628738996798347e+02
1.450764244558258476e+00 5.019692527695851823e+02
1.450864276568501809e+00 5.019755332289176977e+02
1.450964308578745143e+00 5.019817147720145840e+02
1.451064340588988255e+00 5.019877968953849177e+02
1.451164372599231811e+00 5.019937790977298846e+02
1.451264404609474923e+00 5.019996608799560818e+02
1.451364436619718035e+00 5.020054417451949007e+02
1.451464468629961591e+00 5.020111211988174205e+02
1.451564500640204702e+00 5.020166987484525407e+02
1.451664532650448258e+00 5.020221739040014199e+02
1.451764564660691370e+00 5.020275461776569728e+02
1.451864596670934482e+00 5.020328150839171713e+02
1.451964628681178038e+00 5.020379801396031780e+02
1.452064660691421150e+00 5.020430408638754329e+02
1.452164692701664706e+00 5.020479967782491713e+02
1.452264724711907817e+00 5.020528474066127842e+02
1.452364756722150929e+00 5.020575922752393012e+02
1.452464788732394485e+00 5.020622309128074789e+02
1.452564820742637597e+00 5.020667628504152162e+02
1.452664852752880931e+00 5.020711876215951293e+02
1.452764884763124265e+00 5.020755047623310361e+02
1.452864916773367376e+00 5.020797138110748961e+02
1.452964948783610710e+00 5.020838143087595995e+02
1.453064980793854044e+00 5.020878057988178966e+02
1.453165012804097378e+00 5.020916878271948462e+02
1.453265044814340490e+00 5.020954599423647551e+02
1.453365076824583824e+00 5.020991216953477192e+02
1.453465108834827157e+00 5.021026726397228686e+02
1.453565140845070269e+00 5.021061123316445105e+02
1.453665172855313825e+00 5.021094403298570228e+02
1.453765204865556937e+00 5.021126561957103149e+02
1.453865236875800049e+00 5.021157594931750054e+02
1.453965268886043605e+00 5.021187497888569169e+02
1.454065300896286717e+00 5.021216266520119120e+02
1.454165332906530050e+00 5.021243896545601046e+02
1.454265364916773384e+00 5.021270383711029126e+02
1.454365396927016496e+00 5.021295723789349381e+02
1.454465428937259830e+00 5.021319912580601681e+02
1.454565460947503164e+00 5.021342945912044229e+02
1.454665492957746498e+00 5.021364819638337735e+02
1.454765524967989609e+00 5.021385529641648873e+02
1.454865556978232943e+00 5.021405071831806595e+02
1.454965588988476277e+00 5.021423442146456182e+02
1.455065620998719389e+00 5.021440636551165539e+02
1.455165653008962945e+00 5.021456651039611643e+02
1.455265685019206057e+00 5.021471481633682288e+02
1.455365717029449169e+00 5.021485124383631273e+02
1.455465749039692724e+00 5.021497575368214825e+02
1.455565781049935836e+00 5.021508830694829157e+02
1.455665813060179392e+00 5.021518886499628707e+02
1.455765845070422504e+00 5.021527738947699504e+02
1.455865877080665616e+00 5.021535384233140462e+02
1.455965909090909172e+00 5.021541818579248684e+02
1.456065941101152283e+00 5.021547038238622918e+02
1.456165973111395839e+00 5.021551039493293729e+02
1.456266005121638951e+00 5.021553818654872998e+02
1.456366037131882063e+00 5.021555372064658513e+02
1.456466069142125619e+00 5.021555696093788583e+02
1.456566101152368731e+00 5.021554787143355725e+02
1.456666133162611843e+00 5.021552641644530013e+02
1.456766165172855398e+00 5.021549256058698347e+02
1.456866197183098510e+00 5.021544626877582118e+02
1.456966229193341844e+00 5.021538750623361693e+02
1.457066261203585178e+00 5.021531623848798063e+02
1.457166293213828290e+00 5.021523243137361874e+02
1.457266325224071624e+00 5.021513605103357349e+02
1.457366357234314957e+00 5.021502706392029722e+02
1.457466389244558291e+00 5.021490543679697112e+02
1.457566421254801403e+00 5.021477113673866484e+02
1.457666453265044737e+00 5.021462413113343928e+02
1.457766485275288071e+00 5.021446438768368239e+02
1.457866517285531183e+00 5.021429187440716078e+02
1.457966549295774739e+00 5.021410655963815088e+02
1.458066581306017850e+00 5.021390841202868955e+02
1.458166613316260962e+00 5.021369740054958584e+02
1.458266645326504518e+00 5.021347349449162039e+02
1.458366677336747630e+00 5.021323666346665959e+02
1.458466709346990964e+00 5.021298687740876403e+02
1.458566741357234298e+00 5.021272410657520595e+02
1.458666773367477409e+00 5.021244832154763458e+02
1.458766805377720743e+00 5.021215949323322434e+02
1.458866837387964077e+00 5.021185759286547636e+02
1.458966869398207411e+00 5.021154259200566798e+02
1.459066901408450523e+00 5.021121446254348939e+02
1.459166933418693857e+00 5.021087317669847039e+02
1.459266965428937191e+00 5.021051870702061706e+02
1.459366997439180302e+00 5.021015102639177599e+02
1.459467029449423858e+00 5.020977010802644145e+02
1.459567061459666970e+00 5.020937592547277859e+02
1.459667093469910082e+00 5.020896845261373755e+02
1.459767125480153638e+00 5.020854766366779245e+02
1.459867157490396750e+00 5.020811353319021464e+02
1.459967189500640306e+00 5.020766603607372645e+02
1.460067221510883417e+00 5.020720514754968917e+02
1.460167253521126529e+00 5.020673084318889892e+02
1.460267285531370085e+00 5.020624309890251880e+02
1.460367317541613197e+00 5.020574189094319308e+02
1.460467349551856753e+00 5.020522719590557017e+02
1.460567381562099865e+00 5.020469899072760995e+02
1.460667413572342976e+00 5.020415725269120912e+02
1.460767445582586532e+00 5.020360195942312203e+02
1.460867477592829644e+00 5.020303308889597815e+02
1.460967509603072978e+00 5.020245061942890743e+02
1.461067541613316312e+00 5.020185452968851223e+02
1.461167573623559424e+00 5.020124479868974277e+02
1.461267605633802757e+00 5.020062140579658490e+02
1.461367637644046091e+00 5.019998433072306057e+02
1.461467669654289425e+00 5.019933355353381330e+02
1.461567701664532537e+00 5.019866905464500633e+02
1.461667733674775871e+00 5.019799081482527185e+02
1.461767765685019205e+00 5.019729881519613741e+02
1.461867797695262317e+00 5.019659303723302060e+02
1.461967829705505872e+00 5.019587346276592257e+02
1.462067861715748984e+00 5.019514007398019544e+02
1.462167893725992096e+00 5.019439285341725281e+02
1.462267925736235652e+00 5.019363178397522915e+02
1.462367957746478764e+00 5.019285684890973016e+02
1.462467989756722098e+00 5.019206803183464558e+02
1.462568021766965431e+00 5.019126531672253577e+02
1.462668053777208543e+00 5.019044868790566625e+02
1.462768085787451877e+00 5.018961813007640558e+02
1.462868117797695211e+00 5.018877362828797573e+02
1.462968149807938545e+00 5.018791516795506027e+02
1.463068181818181657e+00 5.018704273485458884e+02
1.463168213828424991e+00 5.018615631512604409e+02
1.463268245838668324e+00 5.018525589527237116e+02
1.463368277848911436e+00 5.018434146216040972e+02
1.463468309859154992e+00 5.018341300302157606e+02
1.463568341869398104e+00 5.018247050545230650e+02
1.463668373879641216e+00 5.018151395741479632e+02
1.463768405889884772e+00 5.018054334723738066e+02
1.463868437900127883e+00 5.017955866361526773e+02
1.463968469910371439e+00 5.017855989561078331e+02
1.464068501920614551e+00 5.017754703265415515e+02
1.464168533930857663e+00 5.017652006454397906e+02
1.464268565941101219e+00 5.017547898144766805e+02
1.464368597951344331e+00 5.017442377390181605e+02
1.464468629961587887e+00 5.017335443281289145e+02
1.464568661971830998e+00 5.017227094945753265e+02
1.464668693982074110e+00 5.017117331548312791e+02
1.464768725992317666e+00 5.017006152290821888e+02
1.464868758002560778e+00 5.016893556412281896e+02
1.464968790012804112e+00 5.016779543188899311e+02
1.465068822023047446e+00 5.016664111934113635e+02
1.465168854033290557e+00 5.016547261998648537e+02
1.465268886043533891e+00 5.016428992770536297e+02
1.465368918053777225e+00 5.016309303675171236e+02
1.465468950064020559e+00 5.016188194175327908e+02
1.465568982074263671e+00 5.016065663771212257e+02
1.465669014084507005e+00 5.015941712000492885e+02
1.465769046094750339e+00 5.015816338438315256e+02
1.465869078104993450e+00 5.015689542697363663e+02
1.465969110115237006e+00 5.015561324427858381e+02
1.466069142125480118e+00 5.015431683317617626e+02
1.466169174135723230e+00 5.015300619092058128e+02
1.466269206145966786e+00 5.015168131514248557e+02
1.466369238156209898e+00 5.015034220384903279e+02
1.466469270166453231e+00 5.014898885542435778e+02
1.466569302176696565e+00 5.014762126862962077e+02
1.466669334186939677e+00 5.014623944260345070e+02
1.466769366197183011e+00 5.014484337686185427e+02
1.466869398207426345e+00 5.014343307129875598e+02
1.466969430217669679e+00 5.014200852618581052e+02
1.467069462227912791e+00 5.014056974217299967e+02
1.467169494238156124e+00 5.013911672028842190e+02
1.467269526248399458e+00 5.013764946193870173e+02
1.467369558258642570e+00 5.013616796890905221e+02
1.467469590268885904e+00 5.013467224336328627e+02
1.467569622279129238e+00 5.013316228784404984e+02
1.467669654289372350e+00 5.013163810527302644e+02
1.467769686299615906e+00 5.013009969895086329e+02
1.467869718309859017e+00 5.012854707255730204e+02
1.467969750320102129e+00 5.012698023015126410e+02
1.468069782330345685e+00 5.012539917617091305e+02
1.468169814340588797e+00 5.012380391543384803e+02
1.468269846350832353e+00 5.012219445313672850e+02
1.468369878361075465e+00 5.012057079485581426e+02
1.468469910371318576e+00 5.011893294654651640e+02
1.468569942381562132e+00 5.011728091454384071e+02
1.468669974391805244e+00 5.011561470556201812e+02
1.468770006402048800e+00 5.011393432669473782e+02
1.468870038412291912e+00 5.011223978541482893e+02
1.468970070422535024e+00 5.011053108957448785e+02
1.469070102432778580e+00 5.010880824740515322e+02
1.469170134443021691e+00 5.010707126751736951e+02
1.469270166453265025e+00 5.010532015890075854e+02
1.469370198463508359e+00 5.010355493092389452e+02
1.469470230473751471e+00 5.010177559333424142e+02
1.469570262483994805e+00 5.009998215625803368e+02
1.469670294494238139e+00 5.009817463020009995e+02
1.469770326504481472e+00 5.009635302604384037e+02
1.469870358514724584e+00 5.009451735505091960e+02
1.469970390524967918e+00 5.009266762886128390e+02
1.470070422535211252e+00 5.009080385949278025e+02
1.470170454545454364e+00 5.008892605934119615e+02
1.470270486555697920e+00 5.008703424117991290e+02
1.470370518565941031e+00 5.008512841815970660e+02
1.470470550576184143e+00 5.008320860380862882e+02
1.470570582586427699e+00 5.008127481203172238e+02
1.470670614596670811e+00 5.007932705711072003e+02
1.470770646606914145e+00 5.007736535370385127e+02
1.470870678617157479e+00 5.007538971684562057e+02
1.470970710627400591e+00 5.007340016194635837e+02
1.471070742637643924e+00 5.007139670479222104e+02
1.471170774647887258e+00 5.006937936154463955e+02
1.471270806658130592e+00 5.006734814874010340e+02
1.471370838668373704e+00 5.006530308328976275e+02
1.471470870678617038e+00 5.006324418247928065e+02
1.471570902688860372e+00 5.006117146396832140e+02
1.471670934699103483e+00 5.005908494579024364e+02
1.471770966709347039e+00 5.005698464635170808e+02
1.471870998719590151e+00 5.005487058443230239e+02
1.471971030729833263e+00 5.005274277918427401e+02
1.472071062740076819e+00 5.005060125013187076e+02
1.472171094750319931e+00 5.004844601717118167e+02
1.472271126760563487e+00 5.004627710056954015e+02
1.472371158770806598e+00 5.004409452096525683e+02
1.472471190781049710e+00 5.004189829936692036e+02
1.472571222791293266e+00 5.003968845715316434e+02
1.472671254801536378e+00 5.003746501607216715e+02
1.472771286811779934e+00 5.003522799824103799e+02
1.472871318822023046e+00 5.003297742614532808e+02
1.472971350832266157e+00 5.003071332263881459e+02
1.473071382842509713e+00 5.002843571094261961e+02
1.473171414852752825e+00 5.002614461464484066e+02
1.473271446862996159e+00 5.002384005770000499e+02
1.473371478873239493e+00 5.002152206442858073e+02
1.473471510883482605e+00 5.001919065951625498e+02
1.473571542893725939e+00 5.001684586801358705e+02
1.473671574903969272e+00 5.001448771533510467e+02
1.473771606914212606e+00 5.001211622725912207e+02
1.473871638924455718e+00 5.000973142992674525e+02
1.473971670934699052e+00 5.000733334984141720e+02
1.474071702944942386e+00 5.000492201386840634e+02
1.474171734955185498e+00 5.000249744923396520e+02
1.474271766965429054e+00 5.000005968352482455e+02
1.474371798975672165e+00 4.999760874468737484e+02
1.474471830985915277e+00 4.999514466102717734e+02
1.474571862996158833e+00 4.999266746120807738e+02
1.474671895006401945e+00 4.999017717425186902e+02
1.474771927016645279e+00 4.998767382953702736e+02
1.474871959026888613e+00 4.998515745679856650e+02
1.474971991037131724e+00 4.998262808612693675e+02
1.475072023047375058e+00 4.998008574796731978e+02
1.475172055057618392e+00 4.997753047311917953e+02
1.475272087067861726e+00 4.997496229273506287e+02
1.475372119078104838e+00 4.997238123832016754e+02
1.475472151088348172e+00 4.996978734173142129e+02
1.475572183098591506e+00 4.996718063517668043e+02
1.475672215108834617e+00 4.996456115121393964e+02
1.475772247119078173e+00 4.996192892275064423e+02
1.475872279129321285e+00 4.995928398304251914e+02
1.475972311139564397e+00 4.995662636569321080e+02
1.476072343149807953e+00 4.995395610465304799e+02
1.476172375160051065e+00 4.995127323421837104e+02
1.476272407170294620e+00 4.994857778903056555e+02
1.476372439180537732e+00 4.994586980407532906e+02
1.476472471190780844e+00 4.994314931468162513e+02
1.476572503201024400e+00 4.994041635652089326e+02
1.476672535211267512e+00 4.993767096560604273e+02
1.476772567221511068e+00 4.993491317829063405e+02
1.476872599231754180e+00 4.993214303126778759e+02
1.476972631241997291e+00 4.992936056156956965e+02
1.477072663252240847e+00 4.992656580656559413e+02
1.477172695262483959e+00 4.992375880396236880e+02
1.477272727272727293e+00 4.992093959180226648e+02
1.477372759282970627e+00 4.991810820846255865e+02
1.477472791293213739e+00 4.991526469265425021e+02
1.477572823303457072e+00 4.991240908342127796e+02
1.477672855313700406e+00 4.990954142013951014e+02
1.477772887323943740e+00 4.990666174251538791e+02
1.477872919334186852e+00 4.990377009058538533e+02
1.477972951344430186e+00 4.990086650471466214e+02
1.478072983354673520e+00 4.989795102559596671e+02
1.478173015364916631e+00 4.989502369424874360e+02
1.478273047375160187e+00 4.989208455201803645e+02
1.478373079385403299e+00 4.988913364057321473e+02
1.478473111395646411e+00 4.988617100190713245e+02
1.478573143405889967e+00 4.988319667833491167e+02
1.478673175416133079e+00 4.988021071249276019e+02
1.478773207426376191e+00 4.987721314733692566e+02
1.478873239436619746e+00 4.987420402614257000e+02
1.478973271446862858e+00 4.987118339250264398e+02
1.479073303457106192e+00 4.986815129032660252e+02
1.479173335467349526e+00 4.986510776383943266e+02
1.479273367477592638e+00 4.986205285758031209e+02
1.479373399487835972e+00 4.985898661640148930e+02
1.479473431498079306e+00 4.985590908546724336e+02
1.479573463508322639e+00 4.985282031025238325e+02
1.479673495518565751e+00 4.984972033654118491e+02
1.479773527528809085e+00 4.984660921042628843e+02
1.479873559539052419e+00 4.984348697830736228e+02
1.479973591549295531e+00 4.984035368688972767e+02
1.480073623559539087e+00 4.983720938318341496e+02
1.480173655569782198e+00 4.983405411450161751e+02
1.480273687580025310e+00 4.983088792845960029e+02
1.480373719590268866e+00 4.982771087297332997e+02
1.480473751600511978e+00 4.982452299625829255e+02
1.480573783610755534e+00 4.982132434682800977e+02
1.480673815620998646e+00 4.981811497349302726e+02
1.480773847631241757e+00 4.981489492535931163e+02
1.480873879641485313e+00 4.981166425182708508e+02
1.480973911651728425e+00 4.980842300258948967e+02
1.481073943661971981e+00 4.980517122763120597e+02
1.481173975672215093e+00 4.980190897722713430e+02
1.481274007682458205e+00 4.979863630194093389e+02
1.481374039692701761e+00 4.979535325262392575e+02
1.481474071702944872e+00 4.979205988041335900e+02
1.481574103713188206e+00 4.978875623673131372e+02
1.481674135723431540e+00 4.978544237328316058e+02
1.481774167733674652e+00 4.978211834205626474e+02
1.481874199743917986e+00 4.977878419531845111e+02
1.481974231754161320e+00 4.977543998561662306e+02
1.482074263764404654e+00 4.977208576577545500e+02
1.482174295774647765e+00 4.976872158889589173e+02
1.482274327784891099e+00 4.976534750835355680e+02
1.482374359795134433e+00 4.976196357779746791e+02
1.482474391805377545e+00 4.975856985114863278e+02
1.482574423815621101e+00 4.975516638259840647e+02
1.482674455825864213e+00 4.975175322660706456e+02
1.482774487836107324e+00 4.974833043790237070e+02
1.482874519846350880e+00 4.974489807147817828e+02
1.482974551856593992e+00 4.974145618259271941e+02
1.483074583866837326e+00 4.973800482676712136e+02
1.483174615877080660e+00 4.973454405978407067e+02
1.483274647887323772e+00 4.973107393768618749e+02
1.483374679897567106e+00 4.972759451677442257e+02
1.483474711907810439e+00 4.972410585360665891e+02
1.483574743918053773e+00 4.972060800499600646e+02
1.483674775928296885e+00 4.971710102800938671e+02
1.483774807938540219e+00 4.971358497996593542e+02
1.483874839948783553e+00 4.971005991843534275e+02
1.483974871959026665e+00 4.970652590123640380e+02
1.484074903969270220e+00 4.970298298643535873e+02
1.484174935979513332e+00 4.969943123234430686e+02
1.484274967989756444e+00 4.969587069751959234e+02
1.484375000000000000e+00 4.969230144076028068e+02
1.484475032010243112e+00 4.968872352110645920e+02
1.484575064020486668e+00 4.968513699783757147e+02
1.484675096030729780e+00 4.968154193047103035e+02
1.484775128040972891e+00 4.967793837876014891e+02
1.484875160051216447e+00 4.967432640269307740e+02
1.484975192061459559e+00 4.967070606249052389e+02
1.485075224071703115e+00 4.966707741860463443e+02
1.485175256081946227e+00 4.966344053171696373e+02
1.485275288092189339e+00 4.965979546273703136e+02
1.485375320102432894e+00 4.965614227280049136e+02
1.485475352112676006e+00 4.965248102326749517e+02
1.485575384122919340e+00 4.964881177572112847e+02
1.485675416133162674e+00 4.964513459196548411e+02
1.485775448143405786e+00 4.964144953402414444e+02
1.485875480153649120e+00 4.963775666413839645e+02
1.485975512163892454e+00 4.963405604476541839e+02
1.486075544174135787e+00 4.963034773857683604e+02
1.486175576184378899e+00 4.962663180845672173e+02
1.486275608194622233e+00 4.962290831749987206e+02
1.486375640204865567e+00 4.961917732901025602e+02
1.486475672215108679e+00 4.961543890649912782e+02
1.486575704225352235e+00 4.961169311368324770e+02
1.486675736235595346e+00 4.960794001448325616e+02
1.486775768245838458e+00 4.960417967302175839e+02
1.486875800256082014e+00 4.960041215362166440e+02
1.486975832266325126e+00 4.959663752080428480e+02
1.487075864276568460e+00 4.959285583928768233e+02
1.487175896286811794e+00 4.958906717398476758e+02
1.487275928297054906e+00 4.958527159000168467e+02
1.487375960307298239e+00 4.958146915263575920e+02
1.487475992317541573e+00 4.957765992737379293e+02
1.487576024327784907e+00 4.957384397989034142e+02
1.487676056338028019e+00 4.957002137604581549e+02
1.487776088348271353e+00 4.956619218188466789e+02
1.487876120358514687e+00 4.956235646363355158e+02
1.487976152368757798e+00 4.955851428769949507e+02
1.488076184379001354e+00 4.955466572066799813e+02
1.488176216389244466e+00 4.955081082930137200e+02
1.488276248399487578e+00 4.954694968053673279e+02
1.488376280409731134e+00 4.954308234148411998e+02
1.488476312419974246e+00 4.953920887942472859e+02
1.488576344430217802e+00 4.953532936180907882e+02
1.488676376440460913e+00 4.953144385625493555e+02
1.488776408450704025e+00 4.952755243054575089e+02
1.488876440460947581e+00 4.952365515262848703e+02
1.488976472471190693e+00 4.951975209061196779e+02
1.489076504481434249e+00 4.951584331276467310e+02
1.489176536491677361e+00 4.951192888751324972e+02
1.489276568501920472e+00 4.950800888344039095e+02
1.489376600512164028e+00 4.950408336928283006e+02
1.489476632522407140e+00 4.950015241392972030e+02
1.489576664532650252e+00 4.949621608642044066e+02
1.489676696542893808e+00 4.949227445594274286e+02
1.489776728553136920e+00 4.948832759183123926e+02
1.489876760563380254e+00 4.948437556356460618e+02
1.489976792573623587e+00 4.948041844076461757e+02
1.490076824583866699e+00 4.947645629319354725e+02
1.490176856594110033e+00 4.947248919075251479e+02
1.490276888604353367e+00 4.946851720347946184e+02
1.490376920614596701e+00 4.946454040154736163e+02
1.490476952624839813e+00 4.946055885526195652e+02
1.490576984635083146e+00 4.945657263506010963e+02
1.490677016645326480e+00 4.945258181150771861e+02
1.490777048655569592e+00 4.944858645529774321e+02
1.490877080665813148e+00 4.944458663724828966e+02
1.490977112676056260e+00 4.944058242830066092e+02
1.491077144686299372e+00 4.943657389951724781e+02
1.491177176696542928e+00 4.943256112207985780e+02
1.491277208706786039e+00 4.942854416728728779e+02
1.491377240717029373e+00 4.942452310655382917e+02
1.491477272727272707e+00 4.942049801140689169e+02
1.491577304737515819e+00 4.941646895348531530e+02
1.491677336747759153e+00 4.941243600453716454e+02
1.491777368758002487e+00 4.940839923641779592e+02
1.491877400768245820e+00 4.940435872108805029e+02
1.491977432778488932e+00 4.940031453061184834e+02
1.492077464788732266e+00 4.939626673715460470e+02
1.492177496798975600e+00 4.939221541298114744e+02
1.492277528809218712e+00 4.938816063045342162e+02
1.492377560819462268e+00 4.938410246202870439e+02
1.492477592829705380e+00 4.938004098025771782e+02
1.492577624839948491e+00 4.937597625778233805e+02
1.492677656850192047e+00 4.937190836733381047e+02
1.492777688860435159e+00 4.936783738173059533e+02
1.492877720870678715e+00 4.936376337387631565e+02
1.492977752880921827e+00 4.935968641675797244e+02
1.493077784891164939e+00 4.935560658344359126e+02
1.493177816901408494e+00 4.935152394708052270e+02
1.493277848911651606e+00 4.934743858089304922e+02
1.493377880921895162e+00 4.934335055818074238e+02
1.493477912932138274e+00 4.933925995231620050e+02
1.493577944942381386e+00 4.933516683674297383e+02
1.493677976952624942e+00 4.933107128497377971e+02
1.493778008962868054e+00 4.932697337058816629e+02
1.493878040973111387e+00 4.932287316723068216e+02
1.493978072983354721e+00 4.931877074860866514e+02
1.494078104993597833e+00 4.931466618849049155e+02
1.494178137003841167e+00 4.931055956070312050e+02
1.494278169014084501e+00 4.930645093913045685e+02
1.494378201024327835e+00 4.930234039771110020e+02
1.494478233034570946e+00 4.929822801043613936e+02
1.494578265044814280e+00 4.929411385134746979e+02
1.494678297055057614e+00 4.928999799453549713e+02
1.494778329065300726e+00 4.928588051413718745e+02
1.494878361075544282e+00 4.928176148433390722e+02
1.494978393085787394e+00 4.927764097934947358e+02
1.495078425096030506e+00 4.927351907344806250e+02
1.495178457106274061e+00 4.926939584093219082e+02
1.495278489116517173e+00 4.926527135614069266e+02
1.495378521126760507e+00 4.926114569344643428e+02
1.495478553137003841e+00 4.925701892725448943e+02
1.495578585147246953e+00 4.925289113200022371e+02
1.495678617157490287e+00 4.924876238214680484e+02
1.495778649167733620e+00 4.924463275218342915e+02
1.495878681177976954e+00 4.924050231662326382e+02
1.495978713188220066e+00 4.923637115000138920e+02
1.496078745198463400e+00 4.923223932687258753e+02
1.496178777208706734e+00 4.922810692180942169e+02
1.496278809218949846e+00 4.922397400940023431e+02
1.496378841229193402e+00 4.921984066424687398e+02
1.496478873239436513e+00 4.921570696096290476e+02
1.496578905249679625e+00 4.921157297417138352e+02
1.496678937259923181e+00 4.920743877850270565e+02
1.496778969270166293e+00 4.920330444859289400e+02
1.496879001280409849e+00 4.919917005908112060e+02
1.496979033290652961e+00 4.919503568460802398e+02
1.497079065300896072e+00 4.919090139981343555e+02
1.497179097311139628e+00 4.918676727933428765e+02
1.497279129321382740e+00 4.918263339780276624e+02
1.497379161331626296e+00 4.917849982984415647e+02
1.497479193341869408e+00 4.917436665007466559e+02
1.497579225352112520e+00 4.917023393309955281e+02
1.497679257362356076e+00 4.916610175351099201e+02
1.497779289372599187e+00 4.916197018588609353e+02
1.497879321382842521e+00 4.915783930478468164e+02
1.497979353393085855e+00 4.915370918474748692e+02
1.498079385403328967e+00 4.914957990029394637e+02
1.498179417413572301e+00 4.914545152592015143e+02
1.498279449423815635e+00 4.914132413609685273e+02
1.498379481434058969e+00 4.913719780526744216e+02
1.498479513444302080e+00 4.913307260784589516e+02
1.498579545454545414e+00 4.912894861821463905e+02
1.498679577464788748e+00 4.912482591072272839e+02
1.498779609475031860e+00 4.912070455968344618e+02
1.498879641485275416e+00 4.911658463937272927e+02
1.498979673495518528e+00 4.911246622402679805e+02
1.499079705505761639e+00 4.910834938784014980e+02
1.499179737516005195e+00 4.910423420496377958e+02
1.499279769526248307e+00 4.910012074950286660e+02
1.499379801536491641e+00 4.909600909551490986e+02
1.499479833546734975e+00 4.909189931700760781e+02
1.499579865556978087e+00 4.908779148793691434e+02
1.499679897567221420e+00 4.908368568220509474e+02
1.499779929577464754e+00 4.907958197365837236e+02
1.499879961587708088e+00 4.907548043608542798e+02
1.499979993597951200e+00 4.907138114321489297e+02
1.500080025608194534e+00 4.906728416871371223e+02
1.500180057618437868e+00 4.420329727745922241e+02
1.500280089628680980e+00 4.419141948105992128e+02
1.500380121638924535e+00 4.417954698784008087e+02
1.500480153649167647e+00 4.416767999136955041e+02
1.500580185659410759e+00 4.415581868506894239e+02
1.500680217669654315e+00 4.414396326220450533e+02
1.500780249679897427e+00 4.413211391588272363e+02
1.500880281690140539e+00 4.412027083904475830e+02
1.500980313700384094e+00 4.410843422446129694e+02
1.501080345710627206e+00 4.409660426472719905e+02
1.501180377720870762e+00 4.408478115225601073e+02
1.501280409731113874e+00 4.407296507927470088e+02
1.501380441741356986e+00 4.406115623781842601e+02
1.501480473751600542e+00 4.404935481972495950e+02
1.501580505761843654e+00 4.403756101662960418e+02
1.501680537772087209e+00 4.402577501995979787e+02
1.501780569782330321e+00 4.401399702092975303e+02
1.501880601792573433e+00 4.400222721053518740e+02
1.501980633802816989e+00 4.399046577954803183e+02
1.502080665813060101e+00 4.397871291851125193e+02
1.502180697823303435e+00 4.396696881773327732e+02
1.502280729833546769e+00 4.395523366728303358e+02
1.502380761843789880e+00 4.394350765698453642e+02
1.502480793854033214e+00 4.393179097641162798e+02
1.502580825864276548e+00 4.392008381488275859e+02
1.502680857874519882e+00 4.390838636145572309e+02
1.502780889884762994e+00 4.389669880492237439e+02
1.502880921895006328e+00 4.388502133380362125e+02
1.502980953905249661e+00 4.387335413634391443e+02
1.503080985915492773e+00 4.386169740050617634e+02
1.503181017925736329e+00 4.385005131396665092e+02
1.503281049935979441e+00 4.383841606410961731e+02
1.503381081946222553e+00 4.382679183802229659e+02
1.503481113956466109e+00 4.381517882248958813e+02
1.503581145966709220e+00 4.380357720398896504e+02
1.503681177976952554e+00 4.379198716868531847e+02
1.503781209987195888e+00 4.378040890242583600e+02
1.503881241997439000e+00 4.376884259073476073e+02
1.503981274007682334e+00 4.375728841880838900e+02
1.504081306017925668e+00 4.374574657151002839e+02
1.504181338028169002e+00 4.373421723336459763e+02
1.504281370038412113e+00 4.372270058855388015e+02
1.504381402048655447e+00 4.371119682091120922e+02
1.504481434058898781e+00 4.369970611391653392e+02
1.504581466069141893e+00 4.368822865069124646e+02
1.504681498079385449e+00 4.367676461399332766e+02
1.504781530089628561e+00 4.366531418621205489e+02
1.504881562099871672e+00 4.365387754936319880e+02
1.504981594110115228e+00 4.364245488508390736e+02
1.505081626120358340e+00 4.363104637462778896e+02
1.505181658130601896e+00 4.361965219885974534e+02
1.505281690140845008e+00 4.360827253825132743e+02
1.505381722151088120e+00 4.359690757287534666e+02
1.505481754161331676e+00 4.358555748240132743e+02
1.505581786171574787e+00 4.357422244609031168e+02
1.505681818181818343e+00 4.356290264279011240e+02
1.505781850192061455e+00 4.355159825093027166e+02
1.505881882202304567e+00 4.354030944851719482e+02
1.505981914212548123e+00 4.352903641312935292e+02
1.506081946222791235e+00 4.351777932191233731e+02
1.506181978233034569e+00 4.350653835157403364e+02
1.506282010243277902e+00 4.349531367837976177e+02
1.506382042253521014e+00 4.348410547814750089e+02
1.506482074263764348e+00 4.347291392624304649e+02
1.506582106274007682e+00 4.346173919757520139e+02
1.506682138284251016e+00 4.345058146659098952e+02
1.506782170294494128e+00 4.343944090727098910e+02
1.506882202304737461e+00 4.342831769312443839e+02
1.506982234314980795e+00 4.341721199718460866e+02
1.507082266325223907e+00 4.340612399200399523e+02
1.507182298335467463e+00 4.339505384964975292e+02
1.507282330345710575e+00 4.338400174169887578e+02
1.507382362355953687e+00 4.337296783923356429e+02
1.507482394366197243e+00 4.336195231283652447e+02
1.507582426376440354e+00 4.335095533258648857e+02
1.507682458386683688e+00 4.333997706805342318e+02
1.507782490396927022e+00 4.332901768829387947e+02
1.507882522407170134e+00 4.331807736184674695e+02
1.507982554417413468e+00 4.330715625672816032e+02
1.508082586427656802e+00 4.329625454042740671e+02
1.508182618437900135e+00 4.328537237990209405e+02
1.508282650448143247e+00 4.327450994157381956e+02
1.508382682458386581e+00 4.326366739132344037e+02
1.508482714468629915e+00 4.325284489448687282e+02
1.508582746478873027e+00 4.324204261585033464e+02
1.508682778489116583e+00 4.323126071964619541e+02
1.508782810499359694e+00 4.322049936954812779e+02
1.508882842509602806e+00 4.320975872866716827e+02
1.508982874519846362e+00 4.319903895954694235e+02
1.509082906530089474e+00 4.318834022415951495e+02
1.509182938540333030e+00 4.317766268390089976e+02
1.509282970550576142e+00 4.316700649958677332e+02
1.509383002560819254e+00 4.315637183144815481e+02
1.509483034571062809e+00 4.314575883912697805e+02
1.509583066581305921e+00 4.313516768167215787e+02
1.509683098591549477e+00 4.312459851753477551e+02
1.509783130601792589e+00 4.311405150456435535e+02
1.509883162612035701e+00 4.310352680000435726e+02
1.509983194622279257e+00 4.309302456048796444e+02
1.510083226632522369e+00 4.308254494203404192e+02
1.510183258642765702e+00 4.307208810004279940e+02
1.510283290653009036e+00 4.306165418929181783e+02
1.510383322663252148e+00 4.305124336393183739e+02
1.510483354673495482e+00 4.304085577748254536e+02
1.510583386683738816e+00 4.303049158282860844e+02
1.510683418693982150e+00 4.302015093221571078e+02
1.510783450704225261e+00 4.300983397724623956e+02
1.510883482714468595e+00 4.299954086887544236e+02
1.510983514724711929e+00 4.298927175740744246e+02
1.511083546734955041e+00 4.297902679249111770e+02
1.511183578745198597e+00 4.296880612311626351e+02
1.511283610755441709e+00 4.295860989760961388e+02
1.511383642765684820e+00 4.294843826363089647e+02
1.511483674775928376e+00 4.293829136816895016e+02
1.511583706786171488e+00 4.292816935753782559e+02
1.511683738796414600e+00 4.291807237737310743e+02
1.511783770806658156e+00 4.290800057262775908e+02
1.511883802816901268e+00 4.289795408756853021e+02
1.511983834827144602e+00 4.288793306577223348e+02
1.512083866837387935e+00 4.287793765012174276e+02
1.512183898847631047e+00 4.286796798280246321e+02
1.512283930857874381e+00 4.285802420529857955e+02
1.512383962868117715e+00 4.284810645838914525e+02
1.512483994878361049e+00 4.283821488214471174e+02
1.512584026888604161e+00 4.282834961592357672e+02
1.512684058898847494e+00 4.281851079836793019e+02
1.512784090909090828e+00 4.280869856740068826e+02
1.512884122919333940e+00 4.279891306022149138e+02
1.512984154929577496e+00 4.278915441330333920e+02
1.513084186939820608e+00 4.277942276238913450e+02
1.513184218950063720e+00 4.276971824248793723e+02
1.513284250960307276e+00 4.276004098787173007e+02
1.513384282970550387e+00 4.275039113207178048e+02
1.513484314980793943e+00 4.274076880787526420e+02
1.513584346991037055e+00 4.273117414732190582e+02
1.513684379001280167e+00 4.272160728170042603e+02
1.513784411011523723e+00 4.271206834154536409e+02
1.513884443021766835e+00 4.270255745663365587e+02
1.513984475032010391e+00 4.269307475598127439e+02
1.514084507042253502e+00 4.268362036783991584e+02
1.514184539052496614e+00 4.267419441969396416e+02
1.514284571062740170e+00 4.266479703825687579e+02
1.514384603072983282e+00 4.265542834946834319e+02
1.514484635083226616e+00 4.264608847849076483e+02
1.514584667093469950e+00 4.263677754970634055e+02
1.514684699103713061e+00 4.262749568671379734e+02
1.514784731113956395e+00 4.261824301232527432e+02
1.514884763124199729e+00 4.260901964856321911e+02
1.514984795134443063e+00 4.259982571665744331e+02
1.515084827144686175e+00 4.259066133704194499e+02
1.515184859154929509e+00 4.258152662935198691e+02
1.515284891165172843e+00 4.257242171242093036e+02
1.515384923175415954e+00 4.256334670427763172e+02
1.515484955185659510e+00 4.255430172214304889e+02
1.515584987195902622e+00 4.254528688242774592e+02
1.515685019206145734e+00 4.253630230072872109e+02
1.515785051216389290e+00 4.252734809182670688e+02
1.515885083226632402e+00 4.251842436968325956e+02
1.515985115236875735e+00 4.250953124743800231e+02
1.516085147247119069e+00 4.250066883740580010e+02
1.516185179257362181e+00 4.249183725107403689e+02
1.516285211267605515e+00 4.248303659909992120e+02
1.516385243277848849e+00 4.247426699130771794e+02
1.516485275288092183e+00 4.246552853668610510e+02
1.516585307298335294e+00 4.245682134338560445e+02
1.516685339308578628e+00 4.244814551871585309e+02
1.516785371318821962e+00 4.243950116914307387e+02
1.516885403329065074e+00 4.243088840028739810e+02
1.516985435339308630e+00 4.242230731692063728e+02
1.517085467349551742e+00 4.241375802296340112e+02
1.517185499359794854e+00 4.240524062148285793e+02
1.517285531370038409e+00 4.239675521469011983e+02
1.517385563380281521e+00 4.238830190393807129e+02
1.517485595390525077e+00 4.237988078971864638e+02
1.517585627400768189e+00 4.237149197166075396e+02
1.517685659411011301e+00 4.236313554852774814e+02
1.517785691421254857e+00 4.235481161821506362e+02
1.517885723431497969e+00 4.234652027774825456e+02
1.517985755441741524e+00 4.233826162328030023e+02
1.518085787451984636e+00 4.233003575008975758e+02
1.518185819462227748e+00 4.232184275257834543e+02
1.518285851472471304e+00 4.231368272426879571e+02
1.518385883482714416e+00 4.230555575780276740e+02
1.518485915492957750e+00 4.229746194493870917e+02
1.518585947503201083e+00 4.228940137654975615e+02
1.518685979513444195e+00 4.228137414262163247e+02
1.518786011523687529e+00 4.227338033225072991e+02
1.518886043533930863e+00 4.226542003364202174e+02
1.518986075544174197e+00 4.225749333410711870e+02
1.519086107554417309e+00 4.224960032006229653e+02
1.519186139564660643e+00 4.224174107702665992e+02
1.519286171574903976e+00 4.223391568962014162e+02
1.519386203585147088e+00 4.222612424156172324e+02
1.519486235595390644e+00 4.221836681566753668e+02
1.519586267605633756e+00 4.221064349384923275e+02
1.519686299615876868e+00 4.220295435711199730e+02
1.519786331626120424e+00 4.219529948555295960e+02
1.519886363636363535e+00 4.218767895835940180e+02
1.519986395646606869e+00 4.218009285380703091e+02
1.520086427656850203e+00 4.217254124925856331e+02
1.520186459667093315e+00 4.216502422116178082e+02
1.520286491677336649e+00 4.215754184504818909e+02
1.520386523687579983e+00 4.215009419553132375e+02
1.520486555697823317e+00 4.214268134630523264e+02
1.520586587708066428e+00 4.213530337014298084e+02
1.520686619718309762e+00 4.212796033889526370e+02
1.520786651728553096e+00 4.212065232348874133e+02
1.520886683738796208e+00 4.211337939392481076e+02
1.520986715749039764e+00 4.210614161927824171e+02
1.521086747759282876e+00 4.209893906769561909e+02
1.521186779769525987e+00 4.209177180639417770e+02
1.521286811779769543e+00 4.208463990166053463e+02
1.521386843790012655e+00 4.207754341884927953e+02
1.521486875800256211e+00 4.207048242238179228e+02
1.521586907810499323e+00 4.206345697574516294e+02
1.521686939820742435e+00 4.205646714149081618e+02
1.521786971830985991e+00 4.204951298123338574e+02
1.521887003841229102e+00 4.204259455564982204e+02
1.521987035851472658e+00 4.203571192447805629e+02
1.522087067861715770e+00 4.202886514651598873e+02
1.522187099871958882e+00 4.202205427962063595e+02
1.522287131882202438e+00 4.201527938070685195e+02
1.522387163892445550e+00 4.200854050574663461e+02
1.522487195902688883e+00 4.200183770976797177e+02
1.522587227912932217e+00 4.199517104685404547e+02
1.522687259923175329e+00 4.198854057014241334e+02
1.522787291933418663e+00 4.198194633182398547e+02
1.522887323943661997e+00 4.197538838314235363e+02
1.522987355953905109e+00 4.196886677439302957e+02
1.523087387964148443e+00 4.196238155492239343e+02
1.523187419974391776e+00 4.195593277312750615e+02
1.523287451984635110e+00 4.194952047645488733e+02
1.523387483994878222e+00 4.194314471140012301e+02
1.523487516005121556e+00 4.193680552350726884e+02
1.523587548015364890e+00 4.193050295736794055e+02
1.523687580025608002e+00 4.192423705662120028e+02
1.523787612035851557e+00 4.191800786395260729e+02
1.523887644046094669e+00 4.191181542109392240e+02
1.523987676056337781e+00 4.190565976882257360e+02
1.524087708066581337e+00 4.189954094696120137e+02
1.524187740076824449e+00 4.189345899437720391e+02
1.524287772087067783e+00 4.188741394898241879e+02
1.524387804097311117e+00 4.188140584773270234e+02
1.524487836107554228e+00 4.187543472662766817e+02
1.524587868117797562e+00 4.186950062071024945e+02
1.524687900128040896e+00 4.186360356406661936e+02
1.524787932138284230e+00 4.185774358982580452e+02
1.524887964148527342e+00 4.185192073015952019e+02
1.524987996158770676e+00 4.184613501628206222e+02
1.525088028169014009e+00 4.184038647845002856e+02
1.525188060179257121e+00 4.183467514596231354e+02
1.525288092189500677e+00 4.182900104715991461e+02
1.525388124199743789e+00 4.182336420942607447e+02
1.525488156209986901e+00 4.181776465918597978e+02
1.525588188220230457e+00 4.181220242190699992e+02
1.525688220230473569e+00 4.180667752209863579e+02
1.525788252240717124e+00 4.180118998331251987e+02
1.525888284250960236e+00 4.179573982814264355e+02
1.525988316261203348e+00 4.179032707822535144e+02
1.526088348271446904e+00 4.178495175423958017e+02
1.526188380281690016e+00 4.177961387590709705e+02
1.526288412291933572e+00 4.177431346199262521e+02
1.526388444302176683e+00 4.176905053030397426e+02
1.526488476312419795e+00 4.176382509769265425e+02
1.526588508322663351e+00 4.175863718005383589e+02
1.526688540332906463e+00 4.175348679232697009e+02
1.526788572343149797e+00 4.174837394849596421e+02
1.526888604353393131e+00 4.174329866158961977e+02
1.526988636363636243e+00 4.173826094368214399e+02
1.527088668373879576e+00 4.173326080589351932e+02
1.527188700384122910e+00 4.172829825839000364e+02
1.527288732394366244e+00 4.172337331038473849e+02
1.527388764404609356e+00 4.171848597013815834e+02
1.527488796414852690e+00 4.171363624495874660e+02
1.527588828425096024e+00 4.170882414120338808e+02
1.527688860435339135e+00 4.170404966427831823e+02
1.527788892445582691e+00 4.169931281863958930e+02
1.527888924455825803e+00 4.169461360779379220e+02
1.527988956466068915e+00 4.168995203429875573e+02
1.528088988476312471e+00 4.168532809976445037e+02
1.528189020486555583e+00 4.168074180485374427e+02
1.528289052496798917e+00 4.167619314928305698e+02
1.528389084507042250e+00 4.167168213182328600e+02
1.528489116517285362e+00 4.166720875030085836e+02
1.528589148527528696e+00 4.166277300159835590e+02
1.528689180537772030e+00 4.165837488165570903e+02
1.528789212548015364e+00 4.165401438547099247e+02
1.528889244558258476e+00 4.164969150710148256e+02
1.528989276568501809e+00 4.164540623966462363e+02
1.529089308578745143e+00 4.164115857533925578e+02
1.529189340588988255e+00 4.163694850536646754e+02
1.529289372599231811e+00 4.163277602005089761e+02
1.529389404609474923e+00 4.162864110876176369e+02
1.529489436619718035e+00 4.162454375993411304e+02
1.529589468629961591e+00 4.162048396106997075e+02
1.529689500640204702e+00 4.161646169873953340e+02
1.529789532650448258e+00 4.161247695858256179e+02
1.529889564660691370e+00 4.160852972530955753e+02
1.529989596670934482e+00 4.160461998270310460e+02
1.530089628681178038e+00 4.160074771361927333e+02
1.530189660691421150e+00 4.159691289998886532e+02
1.530289692701664706e+00 4.159311552281896525e+02
1.530389724711907817e+00 4.158935556219430509e+02
1.530489756722150929e+00 4.158563299727869094e+02
1.530589788732394485e+00 4.158194780631656045e+02
1.530689820742637597e+00 4.157829996663455745e+02
1.530789852752880931e+00 4.157468945464279386e+02
1.530889884763124265e+00 4.157111624583686762e+02
1.530989916773367376e+00 4.156758031479902797e+02
1.531089948783610710e+00 4.156408163520018206e+02
1.531189980793854044e+00 4.156062017980120800e+02
1.531290012804097378e+00 4.155719592045492163e+02
1.531390044814340490e+00 4.155380882810775915e+02
1.531490076824583824e+00 4.155045887280130046e+02
1.531590108834827157e+00 4.154714602367426437e+02
1.531690140845070269e+00 4.154387024896425942e+02
1.531790172855313825e+00 4.154063151600961419e+02
1.531890204865556937e+00 4.153742979125119632e+02
1.531990236875800049e+00 4.153426504023426560e+02
1.532090268886043605e+00 4.153113722761045210e+02
1.532190300896286717e+00 4.152804631713977983e+02
1.532290332906530050e+00 4.152499227169238338e+02
1.532390364916773384e+00 4.152197505325079874e+02
1.532490396927016496e+00 4.151899462291170835e+02
1.532590428937259830e+00 4.151605094088821488e+02
1.532690460947503164e+00 4.151314396651174548e+02
1.532790492957746498e+00 4.151027365823432547e+02
1.532890524967989609e+00 4.150743997363056224e+02
1.532990556978232943e+00 4.150464286939979388e+02
1.533090588988476277e+00 4.150188230136847665e+02
1.533190620998719389e+00 4.149915822449213465e+02
1.533290653008962945e+00 4.149647059285775867e+02
1.533390685019206057e+00 4.149381935968601738e+02
1.533490717029449169e+00 4.149120447733353103e+02
1.533590749039692724e+00 4.148862589729532147e+02
1.533690781049935836e+00 4.148608357020688686e+02
1.533790813060178948e+00 4.148357744584686770e+02
1.533890845070422504e+00 4.148110747313912725e+02
1.533990877080665616e+00 4.147867360015559939e+02
1.534090909090909172e+00 4.147627577411826110e+02
1.534190941101152283e+00 4.147391394140197463e+02
1.534290973111395395e+00 4.147158804753672143e+02
1.534391005121638951e+00 4.146929803721034205e+02
1.534491037131882063e+00 4.146704385427092348e+02
1.534591069142125619e+00 4.146482544172947087e+02
1.534691101152368731e+00 4.146264274176249387e+02
1.534791133162611843e+00 4.146049569571451912e+02
1.534891165172855398e+00 4.145838424410093808e+02
1.534991197183098510e+00 4.145630832661056502e+02
1.535091229193341844e+00 4.145426788210826317e+02
1.535191261203585178e+00 4.145226284863790625e+02
1.535291293213828290e+00 4.145029316342482275e+02
1.535391325224071624e+00 4.144835876287883139e+02
1.535491357234314957e+00 4.144645958259686722e+02
1.535591389244558291e+00 4.144459555736601146e+02
1.535691421254801403e+00 4.144276662116600392e+02
1.535791453265044737e+00 4.144097270717248875e+02
1.535891485275288071e+00 4.143921374775964637e+02
1.535991517285531183e+00 4.143748967450312648e+02
1.536091549295774739e+00 4.143580041818324844e+02
1.536191581306017850e+00 4.143414590878771833e+02
1.536291613316260962e+00 4.143252607551459050e+02
1.536391645326504518e+00 4.143094084677551336e+02
1.536491677336747630e+00 4.142939015019852036e+02
1.536591709346990964e+00 4.142787391263132690e+02
1.536691741357234298e+00 4.142639206014424076e+02
1.536791773367477409e+00 4.142494451803330549e+02
1.536891805377720743e+00 4.142353121082342682e+02
1.536991837387964077e+00 4.142215206227162412e+02
1.537091869398207411e+00 4.142080699537008854e+02
1.537191901408450523e+00 4.141949593234937765e+02
1.537291933418693857e+00 4.141821879468178054e+02
1.537391965428937191e+00 4.141697550308446125e+02
1.537491997439180302e+00 4.141576597752253974e+02
1.537592029449423858e+00 4.141459013721280940e+02
1.537692061459666970e+00 4.141344790062669290e+02
1.537792093469910082e+00 4.141233918549363580e+02
1.537892125480153638e+00 4.141126390880467625e+02
1.537992157490396750e+00 4.141022198681541227e+02
1.538092189500640306e+00 4.140921333504985569e+02
1.538192221510883417e+00 4.140823786830353583e+02
1.538292253521126529e+00 4.140729550064704654e+02
1.538392285531370085e+00 4.140638614542948517e+02
1.538492317541613197e+00 4.140550971528193713e+02
1.538592349551856753e+00 4.140466612212106838e+02
1.538692381562099865e+00 4.140385527715243370e+02
1.538792413572342976e+00 4.140307709087423973e+02
1.538892445582586532e+00 4.140233147308082948e+02
1.538992477592829644e+00 4.140161833286617821e+02
1.539092509603072978e+00 4.140093757862767916e+02
1.539192541613316312e+00 4.140028911806957694e+02
1.539292573623559424e+00 4.139967285820678740e+02
1.539392605633802757e+00 4.139908870536835366e+02
1.539492637644046091e+00 4.139853656520132290e+02
1.539592669654289425e+00 4.139801634267442978e+02
1.539692701664532537e+00 4.139752794208167188e+02
1.539792733674775871e+00 4.139707126704620350e+02
1.539892765685019205e+00 4.139664622052398499e+02
1.539992797695262317e+00 4.139625270480769359e+02
1.540092829705505872e+00 4.139589062153039549e+02
1.540192861715748984e+00 4.139555987166943396e+02
1.540292893725992096e+00 4.139526035555019234e+02
1.540392925736235652e+00 4.139499197285007313e+02
1.540492957746478764e+00 4.139475462260225527e+02
1.540592989756722098e+00 4.139454820319965052e+02
1.540693021766965431e+00 4.139437261239877444e+02
1.540793053777208543e+00 4.139422774732367998e+02
1.540893085787451877e+00 4.139411350446997631e+02
1.540993117797695211e+00 4.139402977970856341e+02
1.541093149807938545e+00 4.139397646828999200e+02
1.541193181818181657e+00 4.139395346484806169e+02
1.541293213828424991e+00 4.139396066340408424e+02
1.541393245838668324e+00 4.139399795737087970e+02
1.541493277848911436e+00 4.139406523955668149e+02
1.541593309859154992e+00 4.139416240216942242e+02
1.541693341869398104e+00 4.139428933682061711e+02
1.541793373879641216e+00 4.139444593452958543e+02
1.541893405889884772e+00 4.139463208572751114e+02
1.541993437900127883e+00 4.139484768026155734e+02
1.542093469910371439e+00 4.139509260739906154e+02
1.542193501920614551e+00 4.139536675583168517e+02
1.542293533930857663e+00 4.139567001367955186e+02
1.542393565941101219e+00 4.139600226849543105e+02
1.542493597951344331e+00 4.139636340726908657e+02
1.542593629961587887e+00 4.139675331643123855e+02
1.542693661971830998e+00 4.139717188185806549e+02
1.542793693982074110e+00 4.139761898887534812e+02
1.542893725992317666e+00 4.139809452226262465e+02
1.542993758002560778e+00 4.139859836625772687e+02
1.543093790012804112e+00 4.139913040456085582e+02
1.543193822023047446e+00 4.139969052033891899e+02
1.543293854033290557e+00 4.140027859622994129e+02
1.543393886043533891e+00 4.140089451434748185e+02
1.543493918053777225e+00 4.140153815628465850e+02
1.543593950064020559e+00 4.140220940311884306e+02
1.543693982074263671e+00 4.140290813541599277e+02
1.543794014084507005e+00 4.140363423323480561e+02
1.543894046094750339e+00 4.140438757613140979e+02
1.543994078104993450e+00 4.140516804316361004e+02
1.544094110115237006e+00 4.140597551289542935e+02
1.544194142125480118e+00 4.140680986340145751e+02
1.544294174135723230e+00 4.140767097227133036e+02
1.544394206145966786e+00 4.140855871661428864e+02
1.544494238156209898e+00 4.140947297306348673e+02
1.544594270166453231e+00 4.141041361778066516e+02
1.544694302176696565e+00 4.141138052646060714e+02
1.544794334186939677e+00 4.141237357433549278e+02
1.544894366197183011e+00 4.141339263617969095e+02
1.544994398207426345e+00 4.141443758631413630e+02
1.545094430217669457e+00 4.141550829861084821e+02
1.545194462227912791e+00 4.141660464649764322e+02
1.545294494238156124e+00 4.141772650296259144e+02
1.545394526248399458e+00 4.141887374055860960e+02
1.545494558258642570e+00 4.142004623140808235e+02
1.545594590268885904e+00 4.142124384720752914e+02
1.545694622279129238e+00 4.142246645923199821e+02
1.545794654289372350e+00 4.142371393834002902e+02
1.545894686299615906e+00 4.142498615497800643e+02
1.545994718309859017e+00 4.142628297918482190e+02
1.546094750320102129e+00 4.142760428059681885e+02
1.546194782330345685e+00 4.142894992845208435e+02
1.546294814340588797e+00 4.143031979159526941e+02
1.546394846350832353e+00 4.143171373848234680e+02
1.546494878361075465e+00 4.143313163718528926e+02
1.546594910371318576e+00 4.143457335539662267e+02
1.546694942381562132e+00 4.143603876043421224e+02
1.546794974391805244e+00 4.143752771924615672e+02
1.546895006402048800e+00 4.143904009841510288e+02
1.546995038412291912e+00 4.144057576416347501e+02
1.547095070422535024e+00 4.144213458235780081e+02
1.547195102432778580e+00 4.144371641851377603e+02
1.547295134443021691e+00 4.144532113780070972e+02
1.547395166453265025e+00 4.144694860504653775e+02
1.547495198463508359e+00 4.144859868474254654e+02
1.547595230473751471e+00 4.145027124104797167e+02
1.547695262483994805e+00 4.145196613779507970e+02
1.547795294494238139e+00 4.145368323849371563e+02
1.547895326504481472e+00 4.145542240633621418e+02
1.547995358514724584e+00 4.145718350420208367e+02
1.548095390524967918e+00 4.145896639466303668e+02
1.548195422535211252e+00 4.146077093998767396e+02
1.548295454545454364e+00 4.146259700214617396e+02
1.548395486555697920e+00 4.146444444281539177e+02
1.548495518565941031e+00 4.146631312338348607e+02
1.548595550576184143e+00 4.146820290495488734e+02
1.548695582586427699e+00 4.147011364835499876e+02
1.548795614596670811e+00 4.147204521413522116e+02
1.548895646606914145e+00 4.147399746257768243e+02
1.548995678617157479e+00 4.147597025370014876e+02
1.549095710627400591e+00 4.147796344726074835e+02
1.549195742637643924e+00 4.147997690276315552e+02
1.549295774647887258e+00 4.148201047946112112e+02
1.549395806658130592e+00 4.148406403636357140e+02
1.549495838668373704e+00 4.148613743223927486e+02
1.549595870678617038e+00 4.148823052562208886e+02
1.549695902688860372e+00 4.149034317481542189e+02
1.549795934699103483e+00 4.149247523789735510e+02
1.549895966709347039e+00 4.149462657272554793e+02
1.549995998719590151e+00 4.149679703694206978e+02
1.550096030729833263e+00 4.149898648797829992e+02
1.550196062740076819e+00 4.150119478305979897e+02
1.550296094750319931e+00 4.150342177921135089e+02
1.550396126760563487e+00 4.150566733326168105e+02
1.550496158770806598e+00 4.150793130184849815e+02
1.550596190781049710e+00 4.151021354142329187e+02
1.550696222791293266e+00 4.151251390825646581e+02
1.550796254801536378e+00 4.151483225844192475e+02
1.550896286811779934e+00 4.151716844790229857e+02
1.550996318822023046e+00 4.151952233239365455e+02
1.551096350832266157e+00 4.152189376751042573e+02
1.551196382842509713e+00 4.152428260869050405e+02
1.551296414852752825e+00 4.152668871121999246e+02
1.551396446862996159e+00 4.152911193023814462e+02
1.551496478873239493e+00 4.153155212074228189e+02
1.551596510883482605e+00 4.153400913759282957e+02
1.551696542893725939e+00 4.153648283551810323e+02
1.551796574903969272e+00 4.153897306911929945e+02
1.551896606914212606e+00 4.154147969287524802e+02
1.551996638924455718e+00 4.154400256114771537e+02
1.552096670934699052e+00 4.154654152818580428e+02
1.552196702944942386e+00 4.154909644813137675e+02
1.552296734955185498e+00 4.155166717502364691e+02
1.552396766965429054e+00 4.155425356280410369e+02
1.552496798975672165e+00 4.155685546532170633e+02
1.552596830985915277e+00 4.155947273633736927e+02
1.552696862996158833e+00 4.156210522952923156e+02
1.552796895006401945e+00 4.156475279849743742e+02
1.552896927016645279e+00 4.156741529676902474e+02
1.552996959026888613e+00 4.157009257780276812e+02
1.553096991037131724e+00 4.157278449499427211e+02
1.553197023047375058e+00 4.157549090168064367e+02
1.553297055057618392e+00 4.157821165114567066e+02
1.553397087067861726e+00 4.158094659662433514e+02
1.553497119078104838e+00 4.158369559130804873e+02
1.553597151088348172e+00 4.158645848834939329e+02
1.553697183098591506e+00 4.158923514086693558e+02
1.553797215108834617e+00 4.159202540195032611e+02
1.553897247119078173e+00 4.159482912466494327e+02
1.553997279129321285e+00 4.159764616205681591e+02
1.554097311139564397e+00 4.160047636715776207e+02
1.554197343149807953e+00 4.160331959298969196e+02
1.554297375160051065e+00 4.160617569257016157e+02
1.554397407170294620e+00 4.160904451891660756e+02
1.554497439180537732e+00 4.161192592505158245e+02
1.554597471190780844e+00 4.161481976400748408e+02
1.554697503201024400e+00 4.161772588883141566e+02
1.554797535211267512e+00 4.162064415258991517e+02
1.554897567221511068e+00 4.162357440837395188e+02
1.554997599231754180e+00 4.162651650930359892e+02
1.555097631241997291e+00 4.162947030853306387e+02
1.555197663252240847e+00 4.163243565925525331e+02
1.555297695262483959e+00 4.163541241470663294e+02
1.555397727272727293e+00 4.163840042817225253e+02
1.555497759282970627e+00 4.164139955299031044e+02
1.555597791293213739e+00 4.164440964255693416e+02
1.555697823303457072e+00 4.164743055033110863e+02
1.555797855313700406e+00 4.165046212983938290e+02
1.555897887323943518e+00 4.165350423468057102e+02
1.555997919334186852e+00 4.165655671853064632e+02
1.556097951344430186e+00 4.165961943514739687e+02
1.556197983354673520e+00 4.166269223837516620e+02
1.556298015364916631e+00 4.166577498214960542e+02
1.556398047375159965e+00 4.166886752050252767e+02
1.556498079385403299e+00 4.167196970756640440e+02
1.556598111395646411e+00 4.167508139757926529e+02
1.556698143405889967e+00 4.167820244488926846e+02
1.556798175416133079e+00 4.168133270395954924e+02
1.556898207426376191e+00 4.168447202937277325e+02
1.556998239436619746e+00 4.168762027583583176e+02
1.557098271446862858e+00 4.169077729818463922e+02
1.557198303457106192e+00 4.169394295138862390e+02
1.557298335467349526e+00 4.169711709055546862e+02
1.557398367477592638e+00 4.170029957093581743e+02
1.557498399487835972e+00 4.170349024792767523e+02
1.557598431498079306e+00 4.170668897708134750e+02
1.557698463508322639e+00 4.170989561410385704e+02
1.557798495518565751e+00 4.171311001486353689e+02
1.557898527528809085e+00 4.171633203539473698e+02
1.557998559539052419e+00 4.171956153190227496e+02
1.558098591549295531e+00 4.172279836076614856e+02
1.558198623559539087e+00 4.172604237854600342e+02
1.558298655569782198e+00 4.172929344198569765e+02
1.558398687580025310e+00 4.173255140801780954e+02
1.558498719590268866e+00 4.173581613376832138e+02
1.558598751600511978e+00 4.173908747656090554e+02
1.558698783610755534e+00 4.174236529392155717e+02
1.558798815620998646e+00 4.174564944358324965e+02
1.558898847631241757e+00 4.174893978349002737e+02
1.558998879641485313e+00 4.175223617180180327e+02
1.559098911651728425e+00 4.175553846689871875e+02
1.559198943661971981e+00 4.175884652738550926e+02
1.559298975672215093e+00 4.176216021209614837e+02
1.559399007682458205e+00 4.176547938009799168e+02
1.559499039692701761e+00 4.176880389069641524e+02
1.559599071702944872e+00 4.177213360343908448e+02
1.559699103713188206e+00 4.177546837812036529e+02
1.559799135723431540e+00 4.177880807478576344e+02
1.559899167733674652e+00 4.178215255373619357e+02
1.559999199743917986e+00 4.178550167553238452e+02
1.560099231754161320e+00 4.178885530099906873e+02
1.560199263764404654e+00 4.179221329122952966e+02
1.560299295774647765e+00 4.179557550758976845e+02
1.560399327784891099e+00 4.179894181172280696e+02
1.560499359795134433e+00 4.180231206555288281e+02
1.560599391805377545e+00 4.180568613128981497e+02
1.560699423815621101e+00 4.180906387143338634e+02
1.560799455825864213e+00 4.181244514877722622e+02
1.560899487836107324e+00 4.181582982641326680e+02
1.560999519846350880e+00 4.181921776773596662e+02
1.561099551856593992e+00 4.182260883644633509e+02
1.561199583866837326e+00 4.182600289655622419e+02
1.561299615877080660e+00 4.182939981239252347e+02
1.561399647887323772e+00 4.183279944860115620e+02
1.561499679897567106e+00 4.183620167015130278e+02
1.561599711907810439e+00 4.183960634233952192e+02
1.561699743918053773e+00 4.184301333079381493e+02
1.561799775928296885e+00 4.184642250147762752e+02
1.561899807938540219e+00 4.184983372069415850e+02
1.561999839948783553e+00 4.185324685509006031e+02
1.562099871959026665e+00 4.185666177165979889e+02
1.562199903969270220e+00 4.186007833774943947e+02
1.562299935979513332e+00 4.186349642106073929e+02
1.562399967989756444e+00 4.186691588965516075e+02
1.562500000000000000e+00 4.187033661195765148e+02
1.562600032010243112e+00 4.187375845676093036e+02
1.562700064020486668e+00 4.187718129322907998e+02
1.562800096030729780e+00 4.188060499090164512e+02
1.562900128040972891e+00 4.188402941969742415e+02
1.563000160051216447e+00 4.188745444991851059e+02
1.563100192061459559e+00 4.189087995225391978e+02
1.563200224071703115e+00 4.189430579778374408e+02
1.563300256081946227e+00 4.189773185798258055e+02
1.563400288092189339e+00 4.190115800472367482e+02
1.563500320102432894e+00 4.190458411028257615e+02
1.563600352112676006e+00 4.190801004734087769e+02
1.563700384122919340e+00 4.191143568899008756e+02
1.563800416133162674e+00 4.191486090873523267e+02
1.563900448143405786e+00 4.191828558049862750e+02
1.564000480153649120e+00 4.192170957862360865e+02
1.564100512163892454e+00 4.192513277787818424e+02
1.564200544174135787e+00 4.192855505345860365e+02
1.564300576184378899e+00 4.193197628099321719e+02
1.564400608194622233e+00 4.193539633654581280e+02
1.564500640204865567e+00 4.193881509661954965e+02
1.564600672215108679e+00 4.194223243816015270e+02
1.564700704225352235e+00 4.194564823855989744e+02
1.564800736235595346e+00 4.194906237566075902e+02
1.564900768245838458e+00 4.195247472775829465e+02
1.565000800256082014e+00 4.195588517360478136e+02
1.565100832266325126e+00 4.195929359241303587e+02
1.565200864276568460e+00 4.196269986385966604e+02
1.565300896286811794e+00 4.196610386808864632e+02
1.565400928297054906e+00 4.196950548571459194e+02
1.565500960307298239e+00 4.197290459782637981e+02
1.565600992317541573e+00 4.197630108599024652e+02
1.565701024327784907e+00 4.197969483225345471e+02
1.565801056338028019e+00 4.198308571914734557e+02
1.565901088348271353e+00 4.198647362969097117e+02
1.566001120358514687e+00 4.198985844739405593e+02
1.566101152368757798e+00 4.199324005626057215e+02
1.566201184379001354e+00 4.199661834079188907e+02
1.566301216389244466e+00 4.199999318598988225e+02
1.566401248399487578e+00 4.200336447736031573e+02
1.566501280409731134e+00 4.200673210091601959e+02
1.566601312419974246e+00 4.201009594318002200e+02
1.566701344430217802e+00 4.201345589118869839e+02
1.566801376440460913e+00 4.201681183249486935e+02
1.566901408450704025e+00 4.202016365517100667e+02
1.567001440460947581e+00 4.202351124781223461e+02
1.567101472471190693e+00 4.202685449953942225e+02
1.567201504481433805e+00 4.203019330000227569e+02
1.567301536491677361e+00 4.203352753938229398e+02
1.567401568501920472e+00 4.203685710839571357e+02
1.567501600512164028e+00 4.204018189829666312e+02
1.567601632522407140e+00 4.204350180087990907e+02
1.567701664532650252e+00 4.204681670848401041e+02
1.567801696542893808e+00 4.205012651399389370e+02
1.567901728553136920e+00 4.205343111084423526e+02
1.568001760563380254e+00 4.205673039302184293e+02
1.568101792573623587e+00 4.206002425506866302e+02
1.568201824583866699e+00 4.206331259208479310e+02
1.568301856594110033e+00 4.206659529973096596e+02
1.568401888604353367e+00 4.206987227423152262e+02
1.568501920614596701e+00 4.207314341237714643e+02
1.568601952624839813e+00 4.207640861152741536e+02
1.568701984635083146e+00 4.207966776961370670e+02
1.568802016645326480e+00 4.208292078514188006e+02
1.568902048655569592e+00 4.208616755719471030e+02
1.569002080665813148e+00 4.208940798543474671e+02
1.569102112676056260e+00 4.209264197010680277e+02
1.569202144686299372e+00 4.209586941204062214e+02
1.569302176696542928e+00 4.209909021265330011e+02
1.569402208706786039e+00 4.210230427395198376e+02
1.569502240717029373e+00 4.210551149853624793e+02
1.569602272727272707e+00 4.210871178960069301e+02
1.569702304737515819e+00 4.211190505093734373e+02
1.569802336747759153e+00 4.211509118693805931e+02
1.569902368758002487e+00 4.211827010259709709e+02
1.570002400768245820e+00 4.212144170351329535e+02
1.570102432778488932e+00 4.212460589589258007e+02
1.570202464788732266e+00 4.212776258655031825e+02
1.570302496798975600e+00 4.213091168291352346e+02
1.570402528809218712e+00 4.213405309302331148e+02
1.570502560819462268e+00 4.213718672553693523e+02
1.570602592829705380e+00 4.214031248973025185e+02
1.570702624839948491e+00 4.214343029549992252e+02
1.570802656850192047e+00 4.214654005336536784e+02
1.570902688860435159e+00 4.214964167447133718e+02
1.571002720870678715e+00 4.215273507058959694e+02
1.571102752880921827e+00 4.215582015412149985e+02
1.571202784891164939e+00 4.215889683809969029e+02
1.571302816901408494e+00 4.216196503619044051e+02
1.571402848911651606e+00 4.216502466269561182e+02
1.571502880921895162e+00 4.216807563255457580e+02
1.571602912932138274e+00 4.217111786134636304e+02
1.571702944942381386e+00 4.217415126529160716e+02
1.571802976952624942e+00 4.217717576125438086e+02
1.571903008962868054e+00 4.218019126674421955e+02
1.572003040973111387e+00 4.218319769991786075e+02
1.572103072983354721e+00 4.218619497958142119e+02
1.572203104993597833e+00 4.218918302519185772e+02
1.572303137003841167e+00 4.219216175685911594e+02
1.572403169014084501e+00 4.219513109534772184e+02
1.572503201024327835e+00 4.219809096207854395e+02
1.572603233034570946e+00 4.220104127913065213e+02
1.572703265044814280e+00 4.220398196924291483e+02
1.572803297055057614e+00 4.220691295581584086e+02
1.572903329065300726e+00 4.220983416291297203e+02
1.573003361075544282e+00 4.221274551526281584e+02
1.573103393085787394e+00 4.221564693826029497e+02
1.573203425096030506e+00 4.221853835796832186e+02
1.573303457106274061e+00 4.222141970111943579e+02
1.573403489116517173e+00 4.222429089511729217e+02
1.573503521126760507e+00 4.222715186803815755e+02
1.573603553137003841e+00 4.223000254863233067e+02
1.573703585147246953e+00 4.223284286632583644e+02
1.573803617157490287e+00 4.223567275122152296e+02
1.573903649167733620e+00 4.223849213410067023e+02
1.574003681177976954e+00 4.224130094642436575e+02
1.574103713188220066e+00 4.224409912033477212e+02
1.574203745198463400e+00 4.224688658865638331e+02
1.574303777208706734e+00 4.224966328489766170e+02
1.574403809218949846e+00 4.225242914325178845e+02
1.574503841229193402e+00 4.225518409859839153e+02
1.574603873239436513e+00 4.225792808650442112e+02
1.574703905249679625e+00 4.226066104322557635e+02
1.574803937259923181e+00 4.226338290570729441e+02
1.574903969270166293e+00 4.226609361158600677e+02
1.575004001280409849e+00 4.226879309919009984e+02
1.575104033290652961e+00 4.227148130754127919e+02
1.575204065300896072e+00 4.227415817635531425e+02
1.575304097311139628e+00 4.227682364604322629e+02
1.575404129321382740e+00 4.227947765771235709e+02
1.575504161331626296e+00 4.228212015316713632e+02
1.575604193341869408e+00 4.228475107491026961e+02
1.575704225352112520e+00 4.228737036614352860e+02
1.575804257362356076e+00 4.228997797076864913e+02
1.575904289372599187e+00 4.229257383338823502e+02
1.576004321382842521e+00 4.229515789930659935e+02
1.576104353393085855e+00 4.229773011453060008e+02
1.576204385403328967e+00 4.230029042577048699e+02
1.576304417413572301e+00 4.230283878044037920e+02
1.576404449423815635e+00 4.230537512665946451e+02
1.576504481434058969e+00 4.230789941325233485e+02
1.576604513444302080e+00 4.231041158974980476e+02
1.576704545454545414e+00 4.231291160638962765e+02
1.576804577464788748e+00 4.231539941411701875e+02
1.576904609475031860e+00 4.231787496458533724e+02
1.577004641485275416e+00 4.232033821015667172e+02
1.577104673495518528e+00 4.232278910390220403e+02
1.577204705505761639e+00 4.232522759960316421e+02
1.577304737516005195e+00 4.232765365175082479e+02
1.577404769526248307e+00 4.233006721554722276e+02
1.577504801536491641e+00 4.233246824690577910e+02
1.577604833546734975e+00 4.233485670245127039e+02
1.577704865556978087e+00 4.233723253952065875e+02
1.577804897567221420e+00 4.233959571616318271e+02
1.577904929577464754e+00 4.234194619114084048e+02
1.578004961587708088e+00 4.234428392392861156e+02
1.578104993597951200e+00 4.234660887471475803e+02
1.578205025608194534e+00 4.234892100440124523e+02
1.578305057618437868e+00 4.235122027460365075e+02
1.578405089628680980e+00 4.235350664765170450e+02
1.578505121638924313e+00 4.235578008658910676e+02
1.578605153649167647e+00 4.235804055517422171e+02
1.578705185659410759e+00 4.236028801787952034e+02
1.578805217669654315e+00 4.236252243989237058e+02
1.578905249679897427e+00 4.236474378711449162e+02
1.579005281690140539e+00 4.236695202616244842e+02
1.579105313700384094e+00 4.236914712436746981e+02
1.579205345710627206e+00 4.237132904977545422e+02
1.579305377720870762e+00 4.237349777114699805e+02
1.579405409731113874e+00 4.237565325795725357e+02
1.579505441741356986e+00 4.237779548039596875e+02
1.579605473751600542e+00 4.237992440936723142e+02
1.579705505761843654e+00 4.238204001648946360e+02
1.579805537772087209e+00 4.238414227409514297e+02
1.579905569782330321e+00 4.238623115523061529e+02
1.580005601792573433e+00 4.238830663365608871e+02
1.580105633802816989e+00 4.239036868384506533e+02
1.580205665813060101e+00 4.239241728098432986e+02
1.580305697823303435e+00 4.239445240097350052e+02
1.580405729833546769e+00 4.239647402042486419e+02
1.580505761843789880e+00 4.239848211666280804e+02
1.580605793854033214e+00 4.240047666772361481e+02
1.580705825864276548e+00 4.240245765235509339e+02
1.580805857874519882e+00 4.240442505001600466e+02
1.580905889884762994e+00 4.240637884087567500e+02
1.581005921895006328e+00 4.240831900581361538e+02
1.581105953905249661e+00 4.241024552641886771e+02
1.581205985915492773e+00 4.241215838498953872e+02
1.581306017925736329e+00 4.241405756453226559e+02
1.581406049935979441e+00 4.241594304876164188e+02
1.581506081946222553e+00 4.241781482209960359e+02
1.581606113956466109e+00 4.241967286967463906e+02
1.581706145966709220e+00 4.242151717732145926e+02
1.581806177976952554e+00 4.242334773158013377e+02
1.581906209987195888e+00 4.242516451969516424e+02
1.582006241997439000e+00 4.242696752961528546e+02
1.582106274007682334e+00 4.242875674999211242e+02
1.582206306017925668e+00 4.243053217017983343e+02
1.582306338028169002e+00 4.243229378023402205e+02
1.582406370038412113e+00 4.243404157091117668e+02
1.582506402048655447e+00 4.243577553366748703e+02
1.582606434058898781e+00 4.243749566065826002e+02
1.582706466069141893e+00 4.243920194473682841e+02
1.582806498079385449e+00 4.244089437945366399e+02
1.582906530089628561e+00 4.244257295905542833e+02
1.583006562099871672e+00 4.244423767848391549e+02
1.583106594110115228e+00 4.244588853337525052e+02
1.583206626120358340e+00 4.244752552005865027e+02
1.583306658130601896e+00 4.244914863555528655e+02
1.583406690140845008e+00 4.245075787757753574e+02
1.583506722151088120e+00 4.245235324452760324e+02
1.583606754161331676e+00 4.245393473549640930e+02
1.583706786171574787e+00 4.245550235026257155e+02
1.583806818181818343e+00 4.245705608929106347e+02
1.583906850192061455e+00 4.245859595373207185e+02
1.584006882202304567e+00 4.246012194541989970e+02
1.584106914212548123e+00 4.246163406687144288e+02
1.584206946222791235e+00 4.246313232128516120e+02
1.584306978233034569e+00 4.246461671253953227e+02
1.584407010243277902e+00 4.246608724519200564e+02
1.584507042253521014e+00 4.246754392447743953e+02
1.584607074263764348e+00 4.246898675630680486e+02
1.584707106274007682e+00 4.247041574726572435e+02
1.584807138284251016e+00 4.247183090461323900e+02
1.584907170294494128e+00 4.247323223628000619e+02
1.585007202304737461e+00 4.247461975086723669e+02
1.585107234314980795e+00 4.247599345764493819e+02
1.585207266325223907e+00 4.247735336655049423e+02
1.585307298335467463e+00 4.247869948818704984e+02
1.585407330345710575e+00 4.248003183382204497e+02
1.585507362355953687e+00 4.248135041538558312e+02
1.585607394366197243e+00 4.248265524546878282e+02
1.585707426376440354e+00 4.248394633732222019e+02
1.585807458386683688e+00 4.248522370485428041e+02
1.585907490396927022e+00 4.248648736262931038e+02
1.586007522407170134e+00 4.248773732586611231e+02
1.586107554417413468e+00 4.248897361043619867e+02
1.586207586427656802e+00 4.249019623286189358e+02
1.586307618437900135e+00 4.249140521031476396e+02
1.586407650448143247e+00 4.249260056061362434e+02
1.586507682458386581e+00 4.249378230222297361e+02
1.586607714468629915e+00 4.249495045425084072e+02
1.586707746478873027e+00 4.249610503644720438e+02
1.586807778489116583e+00 4.249724606920202064e+02
1.586907810499359694e+00 4.249837357354320488e+02
1.587007842509602806e+00 4.249948757113494366e+02
1.587107874519846362e+00 4.250058808427550048e+02
1.587207906530089474e+00 4.250167513589536270e+02
1.587307938540333030e+00 4.250274874955537712e+02
1.587407970550576142e+00 4.250380894944440797e+02
1.587508002560819254e+00 4.250485576037767146e+02
1.587608034571062809e+00 4.250588920779447335e+02
1.587708066581305921e+00 4.250690931775609442e+02
1.587808098591549477e+00 4.250791611694388052e+02
1.587908130601792589e+00 4.250890963265692335e+02
1.588008162612035701e+00 4.250988989281012209e+02
1.588108194622279257e+00 4.251085692593183580e+02
1.588208226632522369e+00 4.251181076116183135e+02
1.588308258642765702e+00 4.251275142824897557e+02
1.588408290653009036e+00 4.251367895754911501e+02
1.588508322663252148e+00 4.251459338002281925e+02
1.588608354673495482e+00 4.251549472723300482e+02
1.588708386683738816e+00 4.251638303134284911e+02
1.588808418693982150e+00 4.251725832511328349e+02
1.588908450704225261e+00 4.251812064190077649e+02
1.589008482714468595e+00 4.251897001565505434e+02
1.589108514724711929e+00 4.251980648091648618e+02
1.589208546734955041e+00 4.252063007281410592e+02
1.589308578745198375e+00 4.252144082706280415e+02
1.589408610755441709e+00 4.252223877996112833e+02
1.589508642765684820e+00 4.252302396838878735e+02
1.589608674775928376e+00 4.252379642980427548e+02
1.589708706786171488e+00 4.252455620224215522e+02
1.589808738796414600e+00 4.252530332431082343e+02
1.589908770806658156e+00 4.252603783518991349e+02
1.590008802816901268e+00 4.252675977462760102e+02
1.590108834827144602e+00 4.252746918293834142e+02
1.590208866837387935e+00 4.252816610099995387e+02
1.590308898847631047e+00 4.252885057025132483e+02
1.590408930857874381e+00 4.252952263268971365e+02
1.590508962868117715e+00 4.253018233086788200e+02
1.590608994878361049e+00 4.253082970789189972e+02
1.590709026888604161e+00 4.253146480741808091e+02
1.590809058898847494e+00 4.253208767365043741e+02
1.590909090909090828e+00 4.253269835133801848e+02
1.591009122919333940e+00 4.253329688577220509e+02
1.591109154929577496e+00 4.253388332278386201e+02
1.591209186939820608e+00 4.253445770874066056e+02
1.591309218950063720e+00 4.253502009054425912e+02
1.591409250960307276e+00 4.253557051562764855e+02
1.591509282970550387e+00 4.253610903195219066e+02
1.591609314980793943e+00 4.253663568800477606e+02
1.591709346991037055e+00 4.253715053279511267e+02
1.591809379001280167e+00 4.253765361585287792e+02
1.591909411011523723e+00 4.253814498722463213e+02
1.592009443021766835e+00 4.253862469747122077e+02
1.592109475032010391e+00 4.253909279766454574e+02
1.592209507042253502e+00 4.253954933938504155e+02
1.592309539052496614e+00 4.253999437471831584e+02
1.592409571062740170e+00 4.254042795625240387e+02
1.592509603072983282e+00 4.254085013707494909e+02
1.592609635083226616e+00 4.254126097076985502e+02
1.592709667093469950e+00 4.254166051141459093e+02
1.592809699103713061e+00 4.254204881357693466e+02
1.592909731113956395e+00 4.254242593231227261e+02
1.593009763124199729e+00 4.254279192316013223e+02
1.593109795134443063e+00 4.254314684214141380e+02
1.593209827144686175e+00 4.254349074575521286e+02
1.593309859154929509e+00 4.254382369097577907e+02
1.593409891165172843e+00 4.254414573524923640e+02
1.593509923175415954e+00 4.254445693649074656e+02
1.593609955185659510e+00 4.254475735308108142e+02
1.593709987195902622e+00 4.254504704386368985e+02
1.593810019206145734e+00 4.254532606814140649e+02
1.593910051216389290e+00 4.254559448567329127e+02
1.594010083226632402e+00 4.254585235667144048e+02
1.594110115236875735e+00 4.254609974179788878e+02
1.594210147247119069e+00 4.254633670216113615e+02
1.594310179257362181e+00 4.254656329931317487e+02
1.594410211267605515e+00 4.254677959524607900e+02
1.594510243277848849e+00 4.254698565238880406e+02
1.594610275288092183e+00 4.254718153360390716e+02
1.594710307298335294e+00 4.254736730218422167e+02
1.594810339308578628e+00 4.254754302184960011e+02
1.594910371318821962e+00 4.254770875674354329e+02
1.595010403329065074e+00 4.254786457143002849e+02
1.595110435339308630e+00 4.254801053088991125e+02
1.595210467349551742e+00 4.254814670051785583e+02
1.595310499359794854e+00 4.254827314611864040e+02
1.595410531370038409e+00 4.254838993390420683e+02
1.595510563380281521e+00 4.254849713048987496e+02
1.595610595390525077e+00 4.254859480289118210e+02
1.595710627400768189e+00 4.254868301852038712e+02
1.595810659411011301e+00 4.254876184518294622e+02
1.595910691421254857e+00 4.254883135107439784e+02
1.596010723431497969e+00 4.254889160477655992e+02
1.596110755441741524e+00 4.254894267525426130e+02
1.596210787451984636e+00 4.254898463185189144e+02
1.596310819462227748e+00 4.254901754428973391e+02
1.596410851472471304e+00 4.254904148266073776e+02
1.596510883482714416e+00 4.254905651742685677e+02
1.596610915492957750e+00 4.254906271941557065e+02
1.596710947503201083e+00 4.254906015981637211e+02
1.596810979513444195e+00 4.254904891017719137e+02
1.596911011523687529e+00 4.254902904240093449e+02
1.597011043533930863e+00 4.254900062874199307e+02
1.597111075544174197e+00 4.254896374180237331e+02
1.597211107554417309e+00 4.254891845452860366e+02
1.597311139564660643e+00 4.254886484020767057e+02
1.597411171574903976e+00 4.254880297246377836e+02
1.597511203585147088e+00 4.254873292525464308e+02
1.597611235595390644e+00 4.254865477286779196e+02
1.597711267605633756e+00 4.254856858991710169e+02
1.597811299615876868e+00 4.254847445133914903e+02
1.597911331626120424e+00 4.254837243238944211e+02
1.598011363636363535e+00 4.254826260863886773e+02
1.598111395646606869e+00 4.254814505597021252e+02
1.598211427656850203e+00 4.254801985057417255e+02
1.598311459667093315e+00 4.254788706894597681e+02
1.598411491677336649e+00 4.254774678788152755e+02
1.598511523687579983e+00 4.254759908447387033e+02
1.598611555697823317e+00 4.254744403610943664e+02
1.598711587708066428e+00 4.254728172046420696e+02
1.598811619718309762e+00 4.254711221550036839e+02
1.598911651728553096e+00 4.254693559946223331e+02
1.599011683738796208e+00 4.254675195087276052e+02
1.599111715749039764e+00 4.254656134852973537e+02
1.599211747759282876e+00 4.254636387150206929e+02
1.599311779769525987e+00 4.254615959912597987e+02
1.599411811779769543e+00 4.254594861100148364e+02
1.599511843790012655e+00 4.254573098698837157e+02
1.599611875800256211e+00 4.254550680720259379e+02
1.599711907810499323e+00 4.254527615201257618e+02
1.599811939820742435e+00 4.254503910203523560e+02
1.599911971830985991e+00 4.254479573813244428e+02
1.600012003841229102e+00 4.254454614140710191e+02
1.600112035851472658e+00 4.254429039319942376e+02
1.600212067861715770e+00 4.254402857508311513e+02
1.600312099871958882e+00 4.254376076886165379e+02
1.600412131882202438e+00 4.254348705656442462e+02
1.600512163892445550e+00 4.254320752044287701e+02
1.600612195902688661e+00 4.254292224296681866e+02
1.600712227912932217e+00 4.254263130682064116e+02
1.600812259923175329e+00 4.254233479489937508e+02
1.600912291933418663e+00 4.254203279030493832e+02
1.601012323943661997e+00 4.254172537634232754e+02
1.601112355953905109e+00 4.254141263651570739e+02
1.601212387964148443e+00 4.254109465452478389e+02
1.601312419974391776e+00 4.254077151426076284e+02
1.601412451984635110e+00 4.254044329980266070e+02
1.601512483994878222e+00 4.254011009541328008e+02
1.601612516005121556e+00 4.253977198553569679e+02
1.601712548015364890e+00 4.253942905478896819e+02
1.601812580025608002e+00 4.253908138796471690e+02
1.601912612035851557e+00 4.253872907002302668e+02
1.602012644046094669e+00 4.253837218608869080e+02
1.602112676056337781e+00 4.253801082144723864e+02
1.602212708066581337e+00 4.253764506154138303e+02
1.602312740076824449e+00 4.253727499196668305e+02
1.602412772087067783e+00 4.253690069846822439e+02
1.602512804097311117e+00 4.253652226693621969e+02
1.602612836107554228e+00 4.253613978340268886e+02
1.602712868117797562e+00 4.253575333403709351e+02
1.602812900128040896e+00 4.253536300514282402e+02
1.602912932138284230e+00 4.253496888315322053e+02
1.603012964148527342e+00 4.253457105462767913e+02
1.603112996158770676e+00 4.253416960624780359e+02
1.603213028169014009e+00 4.253376462481347744e+02
1.603313060179257121e+00 4.253335619723922036e+02
1.603413092189500677e+00 4.253294441054999311e+02
1.603513124199743789e+00 4.253252935187757657e+02
1.603613156209986901e+00 4.253211110845662688e+02
1.603713188220230457e+00 4.253168976762084412e+02
1.603813220230473569e+00 4.253126541679889669e+02
1.603913252240717124e+00 4.253083814351098795e+02
1.604013284250960236e+00 4.253040803536441672e+02
1.604113316261203348e+00 4.252997518005035431e+02
1.604213348271446904e+00 4.252953966533930270e+02
1.604313380281690016e+00 4.252910157907788289e+02
1.604413412291933572e+00 4.252866100918445227e+02
1.604513444302176683e+00 4.252821804364555192e+02
1.604613476312419795e+00 4.252777277051193892e+02
1.604713508322663351e+00 4.252732527789474375e+02
1.604813540332906463e+00 4.252687565396156515e+02
1.604913572343149797e+00 4.252642398693267864e+02
1.605013604353393131e+00 4.252597036507727921e+02
1.605113636363636243e+00 4.252551487670939991e+02
1.605213668373879576e+00 4.252505761018420003e+02
1.605313700384122910e+00 4.252459865389413380e+02
1.605413732394366244e+00 4.252413809626510783e+02
1.605513764404609356e+00 4.252367602575256456e+02
1.605613796414852690e+00 4.252321253083779311e+02
1.605713828425096024e+00 4.252274770002378546e+02
1.605813860435339135e+00 4.252228162183196218e+02
1.605913892445582691e+00 4.252181438479771032e+02
1.606013924455825803e+00 4.252134607746702386e+02
1.606113956466068915e+00 4.252087678839246223e+02
1.606213988476312471e+00 4.252040660612941565e+02
1.606314020486555583e+00 4.251993561923227389e+02
1.606414052496798917e+00 4.251946391625059505e+02
1.606514084507042250e+00 4.251899158572539363e+02
1.606614116517285362e+00 4.251851871618522978e+02
1.606714148527528696e+00 4.251804539614245186e+02
1.606814180537772030e+00 4.251757171408947897e+02
1.606914212548015364e+00 4.251709775849489574e+02
1.607014244558258476e+00 4.251662361779981438e+02
1.607114276568501809e+00 4.251614938041394112e+02
1.607214308578745143e+00 4.251567513471195525e+02
1.607314340588988255e+00 4.251520096902970067e+02
1.607414372599231811e+00 4.251472697166037733e+02
1.607514404609474923e+00 4.251425323085080663e+02
1.607614436619718035e+00 4.251377983479781051e+02
1.607714468629961591e+00 4.251330687164423807e+02
1.607814500640204702e+00 4.251283442947540152e+02
1.607914532650448258e+00 4.251236259631542680e+02
1.608014564660691370e+00 4.251189146012326319e+02
1.608114596670934482e+00 4.251142110878922722e+02
1.608214628681178038e+00 4.251095163013120555e+02
1.608314660691421150e+00 4.251048311189081232e+02
1.608414692701664706e+00 4.251001564173002407e+02
1.608514724711907817e+00 4.250954930722717791e+02
1.608614756722150929e+00 4.250908419587333356e+02
1.608714788732394485e+00 4.250862039506897077e+02
1.608814820742637597e+00 4.250815799211975445e+02
1.608914852752880931e+00 4.250769707423330601e+02
1.609014884763124265e+00 4.250723772851536069e+02
1.609114916773367376e+00 4.250678004196622624e+02
1.609214948783610710e+00 4.250632410147710516e+02
1.609314980793854044e+00 4.250586999382639988e+02
1.609415012804097378e+00 4.250541780567623960e+02
1.609515044814340490e+00 4.250496762356883664e+02
1.609615076824583824e+00 4.250451953392275755e+02
1.609715108834827157e+00 4.250407362302955789e+02
1.609815140845070269e+00 4.250362997704991130e+02
1.609915172855313825e+00 4.250318868201044324e+02
1.610015204865556937e+00 4.250274982379966104e+02
1.610115236875800049e+00 4.250231348816492982e+02
1.610215268886043605e+00 4.250187976070843661e+02
1.610315300896286717e+00 4.250144872688406394e+02
1.610415332906530050e+00 4.250102047199366666e+02
1.610515364916773384e+00 4.250059508118348504e+02
1.610615396927016496e+00 4.250017263944081947e+02
1.610715428937259830e+00 4.249975323159051754e+02
1.610815460947503164e+00 4.249933694229127923e+02
1.610915492957746498e+00 4.249892385603251910e+02
1.611015524967989609e+00 4.249851405713052372e+02
1.611115556978232943e+00 4.249810762972533098e+02
1.611215588988476277e+00 4.249770465777712616e+02
1.611315620998719389e+00 4.249730522506279726e+02
1.611415653008962723e+00 4.249690941517266083e+02
1.611515685019206057e+00 4.249651731150677278e+02
1.611615717029449169e+00 4.249612899727189870e+02
1.611715749039692724e+00 4.249574455547779053e+02
1.611815781049935836e+00 4.249536406893404319e+02
1.611915813060178948e+00 4.249498762024654752e+02
1.612015845070422504e+00 4.249461529181447759e+02
1.612115877080665616e+00 4.249424716582641963e+02
1.612215909090909172e+00 4.249388332425741055e+02
1.612315941101152283e+00 4.249352384886575464e+02
1.612415973111395395e+00 4.249316882118918102e+02
1.612516005121638951e+00 4.249281832254218898e+02
1.612616037131882063e+00 4.249247243401232481e+02
1.612716069142125619e+00 4.249213123645701558e+02
1.612816101152368731e+00 4.249179481050050526e+02
1.612916133162611843e+00 4.249146323653028503e+02
1.613016165172855398e+00 4.249113659469421691e+02
1.613116197183098510e+00 4.249081496489705501e+02
1.613216229193341844e+00 4.249049842679735889e+02
1.613316261203585178e+00 4.249018705980429331e+02
1.613416293213828290e+00 4.248988094307445635e+02
1.613516325224071624e+00 4.248958015550870186e+02
1.613616357234314957e+00 4.248928477574897897e+02
1.613716389244558291e+00 4.248899488217525686e+02
1.613816421254801403e+00 4.248871055290233585e+02
1.613916453265044737e+00 4.248843186577680058e+02
1.614016485275288071e+00 4.248815889837383679e+02
1.614116517285531183e+00 4.248789172799433800e+02
1.614216549295774739e+00 4.248763043166158013e+02
1.614316581306017850e+00 4.248737508611838507e+02
1.614416613316260962e+00 4.248712576782405108e+02
1.614516645326504518e+00 4.248688255295119234e+02
1.614616677336747630e+00 4.248664551738290811e+02
1.614716709346990964e+00 4.248641473670975302e+02
1.614816741357234298e+00 4.248619028622664473e+02
1.614916773367477409e+00 4.248597224093001046e+02
1.615016805377720743e+00 4.248576067551483675e+02
1.615116837387964077e+00 4.248555566437173070e+02
1.615216869398207411e+00 4.248535728158398115e+02
1.615316901408450523e+00 4.248516560092463692e+02
1.615416933418693857e+00 4.248498069585369308e+02
1.615516965428937191e+00 4.248480263951527149e+02
1.615616997439180302e+00 4.248463150473447172e+02
1.615717029449423858e+00 4.248446736401488693e+02
1.615817061459666970e+00 4.248431028953573900e+02
1.615917093469910082e+00 4.248416035314874080e+02
1.616017125480153638e+00 4.248401762637575985e+02
1.616117157490396750e+00 4.248388218040566926e+02
1.616217189500640306e+00 4.248375408609186934e+02
1.616317221510883417e+00 4.248363341394936015e+02
1.616417253521126529e+00 4.248352023415206986e+02
1.616517285531370085e+00 4.248341461653026840e+02
1.616617317541613197e+00 4.248331663056766843e+02
1.616717349551856753e+00 4.248322634539891851e+02
1.616817381562099865e+00 4.248314382980685764e+02
1.616917413572342976e+00 4.248306915221994018e+02
1.617017445582586532e+00 4.248300238070953014e+02
1.617117477592829644e+00 4.248294358298736029e+02
1.617217509603072978e+00 4.248289282640297984e+02
1.617317541613316312e+00 4.248285017794099190e+02
1.617417573623559424e+00 4.248281570421876836e+02
1.617517605633802757e+00 4.248278947148384077e+02
1.617617637644046091e+00 4.248277154561110365e+02
1.617717669654289425e+00 4.248276199210076811e+02
1.617817701664532537e+00 4.248276087607549698e+02
1.617917733674775871e+00 4.248276826227810830e+02
1.618017765685019205e+00 4.248278421506918789e+02
1.618117797695262317e+00 4.248280879842455420e+02
1.618217829705505872e+00 4.248284207593281963e+02
1.618317861715748984e+00 4.248288411079314528e+02
1.618417893725992096e+00 4.248293496581264321e+02
1.618517925736235652e+00 4.248299470340429593e+02
1.618617957746478764e+00 4.248306338558438711e+02
1.618717989756722098e+00 4.248314107397031876e+02
1.618818021766965431e+00 4.248322782977821248e+02
1.618918053777208543e+00 4.248332371382065844e+02
1.619018085787451877e+00 4.248342878650456100e+02
1.619118117797695211e+00 4.248354310782874563e+02
1.619218149807938545e+00 4.248366673738178179e+02
1.619318181818181657e+00 4.248379973433984560e+02
1.619418213828424991e+00 4.248394215746433247e+02
1.619518245838668324e+00 4.248409406509995847e+02
1.619618277848911436e+00 4.248425551517246959e+02
1.619718309859154992e+00 4.248442656518642480e+02
1.619818341869398104e+00 4.248460727222326909e+02
1.619918373879641216e+00 4.248479769293911659e+02
1.620018405889884772e+00 4.248499788356271551e+02
1.620118437900127883e+00 4.248520789989340187e+02
1.620218469910371439e+00 4.248542779729901326e+02
1.620318501920614551e+00 4.248565763071404717e+02
1.620418533930857663e+00 4.248589745463734744e+02
1.620518565941101219e+00 4.248614732313045579e+02
1.620618597951344331e+00 4.248640728981549159e+02
1.620718629961587887e+00 4.248667740787322487e+02
1.620818661971830998e+00 4.248695773004125726e+02
1.620918693982074110e+00 4.248724830861193595e+02
1.621018725992317666e+00 4.248754919543065398e+02
1.621118758002560778e+00 4.248786044189397444e+02
1.621218790012804112e+00 4.248818209894770348e+02
1.621318822023047446e+00 4.248851421708515090e+02
1.621418854033290557e+00 4.248885684634534528e+02
1.621518886043533891e+00 4.248921003631118083e+02
1.621618918053777225e+00 4.248957383610774059e+02
1.621718950064020559e+00 4.248994829440054559e+02
1.621818982074263671e+00 4.249033345939383253e+02
1.621919014084507005e+00 4.249072937882885412e+02
1.622019046094750339e+00 4.249113609998214542e+02
1.622119078104993450e+00 4.249155366966406291e+02
1.622219110115237006e+00 4.249198213421707351e+02
1.622319142125480118e+00 4.249242153951386172e+02
1.622419174135723230e+00 4.249287193095630073e+02
1.622519206145966786e+00 4.249333335347325828e+02
1.622619238156209898e+00 4.249380585151963601e+02
1.622719270166453009e+00 4.249428946907435147e+02
1.622819302176696565e+00 4.249478424963926955e+02
1.622919334186939677e+00 4.249529023623729245e+02
1.623019366197183011e+00 4.249580747141120014e+02
1.623119398207426345e+00 4.249633599722209851e+02
1.623219430217669457e+00 4.249687585524806082e+02
1.623319462227912791e+00 4.249742708658255879e+02
1.623419494238156124e+00 4.249798973183332578e+02
1.623519526248399458e+00 4.249856383112078220e+02
1.623619558258642570e+00 4.249914942407690432e+02
1.623719590268885904e+00 4.249974654984365543e+02
1.623819622279129238e+00 4.250035524707195691e+02
1.623919654289372350e+00 4.250097555392026720e+02
1.624019686299615906e+00 4.250160750805335397e+02
1.624119718309859017e+00 4.250225114664095827e+02
1.624219750320102129e+00 4.250290650635698171e+02
1.624319782330345685e+00 4.250357362337771860e+02
1.624419814340588797e+00 4.250425253338116249e+02
1.624519846350832353e+00 4.250494327154561347e+02
1.624619878361075465e+00 4.250564587254872322e+02
1.624719910371318576e+00 4.250636037056618761e+02
1.624819942381562132e+00 4.250708679927087132e+02
1.624919974391805244e+00 4.250782519183164254e+02
1.625020006402048800e+00 4.250857558091240662e+02
1.625120038412291912e+00 4.250933799867093512e+02
1.625220070422535024e+00 4.251011247675810978e+02
1.625320102432778580e+00 4.251089904631679701e+02
1.625420134443021691e+00 4.251169773798089864e+02
1.625520166453265025e+00 4.251250858187446511e+02
1.625620198463508359e+00 4.251333160761092245e+02
1.625720230473751471e+00 4.251416684429184443e+02
1.625820262483994805e+00 4.251501432050638414e+02
1.625920294494238139e+00 4.251587406433046681e+02
1.626020326504481472e+00 4.251674610332568136e+02
1.626120358514724584e+00 4.251763046453880293e+02
1.626220390524967918e+00 4.251852717450078671e+02
1.626320422535211252e+00 4.251943625922625074e+02
1.626420454545454364e+00 4.252035774421245264e+02
1.626520486555697920e+00 4.252129165443878946e+02
1.626620518565941031e+00 4.252223801436609847e+02
1.626720550576184143e+00 4.252319684793590682e+02
1.626820582586427699e+00 4.252416817856994840e+02
1.626920614596670811e+00 4.252515202916933390e+02
1.627020646606914145e+00 4.252614842211403356e+02
1.627120678617157479e+00 4.252715737926240536e+02
1.627220710627400591e+00 4.252817892195053560e+02
1.627320742637643924e+00 4.252921307099173873e+02
1.627420774647887258e+00 4.253025984667600028e+02
1.627520806658130592e+00 4.253131926876966418e+02
1.627620838668373704e+00 4.253239135651465403e+02
1.627720870678617038e+00 4.253347612862837650e+02
1.627820902688860372e+00 4.253457360330303345e+02
1.627920934699103483e+00 4.253568379820537189e+02
1.628020966709347039e+00 4.253680673047625760e+02
1.628120998719590151e+00 4.253794241673027727e+02
1.628221030729833263e+00 4.253909087305559638e+02
1.628321062740076819e+00 4.254025211501335662e+02
1.628421094750319931e+00 4.254142615763758499e+02
1.628521126760563487e+00 4.254261301543494938e+02
1.628621158770806598e+00 4.254381270238425259e+02
1.628721190781049710e+00 4.254502523193665411e+02
1.628821222791293266e+00 4.254625061701503910e+02
1.628921254801536378e+00 4.254748887001406956e+02
1.629021286811779934e+00 4.254874000279993993e+02
1.629121318822023046e+00 4.255000402671039410e+02
1.629221350832266157e+00 4.255128095255433891e+02
1.629321382842509713e+00 4.255257079061200898e+02
1.629421414852752825e+00 4.255387355063473933e+02
1.629521446862996159e+00 4.255518924184504499e+02
1.629621478873239493e+00 4.255651787293649022e+02
1.629721510883482605e+00 4.255785945207371128e+02
1.629821542893725939e+00 4.255921398689240505e+02
1.629921574903969272e+00 4.256058148449957343e+02
1.630021606914212606e+00 4.256196195147322783e+02
1.630121638924455718e+00 4.256335539386276423e+02
1.630221670934699052e+00 4.256476181718900307e+02
1.630321702944942386e+00 4.256618122644418349e+02
1.630421734955185498e+00 4.256761362609231014e+02
1.630521766965429054e+00 4.256905902006917586e+02
1.630621798975672165e+00 4.257051741178261750e+02
1.630721830985915277e+00 4.257198880411278310e+02
1.630821862996158833e+00 4.257347319941217165e+02
1.630921895006401945e+00 4.257497059950614471e+02
1.631021927016645279e+00 4.257648100569304006e+02
1.631121959026888613e+00 4.257800441874446165e+02
1.631221991037131724e+00 4.257954083890576271e+02
1.631322023047375058e+00 4.258109026589617088e+02
1.631422055057618392e+00 4.258265269890937361e+02
1.631522087067861726e+00 4.258422813661374562e+02
1.631622119078104838e+00 4.258581657715276947e+02
1.631722151088348172e+00 4.258741801814549035e+02
1.631822183098591506e+00 4.258903245668716977e+02
1.631922215108834617e+00 4.259065988934929692e+02
1.632022247119078173e+00 4.259230031218050954e+02
1.632122279129321285e+00 4.259395372070693497e+02
1.632222311139564397e+00 4.259562010993267904e+02
1.632322343149807953e+00 4.259729947434051951e+02
1.632422375160051065e+00 4.259899180789235515e+02
1.632522407170294620e+00 4.260069710402984811e+02
1.632622439180537732e+00 4.260241535567514006e+02
1.632722471190780844e+00 4.260414655523131842e+02
1.632822503201024400e+00 4.260589069458316089e+02
1.632922535211267512e+00 4.260764776509790863e+02
1.633022567221511068e+00 4.260941775762575503e+02
1.633122599231754180e+00 4.261120066250082914e+02
1.633222631241997291e+00 4.261299646954173568e+02
1.633322663252240847e+00 4.261480516805241905e+02
1.633422695262483959e+00 4.261662674682287957e+02
1.633522727272727071e+00 4.261846119413010001e+02
1.633622759282970627e+00 4.262030849773876753e+02
1.633722791293213739e+00 4.262216864490213197e+02
1.633822823303457072e+00 4.262404162236294383e+02
1.633922855313700406e+00 4.262592741635421589e+02
1.634022887323943518e+00 4.262782601260032038e+02
1.634122919334186852e+00 4.262973739631770513e+02
1.634222951344430186e+00 4.263166155221601912e+02
1.634322983354673520e+00 4.263359846449899351e+02
1.634423015364916631e+00 4.263554811686545349e+02
1.634523047375159965e+00 4.263751049251031873e+02
1.634623079385403299e+00 4.263948557412560945e+02
1.634723111395646411e+00 4.264147334390164588e+02
1.634823143405889967e+00 4.264347378352787246e+02
1.634923175416133079e+00 4.264548687419409134e+02
1.635023207426376191e+00 4.264751259659163338e+02
1.635123239436619746e+00 4.264955093091435288e+02
1.635223271446862858e+00 4.265160185685985539e+02
1.635323303457106192e+00 4.265366535363066305e+02
1.635423335467349526e+00 4.265574139993532299e+02
1.635523367477592638e+00 4.265782997398981138e+02
1.635623399487835972e+00 4.265993105351847703e+02
1.635723431498079306e+00 4.266204461575557616e+02
1.635823463508322639e+00 4.266417063744623874e+02
1.635923495518565751e+00 4.266630909484812264e+02
1.636023527528809085e+00 4.266845996373235153e+02
1.636123559539052419e+00 4.267062321938506102e+02
1.636223591549295531e+00 4.267279883660873452e+02
1.636323623559539087e+00 4.267498678972343669e+02
1.636423655569782198e+00 4.267718705256825729e+02
1.636523687580025310e+00 4.267939959850281184e+02
1.636623719590268866e+00 4.268162440040852061e+02
1.636723751600511978e+00 4.268386143069005811e+02
1.636823783610755534e+00 4.268611066127688787e+02
1.636923815620998646e+00 4.268837206362472898e+02
1.637023847631241757e+00 4.269064560871694880e+02
1.637123879641485313e+00 4.269293126706616022e+02
1.637223911651728425e+00 4.269522900871573370e+02
1.637323943661971981e+00 4.269753880324141164e+02
1.637423975672215093e+00 4.269986061975264988e+02
1.637524007682458205e+00 4.270219442689444236e+02
1.637624039692701761e+00 4.270454019284887295e+02
1.637724071702944872e+00 4.270689788533667297e+02
1.637824103713188206e+00 4.270926747161884123e+02
1.637924135723431540e+00 4.271164891849837204e+02
1.638024167733674652e+00 4.271404219232185255e+02
1.638124199743917986e+00 4.271644725898125330e+02
1.638224231754161320e+00 4.271886408391563350e+02
1.638324263764404654e+00 4.272129263211264742e+02
1.638424295774647765e+00 4.272373286811057369e+02
1.638524327784891099e+00 4.272618475599996373e+02
1.638624359795134433e+00 4.272864825942533002e+02
1.638724391805377545e+00 4.273112334158705607e+02
1.638824423815621101e+00 4.273360996524316988e+02
1.638924455825864213e+00 4.273610809271124822e+02
1.639024487836107324e+00 4.273861768586998551e+02
1.639124519846350880e+00 4.274113870616154713e+02
1.639224551856593992e+00 4.274367111459288253e+02
1.639324583866837326e+00 4.274621487173805008e+02
1.639424615877080660e+00 4.274876993773993377e+02
1.639524647887323772e+00 4.275133627231219293e+02
1.639624679897567106e+00 4.275391383474125178e+02
1.639724711907810439e+00 4.275650258388826046e+02
1.639824743918053773e+00 4.275910247819092547e+02
1.639924775928296885e+00 4.276171347566578902e+02
1.640024807938540219e+00 4.276433553390990028e+02
