1.600052011442517408e+00 4.820538375802274800e+02
1.600152033447358235e+00 4.820472789472379418e+02
1.600252055452199285e+00 4.820406380743179966e+02
1.600352077457040334e+00 4.820339156942160344e+02
1.600452099461881605e+00 4.820271125418278189e+02
1.600552121466722655e+00 4.820202293541678387e+02
1.600652143471563704e+00 4.820132668703340642e+02
1.600752165476404754e+00 4.820062258314786732e+02
1.600852187481245581e+00 4.819991069807744566e+02
1.600952209486086630e+00 4.819919110633839523e+02
1.601052231490927902e+00 4.819846388264275561e+02
1.601152253495768951e+00 4.819772910189510071e+02
1.601252275500610001e+00 4.819698683918941811e+02
1.601352297505451272e+00 4.819623716980565860e+02
1.601452319510292321e+00 4.819548016920696227e+02
1.601552341515133149e+00 4.819471591303600349e+02
1.601652363519974198e+00 4.819394447711201792e+02
1.601752385524815248e+00 4.819316593742755117e+02
1.601852407529656297e+00 4.819238037014521296e+02
1.601952429534497568e+00 4.819158785159432909e+02
1.602052451539338618e+00 4.819078845826795714e+02
1.602152473544179667e+00 4.818998226681949859e+02
1.602252495549020495e+00 4.818916935405937920e+02
1.602352517553861766e+00 4.818834979695193965e+02
1.602452539558702815e+00 4.818752367261232621e+02
1.602552561563543865e+00 4.818669105830274475e+02
1.602652583568384914e+00 4.818585203142980049e+02
1.602752605573225964e+00 4.818500666954100211e+02
1.602852627578067235e+00 4.818415505032131705e+02
1.602952649582908062e+00 4.818329725159022701e+02
1.603052671587749112e+00 4.818243335129822071e+02
1.603152693592590161e+00 4.818156342752384944e+02
1.603252715597431433e+00 4.818068755847004354e+02
1.603352737602272482e+00 4.817980582246118502e+02
1.603452759607113531e+00 4.817891829793973670e+02
1.603552781611954581e+00 4.817802506346289420e+02
1.603652803616795408e+00 4.817712619769951061e+02
1.603752825621636457e+00 4.817622177942657800e+02
1.603852847626477729e+00 4.817531188752614071e+02
1.603952869631318778e+00 4.817439660098209515e+02
1.604052891636159828e+00 4.817347599887656315e+02
1.604152913641001099e+00 4.817255016038706117e+02
1.604252935645842149e+00 4.817161916478289641e+02
1.604352957650682976e+00 4.817068309142212001e+02
1.604452979655524025e+00 4.816974201974800280e+02
1.604553001660365075e+00 4.816879602928615896e+02
1.604653023665206124e+00 4.816784519964072047e+02
1.604753045670047396e+00 4.816688961049160298e+02
1.604853067674888445e+00 4.816592934159094739e+02
1.604953089679729494e+00 4.816496447275991954e+02
1.605053111684570322e+00 4.816399508388527693e+02
1.605153133689411593e+00 4.816302125491642983e+02
1.605253155694252643e+00 4.816204306586184885e+02
1.605353177699093692e+00 4.816106059678604083e+02
1.605453199703934741e+00 4.816007392780610417e+02
1.605553221708775791e+00 4.815908313908845457e+02
1.605653243713617062e+00 4.815808831084577264e+02
1.605753265718457889e+00 4.815708952333354773e+02
1.605853287723298939e+00 4.815608685684680950e+02
1.605953309728139988e+00 4.815508039171691621e+02
1.606053331732981260e+00 4.815407020830841134e+02
1.606153353737822309e+00 4.815305638701552198e+02
1.606253375742663358e+00 4.815203900825910637e+02
1.606353397747504408e+00 4.815101815248336834e+02
1.606453419752345235e+00 4.814999390015239555e+02
1.606553441757186285e+00 4.814896633174724911e+02
1.606653463762027556e+00 4.814793552776247907e+02
1.606753485766868605e+00 4.814690156870292981e+02
1.606853507771709655e+00 4.814586453508054547e+02
1.606953529776550926e+00 4.814482450741106732e+02
1.607053551781391976e+00 4.814378156621087328e+02
1.607153573786232803e+00 4.814273579199373785e+02
1.607253595791073852e+00 4.814168726526733622e+02
1.607353617795914902e+00 4.814063606653057832e+02
1.607453639800755951e+00 4.813958227626987991e+02
1.607553661805597223e+00 4.813852597495609871e+02
1.607653683810438272e+00 4.813746724304135114e+02
1.607753705815279321e+00 4.813640616095588030e+02
1.607853727820120149e+00 4.813534280910463963e+02
1.607953749824961420e+00 4.813427726786429730e+02
1.608053771829802470e+00 4.813320961757993928e+02
1.608153793834643519e+00 4.813213993856176103e+02
1.608253815839484568e+00 4.813106831108215715e+02
1.608353837844325618e+00 4.812999481537223119e+02
1.608453859849166889e+00 4.812891953161886818e+02
1.608553881854007717e+00 4.812784253996141501e+02
1.608653903858848766e+00 4.812676392048846878e+02
1.608753925863689815e+00 4.812568375323487544e+02
1.608853947868531087e+00 4.812460211817839308e+02
1.608953969873372136e+00 4.812351909523669065e+02
1.609053991878213186e+00 4.812243476426403959e+02
1.609154013883054235e+00 4.812134920504834099e+02
1.609254035887895062e+00 4.812026249730773202e+02
1.609354057892736112e+00 4.811917472068782899e+02
1.609454079897577383e+00 4.811808595475819175e+02
1.609554101902418433e+00 4.811699627900949849e+02
1.609654123907259482e+00 4.811590577285027734e+02
1.609754145912100753e+00 4.811481451560383675e+02
1.609854167916941803e+00 4.811372258650515050e+02
1.609954189921782630e+00 4.811263006469785637e+02
1.610054211926623680e+00 4.811153702923095921e+02
1.610154233931464729e+00 4.811044355905594330e+02
1.610254255936305778e+00 4.810934973302361186e+02
1.610354277941147050e+00 4.810825562988098341e+02
1.610454299945988099e+00 4.810716132826827334e+02
1.610554321950829149e+00 4.810606690671584147e+02
1.610654343955669976e+00 4.810497244364117932e+02
1.610754365960511247e+00 4.810387801734577238e+02
1.610854387965352297e+00 4.810278370601202482e+02
1.610954409970193346e+00 4.810168958770046856e+02
1.611054431975034396e+00 4.810059574034652314e+02
1.611154453979875445e+00 4.809950224175749440e+02
1.611254475984716716e+00 4.809840916960972095e+02
1.611354497989557544e+00 4.809731660144543071e+02
1.611454519994398593e+00 4.809622461466982486e+02
1.611554541999239643e+00 4.809513328654808220e+02
1.611654564004080914e+00 4.809404269420239189e+02
1.611754586008921963e+00 4.809295291460884414e+02
1.611854608013763013e+00 4.809186402459490068e+02
1.611954630018604062e+00 4.809077610083592731e+02
1.612054652023444890e+00 4.808968921985248244e+02
1.612154674028285939e+00 4.808860345800757727e+02
1.612254696033127210e+00 4.808751889150332772e+02
1.612354718037968260e+00 4.808643559637853855e+02
1.612454740042809309e+00 4.808535364850538372e+02
1.612554762047650581e+00 4.808427312358672339e+02
1.612654784052491408e+00 4.808319409715325037e+02
1.612754806057332457e+00 4.808211664456044900e+02
1.612854828062173507e+00 4.808104084098586668e+02
1.612954850067014556e+00 4.807996676142622618e+02
1.613054872071855605e+00 4.807889448069457785e+02
1.613154894076696877e+00 4.807782407341746307e+02
1.613254916081537926e+00 4.807675561403210622e+02
1.613354938086378754e+00 4.807568917678353273e+02
1.613454960091219803e+00 4.807462483572185192e+02
1.613554982096061075e+00 4.807356266469950015e+02
1.613655004100902124e+00 4.807250273736823374e+02
1.613755026105743173e+00 4.807144512717659381e+02
1.613855048110584223e+00 4.807038990736710957e+02
1.613955070115425272e+00 4.806933715097342201e+02
1.614055092120266099e+00 4.806828693081757820e+02
1.614155114125107371e+00 4.806723931950744486e+02
1.614255136129948420e+00 4.806619438943381510e+02
1.614355158134789470e+00 4.806515221276778220e+02
1.614455180139630741e+00 4.806411286145803388e+02
1.614555202144471791e+00 4.806307640722818064e+02
1.614655224149312840e+00 4.806204292157403870e+02
1.614755246154153667e+00 4.806101247576095830e+02
1.614855268158994717e+00 4.805998514082128850e+02
1.614955290163835766e+00 4.805896098755160892e+02
1.615055312168677037e+00 4.805794008651014906e+02
1.615155334173518087e+00 4.805692250801416776e+02
1.615255356178359136e+00 4.805590832213738395e+02
1.615355378183200408e+00 4.805489759870736748e+02
1.615455400188041235e+00 4.805389040730287320e+02
1.615555422192882284e+00 4.805288681725141373e+02
1.615655444197723334e+00 4.805188689762666172e+02
1.615755466202564383e+00 4.805089071724574978e+02
1.615855488207405433e+00 4.804989834466708203e+02
1.615955510212246704e+00 4.804890984818744073e+02
1.616055532217087753e+00 4.804792529583974101e+02
1.616155554221928581e+00 4.804694475539039331e+02
1.616255576226769630e+00 4.804596829433688754e+02
1.616355598231610902e+00 4.804499597990541133e+02
1.616455620236451951e+00 4.804402787904819547e+02
1.616555642241293000e+00 4.804306405844120036e+02
1.616655664246134050e+00 4.804210458448176269e+02
1.616755686250975099e+00 4.804114952328594654e+02
1.616855708255815927e+00 4.804019894068642316e+02
1.616955730260657198e+00 4.803925290222986746e+02
1.617055752265498247e+00 4.803831147317471846e+02
1.617155774270339297e+00 4.803737471848867813e+02
1.617255796275180568e+00 4.803644270284655704e+02
1.617355818280021618e+00 4.803551549062783579e+02
1.617455840284862667e+00 4.803459314591428893e+02
1.617555862289703494e+00 4.803367573248780218e+02
1.617655884294544544e+00 4.803276331382795092e+02
1.617755906299385593e+00 4.803185595310989697e+02
1.617855928304226865e+00 4.803095371320192726e+02
1.617955950309067914e+00 4.803005665666339610e+02
1.618055972313908963e+00 4.802916484574236620e+02
1.618155994318750235e+00 4.802827834237340312e+02
1.618256016323591062e+00 4.802739720817541524e+02
1.618356038328432112e+00 4.802652150444940844e+02
1.618456060333273161e+00 4.802565129217638287e+02
1.618556082338114210e+00 4.802478663201520703e+02
1.618656104342955260e+00 4.802392758430024173e+02
1.618756126347796531e+00 4.802307420903943012e+02
1.618856148352637581e+00 4.802222656591221721e+02
1.618956170357478408e+00 4.802138471426720230e+02
1.619056192362319457e+00 4.802054871312030855e+02
1.619156214367160729e+00 4.801971862115256044e+02
1.619256236372001778e+00 4.801889449670804311e+02
1.619356258376842828e+00 4.801807639779195824e+02
1.619456280381683877e+00 4.801726438206856074e+02
1.619556302386524926e+00 4.801645850685897585e+02
1.619656324391365754e+00 4.801565882913955647e+02
1.619756346396207025e+00 4.801486540553953546e+02
1.619856368401048075e+00 4.801407829233928624e+02
1.619956390405889124e+00 4.801329754546837307e+02
1.620056412410730395e+00 4.801252322050347630e+02
1.620156434415571445e+00 4.801175537266661877e+02
1.620256456420412494e+00 4.801099405682323322e+02
1.620356478425253322e+00 4.801023932748021252e+02
1.620456500430094371e+00 4.800949123878411342e+02
1.620556522434935420e+00 4.800874984451929777e+02
1.620656544439776692e+00 4.800801519810611921e+02
1.620756566444617741e+00 4.800728735259894506e+02
1.620856588449458791e+00 4.800656636068459306e+02
1.620956610454300062e+00 4.800585227468037601e+02
1.621056632459140889e+00 4.800514514653246465e+02
1.621156654463981939e+00 4.800444502781390383e+02
1.621256676468822988e+00 4.800375196972315166e+02
1.621356698473664038e+00 4.800306602308221500e+02
1.621456720478505087e+00 4.800238723833492145e+02
1.621556742483346358e+00 4.800171566554531637e+02
1.621656764488187408e+00 4.800105135439596324e+02
1.621756786493028235e+00 4.800039435418622134e+02
1.621856808497869284e+00 4.799974471383069385e+02
1.621956830502710556e+00 4.799910248185763066e+02
1.622056852507551605e+00 4.799846770640725140e+02
1.622156874512392655e+00 4.799784043523011405e+02
1.622256896517233704e+00 4.799722071568575075e+02
1.622356918522074753e+00 4.799660859474080326e+02
1.622456940526915581e+00 4.799600411896784635e+02
1.622556962531756852e+00 4.799540733454358588e+02
1.622656984536597902e+00 4.799481828724752859e+02
1.622757006541438951e+00 4.799423702246035077e+02
1.622857028546280223e+00 4.799366358516261926e+02
1.622957050551121272e+00 4.799309801993313158e+02
1.623057072555962321e+00 4.799254037094769956e+02
1.623157094560803149e+00 4.799199068197758038e+02
1.623257116565644198e+00 4.799144899638813513e+02
1.623357138570485247e+00 4.799091535713740768e+02
1.623457160575326519e+00 4.799038980677485142e+02
1.623557182580167568e+00 4.798987238743997068e+02
1.623657204585008618e+00 4.798936314086089965e+02
1.623757226589849889e+00 4.798886210835319162e+02
1.623857248594690716e+00 4.798836933081845473e+02
1.623957270599531766e+00 4.798788484874316964e+02
1.624057292604372815e+00 4.798740870219737644e+02
1.624157314609213865e+00 4.798694093083344683e+02
1.624257336614054914e+00 4.798648157388482218e+02
1.624357358618896185e+00 4.798603067016492218e+02
1.624457380623737235e+00 4.798558825806586583e+02
1.624557402628578062e+00 4.798515437555740846e+02
1.624657424633419112e+00 4.798472906018553772e+02
1.624757446638260383e+00 4.798431234907175167e+02
1.624857468643101432e+00 4.798390427891161494e+02
1.624957490647942482e+00 4.798350488597379808e+02
1.625057512652783531e+00 4.798311420609898050e+02
1.625157534657624581e+00 4.798273227469885569e+02
1.625257556662465408e+00 4.798235912675494887e+02
1.625357578667306679e+00 4.798199479681775301e+02
1.625457600672147729e+00 4.798163931900575108e+02
1.625557622676988778e+00 4.798129272700408023e+02
1.625657644681830050e+00 4.798095505406405437e+02
1.625757666686671099e+00 4.798062633300194761e+02
1.625857688691512148e+00 4.798030659619813605e+02
1.625957710696352976e+00 4.797999587559609154e+02
1.626057732701194025e+00 4.797969420270154615e+02
1.626157754706035075e+00 4.797940160858183845e+02
1.626257776710876346e+00 4.797911812386470842e+02
1.626357798715717395e+00 4.797884377873750736e+02
1.626457820720558445e+00 4.797857860294673173e+02
1.626557842725399716e+00 4.797832262579678968e+02
1.626657864730240544e+00 4.797807587614956901e+02
1.626757886735081593e+00 4.797783838242347088e+02
1.626857908739922642e+00 4.797761017259256846e+02
1.626957930744763692e+00 4.797739127418623184e+02
1.627057952749604741e+00 4.797718171428809910e+02
1.627157974754446013e+00 4.797698151953562729e+02
1.627257996759287062e+00 4.797679071611913173e+02
1.627358018764127889e+00 4.797660932978152459e+02
1.627458040768968939e+00 4.797643738581731441e+02
1.627558062773810210e+00 4.797627490907225365e+02
1.627658084778651260e+00 4.797612192394259409e+02
1.627758106783492309e+00 4.797597845437455248e+02
1.627858128788333358e+00 4.797584452386378757e+02
1.627958150793174408e+00 4.797572015545486579e+02
1.628058172798015235e+00 4.797560537174070987e+02
1.628158194802856507e+00 4.797550019486207589e+02
1.628258216807697556e+00 4.797540464650710419e+02
1.628358238812538605e+00 4.797531874791095561e+02
1.628458260817379877e+00 4.797524251985510091e+02
1.628558282822220926e+00 4.797517598266721279e+02
1.628658304827061976e+00 4.797511915622054630e+02
1.628758326831902803e+00 4.797507205993362049e+02
1.628858348836743852e+00 4.797503471276988876e+02
1.628958370841584902e+00 4.797500713323733521e+02
1.629058392846426173e+00 4.797498933938811092e+02
1.629158414851267223e+00 4.797498134881832357e+02
1.629258436856108272e+00 4.797498317866762250e+02
1.629358458860949543e+00 4.797499484561910208e+02
1.629458480865790371e+00 4.797501636589884697e+02
1.629558502870631420e+00 4.797504775527587526e+02
1.629658524875472470e+00 4.797508902906165531e+02
1.629758546880313519e+00 4.797514020211028196e+02
1.629858568885154568e+00 4.797520128881801043e+02
1.629958590889995840e+00 4.797527230312315965e+02
1.630058612894836667e+00 4.797535325850599861e+02
1.630158634899677716e+00 4.797544416798867815e+02
1.630258656904518766e+00 4.797554504413496943e+02
1.630358678909360037e+00 4.797565589905031516e+02
1.630458700914201087e+00 4.797577674438172153e+02
1.630558722919042136e+00 4.797590759131775258e+02
1.630658744923883186e+00 4.797604845058831415e+02
1.630758766928724013e+00 4.797619933246492110e+02
1.630858788933565062e+00 4.797636024676049828e+02
1.630958810938406334e+00 4.797653120282947725e+02
1.631058832943247383e+00 4.797671220956781326e+02
1.631158854948088432e+00 4.797690327541311035e+02
1.631258876952929704e+00 4.797710440834463839e+02
1.631358898957770753e+00 4.797731561588350360e+02
1.631458920962611581e+00 4.797753690509261446e+02
1.631558942967452630e+00 4.797776828257700572e+02
1.631658964972293679e+00 4.797800975448397480e+02
1.631758986977134729e+00 4.797826132650304203e+02
1.631859008981976000e+00 4.797852300386639399e+02
1.631959030986817050e+00 4.797879479134907683e+02
1.632059052991658099e+00 4.797907669326892801e+02
1.632159074996498926e+00 4.797936871348722434e+02
1.632259097001340198e+00 4.797967085540875587e+02
1.632359119006181247e+00 4.797998312198202484e+02
1.632459141011022297e+00 4.798030551569976296e+02
1.632559163015863346e+00 4.798063803859910195e+02
1.632659185020704395e+00 4.798098069226193729e+02
1.632759207025545667e+00 4.798133347781529210e+02
1.632859229030386494e+00 4.798169639593175475e+02
1.632959251035227544e+00 4.798206944682979724e+02
1.633059273040068593e+00 4.798245263027418446e+02
1.633159295044909864e+00 4.798284594557649712e+02
1.633259317049750914e+00 4.798324939159551263e+02
1.633359339054591963e+00 4.798366296673761440e+02
1.633459361059433013e+00 4.798408666895746819e+02
1.633559383064273840e+00 4.798452049575829506e+02
1.633659405069114889e+00 4.798496444419257045e+02
1.633759427073956161e+00 4.798541851086245629e+02
1.633859449078797210e+00 4.798588269192047733e+02
1.633959471083638260e+00 4.798635698306990776e+02
1.634059493088479531e+00 4.798684137956558970e+02
1.634159515093320580e+00 4.798733587621434253e+02
1.634259537098161408e+00 4.798784046737582685e+02
1.634359559103002457e+00 4.798835514696287987e+02
1.634459581107843507e+00 4.798887990844241926e+02
1.634559603112684556e+00 4.798941474483622187e+02
1.634659625117525827e+00 4.798995964872121931e+02
1.634759647122366877e+00 4.799051461223051547e+02
1.634859669127207926e+00 4.799107962705420505e+02
1.634959691132048754e+00 4.799165468443990221e+02
1.635059713136890025e+00 4.799223977519360460e+02
1.635159735141731074e+00 4.799283488968046640e+02
1.635259757146572124e+00 4.799344001782562827e+02
1.635359779151413173e+00 4.799405514911506998e+02
1.635459801156254223e+00 4.799468027259642895e+02
1.635559823161095494e+00 4.799531537687972786e+02
1.635659845165936321e+00 4.799596045013846037e+02
1.635759867170777371e+00 4.799661548011038121e+02
1.635859889175618420e+00 4.799728045409840433e+02
1.635959911180459692e+00 4.799795535897160903e+02
1.636059933185300741e+00 4.799864018116600164e+02
1.636159955190141790e+00 4.799933490668578884e+02
1.636259977194982840e+00 4.800003952110397449e+02
1.636359999199823667e+00 4.800075400956369549e+02
1.636460021204664717e+00 4.800147835677905732e+02
1.636560043209505988e+00 4.800221254703609475e+02
1.636660065214347037e+00 4.800295656419406214e+02
1.636760087219188087e+00 4.800371039168632024e+02
1.636860109224029358e+00 4.800447401252139343e+02
1.636960131228870408e+00 4.800524740928411234e+02
1.637060153233711235e+00 4.800603056413680179e+02
1.637160175238552284e+00 4.800682345882040067e+02
1.637260197243393334e+00 4.800762607465536007e+02
1.637360219248234383e+00 4.800843839254312684e+02
1.637460241253075655e+00 4.800926039296718955e+02
1.637560263257916704e+00 4.801009205599426650e+02
1.637660285262757753e+00 4.801093336127545399e+02
1.637760307267598581e+00 4.801178428804769283e+02
1.637860329272439852e+00 4.801264481513458122e+02
1.637960351277280902e+00 4.801351492094815399e+02
1.638060373282121951e+00 4.801439458348980338e+02
1.638160395286963000e+00 4.801528378035159790e+02
1.638260417291804050e+00 4.801618248871780565e+02
1.638360439296645321e+00 4.801709068536588916e+02
1.638460461301486148e+00 4.801800834666817650e+02
1.638560483306327198e+00 4.801893544859296981e+02
1.638660505311168247e+00 4.801987196670604590e+02
1.638760527316009519e+00 4.802081787617210011e+02
1.638860549320850568e+00 4.802177315175578656e+02
1.638960571325691618e+00 4.802273776782374171e+02
1.639060593330532667e+00 4.802371169834539160e+02
1.639160615335373494e+00 4.802469491689480492e+02
1.639260637340214544e+00 4.802568739665211410e+02
1.639360659345055815e+00 4.802668911040469766e+02
1.639460681349896864e+00 4.802770003054906738e+02
1.639560703354737914e+00 4.802872012909213026e+02
1.639660725359579185e+00 4.802974937765271761e+02
1.639760747364420235e+00 4.803078774746336421e+02
1.639860769369261062e+00 4.803183520937141111e+02
1.639960791374102111e+00 4.803289173384102355e+02
1.640060813378943161e+00 4.803395729095450406e+02
1.640160835383784210e+00 4.803503185041408301e+02
1.640260857388625482e+00 4.803611538154322034e+02
1.640360879393466531e+00 4.803720785328870306e+02
1.640460901398307580e+00 4.803830923422164005e+02
1.640560923403148408e+00 4.803941949253980965e+02
1.640660945407989679e+00 4.804053859606883066e+02
1.640760967412830729e+00 4.804166651226407794e+02
1.640860989417671778e+00 4.804280320821228543e+02
1.640961011422512827e+00 4.804394865063329689e+02
1.641061033427353877e+00 4.804510280588176556e+02
1.641161055432195148e+00 4.804626563994891058e+02
1.641261077437035976e+00 4.804743711846427914e+02
1.641361099441877025e+00 4.804861720669745182e+02
1.641461121446718074e+00 4.804980586955995818e+02
1.641561143451559346e+00 4.805100307160682291e+02
1.641661165456400395e+00 4.805220877703864062e+02
1.641761187461241445e+00 4.805342294970325838e+02
1.641861209466082494e+00 4.805464555309761181e+02
1.641961231470923321e+00 4.805587655036953265e+02
1.642061253475764371e+00 4.805711590431980085e+02
1.642161275480605642e+00 4.805836357740370204e+02
1.642261297485446692e+00 4.805961953173322172e+02
1.642361319490287741e+00 4.806088372907868234e+02
1.642461341495129012e+00 4.806215613087090333e+02
1.642561363499970062e+00 4.806343669820294053e+02
1.642661385504810889e+00 4.806472539183206436e+02
1.642761407509651939e+00 4.806602217218164697e+02
1.642861429514492988e+00 4.806732699934341895e+02
1.642961451519334037e+00 4.806863983307899844e+02
1.643061473524175309e+00 4.806996063282218756e+02
1.643161495529016358e+00 4.807128935768083693e+02
1.643261517533857408e+00 4.807262596643897723e+02
1.643361539538698235e+00 4.807397041755868941e+02
1.643461561543539506e+00 4.807532266918219648e+02
1.643561583548380556e+00 4.807668267913398950e+02
1.643661605553221605e+00 4.807805040492273179e+02
1.643761627558062655e+00 4.807942580374345880e+02
1.643861649562903704e+00 4.808080883247957331e+02
1.643961671567744975e+00 4.808219944770504526e+02
1.644061693572585803e+00 4.808359760568631600e+02
1.644161715577426852e+00 4.808500326238460048e+02
1.644261737582267902e+00 4.808641637345798472e+02
1.644361759587109173e+00 4.808783689426348360e+02
1.644461781591950222e+00 4.808926477985917245e+02
1.644561803596791272e+00 4.809069998500650627e+02
1.644661825601632321e+00 4.809214246417228651e+02
1.644761847606473149e+00 4.809359217153101440e+02
1.644861869611314198e+00 4.809504906096688615e+02
1.644961891616155469e+00 4.809651308607622582e+02
1.645061913620996519e+00 4.809798420016949763e+02
1.645161935625837568e+00 4.809946235627371607e+02
1.645261957630678840e+00 4.810094750713445819e+02
1.645361979635519889e+00 4.810243960521820554e+02
1.645462001640360716e+00 4.810393860271468611e+02
1.645562023645201766e+00 4.810544445153900028e+02
1.645662045650042815e+00 4.810695710333392867e+02
1.645762067654883865e+00 4.810847650947234797e+02
1.645862089659725136e+00 4.811000262105920910e+02
1.645962111664566185e+00 4.811153538893418045e+02
1.646062133669407235e+00 4.811307476367380218e+02
1.646162155674248062e+00 4.811462069559371457e+02
1.646262177679089334e+00 4.811617313475117612e+02
1.646362199683930383e+00 4.811773203094727478e+02
1.646462221688771432e+00 4.811929733372928126e+02
1.646562243693612482e+00 4.812086899239301943e+02
1.646662265698453531e+00 4.812244695598535600e+02
1.646762287703294803e+00 4.812403117330630380e+02
1.646862309708135630e+00 4.812562159291167063e+02
1.646962331712976679e+00 4.812721816311520797e+02
1.647062353717817729e+00 4.812882083199130534e+02
1.647162375722659000e+00 4.813042954737708214e+02
1.647262397727500050e+00 4.813204425687501953e+02
1.647362419732341099e+00 4.813366490785532505e+02
1.647462441737182148e+00 4.813529144745824055e+02
1.647562463742022976e+00 4.813692382259675924e+02
1.647662485746864025e+00 4.813856197995877437e+02
1.647762507751705296e+00 4.814020586600970546e+02
1.647862529756546346e+00 4.814185542699490270e+02
1.647962551761387395e+00 4.814351060894216516e+02
1.648062573766228667e+00 4.814517135766415663e+02
1.648162595771069494e+00 4.814683761876098060e+02
1.648262617775910543e+00 4.814850933762246541e+02
1.648362639780751593e+00 4.815018645943094384e+02
1.648462661785592642e+00 4.815186892916360648e+02
1.648562683790433692e+00 4.815355669159490049e+02
1.648662705795274963e+00 4.815524969129933197e+02
1.648762727800116012e+00 4.815694787265379091e+02
1.648862749804956840e+00 4.815865117984009203e+02
1.648962771809797889e+00 4.816035955684752707e+02
1.649062793814639161e+00 4.816207294747560468e+02
1.649162815819480210e+00 4.816379129533613650e+02
1.649262837824321259e+00 4.816551454385635225e+02
1.649362859829162309e+00 4.816724263628107110e+02
1.649462881834003358e+00 4.816897551567544724e+02
1.649562903838844186e+00 4.817071312492748802e+02
1.649662925843685457e+00 4.817245540675058919e+02
1.649762947848526506e+00 4.817420230368626335e+02
1.649862969853367556e+00 4.817595375810659561e+02
1.649962991858208827e+00 4.817770971221688114e+02
1.650063013863049877e+00 4.817947010805826835e+02
1.650163035867890926e+00 4.818123488751029981e+02
1.650263057872731753e+00 4.818300399229359527e+02
1.650363079877572803e+00 4.818477736397241529e+02
1.650463101882413852e+00 4.818655494395726464e+02
1.650563123887255124e+00 4.818833667350769474e+02
1.650663145892096173e+00 4.819012249373462282e+02
1.650763167896937222e+00 4.819191234560323096e+02
1.650863189901778494e+00 4.819370616993545013e+02
1.650963211906619321e+00 4.819550390741285923e+02
1.651063233911460371e+00 4.819730549857893038e+02
1.651163255916301420e+00 4.819911088384201321e+02
1.651263277921142469e+00 4.820092000347785302e+02
1.651363299925983519e+00 4.820273279763228516e+02
1.651463321930824790e+00 4.820454920632388394e+02
1.651563343935665840e+00 4.820636916944663994e+02
1.651663365940506667e+00 4.820819262677271126e+02
1.651763387945347716e+00 4.821001951795482796e+02
1.651863409950188988e+00 4.821184978252936730e+02
1.651963431955030037e+00 4.821368335991871845e+02
1.652063453959871087e+00 4.821552018943408484e+02
1.652163475964712136e+00 4.821736021027818992e+02
1.652263497969553185e+00 4.821920336154794313e+02
1.652363519974394013e+00 4.822104958223713993e+02
1.652463541979235284e+00 4.822289881123908799e+02
1.652563563984076334e+00 4.822475098734944368e+02
1.652663585988917383e+00 4.822660604926878136e+02
1.652763607993758654e+00 4.822846393560542424e+02
1.652863629998599704e+00 4.823032458487802501e+02
1.652963652003440753e+00 4.823218793551832277e+02
1.653063674008281581e+00 4.823405392587383176e+02
1.653163696013122630e+00 4.823592249421065503e+02
1.653263718017963679e+00 4.823779357871606521e+02
1.653363740022804951e+00 4.823966711750127274e+02
1.653463762027646000e+00 4.824154304860413163e+02
1.653563784032487050e+00 4.824342130999187361e+02
1.653663806037328321e+00 4.824530183956385372e+02
1.653763828042169148e+00 4.824718457515413093e+02
1.653863850047010198e+00 4.824906945453444678e+02
1.653963872051851247e+00 4.825095641541670375e+02
1.654063894056692297e+00 4.825284539545569373e+02
1.654163916061533346e+00 4.825473633225203685e+02
1.654263938066374617e+00 4.825662916335479053e+02
1.654363960071215667e+00 4.825852382626398480e+02
1.654463982076056494e+00 4.826042025843370311e+02
1.654564004080897544e+00 4.826231839727448119e+02
1.654664026085738815e+00 4.826421818015630834e+02
1.654764048090579864e+00 4.826611954441104899e+02
1.654864070095420914e+00 4.826802242733548951e+02
1.654964092100261963e+00 4.826992676619387339e+02
1.655064114105103013e+00 4.827183249822054449e+02
1.655164136109943840e+00 4.827373956062286311e+02
1.655264158114785111e+00 4.827564789058395149e+02
1.655364180119626161e+00 4.827755742526525751e+02
1.655464202124467210e+00 4.827946810180920352e+02
1.655564224129308482e+00 4.828137985734227868e+02
1.655664246134149531e+00 4.828329262897735816e+02
1.655764268138990580e+00 4.828520635381651118e+02
1.655864290143831408e+00 4.828712096895414447e+02
1.655964312148672457e+00 4.828903641147902590e+02
1.656064334153513506e+00 4.829095261847745633e+02
1.656164356158354778e+00 4.829286952703587303e+02
1.656264378163195827e+00 4.829478707424364643e+02
1.656364400168036877e+00 4.829670519719562662e+02
1.656464422172878148e+00 4.829862383299484918e+02
1.656564444177718975e+00 4.830054291875549097e+02
1.656664466182560025e+00 4.830246239160537129e+02
1.656764488187401074e+00 4.830438218868857803e+02
1.656864510192242124e+00 4.830630224716835528e+02
1.656964532197083173e+00 4.830822250422980915e+02
1.657064554201924444e+00 4.831014289708246565e+02
1.657164576206765494e+00 4.831206336296292534e+02
1.657264598211606321e+00 4.831398383913779071e+02
1.657364620216447371e+00 4.831590426290613323e+02
1.657464642221288642e+00 4.831782457160227864e+02
1.657564664226129691e+00 4.831974470259852410e+02
1.657664686230970741e+00 4.832166459330756538e+02
1.657764708235811790e+00 4.832358418118567442e+02
1.657864730240652840e+00 4.832550340373473432e+02
1.657964752245493667e+00 4.832742219850551351e+02
1.658064774250334938e+00 4.832934050309996223e+02
1.658164796255175988e+00 4.833125825517385010e+02
1.658264818260017037e+00 4.833317539243967076e+02
1.658364840264858309e+00 4.833509185266907480e+02
1.658464862269699358e+00 4.833700757369575740e+02
1.658564884274540407e+00 4.833892249341772640e+02
1.658664906279381235e+00 4.834083654980043434e+02
1.658764928284222284e+00 4.834274968087889306e+02
1.658864950289063334e+00 4.834466182476073186e+02
1.658964972293904605e+00 4.834657291962860199e+02
1.659064994298745654e+00 4.834848290374288808e+02
1.659165016303586704e+00 4.835039171544427177e+02
1.659265038308427975e+00 4.835229929315635218e+02
1.659365060313268803e+00 4.835420557538820958e+02
1.659465082318109852e+00 4.835611050073727029e+02
1.659565104322950901e+00 4.835801400789152922e+02
1.659665126327791951e+00 4.835991603563237504e+02
1.659765148332633000e+00 4.836181652283707990e+02
1.659865170337474272e+00 4.836371540848152790e+02
1.659965192342315321e+00 4.836561263164256275e+02
1.660065214347156148e+00 4.836750813150073327e+02
1.660165236351997198e+00 4.836940184734281161e+02
1.660265258356838469e+00 4.837129371856441935e+02
1.660365280361679519e+00 4.837318368467239225e+02
1.660465302366520568e+00 4.837507168528744046e+02
1.660565324371361617e+00 4.837695766014687706e+02
1.660665346376202667e+00 4.837884154910677239e+02
1.660765368381043494e+00 4.838072329214477350e+02
1.660865390385884766e+00 4.838260282936253134e+02
1.660965412390725815e+00 4.838448010098821896e+02
1.661065434395566864e+00 4.838635504737897577e+02
1.661165456400408136e+00 4.838822760902361892e+02
1.661265478405249185e+00 4.839009772654483186e+02
1.661365500410090235e+00 4.839196534070190978e+02
1.661465522414931062e+00 4.839383039239319260e+02
1.661565544419772111e+00 4.839569282265833863e+02
1.661665566424613161e+00 4.839755257268102469e+02
1.661765588429454432e+00 4.839940958379140739e+02
1.661865610434295482e+00 4.840126379746832868e+02
1.661965632439136531e+00 4.840311515534213527e+02
1.662065654443977802e+00 4.840496359919668521e+02
1.662165676448818630e+00 4.840680907097212184e+02
1.662265698453659679e+00 4.840865151276717597e+02
1.662365720458500729e+00 4.841049086684142253e+02
1.662465742463341778e+00 4.841232707561809434e+02
1.662565764468182827e+00 4.841416008168598637e+02
1.662665786473024099e+00 4.841598982780216716e+02
1.662765808477865148e+00 4.841781625689432076e+02
1.662865830482705976e+00 4.841963931206292386e+02
1.662965852487547025e+00 4.842145893658387195e+02
1.663065874492388296e+00 4.842327507391074164e+02
1.663165896497229346e+00 4.842508766767693942e+02
1.663265918502070395e+00 4.842689666169840166e+02
1.663365940506911445e+00 4.842870199997561258e+02
1.663465962511752494e+00 4.843050362669602578e+02
1.663565984516593321e+00 4.843230148623653122e+02
1.663666006521434593e+00 4.843409552316542772e+02
1.663766028526275642e+00 4.843588568224502069e+02
1.663866050531116692e+00 4.843767190843376511e+02
1.663966072535957963e+00 4.843945414688854498e+02
1.664066094540799012e+00 4.844123234296691862e+02
1.664166116545640062e+00 4.844300644222952883e+02
1.664266138550480889e+00 4.844477639044201283e+02
1.664366160555321938e+00 4.844654213357763979e+02
1.664466182560162988e+00 4.844830361781922647e+02
1.664566204565004259e+00 4.845006078956157580e+02
1.664666226569845309e+00 4.845181359541348911e+02
1.664766248574686358e+00 4.845356198220000579e+02
1.664866270579527630e+00 4.845530589696475090e+02
1.664966292584368457e+00 4.845704528697188493e+02
1.665066314589209506e+00 4.845878009970843436e+02
1.665166336594050556e+00 4.846051028288628686e+02
1.665266358598891605e+00 4.846223578444449913e+02
1.665366380603732654e+00 4.846395655255143424e+02
1.665466402608573926e+00 4.846567253560657491e+02
1.665566424613414753e+00 4.846738368224314399e+02
1.665666446618255803e+00 4.846908994132961652e+02
1.665766468623096852e+00 4.847079126197239702e+02
1.665866490627938123e+00 4.847248759351744525e+02
1.665966512632779173e+00 4.847417888555254990e+02
1.666066534637620222e+00 4.847586508790939774e+02
1.666166556642461272e+00 4.847754615066544943e+02
1.666266578647302099e+00 4.847922202414624735e+02
1.666366600652143148e+00 4.848089265892710955e+02
1.666466622656984420e+00 4.848255800583551718e+02
1.666566644661825469e+00 4.848421801595268334e+02
1.666666666666666519e+00 4.848587264061591213e+02
1.666766688671507790e+00 4.848752183142030958e+02
1.666866710676348839e+00 4.848916554022094374e+02
1.666966732681189667e+00 4.849080371913468070e+02
1.667066754686030716e+00 4.849243632054219688e+02
1.667166776690871766e+00 4.849406329708977523e+02
1.667266798695712815e+00 4.849568460169138007e+02
1.667366820700554086e+00 4.849730018753049308e+02
1.667466842705395136e+00 4.849891000806189254e+02
1.667566864710236185e+00 4.850051401701378495e+02
1.667666886715077013e+00 4.850211216838937958e+02
1.667766908719918284e+00 4.850370441646903146e+02
1.667866930724759333e+00 4.850529071581181597e+02
1.667966952729600383e+00 4.850687102125757519e+02
1.668066974734441432e+00 4.850844528792853794e+02
1.668166996739282482e+00 4.851001347123128085e+02
1.668267018744123753e+00 4.851157552685843370e+02
1.668367040748964580e+00 4.851313141079052684e+02
1.668467062753805630e+00 4.851468107929763960e+02
1.668567084758646679e+00 4.851622448894124773e+02
1.668667106763487951e+00 4.851776159657598555e+02
1.668767128768329000e+00 4.851929235935122051e+02
1.668867150773170049e+00 4.852081673471294607e+02
1.668967172778011099e+00 4.852233468040532784e+02
1.669067194782851926e+00 4.852384615447260217e+02
1.669167216787692976e+00 4.852535111526041192e+02
1.669267238792534247e+00 4.852684952141773920e+02
1.669367260797375296e+00 4.852834133189852537e+02
1.669467282802216346e+00 4.852982650596317171e+02
1.669567304807057617e+00 4.853130500318026179e+02
1.669667326811898667e+00 4.853277678342807917e+02
1.669767348816739494e+00 4.853424180689637524e+02
1.669867370821580543e+00 4.853570003408768798e+02
1.669967392826421593e+00 4.853715142581907571e+02
1.670067414831262642e+00 4.853859594322367457e+02
1.670167436836103914e+00 4.854003354775213666e+02
1.670267458840944963e+00 4.854146420117423304e+02
1.670367480845786012e+00 4.854288786558026345e+02
1.670467502850626840e+00 4.854430450338263654e+02
1.670567524855468111e+00 4.854571407731738759e+02
1.670667546860309161e+00 4.854711655044551435e+02
1.670767568865150210e+00 4.854851188615444357e+02
1.670867590869991259e+00 4.854990004815965676e+02
1.670967612874832309e+00 4.855128100050575313e+02
1.671067634879673580e+00 4.855265470756826289e+02
1.671167656884514408e+00 4.855402113405468185e+02
1.671267678889355457e+00 4.855538024500613119e+02
1.671367700894196506e+00 4.855673200579846025e+02
1.671467722899037778e+00 4.855807638214394046e+02
1.671567744903878827e+00 4.855941334009218053e+02
1.671667766908719877e+00 4.856074284603170099e+02
1.671767788913560926e+00 4.856206486669123024e+02
1.671867810918401753e+00 4.856337936914088118e+02
1.671967832923242803e+00 4.856468632079356667e+02
1.672067854928084074e+00 4.856598568940615905e+02
1.672167876932925124e+00 4.856727744308071237e+02
1.672267898937766173e+00 4.856856155026578108e+02
1.672367920942607444e+00 4.856983797975752282e+02
1.672467942947448494e+00 4.857110670070103424e+02
1.672567964952289321e+00 4.857236768259143673e+02
1.672667986957130370e+00 4.857362089527500757e+02
1.672768008961971420e+00 4.857486630895042481e+02
1.672868030966812469e+00 4.857610389416993257e+02
1.672968052971653741e+00 4.857733362184028465e+02
1.673068074976494790e+00 4.857855546322402915e+02
1.673168096981335840e+00 4.857976938994051466e+02
1.673268118986176667e+00 4.858097537396702137e+02
1.673368140991017938e+00 4.858217338763971611e+02
1.673468162995858988e+00 4.858336340365473234e+02
1.673568185000700037e+00 4.858454539506946048e+02
1.673668207005541086e+00 4.858571933530297997e+02
1.673768229010382136e+00 4.858688519813767357e+02
1.673868251015223407e+00 4.858804295771982993e+02
1.673968273020064235e+00 4.858919258856075203e+02
1.674068295024905284e+00 4.859033406553767236e+02
1.674168317029746333e+00 4.859146736389463967e+02
1.674268339034587605e+00 4.859259245924354218e+02
1.674368361039428654e+00 4.859370932756494881e+02
1.674468383044269704e+00 4.859481794520891640e+02
1.674568405049110753e+00 4.859591828889616636e+02
1.674668427053951580e+00 4.859701033571843709e+02
1.674768449058792630e+00 4.859809406313977433e+02
1.674868471063633901e+00 4.859916944899712234e+02
1.674968493068474951e+00 4.860023647150122201e+02
1.675068515073316000e+00 4.860129510923744078e+02
1.675168537078157271e+00 4.860234534116621603e+02
1.675268559082998321e+00 4.860338714662437951e+02
1.675368581087839148e+00 4.860442050532545863e+02
1.675468603092680198e+00 4.860544539736052343e+02
1.675568625097521247e+00 4.860646180319894256e+02
1.675668647102362296e+00 4.860746970368904840e+02
1.675768669107203568e+00 4.860846908005871114e+02
1.675868691112044617e+00 4.860945991391628240e+02
1.675968713116885667e+00 4.861044218725091923e+02
1.676068735121726494e+00 4.861141588243341403e+02
1.676168757126567765e+00 4.861238098221674022e+02
1.676268779131408815e+00 4.861333746973659231e+02
1.676368801136249864e+00 4.861428532851211912e+02
1.676468823141090914e+00 4.861522454244636720e+02
1.676568845145931963e+00 4.861615509582677532e+02
1.676668867150773234e+00 4.861707697332589078e+02
1.676768889155614062e+00 4.861799016000165921e+02
1.676868911160455111e+00 4.861889464129821476e+02
1.676968933165296161e+00 4.861979040304604496e+02
1.677068955170137432e+00 4.862067743146266139e+02
1.677168977174978481e+00 4.862155571315289535e+02
1.677268999179819531e+00 4.862242523510954584e+02
1.677369021184660580e+00 4.862328598471362966e+02
1.677469043189501408e+00 4.862413794973477934e+02
1.677569065194342457e+00 4.862498111833168650e+02
1.677669087199183728e+00 4.862581547905240882e+02
1.677769109204024778e+00 4.862664102083492708e+02
1.677869131208865827e+00 4.862745773300707697e+02
1.677969153213707099e+00 4.862826560528721984e+02
1.678069175218548148e+00 4.862906462778450987e+02
1.678169197223388975e+00 4.862985479099885424e+02
1.678269219228230025e+00 4.863063608582169763e+02
1.678369241233071074e+00 4.863140850353562428e+02
1.678469263237912124e+00 4.863217203581536978e+02
1.678569285242753395e+00 4.863292667472736639e+02
1.678669307247594444e+00 4.863367241273031141e+02
1.678769329252435494e+00 4.863440924267516721e+02
1.678869351257276321e+00 4.863513715780542270e+02
1.678969373262117593e+00 4.863585615175729231e+02
1.679069395266958642e+00 4.863656621855973867e+02
1.679169417271799691e+00 4.863726735263463183e+02
1.679269439276640741e+00 4.863795954879684018e+02
1.679369461281481790e+00 4.863864280225438961e+02
1.679469483286323062e+00 4.863931710860845214e+02
1.679569505291163889e+00 4.863998246385339712e+02
1.679669527296004938e+00 4.864063886437683095e+02
1.679769549300845988e+00 4.864128630695972788e+02
1.679869571305687259e+00 4.864192478877623103e+02
1.679969593310528309e+00 4.864255430739380586e+02
1.680069615315369358e+00 4.864317486077313220e+02
1.680169637320210407e+00 4.864378644726807579e+02
1.680269659325051235e+00 4.864438906562567126e+02
1.680369681329892284e+00 4.864498271498584927e+02
1.680469703334733556e+00 4.864556739488160702e+02
1.680569725339574605e+00 4.864614310523886047e+02
1.680669747344415654e+00 4.864670984637598394e+02
1.680769769349256926e+00 4.864726761900406018e+02
1.680869791354097975e+00 4.864781642422652794e+02
1.680969813358938802e+00 4.864835626353911948e+02
1.681069835363779852e+00 4.864888713882948537e+02
1.681169857368620901e+00 4.864940905237702395e+02
1.681269879373461951e+00 4.864992200685288140e+02
1.681369901378303222e+00 4.865042600531944004e+02
1.681469923383144272e+00 4.865092105123020474e+02
1.681569945387985321e+00 4.865140714842937655e+02
1.681669967392826148e+00 4.865188430115174469e+02
1.681769989397667420e+00 4.865235251402222048e+02
1.681870011402508469e+00 4.865281179205576336e+02
1.681970033407349518e+00 4.865326214065661929e+02
1.682070055412190568e+00 4.865370356561837184e+02
1.682170077417031617e+00 4.865413607312324871e+02
1.682270099421872889e+00 4.865455966974201374e+02
1.682370121426713716e+00 4.865497436243338143e+02
1.682470143431554765e+00 4.865538015854359060e+02
1.682570165436395815e+00 4.865577706580609174e+02
1.682670187441237086e+00 4.865616509234092746e+02
1.682770209446078136e+00 4.865654424665443116e+02
1.682870231450919185e+00 4.865691453763859613e+02
1.682970253455760012e+00 4.865727597457058664e+02
1.683070275460601062e+00 4.865762856711240829e+02
1.683170297465442111e+00 4.865797232531010650e+02
1.683270319470283383e+00 4.865830725959333449e+02
1.683370341475124432e+00 4.865863338077489288e+02
1.683470363479965481e+00 4.865895070004985996e+02
1.683570385484806753e+00 4.865925922899538705e+02
1.683670407489647580e+00 4.865955897956972649e+02
1.683770429494488630e+00 4.865984996411175985e+02
1.683870451499329679e+00 4.866013219534038399e+02
1.683970473504170728e+00 4.866040568635379486e+02
1.684070495509011778e+00 4.866067045062883949e+02
1.684170517513853049e+00 4.866092650202017467e+02
1.684270539518694099e+00 4.866117385475982928e+02
1.684370561523534926e+00 4.866141252345632324e+02
1.684470583528375975e+00 4.866164252309384892e+02
1.684570605533217247e+00 4.866186386903166863e+02
1.684670627538058296e+00 4.866207657700329605e+02
1.684770649542899346e+00 4.866228066311563794e+02
1.684870671547740395e+00 4.866247614384832900e+02
1.684970693552581444e+00 4.866266303605274288e+02
1.685070715557422272e+00 4.866284135695137252e+02
1.685170737562263543e+00 4.866301112413671035e+02
1.685270759567104593e+00 4.866317235557071399e+02
1.685370781571945642e+00 4.866332506958364661e+02
1.685470803576786913e+00 4.866346928487327546e+02
1.685570825581627963e+00 4.866360502050411583e+02
1.685670847586469012e+00 4.866373229590609526e+02
1.685770869591309840e+00 4.866385113087420677e+02
1.685870891596150889e+00 4.866396154556705369e+02
1.685970913600991938e+00 4.866406356050613908e+02
1.686070935605833210e+00 4.866415719657480849e+02
1.686170957610674259e+00 4.866424247501716991e+02
1.686270979615515309e+00 4.866431941743729226e+02
1.686371001620356580e+00 4.866438804579795487e+02
1.686471023625197407e+00 4.866444838241977209e+02
1.686571045630038457e+00 4.866450044998006206e+02
1.686671067634879506e+00 4.866454427151173832e+02
1.686771089639720556e+00 4.866457987040230364e+02
1.686871111644561605e+00 4.866460727039269614e+02
1.686971133649402876e+00 4.866462649557615805e+02
1.687071155654243926e+00 4.866463757039725238e+02
1.687171177659084753e+00 4.866464051965052704e+02
1.687271199663925803e+00 4.866463536847942919e+02
1.687371221668767074e+00 4.866462214237517401e+02
1.687471243673608123e+00 4.866460086717550553e+02
1.687571265678449173e+00 4.866457156906357113e+02
1.687671287683290222e+00 4.866453427456655163e+02
1.687771309688131272e+00 4.866448901055471197e+02
1.687871331692972099e+00 4.866443580423975277e+02
1.687971353697813370e+00 4.866437468317398043e+02
1.688071375702654420e+00 4.866430567524880075e+02
1.688171397707495469e+00 4.866422880869338314e+02
1.688271419712336741e+00 4.866414411207347825e+02
1.688371441717177790e+00 4.866405161429025839e+02
1.688471463722018839e+00 4.866395134457858944e+02
1.688571485726859667e+00 4.866384333250603049e+02
1.688671507731700716e+00 4.866372760797144679e+02
1.688771529736541765e+00 4.866360420120345225e+02
1.688871551741383037e+00 4.866347314275920439e+02
1.688971573746224086e+00 4.866333446352285819e+02
1.689071595751065136e+00 4.866318819470451444e+02
1.689171617755906407e+00 4.866303436783830421e+02
1.689271639760747235e+00 4.866287301478138829e+02
1.689371661765588284e+00 4.866270416771210989e+02
1.689471683770429333e+00 4.866252785912899981e+02
1.689571705775270383e+00 4.866234412184886651e+02
1.689671727780111432e+00 4.866215298900562516e+02
1.689771749784952704e+00 4.866195449404868896e+02
1.689871771789793753e+00 4.866174867074137182e+02
1.689971793794634580e+00 4.866153555315954122e+02
1.690071815799475630e+00 4.866131517568996401e+02
1.690171837804316901e+00 4.866108757302876029e+02
1.690271859809157950e+00 4.866085278017997098e+02
1.690371881813999000e+00 4.866061083245380132e+02
1.690471903818840049e+00 4.866036176546516003e+02
1.690571925823681099e+00 4.866010561513203925e+02
1.690671947828521926e+00 4.865984241767395133e+02
1.690771969833363197e+00 4.865957220961015537e+02
1.690871991838204247e+00 4.865929502775819628e+02
1.690972013843045296e+00 4.865901090923221659e+02
1.691072035847886568e+00 4.865871989144127383e+02
1.691172057852727617e+00 4.865842201208756137e+02
1.691272079857568666e+00 4.865811730916498732e+02
1.691372101862409494e+00 4.865780582095732143e+02
1.691472123867250543e+00 4.865748758603642727e+02
1.691572145872091593e+00 4.865716264326076157e+02
1.691672167876932864e+00 4.865683103177342446e+02
1.691772189881773913e+00 4.865649279100056219e+02
1.691872211886614963e+00 4.865614796064954817e+02
1.691972233891456234e+00 4.865579658070727760e+02
1.692072255896297062e+00 4.865543869143839970e+02
1.692172277901138111e+00 4.865507433338348164e+02
1.692272299905979160e+00 4.865470354735722367e+02
1.692372321910820210e+00 4.865432637444674242e+02
1.692472343915661259e+00 4.865394285600956437e+02
1.692572365920502531e+00 4.865355303367210809e+02
1.692672387925343580e+00 4.865315694932748443e+02
1.692772409930184407e+00 4.865275464513398447e+02
1.692872431935025457e+00 4.865234616351307864e+02
1.692972453939866728e+00 4.865193154714735897e+02
1.693072475944707778e+00 4.865151083897902708e+02
1.693172497949548827e+00 4.865108408220780802e+02
1.693272519954389876e+00 4.865065132028902894e+02
1.693372541959230926e+00 4.865021259693172624e+02
1.693472563964071753e+00 4.864976795609682085e+02
1.693572585968913025e+00 4.864931744199516288e+02
1.693672607973754074e+00 4.864886109908542835e+02
1.693772629978595123e+00 4.864839897207243098e+02
1.693872651983436395e+00 4.864793110590483138e+02
1.693972673988277444e+00 4.864745754577375578e+02
1.694072695993118494e+00 4.864697833711009594e+02
1.694172717997959321e+00 4.864649352558290616e+02
1.694272740002800370e+00 4.864600315709760139e+02
1.694372762007641420e+00 4.864550727779346744e+02
1.694472784012482691e+00 4.864500593404201254e+02
1.694572806017323741e+00 4.864449917244483572e+02
1.694672828022164790e+00 4.864398703983162591e+02
1.694772850027006061e+00 4.864346958325797914e+02
1.694872872031846889e+00 4.864294685000360801e+02
1.694972894036687938e+00 4.864241888757004517e+02
1.695072916041528988e+00 4.864188574367868796e+02
1.695172938046370037e+00 4.864134746626870083e+02
1.695272960051211086e+00 4.864080410349490080e+02
1.695372982056052358e+00 4.864025570372589300e+02
1.695473004060893407e+00 4.863970231554148995e+02
1.695573026065734235e+00 4.863914398773110861e+02
1.695673048070575284e+00 4.863858076929139997e+02
1.695773070075416555e+00 4.863801270942403221e+02
1.695873092080257605e+00 4.863743985753391712e+02
1.695973114085098654e+00 4.863686226322666926e+02
1.696073136089939704e+00 4.863627997630672439e+02
1.696173158094780753e+00 4.863569304677500895e+02
1.696273180099621580e+00 4.863510152482692774e+02
1.696373202104462852e+00 4.863450546085010728e+02
1.696473224109303901e+00 4.863390490542225280e+02
1.696573246114144951e+00 4.863329990930899385e+02
1.696673268118986222e+00 4.863269052346151966e+02
1.696773290123827271e+00 4.863207679901462939e+02
1.696873312128668321e+00 4.863145878728435036e+02
1.696973334133509148e+00 4.863083653976571554e+02
1.697073356138350197e+00 4.863021010813084217e+02
1.697173378143191247e+00 4.862957954422618627e+02
1.697273400148032518e+00 4.862894490007076342e+02
1.697373422152873568e+00 4.862830622785369883e+02
1.697473444157714617e+00 4.862766357993202178e+02
1.697573466162555889e+00 4.862701700882841465e+02
1.697673488167396716e+00 4.862636656722893349e+02
1.697773510172237765e+00 4.862571230798079682e+02
1.697873532177078815e+00 4.862505428409009482e+02
1.697973554181919864e+00 4.862439254871943604e+02
1.698073576186760913e+00 4.862372715518583846e+02
1.698173598191602185e+00 4.862305815695814886e+02
1.698273620196443234e+00 4.862238560765511579e+02
1.698373642201284062e+00 4.862170956104283164e+02
1.698473664206125111e+00 4.862103007103253276e+02
1.698573686210966383e+00 4.862034719167811545e+02
1.698673708215807432e+00 4.861966097717418620e+02
1.698773730220648481e+00 4.861897148185336164e+02
1.698873752225489531e+00 4.861827876018415964e+02
1.698973774230330580e+00 4.861758286676860621e+02
1.699073796235171407e+00 4.861688385633985945e+02
1.699173818240012679e+00 4.861618178375992443e+02
1.699273840244853728e+00 4.861547670401737378e+02
1.699373862249694778e+00 4.861476867222480678e+02
1.699473884254536049e+00 4.861405774361663816e+02
1.699573906259377098e+00 4.861334397354673911e+02
1.699673928264218148e+00 4.861262741748609528e+02
1.699773950269058975e+00 4.861190813102024322e+02
1.699873972273900025e+00 4.861118616984715004e+02
1.699973994278741074e+00 4.861046158977474079e+02
1.700074016283582345e+00 4.860973444671842572e+02
1.700174038288423395e+00 4.860900479669890615e+02
1.700274060293264444e+00 4.860827269583958241e+02
1.700374082298105272e+00 4.860753820036437673e+02
1.700474104302946543e+00 4.860680136659511845e+02
1.700574126307787592e+00 4.860606225094941237e+02
1.700674148312628642e+00 4.860532090993784209e+02
1.700774170317469691e+00 4.860457740016208845e+02
1.700874192322310741e+00 4.860383177831200783e+02
1.700974214327152012e+00 4.860308410116366531e+02
1.701074236331992839e+00 4.860233442557648118e+02
1.701174258336833889e+00 4.860158280849126982e+02
1.701274280341674938e+00 4.860082930692755667e+02
1.701374302346516210e+00 4.860007397798109423e+02
1.701474324351357259e+00 4.859931687882165079e+02
1.701574346356198308e+00 4.859855806669040703e+02
1.701674368361039358e+00 4.859779759889768798e+02
1.701774390365880185e+00 4.859703553282041639e+02
1.701874412370721235e+00 4.859627192589973674e+02
1.701974434375562506e+00 4.859550683563852544e+02
1.702074456380403555e+00 4.859474031959895228e+02
1.702174478385244605e+00 4.859397243540023510e+02
1.702274500390085876e+00 4.859320324071590562e+02
1.702374522394926926e+00 4.859243279327153004e+02
1.702474544399767753e+00 4.859166115084231024e+02
1.702574566404608802e+00 4.859088837125055989e+02
1.702674588409449852e+00 4.859011451236324319e+02
1.702774610414290901e+00 4.858933963208951923e+02
1.702874632419132173e+00 4.858856378837853072e+02
1.702974654423973222e+00 4.858778703921653914e+02
1.703074676428814271e+00 4.858700944262490111e+02
1.703174698433655099e+00 4.858623105665729440e+02
1.703274720438496370e+00 4.858545193939741580e+02
1.703374742443337420e+00 4.858467214895655388e+02
1.703474764448178469e+00 4.858389174347104813e+02
1.703574786453019518e+00 4.858311078109995265e+02
1.703674808457860568e+00 4.858232932002244411e+02
1.703774830462701839e+00 4.858154741843546276e+02
1.703874852467542667e+00 4.858076513455129657e+02
1.703974874472383716e+00 4.857998252659501190e+02
1.704074896477224765e+00 4.857919965280208316e+02
1.704174918482066037e+00 4.857841657141594851e+02
1.704274940486907086e+00 4.857763334068548602e+02
1.704374962491748136e+00 4.857685001886262626e+02
1.704474984496589185e+00 4.857606666419993644e+02
1.704575006501430012e+00 4.857528333494810795e+02
1.704675028506271062e+00 4.857450008935350070e+02
1.704775050511112333e+00 4.857371698565568749e+02
1.704875072515953383e+00 4.857293408208514052e+02
1.704975094520794432e+00 4.857215143686057104e+02
1.705075116525635703e+00 4.857136910818671822e+02
1.705175138530476753e+00 4.857058715425170590e+02
1.705275160535317580e+00 4.856980563322470630e+02
1.705375182540158630e+00 4.856902460325339916e+02
1.705475204544999679e+00 4.856824412246179463e+02
1.705575226549840728e+00 4.856746424894755592e+02
1.705675248554682000e+00 4.856668504077946409e+02
1.705775270559523049e+00 4.856590655599528077e+02
1.705875292564364099e+00 4.856512885259926406e+02
1.705975314569204926e+00 4.856435198855944577e+02
1.706075336574046197e+00 4.856357602180554522e+02
1.706175358578887247e+00 4.856280101022646249e+02
1.706275380583728296e+00 4.856202701166765223e+02
1.706375402588569345e+00 4.856125408392908298e+02
1.706475424593410395e+00 4.856048228476237796e+02
1.706575446598251666e+00 4.855971167186877437e+02
1.706675468603092494e+00 4.855894230289646885e+02
1.706775490607933543e+00 4.855817423543835503e+02
1.706875512612774592e+00 4.855740752702957366e+02
1.706975534617615864e+00 4.855664223514504556e+02
1.707075556622456913e+00 4.855587841719722064e+02
1.707175578627297963e+00 4.855511613053349151e+02
1.707275600632139012e+00 4.855435543243393113e+02
1.707375622636979839e+00 4.855359638010891672e+02
1.707475644641820889e+00 4.855283903069667986e+02
1.707575666646662160e+00 4.855208344126089060e+02
1.707675688651503210e+00 4.855132966878841216e+02
1.707775710656344259e+00 4.855057777018680554e+02
1.707875732661185531e+00 4.854982780228203296e+02
1.707975754666026580e+00 4.854907982181605348e+02
1.708075776670867407e+00 4.854833388544440709e+02
1.708175798675708457e+00 4.854759004973399783e+02
1.708275820680549506e+00 4.854684837116069502e+02
1.708375842685390555e+00 4.854610890610684919e+02
1.708475864690231827e+00 4.854537171085911496e+02
1.708575886695072876e+00 4.854463684160605226e+02
1.708675908699913926e+00 4.854390435443578440e+02
1.708775930704754753e+00 4.854317430533362199e+02
1.708875952709596024e+00 4.854244675017986879e+02
1.708975974714437074e+00 4.854172174474733197e+02
1.709075996719278123e+00 4.854099934469927575e+02
1.709176018724119173e+00 4.854027960558665313e+02
1.709276040728960222e+00 4.853956258284626415e+02
1.709376062733801493e+00 4.853884833179834004e+02
1.709476084738642321e+00 4.853813690764398530e+02
1.709576106743483370e+00 4.853742836546325066e+02
1.709676128748324420e+00 4.853672276021262633e+02
1.709776150753165691e+00 4.853602014672280802e+02
1.709876172758006740e+00 4.853532057969650282e+02
1.709976194762847790e+00 4.853462411370611562e+02
1.710076216767688839e+00 4.853393080319134469e+02
1.710176238772529667e+00 4.853324070245727171e+02
1.710276260777370716e+00 4.853255386567182086e+02
1.710376282782211987e+00 4.853187034686354764e+02
1.710476304787053037e+00 4.853119019991963228e+02
1.710576326791894086e+00 4.853051347858329905e+02
1.710676348796735358e+00 4.852984023645197453e+02
1.710776370801576407e+00 4.852917052697472968e+02
1.710876392806417234e+00 4.852850440345031302e+02
1.710976414811258284e+00 4.852784191902494513e+02
1.711076436816099333e+00 4.852718312668986869e+02
1.711176458820940383e+00 4.852652807927951244e+02
1.711276480825781654e+00 4.852587682946904124e+02
1.711376502830622703e+00 4.852522942977236653e+02
1.711476524835463753e+00 4.852458593253983281e+02
1.711576546840304580e+00 4.852394638995618834e+02
1.711676568845145852e+00 4.852331085403835687e+02
1.711776590849986901e+00 4.852267937663332305e+02
1.711876612854827950e+00 4.852205200941604062e+02
1.711976634859669000e+00 4.852142880388717003e+02
1.712076656864510049e+00 4.852080981137116851e+02
1.712176678869351321e+00 4.852019508301394808e+02
1.712276700874192148e+00 4.851958466978099409e+02
1.712376722879033197e+00 4.851897862245507440e+02
1.712476744883874247e+00 4.851837699163432944e+02
1.712576766888715518e+00 4.851777982773008944e+02
1.712676788893556568e+00 4.851718718096476550e+02
1.712776810898397617e+00 4.851659910136991698e+02
1.712876832903238666e+00 4.851601563878413117e+02
1.712976854908079494e+00 4.851543684285099971e+02
1.713076876912920543e+00 4.851486276301696989e+02
1.713176898917761815e+00 4.851429344852946315e+02
1.713276920922602864e+00 4.851372894843488552e+02
1.713376942927443913e+00 4.851316931157641648e+02
1.713476964932285185e+00 4.851261458659228083e+02
1.713576986937126234e+00 4.851206482191343525e+02
1.713677008941967062e+00 4.851152006576189137e+02
1.713777030946808111e+00 4.851098036614856142e+02
1.713877052951649160e+00 4.851044577087151310e+02
1.713977074956490210e+00 4.850991632751355382e+02
1.714077096961331481e+00 4.850939208344082658e+02
1.714177118966172531e+00 4.850887308580053627e+02
1.714277140971013580e+00 4.850835938151913069e+02
1.714377162975854407e+00 4.850785101730044175e+02
1.714477184980695679e+00 4.850734803962370734e+02
1.714577206985536728e+00 4.850685049474163293e+02
1.714677228990377778e+00 4.850635842867858400e+02
1.714777250995218827e+00 4.850587188722871588e+02
1.714877273000059876e+00 4.850539091595408081e+02
1.714977295004901148e+00 4.850491556018275787e+02
1.715077317009741975e+00 4.850444586500694868e+02
1.715177339014583024e+00 4.850398187528141420e+02
1.715277361019424074e+00 4.850352363562130904e+02
1.715377383024265345e+00 4.850307119040053294e+02
1.715477405029106395e+00 4.850262458374994594e+02
1.715577427033947444e+00 4.850218385955553231e+02
1.715677449038788493e+00 4.850174906145659861e+02
1.715777471043629321e+00 4.850132023284403431e+02
1.715877493048470370e+00 4.850089741685860645e+02
1.715977515053311642e+00 4.850048065638912362e+02
1.716077537058152691e+00 4.850006999407074773e+02
1.716177559062993740e+00 4.849966547228317495e+02
1.716277581067835012e+00 4.849926713314902713e+02
1.716377603072676061e+00 4.849887501853215213e+02
1.716477625077516889e+00 4.849848917003588440e+02
1.716577647082357938e+00 4.849810962900128288e+02
1.716677669087198987e+00 4.849773643650568715e+02
1.716777691092040037e+00 4.849736963336082454e+02
1.716877713096881308e+00 4.849700926011122419e+02
1.716977735101722358e+00 4.849665535703272781e+02
1.717077757106563407e+00 4.849630796413065354e+02
1.717177779111404234e+00 4.849596712113826698e+02
1.717277801116245506e+00 4.849563286751527471e+02
1.717377823121086555e+00 4.849530524244609069e+02
1.717477845125927605e+00 4.849498428483832413e+02
1.717577867130768654e+00 4.849467003332130730e+02
1.717677889135609703e+00 4.849436252624424242e+02
1.717777911140450531e+00 4.849406180167500224e+02
1.717877933145291802e+00 4.849376789739848732e+02
1.717977955150132852e+00 4.849348085091497751e+02
1.718077977154973901e+00 4.849320069943883595e+02
1.718177999159815172e+00 4.849292747989682653e+02
1.718278021164656222e+00 4.849266122892673252e+02
1.718378043169497271e+00 4.849240198287595263e+02
1.718478065174338099e+00 4.849214977779990932e+02
1.718578087179179148e+00 4.849190464946059365e+02
1.718678109184020197e+00 4.849166663332535450e+02
1.718778131188861469e+00 4.849143576456523306e+02
1.718878153193702518e+00 4.849121207805370091e+02
1.718978175198543568e+00 4.849099560836521619e+02
1.719078197203384839e+00 4.849078638977388778e+02
1.719178219208225666e+00 4.849058445625197464e+02
1.719278241213066716e+00 4.849038984146871485e+02
1.719378263217907765e+00 4.849020257878892153e+02
1.719478285222748815e+00 4.849002270127160159e+02
1.719578307227589864e+00 4.848985024166867106e+02
1.719678329232431135e+00 4.848968523242364199e+02
1.719778351237272185e+00 4.848952770567045718e+02
1.719878373242113012e+00 4.848937769323200087e+02
1.719978395246954062e+00 4.848923522661896186e+02
1.720078417251795333e+00 4.848910033702863984e+02
1.720178439256636382e+00 4.848897305534361521e+02
1.720278461261477432e+00 4.848885341213047013e+02
1.720378483266318481e+00 4.848874143763881648e+02
1.720478505271159531e+00 4.848863716179982930e+02
1.720578527276000358e+00 4.848854061422525774e+02
1.720678549280841629e+00 4.848845182420624269e+02
1.720778571285682679e+00 4.848837082071187297e+02
1.720878593290523728e+00 4.848829763238854298e+02
1.720978615295365000e+00 4.848823228755846344e+02
1.721078637300206049e+00 4.848817481421870070e+02
1.721178659305047098e+00 4.848812524003987505e+02
1.721278681309887926e+00 4.848808359236546721e+02
1.721378703314728975e+00 4.848804989821027220e+02
1.721478725319570025e+00 4.848802418425983660e+02
1.721578747324411296e+00 4.848800647686886691e+02
1.721678769329252345e+00 4.848799680206083735e+02
1.721778791334093395e+00 4.848799518552635845e+02
1.721878813338934666e+00 4.848800165262254609e+02
1.721978835343775494e+00 4.848801622837192440e+02
1.722078857348616543e+00 4.848803893746160725e+02
1.722178879353457592e+00 4.848806980424199651e+02
1.722278901358298642e+00 4.848810885272619657e+02
1.722378923363139691e+00 4.848815610658883202e+02
1.722478945367980963e+00 4.848821158916536547e+02
1.722578967372822012e+00 4.848827532345097779e+02
1.722678989377662839e+00 4.848834733209979504e+02
1.722779011382503889e+00 4.848842763742395618e+02
1.722879033387345160e+00 4.848851626139292534e+02
1.722979055392186210e+00 4.848861322563233216e+02
1.723079077397027259e+00 4.848871855142347158e+02
1.723179099401868308e+00 4.848883225970236026e+02
1.723279121406709358e+00 4.848895437105874180e+02
1.723379143411550185e+00 4.848908490573576842e+02
1.723479165416391456e+00 4.848922388362873335e+02
1.723579187421232506e+00 4.848937132428462746e+02
1.723679209426073555e+00 4.848952724690128662e+02
1.723779231430914827e+00 4.848969167032663563e+02
1.723879253435755876e+00 4.848986461305813691e+02
1.723979275440596926e+00 4.849004609324193780e+02
1.724079297445437753e+00 4.849023612867218276e+02
1.724179319450278802e+00 4.849043473679040517e+02
1.724279341455119852e+00 4.849064193468498161e+02
1.724379363459961123e+00 4.849085773909029058e+02
1.724479385464802172e+00 4.849108216638619524e+02
1.724579407469643222e+00 4.849131523259746928e+02
1.724679429474484493e+00 4.849155695339306931e+02
1.724779451479325321e+00 4.849180734408575972e+02
1.724879473484166370e+00 4.849206641963144193e+02
1.724979495489007419e+00 4.849233419462847223e+02
1.725079517493848469e+00 4.849261068331746856e+02
1.725179539498689518e+00 4.849289589958042939e+02
1.725279561503530790e+00 4.849318985694047797e+02
1.725379583508371839e+00 4.849349256856122565e+02
1.725479605513212666e+00 4.849380404724644222e+02
1.725579627518053716e+00 4.849412430543948176e+02
1.725679649522894987e+00 4.849445335522289042e+02
1.725779671527736037e+00 4.849479120831803698e+02
1.725879693532577086e+00 4.849513787608450457e+02
1.725979715537418135e+00 4.849549336951992018e+02
1.726079737542259185e+00 4.849585769925951126e+02
1.726179759547100012e+00 4.849623087557566237e+02
1.726279781551941284e+00 4.849661290837765364e+02
1.726379803556782333e+00 4.849700380721118336e+02
1.726479825561623382e+00 4.849740358125827129e+02
1.726579847566464654e+00 4.849781223933679257e+02
1.726679869571305703e+00 4.849822978990027877e+02
1.726779891576146753e+00 4.849865624103744608e+02
1.726879913580987580e+00 4.849909160047236014e+02
1.726979935585828629e+00 4.849953587556359480e+02
1.727079957590669679e+00 4.849998907330453903e+02
1.727179979595510950e+00 4.850045120032299906e+02
1.727280001600352000e+00 4.850092226288078336e+02
1.727380023605193049e+00 4.850140226687389031e+02
1.727480045610034320e+00 4.850189121783208748e+02
1.727580067614875148e+00 4.850238912091886618e+02
1.727680089619716197e+00 4.850289598093128234e+02
1.727780111624557247e+00 4.850341180229968359e+02
1.727880133629398296e+00 4.850393658908802195e+02
1.727980155634239345e+00 4.850447034499324559e+02
1.728080177639080617e+00 4.850501307334562284e+02
1.728180199643921666e+00 4.850556477710837271e+02
1.728280221648762494e+00 4.850612545887789793e+02
1.728380243653603543e+00 4.850669512088364286e+02
1.728480265658444814e+00 4.850727376498796275e+02
1.728580287663285864e+00 4.850786139268631132e+02
1.728680309668126913e+00 4.850845800510714980e+02
1.728780331672967963e+00 4.850906360301198674e+02
1.728880353677809012e+00 4.850967818679549168e+02
1.728980375682649839e+00 4.851030175648548379e+02
1.729080397687491111e+00 4.851093431174302282e+02
1.729180419692332160e+00 4.851157585186248298e+02
1.729280441697173210e+00 4.851222637577178602e+02
1.729380463702014481e+00 4.851288588203241261e+02
1.729480485706855530e+00 4.851355436883942502e+02
1.729580507711696580e+00 4.851423183402192194e+02
1.729680529716537407e+00 4.851491827504297021e+02
1.729780551721378457e+00 4.851561368899979811e+02
1.729880573726219506e+00 4.851631807262422171e+02
1.729980595731060777e+00 4.851703142228252545e+02
1.730080617735901827e+00 4.851775373397592830e+02
1.730180639740742876e+00 4.851848500334075425e+02
1.730280661745584148e+00 4.851922522564874498e+02
1.730380683750424975e+00 4.851997439580724176e+02
1.730480705755266024e+00 4.852073250835945828e+02
1.730580727760107074e+00 4.852149955748495245e+02
1.730680749764948123e+00 4.852227553699984810e+02
1.730780771769789173e+00 4.852306044035705099e+02
1.730880793774630444e+00 4.852385426064688545e+02
1.730980815779471493e+00 4.852465699059712847e+02
1.731080837784312321e+00 4.852546862257361227e+02
1.731180859789153370e+00 4.852628914858062217e+02
1.731280881793994642e+00 4.852711856026116948e+02
1.731380903798835691e+00 4.852795684889746326e+02
1.731480925803676740e+00 4.852880400541146741e+02
1.731580947808517790e+00 4.852966002036524173e+02
1.731680969813358839e+00 4.853052488396135118e+02
1.731780991818199666e+00 4.853139858604358778e+02
1.731881013823040938e+00 4.853228111609715825e+02
1.731981035827881987e+00 4.853317246324954795e+02
1.732081057832723037e+00 4.853407261627062326e+02
1.732181079837564308e+00 4.853498156357362063e+02
1.732281101842405358e+00 4.853589929321541945e+02
1.732381123847246407e+00 4.853682579289721275e+02
1.732481145852087234e+00 4.853776104996501886e+02
1.732581167856928284e+00 4.853870505141044305e+02
1.732681189861769333e+00 4.853965778387108116e+02
1.732781211866610604e+00 4.854061923363143478e+02
1.732881233871451654e+00 4.854158938662316700e+02
1.732981255876292703e+00 4.854256822842617680e+02
1.733081277881133975e+00 4.854355574426897988e+02
1.733181299885974802e+00 4.854455191902954994e+02
1.733281321890815851e+00 4.854555673723596669e+02
1.733381343895656901e+00 4.854657018306710370e+02
1.733481365900497950e+00 4.854759224035342982e+02
1.733581387905339000e+00 4.854862289257782209e+02
1.733681409910180271e+00 4.854966212287603753e+02
1.733781431915021320e+00 4.855070991403786138e+02
1.733881453919862148e+00 4.855176624850768121e+02
1.733981475924703197e+00 4.855283110838523726e+02
1.734081497929544469e+00 4.855390447542663424e+02
1.734181519934385518e+00 4.855498633104505188e+02
1.734281541939226567e+00 4.855607665631166583e+02
1.734381563944067617e+00 4.855717543195636381e+02
1.734481585948908666e+00 4.855828263836876886e+02
1.734581607953749494e+00 4.855939825559906922e+02
1.734681629958590765e+00 4.856052226335897899e+02
1.734781651963431814e+00 4.856165464102248279e+02
1.734881673968272864e+00 4.856279536762699536e+02
1.734981695973114135e+00 4.856394442187418008e+02
1.735081717977955185e+00 4.856510178213088125e+02
1.735181739982796012e+00 4.856626742643016428e+02
1.735281761987637061e+00 4.856744133247227637e+02
1.735381783992478111e+00 4.856862347762566401e+02
1.735481805997319160e+00 4.856981383892796202e+02
1.735581828002160432e+00 4.857101239308697131e+02
1.735681850007001481e+00 4.857221911648183550e+02
1.735781872011842530e+00 4.857343398516396178e+02
1.735881894016683358e+00 4.857465697485812370e+02
1.735981916021524629e+00 4.857588806096360941e+02
1.736081938026365679e+00 4.857712721855517088e+02
1.736181960031206728e+00 4.857837442238432004e+02
1.736281982036047777e+00 4.857962964688031775e+02
1.736382004040888827e+00 4.858089286615128231e+02
1.736482026045730098e+00 4.858216405398539450e+02
1.736582048050570926e+00 4.858344318385217093e+02
1.736682070055411975e+00 4.858473022890332231e+02
1.736782092060253024e+00 4.858602516197429395e+02
1.736882114065094296e+00 4.858732795558523776e+02
1.736982136069935345e+00 4.858863858194229124e+02
1.737082158074776395e+00 4.858995701293878255e+02
1.737182180079617444e+00 4.859128322015648109e+02
1.737282202084458271e+00 4.859261717486689918e+02
1.737382224089299321e+00 4.859395884803241756e+02
1.737482246094140592e+00 4.859530821030768379e+02
1.737582268098981642e+00 4.859666523204087412e+02
1.737682290103822691e+00 4.859802988327487583e+02
1.737782312108663962e+00 4.859940213374891300e+02
1.737882334113505012e+00 4.860078195289931955e+02
1.737982356118345839e+00 4.860216930986158559e+02
1.738082378123186889e+00 4.860356417347101683e+02
1.738182400128027938e+00 4.860496651226461040e+02
1.738282422132868987e+00 4.860637629448210077e+02
1.738382444137710259e+00 4.860779348806751159e+02
1.738482466142551308e+00 4.860921806067056536e+02
1.738582488147392358e+00 4.861064997964789995e+02
1.738682510152233185e+00 4.861208921206472269e+02
1.738782532157074456e+00 4.861353572469614619e+02
1.738882554161915506e+00 4.861498948402859241e+02
1.738982576166756555e+00 4.861645045626127626e+02
1.739082598171597605e+00 4.861791860730770622e+02
1.739182620176438654e+00 4.861939390279713393e+02
1.739282642181279925e+00 4.862087630807598089e+02
1.739382664186120753e+00 4.862236578820952104e+02
1.739482686190961802e+00 4.862386230798321662e+02
1.739582708195802851e+00 4.862536583190430406e+02
1.739682730200644123e+00 4.862687632420329464e+02
1.739782752205485172e+00 4.862839374883562300e+02
1.739882774210326222e+00 4.862991806948311933e+02
1.739982796215167271e+00 4.863144924955552142e+02
1.740082818220008098e+00 4.863298725219223115e+02
1.740182840224849148e+00 4.863453204026369576e+02
1.740282862229690419e+00 4.863608357637323252e+02
1.740382884234531469e+00 4.863764182285842708e+02
1.740482906239372518e+00 4.863920674179288994e+02
1.740582928244213790e+00 4.864077829498788788e+02
1.740682950249054839e+00 4.864235644399383318e+02
1.740782972253895666e+00 4.864394115010218229e+02
1.740882994258736716e+00 4.864553237434687389e+02
1.740983016263577765e+00 4.864713007750625025e+02
1.741083038268418814e+00 4.864873422010434751e+02
1.741183060273260086e+00 4.865034476241307857e+02
1.741283082278101135e+00 4.865196166445355743e+02
1.741383104282942185e+00 4.865358488599804332e+02
1.741483126287783012e+00 4.865521438657150384e+02
1.741583148292624283e+00 4.865685012545339987e+02
1.741683170297465333e+00 4.865849206167962961e+02
1.741783192302306382e+00 4.866014015404386441e+02
1.741883214307147432e+00 4.866179436109973722e+02
1.741983236311988481e+00 4.866345464116234893e+02
1.742083258316829752e+00 4.866512095231015564e+02
1.742183280321670580e+00 4.866679325238677620e+02
1.742283302326511629e+00 4.866847149900277714e+02
1.742383324331352679e+00 4.867015564953732678e+02
1.742483346336193950e+00 4.867184566114036102e+02
1.742583368341034999e+00 4.867354149073406688e+02
1.742683390345876049e+00 4.867524309501491189e+02
1.742783412350717098e+00 4.867695043045539478e+02
1.742883434355557926e+00 4.867866345330605782e+02
1.742983456360398975e+00 4.868038211959722616e+02
1.743083478365240246e+00 4.868210638514078710e+02
1.743183500370081296e+00 4.868383620553225910e+02
1.743283522374922345e+00 4.868557153615265634e+02
1.743383544379763617e+00 4.868731233217027921e+02
1.743483566384604666e+00 4.868905854854275503e+02
1.743583588389445493e+00 4.869081014001881158e+02
1.743683610394286543e+00 4.869256706114029498e+02
1.743783632399127592e+00 4.869432926624411380e+02
1.743883654403968642e+00 4.869609670946413189e+02
1.743983676408809913e+00 4.869786934473310680e+02
1.744083698413650962e+00 4.869964712578478725e+02
1.744183720418492012e+00 4.870143000615562983e+02
1.744283742423332839e+00 4.870321793918694198e+02
1.744383764428174111e+00 4.870501087802690563e+02
1.744483786433015160e+00 4.870680877563236777e+02
1.744583808437856209e+00 4.870861158477107438e+02
1.744683830442697259e+00 4.871041925802348942e+02
1.744783852447538308e+00 4.871223174778479574e+02
1.744883874452379580e+00 4.871404900626715744e+02
1.744983896457220407e+00 4.871587098550143082e+02
1.745083918462061456e+00 4.871769763733940408e+02
1.745183940466902506e+00 4.871952891345572425e+02
1.745283962471743777e+00 4.872136476534998337e+02
1.745383984476584827e+00 4.872320514434881034e+02
1.745484006481425876e+00 4.872505000160789450e+02
1.745584028486266925e+00 4.872689928811402069e+02
1.745684050491107753e+00 4.872875295468711556e+02
1.745784072495948802e+00 4.873061095198248154e+02
1.745884094500790074e+00 4.873247323049268971e+02
1.745984116505631123e+00 4.873433974054983651e+02
1.746084138510472172e+00 4.873621043232752754e+02
1.746184160515313444e+00 4.873808525584296945e+02
1.746284182520154493e+00 4.873996416095917539e+02
1.746384204524995321e+00 4.874184709738701144e+02
1.746484226529836370e+00 4.874373401468732254e+02
1.746584248534677419e+00 4.874562486227316640e+02
1.746684270539518469e+00 4.874751958941164958e+02
1.746784292544359740e+00 4.874941814522646268e+02
1.746884314549200790e+00 4.875132047869973348e+02
1.746984336554041839e+00 4.875322653867427221e+02
1.747084358558882666e+00 4.875513627385577138e+02
1.747184380563723938e+00 4.875704963281485789e+02
1.747284402568564987e+00 4.875896656398924733e+02
1.747384424573406037e+00 4.876088701568620536e+02
1.747484446578247086e+00 4.876281093608426431e+02
1.747584468583088135e+00 4.876473827323574710e+02
1.747684490587929407e+00 4.876666897506876239e+02
1.747784512592770234e+00 4.876860298938959772e+02
1.747884534597611284e+00 4.877054026388460670e+02
1.747984556602452333e+00 4.877248074612277264e+02
1.748084578607293604e+00 4.877442438355755598e+02
1.748184600612134654e+00 4.877637112352931013e+02
1.748284622616975703e+00 4.877832091326746422e+02
1.748384644621816753e+00 4.878027369989278554e+02
1.748484666626657580e+00 4.878222943041927238e+02
1.748584688631498629e+00 4.878418805175700186e+02
1.748684710636339901e+00 4.878614951071367614e+02
1.748784732641180950e+00 4.878811375399729968e+02
1.748884754646021999e+00 4.879008072821827682e+02
1.748984776650863271e+00 4.879205037989158882e+02
1.749084798655704320e+00 4.879402265543914154e+02
1.749184820660545148e+00 4.879599750119188570e+02
1.749284842665386197e+00 4.879797486339220995e+02
1.749384864670227246e+00 4.879995468819605549e+02
1.749484886675068296e+00 4.880193692167528070e+02
1.749584908679909567e+00 4.880392150981986106e+02
1.749684930684750617e+00 4.880590839854010028e+02
1.749784952689591666e+00 4.880789753366896093e+02
1.749884974694432493e+00 4.880988886096433248e+02
1.749984996699273765e+00 4.881188232611122544e+02
1.750085018704114814e+00 4.881387787472417017e+02
1.750185040708955864e+00 4.881587545234932577e+02
1.750285062713796913e+00 4.881787500446683907e+02
1.750385084718637962e+00 4.881987647649322071e+02
1.750485106723479234e+00 4.882187981378336303e+02
1.750585128728320061e+00 4.882388496163310947e+02
1.750685150733161111e+00 4.882589186528128380e+02
1.750785172738002160e+00 4.882790046991216286e+02
1.750885194742843431e+00 4.882991072065771050e+02
1.750985216747684481e+00 4.883192256259977171e+02
1.751085238752525530e+00 4.883393594077255102e+02
1.751185260757366580e+00 4.883595080016459065e+02
1.751285282762207407e+00 4.883796708572147622e+02
1.751385304767048456e+00 4.883998474234775813e+02
1.751485326771889728e+00 4.884200371490942416e+02
1.751585348776730777e+00 4.884402394823621307e+02
1.751685370781571827e+00 4.884604538712383146e+02
1.751785392786413098e+00 4.884806797633627866e+02
1.751885414791254147e+00 4.885009166060810912e+02
1.751985436796094975e+00 4.885211638464682551e+02
1.752085458800936024e+00 4.885414209313515812e+02
1.752185480805777074e+00 4.885616873073317947e+02
1.752285502810618123e+00 4.885819624208089067e+02
1.752385524815459394e+00 4.886022457180030187e+02
1.752485546820300444e+00 4.886225366449781404e+02
1.752585568825141271e+00 4.886428346476650972e+02
1.752685590829982321e+00 4.886631391718851773e+02
1.752785612834823592e+00 4.886834496633717322e+02
1.752885634839664641e+00 4.887037655677947328e+02
1.752985656844505691e+00 4.887240863307811196e+02
1.753085678849346740e+00 4.887444113979423150e+02
1.753185700854187790e+00 4.887647402148923561e+02
1.753285722859028617e+00 4.887850722272744974e+02
1.753385744863869888e+00 4.888054068807811632e+02
1.753485766868710938e+00 4.888257436211800950e+02
1.753585788873551987e+00 4.888460818943348727e+02
1.753685810878393259e+00 4.888664211462283333e+02
1.753785832883234308e+00 4.888867608229860480e+02
1.753885854888075357e+00 4.889071003708992862e+02
1.753985876892916185e+00 4.889274392364481514e+02
1.754085898897757234e+00 4.889477768663225561e+02
1.754185920902598284e+00 4.889681127074471192e+02
1.754285942907439555e+00 4.889884462070037898e+02
1.754385964912280604e+00 4.890087768124541299e+02
1.754485986917121654e+00 4.890291039715618808e+02
1.754586008921962925e+00 4.890494271324174065e+02
1.754686030926803753e+00 4.890697457434577018e+02
1.754786052931644802e+00 4.890900592534913471e+02
1.754886074936485851e+00 4.891103671117217573e+02
1.754986096941326901e+00 4.891306687677674745e+02
1.755086118946167950e+00 4.891509636716865543e+02
1.755186140951009222e+00 4.891712512739986209e+02
1.755286162955850271e+00 4.891915310257093097e+02
1.755386184960691098e+00 4.892118023783297076e+02
1.755486206965532148e+00 4.892320647839006256e+02
1.755586228970373419e+00 4.892523176950169272e+02
1.755686250975214469e+00 4.892725605648462874e+02
1.755786272980055518e+00 4.892927928471544305e+02
1.755886294984896567e+00 4.893130139963283796e+02
1.755986316989737617e+00 4.893332234673947596e+02
1.756086338994578444e+00 4.893534207160477081e+02
1.756186360999419716e+00 4.893736051986660982e+02
1.756286383004260765e+00 4.893937763723403123e+02
1.756386405009101814e+00 4.894139336948907157e+02
1.756486427013943086e+00 4.894340766248928389e+02
1.756586449018784135e+00 4.894542046216982953e+02
1.756686471023625185e+00 4.894743171454574622e+02
1.756786493028466012e+00 4.894944136571402851e+02
1.756886515033307061e+00 4.895144936185612323e+02
1.756986537038148111e+00 4.895345564923983375e+02
1.757086559042989382e+00 4.895546017422173577e+02
1.757186581047830432e+00 4.895746288324916122e+02
1.757286603052671481e+00 4.895946372286275050e+02
1.757386625057512752e+00 4.896146263969824304e+02
1.757486647062353580e+00 4.896345958048887042e+02
1.757586669067194629e+00 4.896545449206765284e+02
1.757686691072035678e+00 4.896744732136931475e+02
1.757786713076876728e+00 4.896943801543255290e+02
1.757886735081717777e+00 4.897142652140232144e+02
1.757986757086559049e+00 4.897341278653182144e+02
1.758086779091400098e+00 4.897539675818489968e+02
1.758186801096240925e+00 4.897737838383781082e+02
1.758286823101081975e+00 4.897935761108171278e+02
1.758386845105923246e+00 4.898133438762476999e+02
1.758486867110764296e+00 4.898330866129408037e+02
1.758586889115605345e+00 4.898528038003807978e+02
1.758686911120446394e+00 4.898724949192836675e+02
1.758786933125287444e+00 4.898921594516206142e+02
1.758886955130128271e+00 4.899117968806388035e+02
1.758986977134969543e+00 4.899314066908813174e+02
1.759086999139810592e+00 4.899509883682093800e+02
1.759187021144651641e+00 4.899705413998219683e+02
1.759287043149492913e+00 4.899900652742792317e+02
1.759387065154333962e+00 4.900095594815197160e+02
1.759487087159175012e+00 4.900290235128843506e+02
1.759587109164015839e+00 4.900484568611361169e+02
1.759687131168856888e+00 4.900678590204790908e+02
1.759787153173697938e+00 4.900872294865814638e+02
1.759887175178539209e+00 4.901065677565951546e+02
1.759987197183380259e+00 4.901258733291747944e+02
1.760087219188221308e+00 4.901451457045011466e+02
1.760187241193062579e+00 4.901643843842985007e+02
1.760287263197903407e+00 4.901835888718559886e+02
1.760387285202744456e+00 4.902027586720486738e+02
1.760487307207585506e+00 4.902218932913560252e+02
1.760587329212426555e+00 4.902409922378832903e+02
1.760687351217267604e+00 4.902600550213803672e+02
1.760787373222108876e+00 4.902790811532626662e+02
1.760887395226949925e+00 4.902980701466300957e+02
1.760987417231790753e+00 4.903170215162869567e+02
1.761087439236631802e+00 4.903359347787620663e+02
1.761187461241473073e+00 4.903548094523287091e+02
1.761287483246314123e+00 4.903736450570213492e+02
1.761387505251155172e+00 4.903924411146594480e+02
1.761487527255996222e+00 4.904111971488641757e+02
1.761587549260837271e+00 4.904299126850755783e+02
1.761687571265678098e+00 4.904485872505771908e+02
1.761787593270519370e+00 4.904672203745103047e+02
1.761887615275360419e+00 4.904858115878955687e+02
1.761987637280201469e+00 4.905043604236502119e+02
1.762087659285042740e+00 4.905228664166093040e+02
1.762187681289883789e+00 4.905413291035408747e+02
1.762287703294724839e+00 4.905597480231689360e+02
1.762387725299565666e+00 4.905781227161875222e+02
1.762487747304406716e+00 4.905964527252837684e+02
1.762587769309247765e+00 4.906147375951528602e+02
1.762687791314089036e+00 4.906329768725171334e+02
1.762787813318930086e+00 4.906511701061448889e+02
1.762887835323771135e+00 4.906693168468693784e+02
1.762987857328612407e+00 4.906874166476047208e+02
1.763087879333453234e+00 4.907054690633653422e+02
1.763187901338294283e+00 4.907234736512829159e+02
1.763287923343135333e+00 4.907414299706258021e+02
1.763387945347976382e+00 4.907593375828143394e+02
1.763487967352817432e+00 4.907771960514404554e+02
1.763587989357658703e+00 4.907950049422835832e+02
1.763688011362499752e+00 4.908127638233301013e+02
1.763788033367340580e+00 4.908304722647879430e+02
1.763888055372181629e+00 4.908481298391057521e+02
1.763988077377022901e+00 4.908657361209903911e+02
1.764088099381863950e+00 4.908832906874210948e+02
1.764188121386704999e+00 4.909007931176693091e+02
1.764288143391546049e+00 4.909182429933144931e+02
1.764388165396387098e+00 4.909356398982607743e+02
1.764488187401227925e+00 4.909529834187524102e+02
1.764588209406069197e+00 4.909702731433931717e+02
1.764688231410910246e+00 4.909875086631593604e+02
1.764788253415751296e+00 4.910046895714183393e+02
1.764888275420592567e+00 4.910218154639441650e+02
1.764988297425433617e+00 4.910388859389330491e+02
1.765088319430274666e+00 4.910559005970205249e+02
1.765188341435115493e+00 4.910728590412952030e+02
1.765288363439956543e+00 4.910897608773177012e+02
1.765388385444797592e+00 4.911066057131334901e+02
1.765488407449638864e+00 4.911233931592891508e+02
1.765588429454479913e+00 4.911401228288492007e+02
1.765688451459320962e+00 4.911567943374087690e+02
1.765788473464162234e+00 4.911734073031114463e+02
1.765888495469003061e+00 4.911899613466636083e+02
1.765988517473844110e+00 4.912064560913478317e+02
1.766088539478685160e+00 4.912228911630403445e+02
1.766188561483526209e+00 4.912392661902229634e+02
1.766288583488367259e+00 4.912555808040007150e+02
1.766388605493208530e+00 4.912718346381138304e+02
1.766488627498049580e+00 4.912880273289535467e+02
1.766588649502890407e+00 4.913041585155766597e+02
1.766688671507731456e+00 4.913202278397182567e+02
1.766788693512572728e+00 4.913362349458071776e+02
1.766888715517413777e+00 4.913521794809794869e+02
1.766988737522254826e+00 4.913680610950916616e+02
1.767088759527095876e+00 4.913838794407357682e+02
1.767188781531936925e+00 4.913996341732522524e+02
1.767288803536777753e+00 4.914153249507426153e+02
1.767388825541619024e+00 4.914309514340839087e+02
1.767488847546460073e+00 4.914465132869427748e+02
1.767588869551301123e+00 4.914620101757856787e+02
1.767688891556142394e+00 4.914774417698941988e+02
1.767788913560983444e+00 4.914928077413787832e+02
1.767888935565824493e+00 4.915081077651877877e+02
1.767988957570665320e+00 4.915233415191239601e+02
1.768088979575506370e+00 4.915385086838558664e+02
1.768189001580347419e+00 4.915536089429280082e+02
1.768289023585188691e+00 4.915686419827764553e+02
1.768389045590029740e+00 4.915836074927393042e+02
1.768489067594870789e+00 4.915985051650681044e+02
1.768589089599712061e+00 4.916133346949411020e+02
1.768689111604552888e+00 4.916280957804740410e+02
1.768789133609393938e+00 4.916427881227326679e+02
1.768889155614234987e+00 4.916574114257431347e+02
1.768989177619076036e+00 4.916719653965034240e+02
1.769089199623917086e+00 4.916864497449975602e+02
1.769189221628758357e+00 4.917008641842011230e+02
1.769289243633599407e+00 4.917152084300981869e+02
1.769389265638440234e+00 4.917294822016872331e+02
1.769489287643281283e+00 4.917436852209956442e+02
1.769589309648122555e+00 4.917578172130886287e+02
1.769689331652963604e+00 4.917718779060786574e+02
1.769789353657804654e+00 4.917858670311383094e+02
1.769889375662645703e+00 4.917997843225085717e+02
1.769989397667486530e+00 4.918136295175095825e+02
1.770089419672327580e+00 4.918274023565505786e+02
1.770189441677168851e+00 4.918411025831392180e+02
1.770289463682009901e+00 4.918547299438928349e+02
1.770389485686850950e+00 4.918682841885454877e+02
1.770489507691692221e+00 4.918817650699592718e+02
1.770589529696533271e+00 4.918951723441341528e+02
1.770689551701374098e+00 4.919085057702139920e+02
1.770789573706215148e+00 4.919217651104988818e+02
1.770889595711056197e+00 4.919349501304528758e+02
1.770989617715897246e+00 4.919480605987124022e+02
1.771089639720738518e+00 4.919610962870947901e+02
1.771189661725579567e+00 4.919740569706074780e+02
1.771289683730420617e+00 4.919869424274550624e+02
1.771389705735261444e+00 4.919997524390492458e+02
1.771489727740102715e+00 4.920124867900157142e+02
1.771589749744943765e+00 4.920251452682026638e+02
1.771689771749784814e+00 4.920377276646874520e+02
1.771789793754625864e+00 4.920502337737855214e+02
1.771889815759466913e+00 4.920626633930577896e+02
1.771989837764308184e+00 4.920750163233165608e+02
1.772089859769149012e+00 4.920872923686358149e+02
1.772189881773990061e+00 4.920994913363542764e+02
1.772289903778831111e+00 4.921116130370852488e+02
1.772389925783672382e+00 4.921236572847238904e+02
1.772489947788513431e+00 4.921356238964502836e+02
1.772589969793354481e+00 4.921475126927394967e+02
1.772689991798195530e+00 4.921593234973673816e+02
1.772790013803036357e+00 4.921710561374156896e+02
1.772890035807877407e+00 4.921827104432786655e+02
1.772990057812718678e+00 4.921942862486681634e+02
1.773090079817559728e+00 4.922057833906226847e+02
1.773190101822400777e+00 4.922172017095081742e+02
1.773290123827242049e+00 4.922285410490281947e+02
1.773390145832083098e+00 4.922398012562260874e+02
1.773490167836923925e+00 4.922509821814920770e+02
1.773590189841764975e+00 4.922620836785679899e+02
1.773690211846606024e+00 4.922731056045500964e+02
1.773790233851447073e+00 4.922840478198986602e+02
1.773890255856288345e+00 4.922949101884380525e+02
1.773990277861129394e+00 4.923056925773631747e+02
1.774090299865970444e+00 4.923163948572444042e+02
1.774190321870811271e+00 4.923270169020298113e+02
1.774290343875652542e+00 4.923375585890527759e+02
1.774390365880493592e+00 4.923480197990313059e+02
1.774490387885334641e+00 4.923584004160771315e+02
1.774590409890175691e+00 4.923687003276946825e+02
1.774690431895016740e+00 4.923789194247866021e+02
1.774790453899858012e+00 4.923890576016585783e+02
1.774890475904698839e+00 4.923991147560194577e+02
1.774990497909539888e+00 4.924090907889873279e+02
1.775090519914380938e+00 4.924189856050905973e+02
1.775190541919222209e+00 4.924287991122710082e+02
1.775290563924063258e+00 4.924385312218880699e+02
1.775390585928904308e+00 4.924481818487188320e+02
1.775490607933745357e+00 4.924577509109616358e+02
1.775590629938586185e+00 4.924672383302403205e+02
1.775690651943427234e+00 4.924766440316012677e+02
1.775790673948268505e+00 4.924859679435208477e+02
1.775890695953109555e+00 4.924952099979042259e+02
1.775990717957950604e+00 4.925043701300869543e+02
1.776090739962791876e+00 4.925134482788382115e+02
1.776190761967632925e+00 4.925224443863599504e+02
1.776290783972473752e+00 4.925313583982900809e+02
1.776390805977314802e+00 4.925401902637017884e+02
1.776490827982155851e+00 4.925489399351066027e+02
1.776590849986996901e+00 4.925576073684533185e+02
1.776690871991838172e+00 4.925661925231292457e+02
1.776790893996679221e+00 4.925746953619600390e+02
1.776890916001520271e+00 4.925831158512121419e+02
1.776990938006361098e+00 4.925914539605909681e+02
1.777090960011202370e+00 4.925997096632413559e+02
1.777190982016043419e+00 4.926078829357474547e+02
1.777291004020884468e+00 4.926159737581335776e+02
1.777391026025725518e+00 4.926239821138620982e+02
1.777491048030566567e+00 4.926319079898347582e+02
1.777591070035407839e+00 4.926397513763895972e+02
1.777691092040248666e+00 4.926475122673028864e+02
1.777791114045089715e+00 4.926551906597863422e+02
1.777891136049930765e+00 4.926627865544858196e+02
1.777991158054772036e+00 4.926702999554821076e+02
1.778091180059613086e+00 4.926777308702875189e+02
1.778191202064454135e+00 4.926850793098443546e+02
1.778291224069295184e+00 4.926923452885251891e+02
1.778391246074136012e+00 4.926995288241280377e+02
1.778491268078977061e+00 4.927066299378783469e+02
1.778591290083818333e+00 4.927136486544221725e+02
1.778691312088659382e+00 4.927205850018280557e+02
1.778791334093500431e+00 4.927274390115819074e+02
1.778891356098341703e+00 4.927342107185852456e+02
1.778991378103182752e+00 4.927409001611540020e+02
1.779091400108023580e+00 4.927475073810135200e+02
1.779191422112864629e+00 4.927540324232959392e+02
1.779291444117705678e+00 4.927604753365379224e+02
1.779391466122546728e+00 4.927668361726766761e+02
1.779491488127387999e+00 4.927731149870481318e+02
1.779591510132229049e+00 4.927793118383809770e+02
1.779691532137070098e+00 4.927854267887940409e+02
1.779791554141910925e+00 4.927914599037927132e+02
1.779891576146752197e+00 4.927974112522647374e+02
1.779991598151593246e+00 4.928032809064761750e+02
1.780091620156434296e+00 4.928090689420669719e+02
1.780191642161275345e+00 4.928147754380457286e+02
1.780291664166116394e+00 4.928204004767882225e+02
1.780391686170957666e+00 4.928259441440284832e+02
1.780491708175798493e+00 4.928314065288563484e+02
1.780591730180639543e+00 4.928367877237127459e+02
1.780691752185480592e+00 4.928420878243833272e+02
1.780791774190321863e+00 4.928473069299944882e+02
1.780891796195162913e+00 4.928524451430062072e+02
1.780991818200003962e+00 4.928575025692094869e+02
1.781091840204845012e+00 4.928624793177163497e+02
1.781191862209685839e+00 4.928673755009580759e+02
1.781291884214526888e+00 4.928721912346774729e+02
1.781391906219368160e+00 4.928769266379225655e+02
1.781491928224209209e+00 4.928815818330411389e+02
1.781591950229050259e+00 4.928861569456730081e+02
1.781691972233891530e+00 4.928906521047455271e+02
1.781791994238732579e+00 4.928950674424651197e+02
1.781892016243573407e+00 4.928994030943118219e+02
1.781992038248414456e+00 4.929036591990310967e+02
1.782092060253255505e+00 4.929078358986283774e+02
1.782192082258096555e+00 4.929119333383596882e+02
1.782292104262937826e+00 4.929159516667264143e+02
1.782392126267778876e+00 4.929198910354664918e+02
1.782492148272619925e+00 4.929237515995479271e+02
1.782592170277460752e+00 4.929275335171599863e+02
1.782692192282302024e+00 4.929312369497048962e+02
1.782792214287143073e+00 4.929348620617923871e+02
1.782892236291984123e+00 4.929384090212279830e+02
1.782992258296825172e+00 4.929418779990083408e+02
1.783092280301666221e+00 4.929452691693097677e+02
1.783192302306507493e+00 4.929485827094815704e+02
1.783292324311348320e+00 4.929518188000361647e+02
1.783392346316189370e+00 4.929549776246412875e+02
1.783492368321030419e+00 4.929580593701110729e+02
1.783592390325871690e+00 4.929610642263959335e+02
1.783692412330712740e+00 4.929639923865743754e+02
1.783792434335553789e+00 4.929668440468419703e+02
1.783892456340394839e+00 4.929696194065056716e+02
1.783992478345235666e+00 4.929723186679692617e+02
1.784092500350076715e+00 4.929749420367273842e+02
1.784192522354917987e+00 4.929774897213542317e+02
1.784292544359759036e+00 4.929799619334932004e+02
1.784392566364600086e+00 4.929823588878480223e+02
1.784492588369441357e+00 4.929846808021707147e+02
1.784592610374282406e+00 4.929869278972543043e+02
1.784692632379123234e+00 4.929891003969182179e+02
1.784792654383964283e+00 4.929911985280003819e+02
1.784892676388805333e+00 4.929932225203469329e+02
1.784992698393646382e+00 4.929951726067985192e+02
1.785092720398487653e+00 4.929970490231832514e+02
1.785192742403328703e+00 4.929988520083014691e+02
1.785292764408169752e+00 4.930005818039173278e+02
1.785392786413010580e+00 4.930022386547461792e+02
1.785492808417851851e+00 4.930038228084439424e+02
1.785592830422692900e+00 4.930053345155954503e+02
1.785692852427533950e+00 4.930067740297003525e+02
1.785792874432374999e+00 4.930081416071648164e+02
1.785892896437216049e+00 4.930094375072882258e+02
1.785992918442057320e+00 4.930106619922491973e+02
1.786092940446898147e+00 4.930118153270964285e+02
1.786192962451739197e+00 4.930128977797338621e+02
1.786292984456580246e+00 4.930139096209102831e+02
1.786393006461421518e+00 4.930148511242045402e+02
1.786493028466262567e+00 4.930157225660153131e+02
1.786593050471103616e+00 4.930165242255461067e+02
1.786693072475944666e+00 4.930172563847929723e+02
1.786793094480785493e+00 4.930179193285333099e+02
1.786893116485626543e+00 4.930185133443094401e+02
1.786993138490467814e+00 4.930190387224183155e+02
1.787093160495308863e+00 4.930194957558967417e+02
1.787193182500149913e+00 4.930198847405067681e+02
1.787293204504991184e+00 4.930202059747250019e+02
1.787393226509832012e+00 4.930204597597264637e+02
1.787493248514673061e+00 4.930206463993717989e+02
1.787593270519514110e+00 4.930207662001920426e+02
1.787693292524355160e+00 4.930208194713776493e+02
1.787793314529196209e+00 4.930208065247602462e+02
1.787893336534037481e+00 4.930207276748016056e+02
1.787993358538878530e+00 4.930205832385777285e+02
1.788093380543719357e+00 4.930203735357648611e+02
1.788193402548560407e+00 4.930200988886241475e+02
1.788293424553401678e+00 4.930197596219877596e+02
1.788393446558242728e+00 4.930193560632445724e+02
1.788493468563083777e+00 4.930188885423228839e+02
1.788593490567924826e+00 4.930183573916795012e+02
1.788693512572765876e+00 4.930177629462800155e+02
1.788793534577606703e+00 4.930171055435860694e+02
1.788893556582447975e+00 4.930163855235400661e+02
1.788993578587289024e+00 4.930156032285498213e+02
1.789093600592130073e+00 4.930147590034717950e+02
1.789193622596971345e+00 4.930138531955961980e+02
1.789293644601812394e+00 4.930128861546313033e+02
1.789393666606653444e+00 4.930118582326884393e+02
1.789493688611494271e+00 4.930107697842640277e+02
1.789593710616335320e+00 4.930096211662261680e+02
1.789693732621176370e+00 4.930084127377951404e+02
1.789793754626017641e+00 4.930071448605311275e+02
1.789893776630858691e+00 4.930058178983141488e+02
1.789993798635699740e+00 4.930044322173306455e+02
1.790093820640541011e+00 4.930029881860553473e+02
1.790193842645381839e+00 4.930014861752343336e+02
1.790293864650222888e+00 4.929999265578711629e+02
1.790393886655063937e+00 4.929983097092047046e+02
1.790493908659904987e+00 4.929966360066985658e+02
1.790593930664746036e+00 4.929949058300194906e+02
1.790693952669587308e+00 4.929931195610224108e+02
1.790793974674428357e+00 4.929912775837318577e+02
1.790893996679269184e+00 4.929893802843274671e+02
1.790994018684110234e+00 4.929874280511228335e+02
1.791094040688951505e+00 4.929854212745522659e+02
1.791194062693792555e+00 4.929833603471484480e+02
1.791294084698633604e+00 4.929812456635296485e+02
1.791394106703474653e+00 4.929790776203795986e+02
1.791494128708315703e+00 4.929768566164290178e+02
1.791594150713156530e+00 4.929745830524403232e+02
1.791694172717997802e+00 4.929722573311867677e+02
1.791794194722838851e+00 4.929698798574366378e+02
1.791894216727679900e+00 4.929674510379343815e+02
1.791994238732521172e+00 4.929649712813826454e+02
1.792094260737362221e+00 4.929624409984234603e+02
1.792194282742203271e+00 4.929598606016208464e+02
1.792294304747044098e+00 4.929572305054412027e+02
1.792394326751885147e+00 4.929545511262352306e+02
1.792494348756726197e+00 4.929518228822214496e+02
1.792594370761567468e+00 4.929490461934642553e+02
1.792694392766408518e+00 4.929462214818571510e+02
1.792794414771249567e+00 4.929433491711035913e+02
1.792894436776090838e+00 4.929404296866982804e+02
1.792994458780931666e+00 4.929374634559078459e+02
1.793094480785772715e+00 4.929344509077524208e+02
1.793194502790613765e+00 4.929313924729853511e+02
1.793294524795454814e+00 4.929282885840763697e+02
1.793394546800295863e+00 4.929251396751903940e+02
1.793494568805137135e+00 4.929219461821678578e+02
1.793594590809978184e+00 4.929187085425081705e+02
1.793694612814819012e+00 4.929154271953469788e+02
1.793794634819660061e+00 4.929121025814387735e+02
1.793894656824501332e+00 4.929087351431368234e+02
1.793994678829342382e+00 4.929053253243740755e+02
1.794094700834183431e+00 4.929018735706423513e+02
1.794194722839024481e+00 4.928983803289733601e+02
1.794294744843865530e+00 4.928948460479188043e+02
1.794394766848706357e+00 4.928912711775302000e+02
1.794494788853547629e+00 4.928876561693400618e+02
1.794594810858388678e+00 4.928840014763413251e+02
1.794694832863229728e+00 4.928803075529656326e+02
1.794794854868070999e+00 4.928765748550663375e+02
1.794894876872912048e+00 4.928728038398963349e+02
1.794994898877753098e+00 4.928689949660886214e+02
1.795094920882593925e+00 4.928651486936353194e+02
1.795194942887434975e+00 4.928612654838680101e+02
1.795294964892276024e+00 4.928573457994377804e+02
1.795394986897117295e+00 4.928533901042928846e+02
1.795495008901958345e+00 4.928493988636616905e+02
1.795595030906799394e+00 4.928453725440285780e+02
1.795695052911640666e+00 4.928413116131158063e+02
1.795795074916481493e+00 4.928372165398611173e+02
1.795895096921322542e+00 4.928330877943993187e+02
1.795995118926163592e+00 4.928289258480392050e+02
1.796095140931004641e+00 4.928247311732452545e+02
1.796195162935845691e+00 4.928205042436135841e+02
1.796295184940686962e+00 4.928162455338548398e+02
1.796395206945528011e+00 4.928119555197708337e+02
1.796495228950368839e+00 4.928076346782337396e+02
1.796595250955209888e+00 4.928032834871667092e+02
1.796695272960051160e+00 4.927989024255214190e+02
1.796795294964892209e+00 4.927944919732573794e+02
1.796895316969733258e+00 4.927900526113215847e+02
1.796995338974574308e+00 4.927855848216260597e+02
1.797095360979415357e+00 4.927810890870278513e+02
1.797195382984256184e+00 4.927765658913075413e+02
1.797295404989097456e+00 4.927720157191474755e+02
1.797395426993938505e+00 4.927674390561111863e+02
1.797495448998779555e+00 4.927628363886221905e+02
1.797595471003620826e+00 4.927582082039427291e+02
1.797695493008461876e+00 4.927535549901499508e+02
1.797795515013302925e+00 4.927488772361193696e+02
1.797895537018143752e+00 4.927441754314987747e+02
1.797995559022984802e+00 4.927394500666897557e+02
1.798095581027825851e+00 4.927347016328251357e+02
1.798195603032667123e+00 4.927299306217465187e+02
1.798295625037508172e+00 4.927251375259854740e+02
1.798395647042349221e+00 4.927203228387388094e+02
1.798495669047190493e+00 4.927154870538496425e+02
1.798595691052031320e+00 4.927106306657840378e+02
1.798695713056872370e+00 4.927057541696099747e+02
1.798795735061713419e+00 4.927008580609760884e+02
1.798895757066554468e+00 4.926959428360906372e+02
1.798995779071395518e+00 4.926910089916969469e+02
1.799095801076236789e+00 4.926860570250549358e+02
1.799195823081077839e+00 4.926810874339181510e+02
1.799295845085918666e+00 4.926761007165116553e+02
1.799395867090759715e+00 4.926710973715113937e+02
1.799495889095600987e+00 4.926660778980204327e+02
1.799595911100442036e+00 4.926610427955499745e+02
1.799695933105283085e+00 4.926559925639944026e+02
1.799795955110124135e+00 4.926509277036133199e+02
1.799895977114965184e+00 4.926458487150060250e+02
1.799995999119806012e+00 4.926407560990910497e+02
1.800096021124647283e+00 4.926356503570865470e+02
1.800196043129488332e+00 4.926305319904840303e+02
1.800296065134329382e+00 4.926254015010307512e+02
1.800396087139170653e+00 4.926202593907053142e+02
1.800496109144011703e+00 4.926151061616962465e+02
1.800596131148852752e+00 4.926099423163823303e+02
1.800696153153693579e+00 4.926047683573065115e+02
1.800796175158534629e+00 4.925995847871582782e+02
1.800896197163375678e+00 4.925943921087483659e+02
1.800996219168216950e+00 4.925891908249901689e+02
1.801096241173057999e+00 4.925839814388751847e+02
1.801196263177899048e+00 4.925787644534525498e+02
1.801296285182740320e+00 4.925735403718074394e+02
1.801396307187581147e+00 4.925683096970362840e+02
1.801496329192422197e+00 4.925630729322308525e+02
1.801596351197263246e+00 4.925578305804496608e+02
1.801696373202104295e+00 4.925525831447005771e+02
1.801796395206945345e+00 4.925473311279177437e+02
1.801896417211786616e+00 4.925420750329397492e+02
1.801996439216627666e+00 4.925368153624866068e+02
1.802096461221468493e+00 4.925315526191411664e+02
1.802196483226309542e+00 4.925262873053235921e+02
1.802296505231150814e+00 4.925210199232715809e+02
1.802396527235991863e+00 4.925157509750189888e+02
1.802496549240832913e+00 4.925104809623722417e+02
1.802596571245673962e+00 4.925052103868908375e+02
1.802696593250515011e+00 4.924999397498639837e+02
1.802796615255355839e+00 4.924946695522883147e+02
1.802896637260197110e+00 4.924894002948497587e+02
1.802996659265038160e+00 4.924841324778964236e+02
1.803096681269879209e+00 4.924788666014230216e+02
1.803196703274720480e+00 4.924736031650436416e+02
1.803296725279561530e+00 4.924683426679736158e+02
1.803396747284402579e+00 4.924630856090065549e+02
1.803496769289243407e+00 4.924578324864934302e+02
1.803596791294084456e+00 4.924525837983209158e+02
1.803696813298925505e+00 4.924473400418897882e+02
1.803796835303766777e+00 4.924421017140920753e+02
1.803896857308607826e+00 4.924368693112925826e+02
1.803996879313448876e+00 4.924316433293048476e+02
1.804096901318290147e+00 4.924264242633703361e+02
1.804196923323130974e+00 4.924212126081379779e+02
1.804296945327972024e+00 4.924160088576422822e+02
1.804396967332813073e+00 4.924108135052806574e+02
1.804496989337654123e+00 4.924056270437943112e+02
1.804597011342495172e+00 4.924004499652463664e+02
1.804697033347336443e+00 4.923952827609994642e+02
1.804797055352177271e+00 4.923901259216964945e+02
1.804897077357018320e+00 4.923849799372368352e+02
1.804997099361859370e+00 4.923798452967581056e+02
1.805097121366700641e+00 4.923747224886132585e+02
1.805197143371541690e+00 4.923696120003496617e+02
1.805297165376382740e+00 4.923645143186896576e+02
1.805397187381223789e+00 4.923594299295065184e+02
1.805497209386064617e+00 4.923543593178077344e+02
1.805597231390905666e+00 4.923493029677098320e+02
1.805697253395746937e+00 4.923442613624206956e+02
1.805797275400587987e+00 4.923392349842168301e+02
1.805897297405429036e+00 4.923342243144237500e+02
1.805997319410270308e+00 4.923292298333955728e+02
1.806097341415111357e+00 4.923242520204929065e+02
1.806197363419952184e+00 4.923192913540628979e+02
1.806297385424793234e+00 4.923143483114190531e+02
1.806397407429634283e+00 4.923094233688210579e+02
1.806497429434475332e+00 4.923045170014536893e+02
1.806597451439316604e+00 4.922996296834052146e+02
1.806697473444157653e+00 4.922947618876491447e+02
1.806797495448998703e+00 4.922899140860239413e+02
1.806897517453839530e+00 4.922850867492105067e+02
1.806997539458680802e+00 4.922802803467135391e+02
1.807097561463521851e+00 4.922754953468424901e+02
1.807197583468362900e+00 4.922707322166885433e+02
1.807297605473203950e+00 4.922659914221072768e+02
1.807397627478044999e+00 4.922612734276975175e+02
1.807497649482886271e+00 4.922565786967817303e+02
1.807597671487727098e+00 4.922519076913850995e+02
1.807697693492568147e+00 4.922472608722179075e+02
1.807797715497409197e+00 4.922426386986538205e+02
1.807897737502250468e+00 4.922380416287104481e+02
1.807997759507091518e+00 4.922334701190313808e+02
1.808097781511932567e+00 4.922289246248649306e+02
1.808197803516773616e+00 4.922244056000456567e+02
1.808297825521614444e+00 4.922199134969731631e+02
1.808397847526455493e+00 4.922154487665951024e+02
1.808497869531296764e+00 4.922110118583873941e+02
1.808597891536137814e+00 4.922066032203335908e+02
1.808697913540978863e+00 4.922022232989065742e+02
1.808797935545820135e+00 4.921978725390499676e+02
1.808897957550661184e+00 4.921935513841589795e+02
1.808997979555502011e+00 4.921892602760599402e+02
1.809098001560343061e+00 4.921849996549949537e+02
1.809198023565184110e+00 4.921807699595981944e+02
1.809298045570025160e+00 4.921765716268819801e+02
1.809398067574866431e+00 4.921724050922144897e+02
1.809498089579707480e+00 4.921682707893039606e+02
1.809598111584548530e+00 4.921641691501778269e+02
1.809698133589389357e+00 4.921601006051661784e+02
1.809798155594230629e+00 4.921560655828823769e+02
1.809898177599071678e+00 4.921520645102041840e+02
1.809998199603912727e+00 4.921480978122585839e+02
1.810098221608753777e+00 4.921441659124001831e+02
1.810198243613594826e+00 4.921402692321942141e+02
1.810298265618436098e+00 4.921364081913996529e+02
1.810398287623276925e+00 4.921325832079509155e+02
1.810498309628117974e+00 4.921287946979387016e+02
1.810598331632959024e+00 4.921250430755951584e+02
1.810698353637800295e+00 4.921213287532726781e+02
1.810798375642641345e+00 4.921176521414298577e+02
1.810898397647482394e+00 4.921140136486109782e+02
1.810998419652323443e+00 4.921104136814323056e+02
1.811098441657164271e+00 4.921068526445603766e+02
1.811198463662005320e+00 4.921033309406980720e+02
1.811298485666846592e+00 4.920998489705668248e+02
1.811398507671687641e+00 4.920964071328889986e+02
1.811498529676528690e+00 4.920930058243717440e+02
1.811598551681369962e+00 4.920896454396897184e+02
1.811698573686211011e+00 4.920863263714677487e+02
1.811798595691051839e+00 4.920830490102661088e+02
1.811898617695892888e+00 4.920798137445620455e+02
1.811998639700733937e+00 4.920766209607342034e+02
1.812098661705574987e+00 4.920734710430464247e+02
1.812198683710416258e+00 4.920703643736303547e+02
1.812298705715257308e+00 4.920673013324710610e+02
1.812398727720098357e+00 4.920642822973904345e+02
1.812498749724939184e+00 4.920613076440292843e+02
1.812598771729780456e+00 4.920583777458348891e+02
1.812698793734621505e+00 4.920554929740418402e+02
1.812798815739462555e+00 4.920526536976598777e+02
1.812898837744303604e+00 4.920498602834536541e+02
1.812998859749144653e+00 4.920471130959323318e+02
1.813098881753985925e+00 4.920444124973313933e+02
1.813198903758826752e+00 4.920417588475972934e+02
1.813298925763667802e+00 4.920391525043726801e+02
1.813398947768508851e+00 4.920365938229828657e+02
1.813498969773350122e+00 4.920340831564180917e+02
1.813598991778191172e+00 4.920316208553217621e+02
1.813699013783032221e+00 4.920292072679724242e+02
1.813799035787873271e+00 4.920268427402712064e+02
1.813899057792714098e+00 4.920245276157284025e+02
1.813999079797555147e+00 4.920222622354454529e+02
1.814099101802396419e+00 4.920200469381039170e+02
1.814199123807237468e+00 4.920178820599500682e+02
1.814299145812078518e+00 4.920157679347797739e+02
1.814399167816919789e+00 4.920137048939269562e+02
1.814499189821760838e+00 4.920116932662475051e+02
1.814599211826601666e+00 4.920097333781064890e+02
1.814699233831442715e+00 4.920078255533638867e+02
1.814799255836283765e+00 4.920059701133624799e+02
1.814899277841124814e+00 4.920041673769121644e+02
1.814999299845966085e+00 4.920024176602787520e+02
1.815099321850807135e+00 4.920007212771694753e+02
1.815199343855648184e+00 4.919990785387215055e+02
1.815299365860489011e+00 4.919974897534854676e+02
1.815399387865330283e+00 4.919959552274170846e+02
1.815499409870171332e+00 4.919944752638611476e+02
1.815599431875012382e+00 4.919930501635407154e+02
1.815699453879853431e+00 4.919916802245430745e+02
1.815799475884694480e+00 4.919903657423091090e+02
1.815899497889535752e+00 4.919891070096191470e+02
1.815999519894376579e+00 4.919879043165831263e+02
1.816099541899217629e+00 4.919867579506256448e+02
1.816199563904058678e+00 4.919856681964762970e+02
1.816299585908899950e+00 4.919846353361576803e+02
1.816399607913740999e+00 4.919836596489717522e+02
1.816499629918582048e+00 4.919827414114915882e+02
1.816599651923423098e+00 4.919818808975469437e+02
1.816699673928263925e+00 4.919810783782147041e+02
1.816799695933104974e+00 4.919803341218059813e+02
1.816899717937946246e+00 4.919796483938576444e+02
1.816999739942787295e+00 4.919790214571191882e+02
1.817099761947628345e+00 4.919784535715432412e+02
1.817199783952469616e+00 4.919779449942724909e+02
1.817299805957310666e+00 4.919774959796327494e+02
1.817399827962151493e+00 4.919771067791205041e+02
1.817499849966992542e+00 4.919767776413916636e+02
1.817599871971833592e+00 4.919765088122539396e+02
1.817699893976674641e+00 4.919763005346537170e+02
1.817799915981515912e+00 4.919761530486690617e+02
1.817899937986356962e+00 4.919760665914976130e+02
1.817999959991198011e+00 4.919760413974486255e+02
1.818099981996038839e+00 4.919760776979319417e+02
1.818200004000880110e+00 4.919761757214505451e+02
1.818300026005721159e+00 4.919763356935881689e+02
1.818400048010562209e+00 4.919765578370034973e+02
1.818500070015403258e+00 4.919768423714186270e+02
1.818600092020244308e+00 4.919771895136118474e+02
1.818700114025085579e+00 4.919775994774082051e+02
1.818800136029926406e+00 4.919780724736702950e+02
1.818900158034767456e+00 4.919786087102904162e+02
1.819000180039608505e+00 4.919792083921823291e+02
1.819100202044449777e+00 4.919798717212727297e+02
1.819200224049290826e+00 4.919805988964930066e+02
1.819300246054131875e+00 4.919813901137709422e+02
1.819400268058972925e+00 4.919822455660249148e+02
1.819500290063813752e+00 4.919831654431529842e+02
1.819600312068654802e+00 4.919841499320277762e+02
1.819700334073496073e+00 4.919851992164882404e+02
1.819800356078337122e+00 4.919863134773316347e+02
1.819900378083178172e+00 4.919874928923076141e+02
1.820000400088019443e+00 4.919887376361102724e+02
1.820100422092860493e+00 4.919900478803729129e+02
1.820200444097701320e+00 4.919914237936576455e+02
1.820300466102542369e+00 4.919928655414528293e+02
1.820400488107383419e+00 4.919943732861646026e+02
1.820500510112224468e+00 4.919959471871096071e+02
1.820600532117065740e+00 4.919975874005114065e+02
1.820700554121906789e+00 4.919992940794924721e+02
1.820800576126747838e+00 4.920010673740677589e+02
1.820900598131588666e+00 4.920029074311407271e+02
1.821000620136429937e+00 4.920048143944968047e+02
1.821100642141270987e+00 4.920067884047975895e+02
1.821200664146112036e+00 4.920088295995750514e+02
1.821300686150953085e+00 4.920109381132282351e+02
1.821400708155794135e+00 4.920131140770156435e+02
1.821500730160635406e+00 4.920153576190518834e+02
1.821600752165476234e+00 4.920176688643025500e+02
1.821700774170317283e+00 4.920200479345797930e+02
1.821800796175158332e+00 4.920224949485358934e+02
1.821900818179999604e+00 4.920250100216615010e+02
1.822000840184840653e+00 4.920275932662798368e+02
1.822100862189681703e+00 4.920302447915433959e+02
1.822200884194522530e+00 4.920329647034280356e+02
1.822300906199363579e+00 4.920357531047319526e+02
1.822400928204204629e+00 4.920386100950701689e+02
1.822500950209045900e+00 4.920415357708712349e+02
1.822600972213886950e+00 4.920445302253737623e+02
1.822700994218727999e+00 4.920475935486230696e+02
1.822801016223569270e+00 4.920507258274687388e+02
1.822901038228410098e+00 4.920539271455610901e+02
1.823001060233251147e+00 4.920571975833481702e+02
1.823101082238092197e+00 4.920605372180731933e+02
1.823201104242933246e+00 4.920639461237723253e+02
1.823301126247774295e+00 4.920674243712707039e+02
1.823401148252615567e+00 4.920709720281831210e+02
1.823501170257456616e+00 4.920745891589090206e+02
1.823601192262297443e+00 4.920782758246315325e+02
1.823701214267138493e+00 4.920820320833162214e+02
1.823801236271979764e+00 4.920858579897076766e+02
1.823901258276820814e+00 4.920897535953304782e+02
1.824001280281661863e+00 4.920937189484851046e+02
1.824101302286502913e+00 4.920977540942487281e+02
1.824201324291343962e+00 4.921018590744729408e+02
1.824301346296184789e+00 4.921060339277821640e+02
1.824401368301026061e+00 4.921102786895747272e+02
1.824501390305867110e+00 4.921145933920200832e+02
1.824601412310708159e+00 4.921189780640602294e+02
1.824701434315549431e+00 4.921234327314072061e+02
1.824801456320390480e+00 4.921279574165446888e+02
1.824901478325231530e+00 4.921325521387262825e+02
1.825001500330072357e+00 4.921372169139758626e+02
1.825101522334913406e+00 4.921419517550891669e+02
1.825201544339754456e+00 4.921467566716318061e+02
1.825301566344595727e+00 4.921516316699419917e+02
1.825401588349436777e+00 4.921565767531288884e+02
1.825501610354277826e+00 4.921615919210745460e+02
1.825601632359119098e+00 4.921666771704353778e+02
1.825701654363959925e+00 4.921718324946409666e+02
1.825801676368800974e+00 4.921770578838981578e+02
1.825901698373642024e+00 4.921823533251896947e+02
1.826001720378483073e+00 4.921877188022763221e+02
1.826101742383324122e+00 4.921931542957008787e+02
1.826201764388165394e+00 4.921986597827849437e+02
1.826301786393006443e+00 4.922042352376359418e+02
1.826401808397847271e+00 4.922098806311457793e+02
1.826501830402688320e+00 4.922155959309937430e+02
1.826601852407529591e+00 4.922213811016501381e+02
1.826701874412370641e+00 4.922272361043768569e+02
1.826801896417211690e+00 4.922331608972305048e+02
1.826901918422052740e+00 4.922391554350661522e+02
1.827001940426893789e+00 4.922452196695384146e+02
1.827101962431734616e+00 4.922513535491063408e+02
1.827201984436575888e+00 4.922575570190344934e+02
1.827302006441416937e+00 4.922638300213984053e+02
1.827402028446257987e+00 4.922701724950861148e+02
1.827502050451099258e+00 4.922765843758023721e+02
1.827602072455940307e+00 4.922830655960734703e+02
1.827702094460781357e+00 4.922896160852500316e+02
1.827802116465622184e+00 4.922962357695087121e+02
1.827902138470463234e+00 4.923029245718622064e+02
1.828002160475304283e+00 4.923096824121578265e+02
1.828102182480145554e+00 4.923165092070837545e+02
1.828202204484986604e+00 4.923234048701748407e+02
1.828302226489827653e+00 4.923303693118165256e+02
1.828402248494668925e+00 4.923374024392487627e+02
1.828502270499509752e+00 4.923445041565714178e+02
1.828602292504350801e+00 4.923516743647503517e+02
1.828702314509191851e+00 4.923589129616218543e+02
1.828802336514032900e+00 4.923662198418974185e+02
1.828902358518873950e+00 4.923735948971711309e+02
1.829002380523715221e+00 4.923810380159230817e+02
1.829102402528556270e+00 4.923885490835266410e+02
1.829202424533397098e+00 4.923961279822534607e+02
1.829302446538238147e+00 4.924037745912812625e+02
1.829402468543079419e+00 4.924114887866972481e+02
1.829502490547920468e+00 4.924192704415076491e+02
1.829602512552761517e+00 4.924271194256415924e+02
1.829702534557602567e+00 4.924350356059592855e+02
1.829802556562443616e+00 4.924430188462571323e+02
1.829902578567284444e+00 4.924510690072775105e+02
1.830002600572125715e+00 4.924591859467118979e+02
1.830102622576966764e+00 4.924673695192120135e+02
1.830202644581807814e+00 4.924756195763940241e+02
1.830302666586649085e+00 4.924839359668477528e+02
1.830402688591490135e+00 4.924923185361436708e+02
1.830502710596331184e+00 4.925007671268408558e+02
1.830602732601172011e+00 4.925092815784931304e+02
1.830702754606013061e+00 4.925178617276608293e+02
1.830802776610854110e+00 4.925265074079142096e+02
1.830902798615695382e+00 4.925352184498466386e+02
1.831002820620536431e+00 4.925439946810774359e+02
1.831102842625377480e+00 4.925528359262652884e+02
1.831202864630218752e+00 4.925617420071148445e+02
1.831302886635059579e+00 4.925707127423845577e+02
1.831402908639900629e+00 4.925797479478973173e+02
1.831502930644741678e+00 4.925888474365487468e+02
1.831602952649582727e+00 4.925980110183153329e+02
1.831702974654423777e+00 4.926072385002663054e+02
1.831802996659265048e+00 4.926165296865707433e+02
1.831903018664106098e+00 4.926258843785066119e+02
1.832003040668946925e+00 4.926353023744736674e+02
1.832103062673787974e+00 4.926447834700003341e+02
1.832203084678629246e+00 4.926543274577547322e+02
1.832303106683470295e+00 4.926639341275543984e+02
1.832403128688311345e+00 4.926736032663762899e+02
1.832503150693152394e+00 4.926833346583678690e+02
1.832603172697993443e+00 4.926931280848575625e+02
1.832703194702834271e+00 4.927029833243641406e+02
1.832803216707675542e+00 4.927129001526081993e+02
1.832903238712516591e+00 4.927228783425235861e+02
1.833003260717357641e+00 4.927329176642666653e+02
1.833103282722198912e+00 4.927430178852296763e+02
1.833203304727039962e+00 4.927531787700491464e+02
1.833303326731881011e+00 4.927634000806199310e+02
1.833403348736721838e+00 4.927736815761044227e+02
1.833503370741562888e+00 4.927840230129457950e+02
1.833603392746403937e+00 4.927944241448789171e+02
1.833703414751245209e+00 4.928048847229419493e+02
1.833803436756086258e+00 4.928154044954877122e+02
1.833903458760927307e+00 4.928259832081985223e+02
1.834003480765768579e+00 4.928366206040946054e+02
1.834103502770609406e+00 4.928473164235486479e+02
1.834203524775450456e+00 4.928580704042977345e+02
1.834303546780291505e+00 4.928688822814555692e+02
1.834403568785132554e+00 4.928797517875250946e+02
1.834503590789973604e+00 4.928906786524122481e+02
1.834603612794814875e+00 4.929016626034375577e+02
1.834703634799655925e+00 4.929127033653491026e+02
1.834803656804496752e+00 4.929238006603367239e+02
1.834903678809337801e+00 4.929349542080441324e+02
1.835003700814179073e+00 4.929461637255835171e+02
1.835103722819020122e+00 4.929574289275471415e+02
1.835203744823861172e+00 4.929687495260224068e+02
1.835303766828702221e+00 4.929801252306045853e+02
1.835403788833543270e+00 4.929915557484111446e+02
1.835503810838384098e+00 4.930030407840968110e+02
1.835603832843225369e+00 4.930145800398634606e+02
1.835703854848066419e+00 4.930261732154796732e+02
1.835803876852907468e+00 4.930378200082910780e+02
1.835903898857748739e+00 4.930495201132352463e+02
1.836003920862589789e+00 4.930612732228578921e+02
1.836103942867430838e+00 4.930730790273259458e+02
1.836203964872271666e+00 4.930849372144419931e+02
1.836303986877112715e+00 4.930968474696598491e+02
1.836404008881953764e+00 4.931088094760996228e+02
1.836504030886795036e+00 4.931208229145609607e+02
1.836604052891636085e+00 4.931328874635399870e+02
1.836704074896477135e+00 4.931450027992444234e+02
1.836804096901318406e+00 4.931571685956061515e+02
1.836904118906159233e+00 4.931693845243014493e+02
1.837004140911000283e+00 4.931816502547607683e+02
1.837104162915841332e+00 4.931939654541894242e+02
1.837204184920682382e+00 4.932063297875798185e+02
1.837304206925523431e+00 4.932187429177287754e+02
1.837404228930364702e+00 4.932312045052535723e+02
1.837504250935205752e+00 4.932437142086059794e+02
1.837604272940046579e+00 4.932562716840915868e+02
1.837704294944887629e+00 4.932688765858821967e+02
1.837804316949728900e+00 4.932815285660362861e+02
1.837904338954569949e+00 4.932942272745102059e+02
1.838004360959410999e+00 4.933069723591802926e+02
1.838104382964252048e+00 4.933197634658549759e+02
1.838204404969093098e+00 4.933326002382939350e+02
1.838304426973933925e+00 4.933454823182233326e+02
1.838404448978775196e+00 4.933584093453537207e+02
1.838504470983616246e+00 4.933713809573960702e+02
1.838604492988457295e+00 4.933843967900796201e+02
1.838704514993298567e+00 4.933974564771682481e+02
1.838804536998139616e+00 4.934105596504784899e+02
1.838904559002980665e+00 4.934237059398951146e+02
1.839004581007821493e+00 4.934368949733920999e+02
1.839104603012662542e+00 4.934501263770441710e+02
1.839204625017503592e+00 4.934633997750507888e+02
1.839304647022344863e+00 4.934767147897489394e+02
1.839404669027185912e+00 4.934900710416341667e+02
1.839504691032026962e+00 4.935034681493752942e+02
1.839604713036867789e+00 4.935169057298346615e+02
1.839704735041709061e+00 4.935303833980854051e+02
1.839804757046550110e+00 4.935439007674287382e+02
1.839904779051391159e+00 4.935574574494136755e+02
1.840004801056232209e+00 4.935710530538527792e+02
