1.500030006601452026e+00 4.482634898195445885e+02
1.500130028606293298e+00 4.481653402040577703e+02
1.500230050611134347e+00 4.480671576183841580e+02
1.500330072615975396e+00 4.479689435844047694e+02
1.500430094620816668e+00 4.478706996250988936e+02
1.500530116625657717e+00 4.477724272645039036e+02
1.500630138630498545e+00 4.476741280276751240e+02
1.500730160635339594e+00 4.475758034406436536e+02
1.500830182640180643e+00 4.474774550303771434e+02
1.500930204645021693e+00 4.473790843247390399e+02
1.501030226649862964e+00 4.472806928524467480e+02
1.501130248654704014e+00 4.471822821430318982e+02
1.501230270659545063e+00 4.470838537267997026e+02
1.501330292664385890e+00 4.469854091347866643e+02
1.501430314669227162e+00 4.468869498987218662e+02
1.501530336674068211e+00 4.467884775509837141e+02
1.501630358678909261e+00 4.466899936245621348e+02
1.501730380683750310e+00 4.465914996530141821e+02
1.501830402688591359e+00 4.464929971704250420e+02
1.501930424693432631e+00 4.463944877113681855e+02
1.502030446698273458e+00 4.462959728108613717e+02
1.502130468703114508e+00 4.461974540043280513e+02
1.502230490707955557e+00 4.460989328275559842e+02
1.502330512712796828e+00 4.460004108166555170e+02
1.502430534717637878e+00 4.459018895080192806e+02
1.502530556722478927e+00 4.458033704382800124e+02
1.502630578727319977e+00 4.457048551442707094e+02
1.502730600732160804e+00 4.456063451629836436e+02
1.502830622737001853e+00 4.455078420315290941e+02
1.502930644741843125e+00 4.454093472870924870e+02
1.503030666746684174e+00 4.453108624668963103e+02
1.503130688751525224e+00 4.452123891081566853e+02
1.503230710756366495e+00 4.451139287480436906e+02
1.503330732761207544e+00 4.450154829236391834e+02
1.503430754766048372e+00 4.449170531718975781e+02
1.503530776770889421e+00 4.448186410296019631e+02
1.503630798775730470e+00 4.447202480333253334e+02
1.503730820780571520e+00 4.446218757193884699e+02
1.503830842785412791e+00 4.445235256238195802e+02
1.503930864790253841e+00 4.444251992823126329e+02
1.504030886795094890e+00 4.443268982301858046e+02
1.504130908799935717e+00 4.442286240023421442e+02
1.504230930804776989e+00 4.441303781332268272e+02
1.504330952809618038e+00 4.440321621567874217e+02
1.504430974814459088e+00 4.439339776064310854e+02
1.504530996819300137e+00 4.438358260149865941e+02
1.504631018824141186e+00 4.437377089146601747e+02
1.504731040828982458e+00 4.436396278369956576e+02
1.504831062833823285e+00 4.435415843128360507e+02
1.504931084838664335e+00 4.434435798722776099e+02
1.505031106843505384e+00 4.433456160446335730e+02
1.505131128848346656e+00 4.432476943583911861e+02
1.505231150853187705e+00 4.431498163411705491e+02
1.505331172858028754e+00 4.430519835196845975e+02
1.505431194862869804e+00 4.429541974196987439e+02
1.505531216867710631e+00 4.428564595659885867e+02
1.505631238872551680e+00 4.427587714823006877e+02
1.505731260877392952e+00 4.426611346913105649e+02
1.505831282882234001e+00 4.425635507145841530e+02
1.505931304887075051e+00 4.424660210725336356e+02
1.506031326891916322e+00 4.423685472843806679e+02
1.506131348896757371e+00 4.422711308681135733e+02
1.506231370901598199e+00 4.421737733404467008e+02
1.506331392906439248e+00 4.420764762167817707e+02
1.506431414911280298e+00 4.419792410111651861e+02
1.506531436916121347e+00 4.418820692362489240e+02
1.506631458920962618e+00 4.417849624032504039e+02
1.506731480925803668e+00 4.416879220219108788e+02
1.506831502930644717e+00 4.415909496004567814e+02
1.506931524935485545e+00 4.414940466455577734e+02
1.507031546940326816e+00 4.413972146622883201e+02
1.507131568945167865e+00 4.413004551540865918e+02
1.507231590950008915e+00 4.412037696227142192e+02
1.507331612954849964e+00 4.411071595682165025e+02
1.507431634959691014e+00 4.410106264888829628e+02
1.507531656964532285e+00 4.409141718812061868e+02
1.507631678969373112e+00 4.408177972398433440e+02
1.507731700974214162e+00 4.407215040575762259e+02
1.507831722979055211e+00 4.406252938252698641e+02
1.507931744983896483e+00 4.405291680318347858e+02
1.508031766988737532e+00 4.404331281641865417e+02
1.508131788993578581e+00 4.403371757072064838e+02
1.508231810998419409e+00 4.402413121437012364e+02
1.508331833003260458e+00 4.401455389543649517e+02
1.508431855008101508e+00 4.400498576177385530e+02
1.508531877012942779e+00 4.399542696101710817e+02
1.508631899017783828e+00 4.398587764057799063e+02
1.508731921022624878e+00 4.397633794764129789e+02
1.508831943027466149e+00 4.396680802916071116e+02
1.508931965032306977e+00 4.395728803185523361e+02
1.509031987037148026e+00 4.394777810220494416e+02
1.509132009041989075e+00 4.393827838644747885e+02
1.509232031046830125e+00 4.392878903057377329e+02
1.509332053051671174e+00 4.391931018032448719e+02
1.509432075056512446e+00 4.390984198118604809e+02
1.509532097061353495e+00 4.390038457838663817e+02
1.509632119066194322e+00 4.389093811689265294e+02
1.509732141071035372e+00 4.388150274140459715e+02
1.509832163075876643e+00 4.387207859635335012e+02
1.509932185080717693e+00 4.386266582589643690e+02
1.510032207085558742e+00 4.385326457391395820e+02
1.510132229090399791e+00 4.384387498400509457e+02
1.510232251095240841e+00 4.383449719948414440e+02
1.510332273100081668e+00 4.382513136337667561e+02
1.510432295104922940e+00 4.381577761841590473e+02
1.510532317109763989e+00 4.380643610703885997e+02
1.510632339114605038e+00 4.379710697138253863e+02
1.510732361119446310e+00 4.378779035328029750e+02
1.510832383124287359e+00 4.377848639425800457e+02
1.510932405129128409e+00 4.376919523553044087e+02
1.511032427133969236e+00 4.375991701799737825e+02
1.511132449138810285e+00 4.375065188224002100e+02
1.511232471143651335e+00 4.374139996851728824e+02
1.511332493148492606e+00 4.373216141676210782e+02
1.511432515153333656e+00 4.372293636657766456e+02
1.511532537158174705e+00 4.371372495723381917e+02
1.511632559163015976e+00 4.370452732766351005e+02
1.511732581167856804e+00 4.369534361645884815e+02
1.511832603172697853e+00 4.368617396186782571e+02
1.511932625177538903e+00 4.367701850179039411e+02
1.512032647182379952e+00 4.366787737377500775e+02
1.512132669187221001e+00 4.365875071501500315e+02
1.512232691192062273e+00 4.364963866234491547e+02
1.512332713196903322e+00 4.364054135223695994e+02
1.512432735201744149e+00 4.363145892079760984e+02
1.512532757206585199e+00 4.362239150376367434e+02
1.512632779211426470e+00 4.361333923649909821e+02
1.512732801216267520e+00 4.360430225399131245e+02
1.512832823221108569e+00 4.359528069084757362e+02
1.512932845225949618e+00 4.358627468129177487e+02
1.513032867230790668e+00 4.357728435916046692e+02
1.513132889235631495e+00 4.356830985789987949e+02
1.513232911240472767e+00 4.355935131056209002e+02
1.513332933245313816e+00 4.355040884980173814e+02
1.513432955250154865e+00 4.354148260787252980e+02
1.513532977254996137e+00 4.353257271662375842e+02
1.513632999259837186e+00 4.352367930749693414e+02
1.513733021264678236e+00 4.351480251152235041e+02
1.513833043269519063e+00 4.350594245931571891e+02
1.513933065274360112e+00 4.349709928107466226e+02
1.514033087279201162e+00 4.348827310657559906e+02
1.514133109284042433e+00 4.347946406517008882e+02
1.514233131288883483e+00 4.347067228578164872e+02
1.514333153293724532e+00 4.346189789690244538e+02
1.514433175298565804e+00 4.345314102658986712e+02
1.514533197303406631e+00 4.344440180246330101e+02
1.514633219308247680e+00 4.343568035170085295e+02
1.514733241313088730e+00 4.342697680103597122e+02
1.514833263317929779e+00 4.341829127675433710e+02
1.514933285322770828e+00 4.340962390469049978e+02
1.515033307327612100e+00 4.340097481022469879e+02
1.515133329332453149e+00 4.339234411827952158e+02
1.515233351337293977e+00 4.338373195331693637e+02
1.515333373342135026e+00 4.337513843933495536e+02
1.515433395346976297e+00 4.336656369986437767e+02
1.515533417351817347e+00 4.335800785796582204e+02
1.515633439356658396e+00 4.334947103622641862e+02
1.515733461361499446e+00 4.334095335675679621e+02
1.515833483366340495e+00 4.333245494118789338e+02
1.515933505371181322e+00 4.332397591066791733e+02
1.516033527376022594e+00 4.331551638585912656e+02
1.516133549380863643e+00 4.330707648693504552e+02
1.516233571385704693e+00 4.329865633357695742e+02
1.516333593390545964e+00 4.329025604497137465e+02
1.516433615395387013e+00 4.328187573980670777e+02
1.516533637400228063e+00 4.327351553627026988e+02
1.516633659405068890e+00 4.326517555204543442e+02
1.516733681409909940e+00 4.325685590430844059e+02
1.516833703414750989e+00 4.324855670972575012e+02
1.516933725419592260e+00 4.324027808445077881e+02
1.517033747424433310e+00 4.323202014412115659e+02
1.517133769429274359e+00 4.322378300385574903e+02
1.517233791434115631e+00 4.321556677825188331e+02
1.517333813438956458e+00 4.320737158138227301e+02
1.517433835443797507e+00 4.319919752679230669e+02
1.517533857448638557e+00 4.319104472749722277e+02
1.517633879453479606e+00 4.318291329597908543e+02
1.517733901458320656e+00 4.317480334418423240e+02
1.517833923463161927e+00 4.316671498352033041e+02
1.517933945468002976e+00 4.315864832485362967e+02
1.518033967472843804e+00 4.315060347850621270e+02
1.518133989477684853e+00 4.314258055425324869e+02
1.518234011482526125e+00 4.313457966132028218e+02
1.518334033487367174e+00 4.312660090838050451e+02
1.518434055492208223e+00 4.311864440355210490e+02
1.518534077497049273e+00 4.311071025439552500e+02
1.518634099501890322e+00 4.310279856791091220e+02
1.518734121506731150e+00 4.309490945053537985e+02
1.518834143511572421e+00 4.308704300814048906e+02
1.518934165516413470e+00 4.307919934602956573e+02
1.519034187521254520e+00 4.307137856893514822e+02
1.519134209526095791e+00 4.306358078101642377e+02
1.519234231530936841e+00 4.305580608585671598e+02
1.519334253535777890e+00 4.304805458646085299e+02
1.519434275540618717e+00 4.304032638525285392e+02
1.519534297545459767e+00 4.303262158407322318e+02
1.519634319550300816e+00 4.302494028417665959e+02
1.519734341555142088e+00 4.301728258622939620e+02
1.519834363559983137e+00 4.300964859030699472e+02
1.519934385564824186e+00 4.300203839589174777e+02
1.520034407569665458e+00 4.299445210187042790e+02
1.520134429574506285e+00 4.298688980653179215e+02
1.520234451579347335e+00 4.297935160756434243e+02
1.520334473584188384e+00 4.297183760205377894e+02
1.520434495589029433e+00 4.296434788648088556e+02
1.520534517593870483e+00 4.295688255671926754e+02
1.520634539598711754e+00 4.294944170803271959e+02
1.520734561603552804e+00 4.294202543507341829e+02
1.520834583608393631e+00 4.293463383187931299e+02
1.520934605613234680e+00 4.292726699187215900e+02
1.521034627618075952e+00 4.291992500785508469e+02
1.521134649622917001e+00 4.291260797201063042e+02
1.521234671627758051e+00 4.290531597589842931e+02
1.521334693632599100e+00 4.289804911045304721e+02
1.521434715637440149e+00 4.289080746598204996e+02
1.521534737642280977e+00 4.288359113216370133e+02
1.521634759647122248e+00 4.287640019804483131e+02
1.521734781651963297e+00 4.286923475203901148e+02
1.521834803656804347e+00 4.286209488192436652e+02
1.521934825661645618e+00 4.285498067484145395e+02
1.522034847666486668e+00 4.284789221729148494e+02
1.522134869671327717e+00 4.284082959513404489e+02
1.522234891676168544e+00 4.283379289358550182e+02
1.522334913681009594e+00 4.282678219721666437e+02
1.522434935685850643e+00 4.281979758995117891e+02
1.522534957690691915e+00 4.281283915506337507e+02
1.522634979695532964e+00 4.280590697517655485e+02
1.522735001700374013e+00 4.279900113226113945e+02
1.522835023705215285e+00 4.279212170763258314e+02
1.522935045710056112e+00 4.278526878194986693e+02
1.523035067714897162e+00 4.277844243521350904e+02
1.523135089719738211e+00 4.277164274676381410e+02
1.523235111724579260e+00 4.276486979527915651e+02
1.523335133729420310e+00 4.275812365877419552e+02
1.523435155734261581e+00 4.275140441459814724e+02
1.523535177739102631e+00 4.274471213943315320e+02
1.523635199743943458e+00 4.273804690929253525e+02
1.523735221748784507e+00 4.273140879951916986e+02
1.523835243753625779e+00 4.272479788478386240e+02
1.523935265758466828e+00 4.271821423908372708e+02
1.524035287763307878e+00 4.271165793574060103e+02
1.524135309768148927e+00 4.270512904739934470e+02
1.524235331772989976e+00 4.269862764602663106e+02
1.524335353777830804e+00 4.269215380290902431e+02
1.524435375782672075e+00 4.268570758865167249e+02
1.524535397787513125e+00 4.267928907317685798e+02
1.524635419792354174e+00 4.267289832572243995e+02
1.524735441797195445e+00 4.266653541484041625e+02
1.524835463802036495e+00 4.266020040839556486e+02
1.524935485806877544e+00 4.265389337356400006e+02
1.525035507811718372e+00 4.264761437683175131e+02
1.525135529816559421e+00 4.264136348399358099e+02
1.525235551821400470e+00 4.263514076015143246e+02
1.525335573826241742e+00 4.262894626971323078e+02
1.525435595831082791e+00 4.262278007639158659e+02
1.525535617835923841e+00 4.261664224320259109e+02
1.525635639840764668e+00 4.261053283246433239e+02
1.525735661845605939e+00 4.260445190579591781e+02
1.525835683850446989e+00 4.259839952411628587e+02
1.525935705855288038e+00 4.259237574764274541e+02
1.526035727860129088e+00 4.258638063589013996e+02
1.526135749864970137e+00 4.258041424766951195e+02
1.526235771869811408e+00 4.257447664108700565e+02
1.526335793874652236e+00 4.256856787354287803e+02
1.526435815879493285e+00 4.256268800173032787e+02
1.526535837884334335e+00 4.255683708163446681e+02
1.526635859889175606e+00 4.255101516853134171e+02
1.526735881894016655e+00 4.254522231698690575e+02
1.526835903898857705e+00 4.253945858085593841e+02
1.526935925903698754e+00 4.253372401328125534e+02
1.527035947908539582e+00 4.252801866669263973e+02
1.527135969913380631e+00 4.252234259280606921e+02
1.527235991918221902e+00 4.251669584262252783e+02
1.527336013923062952e+00 4.251107846642757977e+02
1.527436035927904001e+00 4.250549051379011303e+02
1.527536057932745273e+00 4.249993203356168578e+02
1.527636079937586322e+00 4.249440307387584426e+02
1.527736101942427149e+00 4.248890368214704267e+02
1.527836123947268199e+00 4.248343390507012600e+02
1.527936145952109248e+00 4.247799378861950572e+02
1.528036167956950298e+00 4.247258337804854023e+02
1.528136189961791569e+00 4.246720271788863101e+02
1.528236211966632618e+00 4.246185185194877931e+02
1.528336233971473668e+00 4.245653082331483574e+02
1.528436255976314495e+00 4.245123967434876704e+02
1.528536277981155767e+00 4.244597844668836615e+02
1.528636299985996816e+00 4.244074718124637116e+02
1.528736321990837865e+00 4.243554591821002759e+02
1.528836343995678915e+00 4.243037469704050295e+02
1.528936366000519964e+00 4.242523355647253425e+02
1.529036388005361236e+00 4.242012253451368338e+02
1.529136410010202063e+00 4.241504166844412111e+02
1.529236432015043112e+00 4.240999099481603025e+02
1.529336454019884162e+00 4.240497054945321906e+02
1.529436476024725433e+00 4.239998036745074614e+02
1.529536498029566483e+00 4.239502048317446565e+02
1.529636520034407532e+00 4.239009093026086816e+02
1.529736542039248581e+00 4.238519174161648380e+02
1.529836564044089409e+00 4.238032294941782538e+02
1.529936586048930458e+00 4.237548458511092235e+02
1.530036608053771729e+00 4.237067667941107061e+02
1.530136630058612779e+00 4.236589926230272454e+02
1.530236652063453828e+00 4.236115236303925258e+02
1.530336674068295100e+00 4.235643601014253363e+02
1.530436696073136149e+00 4.235175023140305370e+02
1.530536718077976976e+00 4.234709505387966715e+02
1.530636740082818026e+00 4.234247050389933520e+02
1.530736762087659075e+00 4.233787660705722828e+02
1.530836784092500125e+00 4.233331338821647023e+02
1.530936806097341396e+00 4.232878087150825763e+02
1.531036828102182445e+00 4.232427908033160975e+02
1.531136850107023495e+00 4.231980803735353334e+02
1.531236872111864322e+00 4.231536776450894877e+02
1.531336894116705594e+00 4.231095828300078665e+02
1.531436916121546643e+00 4.230657961329987415e+02
1.531536938126387692e+00 4.230223177514528743e+02
1.531636960131228742e+00 4.229791478754410150e+02
1.531736982136069791e+00 4.229362866877189617e+02
1.531837004140911063e+00 4.228937343637254571e+02
1.531937026145751890e+00 4.228514910715865085e+02
1.532037048150592939e+00 4.228095569721157858e+02
1.532137070155433989e+00 4.227679322188169522e+02
1.532237092160275260e+00 4.227266169578867334e+02
1.532337114165116310e+00 4.226856113282162255e+02
1.532437136169957359e+00 4.226449154613952146e+02
1.532537158174798408e+00 4.226045294817134845e+02
1.532637180179639236e+00 4.225644535061661600e+02
1.532737202184480285e+00 4.225246876444543886e+02
1.532837224189321557e+00 4.224852319989912530e+02
1.532937246194162606e+00 4.224460866649055220e+02
1.533037268199003655e+00 4.224072517300445497e+02
1.533137290203844927e+00 4.223687272749794488e+02
1.533237312208685976e+00 4.223305133730095235e+02
1.533337334213526804e+00 4.222926100901670452e+02
1.533437356218367853e+00 4.222550174852224245e+02
1.533537378223208902e+00 4.222177356096884751e+02
1.533637400228049952e+00 4.221807645078281439e+02
1.533737422232891223e+00 4.221441042166568423e+02
1.533837444237732273e+00 4.221077547659520519e+02
1.533937466242573322e+00 4.220717161782564517e+02
1.534037488247414149e+00 4.220359884688858187e+02
1.534137510252255421e+00 4.220005716459347695e+02
1.534237532257096470e+00 4.219654657102842066e+02
1.534337554261937520e+00 4.219306706556082531e+02
1.534437576266778569e+00 4.218961864683807903e+02
1.534537598271619618e+00 4.218620131278840972e+02
1.534637620276460890e+00 4.218281506062143080e+02
1.534737642281301717e+00 4.217945988682924963e+02
1.534837664286142767e+00 4.217613578718696772e+02
1.534937686290983816e+00 4.217284275675367553e+02
1.535037708295825087e+00 4.216958078987336762e+02
1.535137730300666137e+00 4.216634988017551677e+02
1.535237752305507186e+00 4.216315002057636434e+02
1.535337774310348236e+00 4.215998120327951710e+02
1.535437796315189063e+00 4.215684341977714098e+02
1.535537818320030112e+00 4.215373666085061473e+02
1.535637840324871384e+00 4.215066091657188281e+02
1.535737862329712433e+00 4.214761617630409773e+02
1.535837884334553483e+00 4.214460242870291040e+02
1.535937906339394754e+00 4.214161966171739095e+02
1.536037928344235803e+00 4.213866786259107471e+02
1.536137950349076631e+00 4.213574701786317291e+02
1.536237972353917680e+00 4.213285711336950499e+02
1.536337994358758730e+00 4.212999813424380591e+02
1.536438016363599779e+00 4.212717006491878919e+02
1.536538038368441050e+00 4.212437288912726672e+02
1.536638060373282100e+00 4.212160658990348452e+02
1.536738082378123149e+00 4.211887114958412326e+02
1.536838104382963976e+00 4.211616654980981593e+02
1.536938126387805248e+00 4.211349277152618811e+02
1.537038148392646297e+00 4.211084979498511416e+02
1.537138170397487347e+00 4.210823759974625204e+02
1.537238192402328396e+00 4.210565616467809491e+02
1.537338214407169446e+00 4.210310546795940354e+02
1.537438236412010717e+00 4.210058548708066155e+02
1.537538258416851544e+00 4.209809619884532594e+02
1.537638280421692594e+00 4.209563757937125388e+02
1.537738302426533643e+00 4.209320960409224881e+02
1.537838324431374915e+00 4.209081224775924284e+02
1.537938346436215964e+00 4.208844548444201337e+02
1.538038368441057013e+00 4.208610928753055305e+02
1.538138390445898063e+00 4.208380362973656474e+02
1.538238412450738890e+00 4.208152848309491674e+02
1.538338434455579939e+00 4.207928381896539349e+02
1.538438456460421211e+00 4.207706960803411107e+02
1.538538478465262260e+00 4.207488582031500073e+02
1.538638500470103310e+00 4.207273242515158245e+02
1.538738522474944581e+00 4.207060939121860770e+02
1.538838544479785631e+00 4.206851668652350327e+02
1.538938566484626458e+00 4.206645427840819593e+02
1.539038588489467507e+00 4.206442213355074955e+02
1.539138610494308557e+00 4.206242021796704194e+02
1.539238632499149606e+00 4.206044849701247017e+02
1.539338654503990877e+00 4.205850693538377527e+02
1.539438676508831927e+00 4.205659549712070202e+02
1.539538698513672976e+00 4.205471414560781795e+02
1.539638720518513804e+00 4.205286284357632667e+02
1.539738742523355075e+00 4.205104155310581859e+02
1.539838764528196124e+00 4.204925023562615252e+02
1.539938786533037174e+00 4.204748885191938257e+02
1.540038808537878223e+00 4.204575736212144079e+02
1.540138830542719273e+00 4.204405572572420624e+02
1.540238852547560544e+00 4.204238390157728986e+02
1.540338874552401371e+00 4.204074184789006949e+02
1.540438896557242421e+00 4.203912952223357138e+02
1.540538918562083470e+00 4.203754688154242558e+02
1.540638940566924742e+00 4.203599388211687824e+02
1.540738962571765791e+00 4.203447047962483794e+02
1.540838984576606840e+00 4.203297662910377994e+02
1.540939006581447890e+00 4.203151228496284375e+02
1.541039028586288717e+00 4.203007740098494196e+02
1.541139050591129767e+00 4.202867193032873274e+02
1.541239072595971038e+00 4.202729582553085947e+02
1.541339094600812087e+00 4.202594903850787205e+02
1.541439116605653137e+00 4.202463152055850628e+02
1.541539138610494408e+00 4.202334322236573030e+02
1.541639160615335458e+00 4.202208409399900688e+02
1.541739182620176285e+00 4.202085408491640237e+02
1.541839204625017334e+00 4.201965314396677513e+02
1.541939226629858384e+00 4.201848121939203224e+02
1.542039248634699433e+00 4.201733825882939755e+02
1.542139270639540705e+00 4.201622420931353190e+02
1.542239292644381754e+00 4.201513901727897746e+02
1.542339314649222803e+00 4.201408262856230067e+02
1.542439336654063631e+00 4.201305498840441146e+02
1.542539358658904902e+00 4.201205604145296775e+02
1.542639380663745952e+00 4.201108573176462642e+02
1.542739402668587001e+00 4.201014400280744212e+02
1.542839424673428050e+00 4.200923079746322060e+02
1.542939446678269100e+00 4.200834605802995725e+02
1.543039468683109927e+00 4.200748972622398583e+02
1.543139490687951199e+00 4.200666174318281492e+02
1.543239512692792248e+00 4.200586204946731641e+02
1.543339534697633297e+00 4.200509058506404472e+02
1.543439556702474569e+00 4.200434728938803346e+02
1.543539578707315618e+00 4.200363210128505784e+02
1.543639600712156668e+00 4.200294495903411303e+02
1.543739622716997495e+00 4.200228580035008008e+02
1.543839644721838544e+00 4.200165456238613046e+02
1.543939666726679594e+00 4.200105118173634082e+02
1.544039688731520865e+00 4.200047559443826231e+02
1.544139710736361915e+00 4.199992773597538189e+02
1.544239732741202964e+00 4.199940754127981108e+02
1.544339754746044235e+00 4.199891494473490638e+02
1.544439776750885063e+00 4.199844988017787273e+02
1.544539798755726112e+00 4.199801228090241239e+02
1.544639820760567162e+00 4.199760207966129428e+02
1.544739842765408211e+00 4.199721920866908818e+02
1.544839864770249260e+00 4.199686359960494428e+02
1.544939886775090532e+00 4.199653518361506030e+02
1.545039908779931581e+00 4.199623389131556905e+02
1.545139930784772409e+00 4.199595965279529537e+02
1.545239952789613458e+00 4.199571239761822312e+02
1.545339974794454729e+00 4.199549205482668981e+02
1.545439996799295779e+00 4.199529855294373419e+02
1.545540018804136828e+00 4.199513181997606921e+02
1.545640040808977878e+00 4.199499178341696393e+02
1.545740062813818927e+00 4.199487837024885266e+02
1.545840084818659754e+00 4.199479150694626242e+02
1.545940106823501026e+00 4.199473111947875736e+02
1.546040128828342075e+00 4.199469713331357070e+02
1.546140150833183124e+00 4.199468947341862872e+02
1.546240172838024396e+00 4.199470806426526792e+02
1.546340194842865445e+00 4.199475282983142392e+02
1.546440216847706495e+00 4.199482369360425196e+02
1.546540238852547322e+00 4.199492057858309977e+02
1.546640260857388371e+00 4.199504340728256579e+02
1.546740282862229421e+00 4.199519210173528450e+02
1.546840304867070692e+00 4.199536658349502432e+02
1.546940326871911742e+00 4.199556677363945028e+02
1.547040348876752791e+00 4.199579259277347205e+02
1.547140370881594063e+00 4.199604396103176214e+02
1.547240392886434890e+00 4.199632079808216076e+02
1.547340414891275939e+00 4.199662302312846691e+02
1.547440436896116989e+00 4.199695055491353628e+02
1.547540458900958038e+00 4.199730331172235651e+02
1.547640480905799087e+00 4.199768121138505421e+02
1.547740502910640359e+00 4.199808417127999860e+02
1.547840524915481408e+00 4.199851210833677442e+02
1.547940546920322236e+00 4.199896493903943338e+02
1.548040568925163285e+00 4.199944257942946706e+02
1.548140590930004556e+00 4.199994494510898448e+02
1.548240612934845606e+00 4.200047195124377026e+02
1.548340634939686655e+00 4.200102351256645079e+02
1.548440656944527705e+00 4.200159954337973431e+02
1.548540678949368754e+00 4.200219995755933837e+02
1.548640700954209581e+00 4.200282466855740040e+02
1.548740722959050853e+00 4.200347358940554159e+02
1.548840744963891902e+00 4.200414663271797622e+02
1.548940766968732952e+00 4.200484371069479721e+02
1.549040788973574223e+00 4.200556473512526168e+02
1.549140810978415272e+00 4.200630961739085478e+02
1.549240832983256322e+00 4.200707826846858666e+02
1.549340854988097149e+00 4.200787059893417563e+02
1.549440876992938199e+00 4.200868651896545884e+02
1.549540898997779248e+00 4.200952593834544473e+02
1.549640921002620519e+00 4.201038876646568951e+02
1.549740943007461569e+00 4.201127491232953162e+02
1.549840965012302618e+00 4.201218428455546245e+02
1.549940987017143890e+00 4.201311679138025852e+02
1.550041009021984717e+00 4.201407234066244882e+02
1.550141031026825766e+00 4.201505083988552087e+02
1.550241053031666816e+00 4.201605219616124032e+02
1.550341075036507865e+00 4.201707631623314683e+02
1.550441097041348915e+00 4.201812310647957247e+02
1.550541119046190186e+00 4.201919247291733654e+02
1.550641141051031235e+00 4.202028432120481511e+02
1.550741163055872063e+00 4.202139855664553920e+02
1.550841185060713112e+00 4.202253508419141212e+02
1.550941207065554384e+00 4.202369380844607463e+02
1.551041229070395433e+00 4.202487463366844054e+02
1.551141251075236482e+00 4.202607746377592548e+02
1.551241273080077532e+00 4.202730220234799390e+02
1.551341295084918581e+00 4.202854875262937071e+02
1.551441317089759409e+00 4.202981701753372477e+02
1.551541339094600680e+00 4.203110689964686912e+02
1.551641361099441729e+00 4.203241830123038199e+02
1.551741383104282779e+00 4.203375112422471602e+02
1.551841405109124050e+00 4.203510527025314900e+02
1.551941427113965100e+00 4.203648064062472258e+02
1.552041449118806149e+00 4.203787713633805083e+02
1.552141471123646976e+00 4.203929465808464556e+02
1.552241493128488026e+00 4.204073310625242357e+02
1.552341515133329075e+00 4.204219238092913429e+02
1.552441537138170347e+00 4.204367238190590683e+02
1.552541559143011396e+00 4.204517300868066059e+02
1.552641581147852445e+00 4.204669416046176593e+02
1.552741603152693717e+00 4.204823573617132979e+02
1.552841625157534544e+00 4.204979763444885066e+02
1.552941647162375594e+00 4.205137975365470879e+02
1.553041669167216643e+00 4.205298199187355976e+02
1.553141691172057692e+00 4.205460424691813159e+02
1.553241713176898742e+00 4.205624641633245915e+02
1.553341735181740013e+00 4.205790839739557896e+02
1.553441757186581063e+00 4.205959008712508762e+02
1.553541779191421890e+00 4.206129138228048987e+02
1.553641801196262939e+00 4.206301217936700709e+02
1.553741823201104211e+00 4.206475237463906183e+02
1.553841845205945260e+00 4.206651186410358605e+02
1.553941867210786310e+00 4.206829054352401727e+02
1.554041889215627359e+00 4.207008830842345333e+02
1.554141911220468408e+00 4.207190505408842682e+02
1.554241933225309236e+00 4.207374067557253738e+02
1.554341955230150507e+00 4.207559506769986797e+02
1.554441977234991557e+00 4.207746812506866831e+02
1.554541999239832606e+00 4.207935974205488492e+02
1.554642021244673877e+00 4.208126981281580470e+02
1.554742043249514927e+00 4.208319823129360202e+02
1.554842065254355976e+00 4.208514489121893121e+02
1.554942087259196803e+00 4.208710968611458156e+02
1.555042109264037853e+00 4.208909250929908694e+02
1.555142131268878902e+00 4.209109325389007381e+02
1.555242153273720174e+00 4.209311181280826872e+02
1.555342175278561223e+00 4.209514807878092597e+02
1.555442197283402272e+00 4.209720194434526661e+02
1.555542219288243544e+00 4.209927330185238930e+02
1.555642241293084371e+00 4.210136204347068656e+02
1.555742263297925421e+00 4.210346806118951122e+02
1.555842285302766470e+00 4.210559124682288257e+02
1.555942307307607519e+00 4.210773149201292540e+02
1.556042329312448569e+00 4.210988868823367284e+02
1.556142351317289840e+00 4.211206272679460199e+02
1.556242373322130890e+00 4.211425349884426055e+02
1.556342395326971717e+00 4.211646089537391617e+02
1.556442417331812766e+00 4.211868480722121149e+02
1.556542439336654038e+00 4.212092512507368838e+02
1.556642461341495087e+00 4.212318173947255673e+02
1.556742483346336137e+00 4.212545454081625280e+02
1.556842505351177186e+00 4.212774341936399765e+02
1.556942527356018235e+00 4.213004826523957718e+02
1.557042549360859063e+00 4.213236896843494605e+02
1.557142571365700334e+00 4.213470541881371219e+02
1.557242593370541384e+00 4.213705750611495660e+02
1.557342615375382433e+00 4.213942511995674067e+02
1.557442637380223704e+00 4.214180814983978394e+02
1.557542659385064754e+00 4.214420648515117591e+02
1.557642681389905803e+00 4.214662001516783221e+02
1.557742703394746631e+00 4.214904862906029166e+02
1.557842725399587680e+00 4.215149221589623494e+02
1.557942747404428729e+00 4.215395066464420211e+02
1.558042769409270001e+00 4.215642386417719081e+02
1.558142791414111050e+00 4.215891170327616351e+02
1.558242813418952100e+00 4.216141407063393558e+02
1.558342835423793371e+00 4.216393085485857455e+02
1.558442857428634198e+00 4.216646194447711196e+02
1.558542879433475248e+00 4.216900722793912450e+02
1.558642901438316297e+00 4.217156659362051982e+02
1.558742923443157347e+00 4.217413992982686750e+02
1.558842945447998396e+00 4.217672712479724737e+02
1.558942967452839667e+00 4.217932806670782497e+02
1.559042989457680717e+00 4.218194264367542132e+02
1.559143011462521544e+00 4.218457074376109404e+02
1.559243033467362594e+00 4.218721225497380374e+02
1.559343055472203865e+00 4.218986706527410888e+02
1.559443077477044914e+00 4.219253506257750814e+02
1.559543099481885964e+00 4.219521613475837967e+02
1.559643121486727013e+00 4.219791016965326094e+02
1.559743143491568063e+00 4.220061705506467433e+02
1.559843165496408890e+00 4.220333667876467416e+02
1.559943187501250161e+00 4.220606892849822884e+02
1.560043209506091211e+00 4.220881369198722268e+02
1.560143231510932260e+00 4.221157085693361068e+02
1.560243253515773532e+00 4.221434031102326117e+02
1.560343275520614581e+00 4.221712194192944025e+02
1.560443297525455408e+00 4.221991563731630777e+02
1.560543319530296458e+00 4.222272128484275413e+02
1.560643341535137507e+00 4.222553877216564047e+02
1.560743363539978557e+00 4.222836798694362415e+02
1.560843385544819828e+00 4.223120881684048982e+02
1.560943407549660877e+00 4.223406114952880444e+02
1.561043429554501927e+00 4.223692487269350977e+02
1.561143451559342754e+00 4.223979987403546943e+02
1.561243473564184026e+00 4.224268604127485673e+02
1.561343495569025075e+00 4.224558326215477564e+02
1.561443517573866124e+00 4.224849142444497261e+02
1.561543539578707174e+00 4.225141041594503122e+02
1.561643561583548223e+00 4.225434012448799876e+02
1.561743583588389495e+00 4.225728043794410951e+02
1.561843605593230322e+00 4.226023124422399064e+02
1.561943627598071371e+00 4.226319243128238554e+02
1.562043649602912421e+00 4.226616388712150183e+02
1.562143671607753692e+00 4.226914549979460389e+02
1.562243693612594742e+00 4.227213715740937801e+02
1.562343715617435791e+00 4.227513874813158168e+02
1.562443737622276840e+00 4.227815016018836332e+02
1.562543759627117668e+00 4.228117128187173535e+02
1.562643781631958717e+00 4.228420200154219515e+02
1.562743803636799989e+00 4.228724220763195376e+02
1.562843825641641038e+00 4.229029178864851133e+02
1.562943847646482087e+00 4.229335063317805634e+02
1.563043869651323359e+00 4.229641862988904677e+02
1.563143891656164408e+00 4.229949566753521708e+02
1.563243913661005235e+00 4.230258163495958570e+02
1.563343935665846285e+00 4.230567642109734834e+02
1.563443957670687334e+00 4.230877991497956145e+02
1.563543979675528384e+00 4.231189200573646190e+02
1.563644001680369655e+00 4.231501258260088889e+02
1.563744023685210704e+00 4.231814153491152410e+02
1.563844045690051754e+00 4.232127875211651826e+02
1.563944067694892581e+00 4.232442412377662890e+02
1.564044089699733853e+00 4.232757753956865940e+02
1.564144111704574902e+00 4.233073888928882980e+02
1.564244133709415951e+00 4.233390806285605095e+02
1.564344155714257001e+00 4.233708495031535222e+02
1.564444177719098050e+00 4.234026944184112153e+02
1.564544199723939322e+00 4.234346142774049895e+02
1.564644221728780149e+00 4.234666079845652575e+02
1.564744243733621198e+00 4.234986744457174836e+02
1.564844265738462248e+00 4.235308125681102638e+02
1.564944287743303519e+00 4.235630212604532971e+02
1.565044309748144569e+00 4.235952994329468311e+02
1.565144331752985618e+00 4.236276459973155966e+02
1.565244353757826667e+00 4.236600598668401858e+02
1.565344375762667495e+00 4.236925399563909878e+02
1.565444397767508544e+00 4.237250851824591678e+02
1.565544419772349816e+00 4.237576944631899778e+02
1.565644441777190865e+00 4.237903667184137930e+02
1.565744463782031914e+00 4.238231008696799904e+02
1.565844485786873186e+00 4.238558958402854842e+02
1.565944507791714235e+00 4.238887505553106507e+02
1.566044529796555063e+00 4.239216639416492853e+02
1.566144551801396112e+00 4.239546349280381037e+02
1.566244573806237161e+00 4.239876624450919849e+02
1.566344595811078211e+00 4.240207454253332457e+02
1.566444617815919482e+00 4.240538828032231322e+02
1.566544639820760532e+00 4.240870735151942768e+02
1.566644661825601581e+00 4.241203164996790065e+02
1.566744683830442408e+00 4.241536106971439608e+02
1.566844705835283680e+00 4.241869550501181720e+02
1.566944727840124729e+00 4.242203485032249546e+02
1.567044749844965779e+00 4.242537900032128277e+02
1.567144771849806828e+00 4.242872784989860975e+02
1.567244793854647877e+00 4.243208129416337897e+02
1.567344815859489149e+00 4.243543922844620511e+02
1.567444837864329976e+00 4.243880154830227411e+02
1.567544859869171026e+00 4.244216814951450942e+02
1.567644881874012075e+00 4.244553892809634590e+02
1.567744903878853346e+00 4.244891378029496991e+02
1.567844925883694396e+00 4.245229260259420698e+02
1.567944947888535445e+00 4.245567529171730712e+02
1.568044969893376495e+00 4.245906174463009961e+02
1.568144991898217322e+00 4.246245185854391480e+02
1.568245013903058371e+00 4.246584553091843190e+02
1.568345035907899643e+00 4.246924265946461787e+02
1.568445057912740692e+00 4.247264314214764909e+02
1.568545079917581742e+00 4.247604687718977061e+02
1.568645101922423013e+00 4.247945376307317247e+02
1.568745123927264062e+00 4.248286369854291138e+02
1.568845145932104890e+00 4.248627658260971884e+02
1.568945167936945939e+00 4.248969231455273530e+02
1.569045189941786989e+00 4.249311079392255124e+02
1.569145211946628038e+00 4.249653192054385613e+02
1.569245233951469309e+00 4.249995559451823510e+02
1.569345255956310359e+00 4.250338171622706795e+02
1.569445277961151408e+00 4.250681018633410417e+02
1.569545299965992236e+00 4.251024090578855521e+02
1.569645321970833507e+00 4.251367377582737959e+02
1.569745343975674556e+00 4.251710869797848318e+02
1.569845365980515606e+00 4.252054557406306117e+02
1.569945387985356655e+00 4.252398430619851979e+02
1.570045409990197705e+00 4.252742479680109113e+02
1.570145431995038976e+00 4.253086694858845931e+02
1.570245453999879803e+00 4.253431066458259124e+02
1.570345476004720853e+00 4.253775584811211274e+02
1.570445498009561902e+00 4.254120240281521887e+02
1.570545520014403174e+00 4.254465023264212391e+02
1.570645542019244223e+00 4.254809924185774435e+02
1.570745564024085272e+00 4.255154933504420001e+02
1.570845586028926322e+00 4.255500041710340611e+02
1.570945608033767149e+00 4.255845239325979605e+02
1.571045630038608198e+00 4.256190516906267476e+02
1.571145652043449470e+00 4.256535865038876523e+02
1.571245674048290519e+00 4.256881274344482904e+02
1.571345696053131569e+00 4.257226735477009925e+02
1.571445718057972840e+00 4.257572239123875875e+02
1.571545740062813890e+00 4.257917776006248687e+02
1.571645762067654717e+00 4.258263336879278427e+02
1.571745784072495766e+00 4.258608912532353656e+02
1.571845806077336816e+00 4.258954493789334492e+02
1.571945828082177865e+00 4.259300071508801011e+02
1.572045850087019137e+00 4.259645636584288013e+02
1.572145872091860186e+00 4.259991179944533428e+02
1.572245894096701235e+00 4.260336692553690909e+02
1.572345916101542063e+00 4.260682165411586197e+02
1.572445938106383334e+00 4.261027589553943926e+02
1.572545960111224383e+00 4.261372956052622385e+02
1.572645982116065433e+00 4.261718256015835209e+02
1.572746004120906482e+00 4.262063480588381026e+02
1.572846026125747532e+00 4.262408620951879925e+02
1.572946048130588803e+00 4.262753668324993441e+02
1.573046070135429630e+00 4.263098613963638286e+02
1.573146092140270680e+00 4.263443449161225089e+02
1.573246114145111729e+00 4.263788165248872701e+02
1.573346136149953001e+00 4.264132753595616236e+02
1.573446158154794050e+00 4.264477205608634449e+02
1.573546180159635099e+00 4.264821512733480517e+02
1.573646202164476149e+00 4.265165666454250868e+02
1.573746224169316976e+00 4.265509658293841539e+02
1.573846246174158026e+00 4.265853479814149409e+02
1.573946268178999297e+00 4.266197122616260344e+02
1.574046290183840346e+00 4.266540578340669754e+02
1.574146312188681396e+00 4.266883838667498594e+02
1.574246334193522667e+00 4.267226895316685500e+02
1.574346356198363717e+00 4.267569740048180620e+02
1.574446378203204544e+00 4.267912364662157074e+02
1.574546400208045593e+00 4.268254760999222412e+02
1.574646422212886643e+00 4.268596920940585733e+02
1.574746444217727692e+00 4.268938836408275392e+02
1.574846466222568964e+00 4.269280499365319201e+02
1.574946488227410013e+00 4.269621901815952469e+02
1.575046510232251062e+00 4.269963035805787968e+02
1.575146532237091890e+00 4.270303893422018291e+02
1.575246554241933161e+00 4.270644466793606853e+02
1.575346576246774211e+00 4.270984748091448182e+02
1.575446598251615260e+00 4.271324729528578246e+02
1.575546620256456309e+00 4.271664403360343840e+02
1.575646642261297359e+00 4.272003761884579376e+02
1.575746664266138630e+00 4.272342797441790481e+02
1.575846686270979458e+00 4.272681502415327373e+02
1.575946708275820507e+00 4.273019869231558232e+02
1.576046730280661556e+00 4.273357890360047691e+02
1.576146752285502828e+00 4.273695558313712581e+02
1.576246774290343877e+00 4.274032865649018618e+02
1.576346796295184927e+00 4.274369804966113406e+02
1.576446818300025976e+00 4.274706368909011758e+02
1.576546840304866803e+00 4.275042550165763373e+02
1.576646862309707853e+00 4.275378341468599501e+02
1.576746884314549124e+00 4.275713735594100626e+02
1.576846906319390174e+00 4.276048725363363019e+02
1.576946928324231223e+00 4.276383303642127203e+02
1.577046950329072494e+00 4.276717463340974064e+02
1.577146972333913544e+00 4.277051197415441948e+02
1.577246994338754371e+00 4.277384498866189233e+02
1.577347016343595421e+00 4.277717360739149512e+02
1.577447038348436470e+00 4.278049776125667449e+02
1.577547060353277519e+00 4.278381738162657939e+02
1.577647082358118791e+00 4.278713240032734006e+02
1.577747104362959840e+00 4.279044274964363694e+02
1.577847126367800668e+00 4.279374836231995687e+02
1.577947148372641717e+00 4.279704917156199144e+02
1.578047170377482988e+00 4.280034511103822865e+02
1.578147192382324038e+00 4.280363611488086235e+02
1.578247214387165087e+00 4.280692211768759989e+02
1.578347236392006137e+00 4.281020305452244088e+02
1.578447258396847186e+00 4.281347886091758141e+02
1.578547280401688013e+00 4.281674947287407349e+02
1.578647302406529285e+00 4.282001482686347913e+02
1.578747324411370334e+00 4.282327485982897883e+02
1.578847346416211384e+00 4.282652950918650845e+02
1.578947368421052655e+00 4.282977871282603246e+02
1.579047390425893704e+00 4.283302240911270360e+02
1.579147412430734754e+00 4.283626053688796560e+02
1.579247434435575581e+00 4.283949303547084924e+02
1.579347456440416630e+00 4.284271984465884771e+02
1.579447478445257680e+00 4.284594090472924108e+02
1.579547500450098951e+00 4.284915615643996034e+02
1.579647522454940001e+00 4.285236554103088906e+02
1.579747544459781050e+00 4.285556900022459672e+02
1.579847566464622322e+00 4.285876647622771429e+02
1.579947588469463149e+00 4.286195791173166754e+02
1.580047610474304198e+00 4.286514324991377407e+02
1.580147632479145248e+00 4.286832243443809602e+02
1.580247654483986297e+00 4.287149540945665649e+02
1.580347676488827346e+00 4.287466211961000795e+02
1.580447698493668618e+00 4.287782251002835210e+02
1.580547720498509667e+00 4.288097652633247208e+02
1.580647742503350495e+00 4.288412411463440321e+02
1.580747764508191544e+00 4.288726522153843916e+02
1.580847786513032815e+00 4.289039979414193340e+02
1.580947808517873865e+00 4.289352778003606659e+02
1.581047830522714914e+00 4.289664912730669926e+02
1.581147852527555964e+00 4.289976378453504253e+02
1.581247874532397013e+00 4.290287170079853922e+02
1.581347896537237840e+00 4.290597282567152888e+02
1.581447918542079112e+00 4.290906710922587308e+02
1.581547940546920161e+00 4.291215450203193313e+02
1.581647962551761211e+00 4.291523495515892819e+02
1.581747984556602482e+00 4.291830842017568557e+02
1.581848006561443531e+00 4.292137484915148207e+02
1.581948028566284581e+00 4.292443419465631678e+02
1.582048050571125408e+00 4.292748640976182060e+02
1.582148072575966458e+00 4.293053144804155750e+02
1.582248094580807507e+00 4.293356926357192833e+02
1.582348116585648778e+00 4.293659981093239821e+02
1.582448138590489828e+00 4.293962304520612179e+02
1.582548160595330877e+00 4.294263892198049462e+02
1.582648182600172149e+00 4.294564739734761361e+02
1.582748204605012976e+00 4.294864842790467492e+02
1.582848226609854025e+00 4.295164197075451398e+02
1.582948248614695075e+00 4.295462798350604885e+02
1.583048270619536124e+00 4.295760642427455878e+02
1.583148292624377174e+00 4.296057725168204797e+02
1.583248314629218445e+00 4.296354042485790501e+02
1.583348336634059494e+00 4.296649590343891987e+02
1.583448358638900322e+00 4.296944364756972163e+02
1.583548380643741371e+00 4.297238361790323324e+02
1.583648402648582643e+00 4.297531577560070559e+02
1.583748424653423692e+00 4.297824008233220638e+02
1.583848446658264741e+00 4.298115650027673382e+02
1.583948468663105791e+00 4.298406499212260883e+02
1.584048490667946840e+00 4.298696552106748072e+02
1.584148512672787668e+00 4.298985805081864555e+02
1.584248534677628939e+00 4.299274254559319388e+02
1.584348556682469988e+00 4.299561897011823248e+02
1.584448578687311038e+00 4.299848728963092981e+02
1.584548600692152309e+00 4.300134746987862968e+02
1.584648622696993359e+00 4.300419947711905024e+02
1.584748644701834408e+00 4.300704327812017596e+02
1.584848666706675235e+00 4.300987884016068961e+02
1.584948688711516285e+00 4.301270613102950620e+02
1.585048710716357334e+00 4.301552511902620495e+02
1.585148732721198606e+00 4.301833577296087014e+02
1.585248754726039655e+00 4.302113806215402292e+02
1.585348776730880704e+00 4.302393195643676904e+02
1.585448798735721976e+00 4.302671742615044650e+02
1.585548820740562803e+00 4.302949444214693813e+02
1.585648842745403853e+00 4.303226297578830213e+02
1.585748864750244902e+00 4.303502299894671523e+02
1.585848886755085951e+00 4.303777448400429080e+02
1.585948908759927001e+00 4.304051740385326070e+02
1.586048930764768272e+00 4.304325173189524776e+02
1.586148952769609322e+00 4.304597744204156697e+02
1.586248974774450149e+00 4.304869450871282197e+02
1.586348996779291198e+00 4.305140290683874014e+02
1.586449018784132470e+00 4.305410261185772356e+02
1.586549040788973519e+00 4.305679359971692293e+02
1.586649062793814569e+00 4.305947584687172593e+02
1.586749084798655618e+00 4.306214933028553560e+02
1.586849106803496667e+00 4.306481402742945761e+02
1.586949128808337495e+00 4.306746991628188539e+02
1.587049150813178766e+00 4.307011697532827839e+02
1.587149172818019816e+00 4.307275518356069597e+02
1.587249194822860865e+00 4.307538452047743931e+02
1.587349216827702136e+00 4.307800496608263074e+02
1.587449238832543186e+00 4.308061650088582155e+02
1.587549260837384235e+00 4.308321910590142352e+02
1.587649282842225062e+00 4.308581276264852136e+02
1.587749304847066112e+00 4.308839745314989500e+02
1.587849326851907161e+00 4.309097315993217876e+02
1.587949348856748433e+00 4.309353986602471878e+02
1.588049370861589482e+00 4.309609755495954460e+02
1.588149392866430532e+00 4.309864621077032893e+02
1.588249414871271803e+00 4.310118581799222852e+02
1.588349436876112630e+00 4.310371636166109965e+02
1.588449458880953680e+00 4.310623782731287861e+02
1.588549480885794729e+00 4.310875020098299615e+02
1.588649502890635778e+00 4.311125346920576362e+02
1.588749524895476828e+00 4.311374761901359989e+02
1.588849546900318099e+00 4.311623263793654246e+02
1.588949568905159149e+00 4.311870851400125275e+02
1.589049590909999976e+00 4.312117523573062385e+02
1.589149612914841025e+00 4.312363279214283693e+02
1.589249634919682297e+00 4.312608117275064501e+02
1.589349656924523346e+00 4.312852036756062262e+02
1.589449678929364396e+00 4.313095036707244958e+02
1.589549700934205445e+00 4.313337116227793331e+02
1.589649722939046494e+00 4.313578274466037783e+02
1.589749744943887322e+00 4.313818510619357767e+02
1.589849766948728593e+00 4.314057823934106750e+02
1.589949788953569643e+00 4.314296213705520131e+02
1.590049810958410692e+00 4.314533679277626561e+02
1.590149832963251963e+00 4.314770220043164386e+02
1.590249854968093013e+00 4.315005835443474780e+02
1.590349876972934062e+00 4.315240524968408522e+02
1.590449898977774890e+00 4.315474288156254374e+02
1.590549920982615939e+00 4.315707124593609478e+02
1.590649942987456988e+00 4.315939033915291247e+02
1.590749964992298260e+00 4.316170015804246418e+02
1.590849986997139309e+00 4.316400069991436794e+02
1.590950009001980359e+00 4.316629196255737497e+02
1.591050031006821630e+00 4.316857394423825554e+02
1.591150053011662457e+00 4.317084664370082692e+02
1.591250075016503507e+00 4.317311006016484498e+02
1.591350097021344556e+00 4.317536419332480477e+02
1.591450119026185606e+00 4.317760904334877523e+02
1.591550141031026655e+00 4.317984461087744421e+02
1.591650163035867926e+00 4.318207089702279404e+02
1.591750185040708976e+00 4.318428790336698739e+02
1.591850207045549803e+00 4.318649563196118493e+02
1.591950229050390853e+00 4.318869408532418674e+02
1.592050251055232124e+00 4.319088326644157405e+02
1.592150273060073173e+00 4.319306317876397543e+02
1.592250295064914223e+00 4.319523382620611756e+02
1.592350317069755272e+00 4.319739521314557464e+02
1.592450339074596322e+00 4.319954734442123367e+02
1.592550361079437149e+00 4.320169022533226553e+02
1.592650383084278420e+00 4.320382386163657884e+02
1.592750405089119470e+00 4.320594825954973430e+02
1.592850427093960519e+00 4.320806342574321661e+02
1.592950449098801791e+00 4.321016936734345677e+02
1.593050471103642840e+00 4.321226609193017794e+02
1.593150493108483889e+00 4.321435360753514487e+02
1.593250515113324717e+00 4.321643192264060644e+02
1.593350537118165766e+00 4.321850104617804504e+02
1.593450559123006816e+00 4.322056098752654520e+02
1.593550581127848087e+00 4.322261175651152030e+02
1.593650603132689136e+00 4.322465336340302429e+02
1.593750625137530186e+00 4.322668581891447843e+02
1.593850647142371457e+00 4.322870913420090915e+02
1.593950669147212285e+00 4.323072332085779408e+02
1.594050691152053334e+00 4.323272839091904984e+02
1.594150713156894383e+00 4.323472435685589517e+02
1.594250735161735433e+00 4.323671123157507736e+02
1.594350757166576482e+00 4.323868902841737167e+02
1.594450779171417754e+00 4.324065776115595554e+02
1.594550801176258803e+00 4.324261744399469762e+02
1.594650823181099630e+00 4.324456809156671966e+02
1.594750845185940680e+00 4.324650971893260021e+02
1.594850867190781951e+00 4.324844234157893652e+02
1.594950889195623001e+00 4.325036597541639480e+02
1.595050911200464050e+00 4.325228063677824366e+02
1.595150933205305099e+00 4.325418634241842142e+02
1.595250955210145927e+00 4.325608310951028557e+02
1.595350977214986976e+00 4.325797095564435608e+02
1.595450999219828248e+00 4.325984989882691707e+02
1.595551021224669297e+00 4.326171995747806136e+02
1.595651043229510346e+00 4.326358115043017847e+02
1.595751065234351618e+00 4.326543349692596507e+02
1.595851087239192667e+00 4.326727701661669130e+02
1.595951109244033495e+00 4.326911172956044993e+02
1.596051131248874544e+00 4.327093765622026353e+02
1.596151153253715593e+00 4.327275481746223136e+02
1.596251175258556643e+00 4.327456323455388087e+02
1.596351197263397914e+00 4.327636292916203615e+02
1.596451219268238964e+00 4.327815392335123761e+02
1.596551241273080013e+00 4.327993623958157627e+02
1.596651263277920840e+00 4.328170990070697712e+02
1.596751285282762112e+00 4.328347492997323798e+02
1.596851307287603161e+00 4.328523135101622188e+02
1.596951329292444210e+00 4.328697918785961178e+02
1.597051351297285260e+00 4.328871846491340420e+02
1.597151373302126309e+00 4.329044920697153316e+02
1.597251395306967581e+00 4.329217143921022739e+02
1.597351417311808408e+00 4.329388518718589012e+02
1.597451439316649457e+00 4.329559047683299582e+02
1.597551461321490507e+00 4.329728733446227125e+02
1.597651483326331778e+00 4.329897578675867749e+02
1.597751505331172828e+00 4.330065586077914759e+02
1.597851527336013877e+00 4.330232758395081305e+02
1.597951549340854926e+00 4.330399098406891767e+02
1.598051571345695754e+00 4.330564608929454380e+02
1.598151593350536803e+00 4.330729292815269673e+02
1.598251615355378075e+00 4.330893152953027538e+02
1.598351637360219124e+00 4.331056192267384404e+02
1.598451659365060173e+00 4.331218413718761440e+02
1.598551681369901445e+00 4.331379820303117754e+02
1.598651703374742494e+00 4.331540415051766786e+02
1.598751725379583322e+00 4.331700201031127335e+02
1.598851747384424371e+00 4.331859181342531997e+02
1.598951769389265420e+00 4.332017359122006042e+02
1.599051791394106470e+00 4.332174737540041747e+02
1.599151813398947741e+00 4.332331319801387508e+02
1.599251835403788791e+00 4.332487109144834108e+02
1.599351857408629840e+00 4.332642108842971993e+02
1.599451879413470667e+00 4.332796322201997441e+02
1.599551901418311939e+00 4.332949752561473815e+02
1.599651923423152988e+00 4.333102403294105898e+02
1.599751945427994038e+00 4.333254277805534684e+02
1.599851967432835087e+00 4.333405379534082158e+02
1.599951989437676136e+00 4.333555711950551199e+02
1.600052011442517408e+00 4.333705278557981728e+02
1.600152033447358235e+00 4.333854082891435269e+02
1.600252055452199285e+00 4.334002128517758479e+02
1.600352077457040334e+00 4.334149419035345545e+02
1.600452099461881605e+00 4.334295958073921611e+02
1.600552121466722655e+00 4.334441749294297779e+02
1.600652143471563704e+00 4.334586796388157950e+02
1.600752165476404754e+00 4.334731103077796206e+02
1.600852187481245581e+00 4.334874673115901942e+02
1.600952209486086630e+00 4.335017510285319986e+02
1.601052231490927902e+00 4.335159618398817543e+02
1.601152253495768951e+00 4.335301001298835786e+02
1.601252275500610001e+00 4.335441662857268739e+02
1.601352297505451272e+00 4.335581606975197246e+02
1.601452319510292321e+00 4.335720837582696845e+02
1.601552341515133149e+00 4.335859358638526828e+02
1.601652363519974198e+00 4.335997174129959717e+02
1.601752385524815248e+00 4.336134288072494201e+02
1.601852407529656297e+00 4.336270704509631173e+02
1.601952429534497568e+00 4.336406427512616801e+02
1.602052451539338618e+00 4.336541461180216857e+02
1.602152473544179667e+00 4.336675809638451256e+02
1.602252495549020495e+00 4.336809477040362140e+02
1.602352517553861766e+00 4.336942467565752395e+02
1.602452539558702815e+00 4.337074785420975331e+02
1.602552561563543865e+00 4.337206434838619202e+02
1.602652583568384914e+00 4.337337420077324168e+02
1.602752605573225964e+00 4.337467745421506038e+02
1.602852627578067235e+00 4.337597415181101042e+02
1.602952649582908062e+00 4.337726433691317425e+02
1.603052671587749112e+00 4.337854805312389317e+02
1.603152693592590161e+00 4.337982534429330599e+02
1.603252715597431433e+00 4.338109625451659781e+02
1.603352737602272482e+00 4.338236082813171492e+02
1.603452759607113531e+00 4.338361910971664770e+02
1.603552781611954581e+00 4.338487114408700336e+02
1.603652803616795408e+00 4.338611697629330024e+02
1.603752825621636457e+00 4.338735665161865995e+02
1.603852847626477729e+00 4.338859021557587425e+02
1.603952869631318778e+00 4.338981771390534732e+02
1.604052891636159828e+00 4.339103919257192956e+02
1.604152913641001099e+00 4.339225469776278601e+02
1.604252935645842149e+00 4.339346427588462802e+02
1.604352957650682976e+00 4.339466797356110419e+02
1.604452979655524025e+00 4.339586583763033900e+02
1.604553001660365075e+00 4.339705791514222710e+02
1.604653023665206124e+00 4.339824425335568208e+02
1.604753045670047396e+00 4.339942489973635702e+02
1.604853067674888445e+00 4.340059990195379669e+02
1.604953089679729494e+00 4.340176930787890228e+02
1.605053111684570322e+00 4.340293316558118590e+02
1.605153133689411593e+00 4.340409152332632061e+02
1.605253155694252643e+00 4.340524442957342899e+02
1.605353177699093692e+00 4.340639193297234897e+02
1.605453199703934741e+00 4.340753408236117252e+02
1.605553221708775791e+00 4.340867092676346601e+02
1.605653243713617062e+00 4.340980251538563834e+02
1.605753265718457889e+00 4.341092889761439437e+02
1.605853287723298939e+00 4.341205012301389843e+02
1.605953309728139988e+00 4.341316624132327320e+02
1.606053331732981260e+00 4.341427730245382008e+02
1.606153353737822309e+00 4.341538335648645557e+02
1.606253375742663358e+00 4.341648445366902820e+02
1.606353397747504408e+00 4.341758064441352758e+02
1.606453419752345235e+00 4.341867197929351505e+02
1.606553441757186285e+00 4.341975850904143499e+02
1.606653463762027556e+00 4.342084028454595455e+02
1.606753485766868605e+00 4.342191735684912146e+02
1.606853507771709655e+00 4.342298977714400507e+02
1.606953529776550926e+00 4.342405759677156993e+02
1.607053551781391976e+00 4.342512086721838500e+02
1.607153573786232803e+00 4.342617964011373033e+02
1.607253595791073852e+00 4.342723396722684583e+02
1.607353617795914902e+00 4.342828390046444156e+02
1.607453639800755951e+00 4.342932949186784413e+02
1.607553661805597223e+00 4.343037079361026258e+02
1.607653683810438272e+00 4.343140785799420200e+02
1.607753705815279321e+00 4.343244073744874072e+02
1.607853727820120149e+00 4.343346948452674496e+02
1.607953749824961420e+00 4.343449415190228819e+02
1.608053771829802470e+00 4.343551479236775776e+02
1.608153793834643519e+00 4.343653145883133107e+02
1.608253815839484568e+00 4.343754420431417884e+02
1.608353837844325618e+00 4.343855308194773670e+02
1.608453859849166889e+00 4.343955814497101642e+02
1.608553881854007717e+00 4.344055944672793430e+02
1.608653903858848766e+00 4.344155704066458838e+02
1.608753925863689815e+00 4.344255098032640490e+02
1.608853947868531087e+00 4.344354131935563714e+02
1.608953969873372136e+00 4.344452811148854607e+02
1.609053991878213186e+00 4.344551141055264907e+02
1.609154013883054235e+00 4.344649127046407671e+02
1.609254035887895062e+00 4.344746774522475903e+02
1.609354057892736112e+00 4.344844088891991873e+02
1.609454079897577383e+00 4.344941075571510964e+02
1.609554101902418433e+00 4.345037739985365874e+02
1.609654123907259482e+00 4.345134087565389791e+02
1.609754145912100753e+00 4.345230123750649796e+02
1.609854167916941803e+00 4.345325853987160372e+02
1.609954189921782630e+00 4.345421283727644095e+02
1.610054211926623680e+00 4.345516418431225247e+02
1.610154233931464729e+00 4.345611263563175726e+02
1.610254255936305778e+00 4.345705824594651858e+02
1.610354277941147050e+00 4.345800107002406776e+02
1.610454299945988099e+00 4.345894116268531207e+02
1.610554321950829149e+00 4.345987857880181195e+02
1.610654343955669976e+00 4.346081337329305256e+02
1.610754365960511247e+00 4.346174560112377208e+02
1.610854387965352297e+00 4.346267531730123892e+02
1.610954409970193346e+00 4.346360257687254602e+02
1.611054431975034396e+00 4.346452743492201307e+02
1.611154453979875445e+00 4.346544994656831022e+02
1.611254475984716716e+00 4.346637016696202522e+02
1.611354497989557544e+00 4.346728815128263932e+02
1.611454519994398593e+00 4.346820395473619669e+02
1.611554541999239643e+00 4.346911763255237702e+02
1.611654564004080914e+00 4.347002923998189772e+02
1.611754586008921963e+00 4.347093883229378548e+02
1.611854608013763013e+00 4.347184646477295473e+02
1.611954630018604062e+00 4.347275219271702440e+02
1.612054652023444890e+00 4.347365607143416355e+02
1.612154674028285939e+00 4.347455815624023785e+02
1.612254696033127210e+00 4.347545850245589349e+02
1.612354718037968260e+00 4.347635716540439716e+02
1.612454740042809309e+00 4.347725420040858921e+02
1.612554762047650581e+00 4.347814966278835414e+02
1.612654784052491408e+00 4.347904360785804556e+02
1.612754806057332457e+00 4.347993609092364409e+02
1.612854828062173507e+00 4.348082716728038690e+02
1.612954850067014556e+00 4.348171689220992562e+02
1.613054872071855605e+00 4.348260532097772284e+02
1.613154894076696877e+00 4.348349250883049422e+02
1.613254916081537926e+00 4.348437851099359932e+02
1.613354938086378754e+00 4.348526338266824496e+02
1.613454960091219803e+00 4.348614717902913753e+02
1.613554982096061075e+00 4.348702995522161245e+02
1.613655004100902124e+00 4.348791176635920124e+02
1.613755026105743173e+00 4.348879266752102808e+02
1.613855048110584223e+00 4.348967271374907000e+02
1.613955070115425272e+00 4.349055196004567847e+02
1.614055092120266099e+00 4.349143046137099873e+02
1.614155114125107371e+00 4.349230827264034929e+02
1.614255136129948420e+00 4.349318544872164694e+02
1.614355158134789470e+00 4.349406204443289425e+02
1.614455180139630741e+00 4.349493811453945682e+02
1.614555202144471791e+00 4.349581371375179515e+02
1.614655224149312840e+00 4.349668889672252590e+02
1.614755246154153667e+00 4.349756371804422201e+02
1.614855268158994717e+00 4.349843823224667858e+02
1.614955290163835766e+00 4.349931249379441169e+02
1.615055312168677037e+00 4.350018655708419715e+02
1.615155334173518087e+00 4.350106047644239879e+02
1.615255356178359136e+00 4.350193430612263228e+02
1.615355378183200408e+00 4.350280810030311045e+02
1.615455400188041235e+00 4.350368191308422183e+02
1.615555422192882284e+00 4.350455579848592151e+02
1.615655444197723334e+00 4.350542981044549151e+02
1.615755466202564383e+00 4.350630400281468724e+02
1.615855488207405433e+00 4.350717842935759450e+02
1.615955510212246704e+00 4.350805314374794079e+02
1.616055532217087753e+00 4.350892819956675908e+02
1.616155554221928581e+00 4.350980365029986388e+02
1.616255576226769630e+00 4.351067954933533315e+02
1.616355598231610902e+00 4.351155594996130276e+02
1.616455620236451951e+00 4.351243290536326072e+02
1.616555642241293000e+00 4.351331046862179051e+02
1.616655664246134050e+00 4.351418869271006997e+02
1.616755686250975099e+00 4.351506763049147821e+02
1.616855708255815927e+00 4.351594733471724226e+02
1.616955730260657198e+00 4.351682785802390185e+02
1.617055752265498247e+00 4.351770925293110395e+02
1.617155774270339297e+00 4.351859157183904472e+02
1.617255796275180568e+00 4.351947486702623564e+02
1.617355818280021618e+00 4.352035919064705922e+02
1.617455840284862667e+00 4.352124459472944409e+02
1.617555862289703494e+00 4.352213113117250032e+02
1.617655884294544544e+00 4.352301885174416043e+02
1.617755906299385593e+00 4.352390780807887722e+02
1.617855928304226865e+00 4.352479805167529321e+02
1.617955950309067914e+00 4.352568963389397823e+02
1.618055972313908963e+00 4.352658260595499655e+02
1.618155994318750235e+00 4.352747701893573549e+02
1.618256016323591062e+00 4.352837292376848950e+02
1.618356038328432112e+00 4.352927037123833998e+02
1.618456060333273161e+00 4.353016941198079621e+02
1.618556082338114210e+00 4.353107009647948757e+02
1.618656104342955260e+00 4.353197247506396366e+02
1.618756126347796531e+00 4.353287659790750581e+02
1.618856148352637581e+00 4.353378251502483636e+02
1.618956170357478408e+00 4.353469027626985621e+02
1.619056192362319457e+00 4.353559993133348485e+02
1.619156214367160729e+00 4.353651152974149454e+02
1.619256236372001778e+00 4.353742512085216276e+02
1.619356258376842828e+00 4.353834075385422011e+02
1.619456280381683877e+00 4.353925847776480964e+02
1.619556302386524926e+00 4.354017834142699144e+02
1.619656324391365754e+00 4.354110039350771899e+02
1.619756346396207025e+00 4.354202468249591789e+02
1.619856368401048075e+00 4.354295125669991080e+02
1.619956390405889124e+00 4.354388016424582588e+02
1.620056412410730395e+00 4.354481145307502175e+02
1.620156434415571445e+00 4.354574517094221164e+02
1.620256456420412494e+00 4.354668136541332615e+02
1.620356478425253322e+00 4.354762008386344974e+02
1.620456500430094371e+00 4.354856137347470622e+02
1.620556522434935420e+00 4.354950528123422373e+02
1.620656544439776692e+00 4.355045185393213956e+02
1.620756566444617741e+00 4.355140113815938321e+02
1.620856588449458791e+00 4.355235318030591998e+02
1.620956610454300062e+00 4.355330802655848288e+02
1.621056632459140889e+00 4.355426572289869682e+02
1.621156654463981939e+00 4.355522631510103224e+02
1.621256676468822988e+00 4.355618984873092927e+02
1.621356698473664038e+00 4.355715636914262632e+02
1.621456720478505087e+00 4.355812592147738656e+02
1.621556742483346358e+00 4.355909855066142882e+02
1.621656764488187408e+00 4.356007430140417682e+02
1.621756786493028235e+00 4.356105321819597975e+02
1.621856808497869284e+00 4.356203534530649222e+02
1.621956830502710556e+00 4.356302072678277568e+02
1.622056852507551605e+00 4.356400940644730326e+02
1.622156874512392655e+00 4.356500142789593610e+02
1.622256896517233704e+00 4.356599683449653071e+02
1.622356918522074753e+00 4.356699566938638668e+02
1.622456940526915581e+00 4.356799797547109847e+02
1.622556962531756852e+00 4.356900379542229302e+02
1.622656984536597902e+00 4.357001317167595289e+02
1.622757006541438951e+00 4.357102614643055745e+02
1.622857028546280223e+00 4.357204276164540033e+02
1.622957050551121272e+00 4.357306305903865677e+02
1.623057072555962321e+00 4.357408708008571239e+02
1.623157094560803149e+00 4.357511486601738397e+02
1.623257116565644198e+00 4.357614645781816876e+02
1.623357138570485247e+00 4.357718189622449358e+02
1.623457160575326519e+00 4.357822122172307786e+02
1.623557182580167568e+00 4.357926447454909749e+02
1.623657204585008618e+00 4.358031169468459325e+02
1.623757226589849889e+00 4.358136292185678258e+02
1.623857248594690716e+00 4.358241819553632581e+02
1.623957270599531766e+00 4.358347755493572322e+02
1.624057292604372815e+00 4.358454103900767223e+02
1.624157314609213865e+00 4.358560868644344168e+02
1.624257336614054914e+00 4.358668053567121206e+02
1.624357358618896185e+00 4.358775662485449516e+02
1.624457380623737235e+00 4.358883699189061076e+02
1.624557402628578062e+00 4.358992167440900971e+02
1.624657424633419112e+00 4.359101070976976757e+02
1.624757446638260383e+00 4.359210413506202144e+02
1.624857468643101432e+00 4.359320198710245222e+02
1.624957490647942482e+00 4.359430430243365890e+02
1.625057512652783531e+00 4.359541111732286822e+02
1.625157534657624581e+00 4.359652246776029187e+02
1.625257556662465408e+00 4.359763838945755765e+02
1.625357578667306679e+00 4.359875891784636792e+02
1.625457600672147729e+00 4.359988408807719225e+02
1.625557622676988778e+00 4.360101393501741995e+02
1.625657644681830050e+00 4.360214849325026876e+02
1.625757666686671099e+00 4.360328779707335229e+02
1.625857688691512148e+00 4.360443188049713967e+02
1.625957710696352976e+00 4.360558077724359691e+02
1.626057732701194025e+00 4.360673452074481702e+02
1.626157754706035075e+00 4.360789314414193996e+02
1.626257776710876346e+00 4.360905668028331661e+02
1.626357798715717395e+00 4.361022516172348560e+02
1.626457820720558445e+00 4.361139862072192273e+02
1.626557842725399716e+00 4.361257708924145504e+02
1.626657864730240544e+00 4.361376059894736272e+02
1.626757886735081593e+00 4.361494918120573629e+02
1.626857908739922642e+00 4.361614286708237387e+02
1.626957930744763692e+00 4.361734168734157038e+02
1.627057952749604741e+00 4.361854567244488408e+02
1.627157974754446013e+00 4.361975485254991440e+02
1.627257996759287062e+00 4.362096925750897185e+02
1.627358018764127889e+00 4.362218891686813436e+02
1.627458040768968939e+00 4.362341385986589444e+02
1.627558062773810210e+00 4.362464411543205642e+02
1.627658084778651260e+00 4.362587971218661096e+02
1.627758106783492309e+00 4.362712067843856971e+02
1.627858128788333358e+00 4.362836704218492514e+02
1.627958150793174408e+00 4.362961883110945109e+02
1.628058172798015235e+00 4.363087607258170237e+02
1.628158194802856507e+00 4.363213879365598586e+02
1.628258216807697556e+00 4.363340702107012703e+02
1.628358238812538605e+00 4.363468078124467411e+02
1.628458260817379877e+00 4.363596010028159071e+02
1.628558282822220926e+00 4.363724500396360781e+02
1.628658304827061976e+00 4.363853551775285382e+02
1.628758326831902803e+00 4.363983166679016676e+02
1.628858348836743852e+00 4.364113347589401428e+02
1.628958370841584902e+00 4.364244096955947043e+02
1.629058392846426173e+00 4.364375417195743694e+02
1.629158414851267223e+00 4.364507310693365412e+02
1.629258436856108272e+00 4.364639779800772885e+02
1.629358458860949543e+00 4.364772826837237858e+02
1.629458480865790371e+00 4.364906454089248200e+02
1.629558502870631420e+00 4.365040663810426622e+02
1.629658524875472470e+00 4.365175458221432905e+02
1.629758546880313519e+00 4.365310839509905918e+02
1.629858568885154568e+00 4.365446809830352208e+02
1.629958590889995840e+00 4.365583371304099956e+02
1.630058612894836667e+00 4.365720526019191539e+02
1.630158634899677716e+00 4.365858276030322145e+02
1.630258656904518766e+00 4.365996623358764168e+02
1.630358678909360037e+00 4.366135569992283081e+02
1.630458700914201087e+00 4.366275117885082295e+02
1.630558722919042136e+00 4.366415268957726994e+02
1.630658744923883186e+00 4.366556025097049769e+02
1.630758766928724013e+00 4.366697388156137549e+02
1.630858788933565062e+00 4.366839359954209385e+02
1.630958810938406334e+00 4.366981942276587461e+02
1.631058832943247383e+00 4.367125136874622058e+02
1.631158854948088432e+00 4.367268945465633578e+02
1.631258876952929704e+00 4.367413369732841488e+02
1.631358898957770753e+00 4.367558411325333623e+02
1.631458920962611581e+00 4.367704071857975805e+02
1.631558942967452630e+00 4.367850352911383425e+02
1.631658964972293679e+00 4.367997256031852089e+02
1.631758986977134729e+00 4.368144782731318969e+02
1.631859008981976000e+00 4.368292934487294588e+02
1.631959030986817050e+00 4.368441712742834966e+02
1.632059052991658099e+00 4.368591118906476822e+02
1.632159074996498926e+00 4.368741154352197213e+02
1.632259097001340198e+00 4.368891820419385112e+02
1.632359119006181247e+00 4.369043118412769218e+02
1.632459141011022297e+00 4.369195049602398626e+02
1.632559163015863346e+00 4.369347615223603043e+02
1.632659185020704395e+00 4.369500816476943328e+02
1.632759207025545667e+00 4.369654654528185347e+02
1.632859229030386494e+00 4.369809130508256771e+02
1.632959251035227544e+00 4.369964245513220931e+02
1.633059273040068593e+00 4.370120000604244410e+02
1.633159295044909864e+00 4.370276396807563515e+02
1.633259317049750914e+00 4.370433435114458121e+02
1.633359339054591963e+00 4.370591116481223253e+02
1.633459361059433013e+00 4.370749441829148054e+02
1.633559383064273840e+00 4.370908412044483953e+02
1.633659405069114889e+00 4.371068027978428177e+02
1.633759427073956161e+00 4.371228290447103291e+02
1.633859449078797210e+00 4.371389200231540144e+02
1.633959471083638260e+00 4.371550758077646037e+02
1.634059493088479531e+00 4.371712964696208701e+02
1.634159515093320580e+00 4.371875820762868443e+02
1.634259537098161408e+00 4.372039326918114170e+02
1.634359559103002457e+00 4.372203483767259513e+02
1.634459581107843507e+00 4.372368291880447941e+02
1.634559603112684556e+00 4.372533751792633439e+02
1.634659625117525827e+00 4.372699864003578227e+02
1.634759647122366877e+00 4.372866628977839127e+02
1.634859669127207926e+00 4.373034047144788588e+02
1.634959691132048754e+00 4.373202118898580011e+02
1.635059713136890025e+00 4.373370844598173335e+02
1.635159735141731074e+00 4.373540224567319115e+02
1.635259757146572124e+00 4.373710259094564776e+02
1.635359779151413173e+00 4.373880948433272238e+02
1.635459801156254223e+00 4.374052292801607109e+02
1.635559823161095494e+00 4.374224292382550630e+02
1.635659845165936321e+00 4.374396947323906488e+02
1.635759867170777371e+00 4.374570257738321288e+02
1.635859889175618420e+00 4.374744223703285115e+02
1.635959911180459692e+00 4.374918845261149158e+02
1.636059933185300741e+00 4.375094122419142195e+02
1.636159955190141790e+00 4.375270055149382529e+02
1.636259977194982840e+00 4.375446643388893335e+02
1.636359999199823667e+00 4.375623887039636202e+02
1.636460021204664717e+00 4.375801785968523063e+02
1.636560043209505988e+00 4.375980340007430414e+02
1.636660065214347037e+00 4.376159548953237390e+02
1.636760087219188087e+00 4.376339412567847376e+02
1.636860109224029358e+00 4.376519930578209596e+02
1.636960131228870408e+00 4.376701102676348683e+02
1.637060153233711235e+00 4.376882928519401617e+02
1.637160175238552284e+00 4.377065407729652975e+02
1.637260197243393334e+00 4.377248539894537203e+02
1.637360219248234383e+00 4.377432324566722741e+02
1.637460241253075655e+00 4.377616761264103502e+02
1.637560263257916704e+00 4.377801849469859121e+02
1.637660285262757753e+00 4.377987588632491907e+02
1.637760307267598581e+00 4.378173978165867766e+02
1.637860329272439852e+00 4.378361017449242922e+02
1.637960351277280902e+00 4.378548705827332128e+02
1.638060373282121951e+00 4.378737042610342201e+02
1.638160395286963000e+00 4.378926027074004423e+02
1.638260417291804050e+00 4.379115658459653559e+02
1.638360439296645321e+00 4.379305935974242630e+02
1.638460461301486148e+00 4.379496858790427609e+02
1.638560483306327198e+00 4.379688426046586187e+02
1.638660505311168247e+00 4.379880636846905304e+02
1.638760527316009519e+00 4.380073490261412417e+02
1.638860549320850568e+00 4.380266985326034046e+02
1.638960571325691618e+00 4.380461121042670811e+02
1.639060593330532667e+00 4.380655896379238357e+02
1.639160615335373494e+00 4.380851310269736700e+02
1.639260637340214544e+00 4.381047361614319584e+02
1.639360659345055815e+00 4.381244049279341652e+02
1.639460681349896864e+00 4.381441372097440308e+02
1.639560703354737914e+00 4.381639328867590280e+02
1.639660725359579185e+00 4.381837918355190027e+02
1.639760747364420235e+00 4.382037139292100960e+02
1.639860769369261062e+00 4.382236990376748054e+02
1.639960791374102111e+00 4.382437470274178963e+02
1.640060813378943161e+00 4.382638577616140196e+02
1.640160835383784210e+00 4.382840311001155555e+02
1.640260857388625482e+00 4.383042668994593782e+02
1.640360879393466531e+00 4.383245650128759507e+02
1.640460901398307580e+00 4.383449252902956914e+02
1.640560923403148408e+00 4.383653475783589215e+02
1.640660945407989679e+00 4.383858317204230843e+02
1.640760967412830729e+00 4.384063775565713286e+02
1.640860989417671778e+00 4.384269849236194432e+02
1.640961011422512827e+00 4.384476536551283630e+02
1.641061033427353877e+00 4.384683835814089434e+02
1.641161055432195148e+00 4.384891745295332157e+02
1.641261077437035976e+00 4.385100263233427427e+02
1.641361099441877025e+00 4.385309387834571453e+02
1.641461121446718074e+00 4.385519117272853009e+02
1.641561143451559346e+00 4.385729449690325623e+02
1.641661165456400395e+00 4.385940383197125811e+02
1.641761187461241445e+00 4.386151915871545270e+02
1.641861209466082494e+00 4.386364045760155932e+02
1.641961231470923321e+00 4.386576770877890112e+02
1.642061253475764371e+00 4.386790089208148515e+02
1.642161275480605642e+00 4.387003998702912213e+02
1.642261297485446692e+00 4.387218497282825638e+02
1.642361319490287741e+00 4.387433582837321069e+02
1.642461341495129012e+00 4.387649253224722088e+02
1.642561363499970062e+00 4.387865506272336233e+02
1.642661385504810889e+00 4.388082339776586878e+02
1.642761407509651939e+00 4.388299751503096218e+02
1.642861429514492988e+00 4.388517739186844437e+02
1.642961451519334037e+00 4.388736300532211203e+02
1.643061473524175309e+00 4.388955433213158130e+02
1.643161495529016358e+00 4.389175134873298703e+02
1.643261517533857408e+00 4.389395403126052315e+02
1.643361539538698235e+00 4.389616235554717605e+02
1.643461561543539506e+00 4.389837629712636158e+02
1.643561583548380556e+00 4.390059583123281755e+02
1.643661605553221605e+00 4.390282093280401909e+02
1.643761627558062655e+00 4.390505157648122463e+02
1.643861649562903704e+00 4.390728773661089690e+02
1.643961671567744975e+00 4.390952938724580008e+02
1.644061693572585803e+00 4.391177650214646064e+02
1.644161715577426852e+00 4.391402905478216780e+02
1.644261737582267902e+00 4.391628701833253672e+02
1.644361759587109173e+00 4.391855036568866240e+02
1.644461781591950222e+00 4.392081906945441006e+02
1.644561803596791272e+00 4.392309310194787599e+02
1.644661825601632321e+00 4.392537243520259267e+02
1.644761847606473149e+00 4.392765704096896684e+02
1.644861869611314198e+00 4.392994689071547327e+02
1.644961891616155469e+00 4.393224195563031458e+02
1.645061913620996519e+00 4.393454220662252396e+02
1.645161935625837568e+00 4.393684761432357959e+02
1.645261957630678840e+00 4.393915814908859829e+02
1.645361979635519889e+00 4.394147378099789876e+02
1.645462001640360716e+00 4.394379447985843399e+02
1.645562023645201766e+00 4.394612021520514418e+02
1.645662045650042815e+00 4.394845095630237211e+02
1.645762067654883865e+00 4.395078667214559118e+02
1.645862089659725136e+00 4.395312733146250821e+02
1.645962111664566185e+00 4.395547290271477436e+02
1.646062133669407235e+00 4.395782335409951997e+02
1.646162155674248062e+00 4.396017865355061076e+02
1.646262177679089334e+00 4.396253876874047251e+02
1.646362199683930383e+00 4.396490366708127908e+02
1.646462221688771432e+00 4.396727331572690218e+02
1.646562243693612482e+00 4.396964768157401977e+02
1.646662265698453531e+00 4.397202673126399191e+02
1.646762287703294803e+00 4.397441043118429889e+02
1.646862309708135630e+00 4.397679874747005897e+02
1.646962331712976679e+00 4.397919164600575073e+02
1.647062353717817729e+00 4.398158909242678760e+02
1.647162375722659000e+00 4.398399105212100721e+02
1.647262397727500050e+00 4.398639749023041077e+02
1.647362419732341099e+00 4.398880837165272055e+02
1.647462441737182148e+00 4.399122366104299999e+02
1.647562463742022976e+00 4.399364332281547263e+02
1.647662485746864025e+00 4.399606732114493752e+02
1.647762507751705296e+00 4.399849561996854845e+02
1.647862529756546346e+00 4.400092818298750217e+02
1.647962551761387395e+00 4.400336497366868684e+02
1.648062573766228667e+00 4.400580595524638170e+02
1.648162595771069494e+00 4.400825109072404189e+02
1.648262617775910543e+00 4.401070034287580484e+02
1.648362639780751593e+00 4.401315367424843998e+02
1.648462661785592642e+00 4.401561104716295176e+02
1.648562683790433692e+00 4.401807242371633038e+02
1.648662705795274963e+00 4.402053776578333100e+02
1.648762727800116012e+00 4.402300703501816770e+02
1.648862749804956840e+00 4.402548019285642908e+02
1.648962771809797889e+00 4.402795720051659600e+02
1.649062793814639161e+00 4.403043801900211065e+02
1.649162815819480210e+00 4.403292260910292271e+02
1.649262837824321259e+00 4.403541093139740497e+02
1.649362859829162309e+00 4.403790294625418937e+02
1.649462881834003358e+00 4.404039861383392349e+02
1.649562903838844186e+00 4.404289789409111222e+02
1.649662925843685457e+00 4.404540074677591406e+02
1.649762947848526506e+00 4.404790713143602829e+02
1.649862969853367556e+00 4.405041700741855948e+02
1.649962991858208827e+00 4.405293033387174546e+02
1.650063013863049877e+00 4.405544706974696965e+02
1.650163035867890926e+00 4.405796717380059135e+02
1.650263057872731753e+00 4.406049060459577618e+02
1.650363079877572803e+00 4.406301732050435476e+02
1.650463101882413852e+00 4.406554727970882368e+02
1.650563123887255124e+00 4.406808044020422130e+02
1.650663145892096173e+00 4.407061675979987285e+02
1.650763167896937222e+00 4.407315619612154478e+02
1.650863189901778494e+00 4.407569870661317850e+02
1.650963211906619321e+00 4.407824424853895948e+02
1.651063233911460371e+00 4.408079277898510782e+02
1.651163255916301420e+00 4.408334425486191890e+02
1.651263277921142469e+00 4.408589863290566200e+02
1.651363299925983519e+00 4.408845586968063799e+02
1.651463321930824790e+00 4.409101592158091307e+02
1.651563343935665840e+00 4.409357874483255273e+02
1.651663365940506667e+00 4.409614429549542365e+02
1.651763387945347716e+00 4.409871252946521736e+02
1.651863409950188988e+00 4.410128340247542837e+02
1.651963431955030037e+00 4.410385687009941194e+02
1.652063453959871087e+00 4.410643288775227120e+02
1.652163475964712136e+00 4.410901141069290361e+02
1.652263497969553185e+00 4.411159239402605294e+02
1.652363519974394013e+00 4.411417579270431588e+02
1.652463541979235284e+00 4.411676156153006332e+02
1.652563563984076334e+00 4.411934965515757767e+02
1.652663585988917383e+00 4.412194002809512199e+02
1.652763607993758654e+00 4.412453263470680440e+02
1.652863629998599704e+00 4.412712742921472682e+02
1.652963652003440753e+00 4.412972436570110517e+02
1.653063674008281581e+00 4.413232339811012253e+02
1.653163696013122630e+00 4.413492448025019712e+02
1.653263718017963679e+00 4.413752756579591505e+02
1.653363740022804951e+00 4.414013260829019032e+02
1.653463762027646000e+00 4.414273956114611224e+02
1.653563784032487050e+00 4.414534837764940107e+02
1.653663806037328321e+00 4.414795901096013608e+02
1.653763828042169148e+00 4.415057141411503494e+02
1.653863850047010198e+00 4.415318554002951714e+02
1.653963872051851247e+00 4.415580134149968217e+02
1.654063894056692297e+00 4.415841877120457184e+02
1.654163916061533346e+00 4.416103778170809164e+02
1.654263938066374617e+00 4.416365832546147203e+02
1.654363960071215667e+00 4.416628035480481458e+02
1.654463982076056494e+00 4.416890382196971814e+02
1.654564004080897544e+00 4.417152867908112626e+02
1.654664026085738815e+00 4.417415487815952702e+02
1.654764048090579864e+00 4.417678237112309034e+02
1.654864070095420914e+00 4.417941110978974848e+02
1.654964092100261963e+00 4.418204104587940719e+02
1.655064114105103013e+00 4.418467213101596371e+02
1.655164136109943840e+00 4.418730431672948384e+02
1.655264158114785111e+00 4.418993755445847000e+02
1.655364180119626161e+00 4.419257179555185076e+02
1.655464202124467210e+00 4.419520699127115222e+02
1.655564224129308482e+00 4.419784309279274339e+02
1.655664246134149531e+00 4.420048005120987682e+02
1.655764268138990580e+00 4.420311781753482592e+02
1.655864290143831408e+00 4.420575634270128944e+02
1.655964312148672457e+00 4.420839557756611953e+02
1.656064334153513506e+00 4.421103547291193081e+02
1.656164356158354778e+00 4.421367597944894783e+02
1.656264378163195827e+00 4.421631704781735266e+02
1.656364400168036877e+00 4.421895862858940518e+02
1.656464422172878148e+00 4.422160067227144964e+02
1.656564444177718975e+00 4.422424312930647261e+02
1.656664466182560025e+00 4.422688595007585377e+02
1.656764488187401074e+00 4.422952908490175332e+02
1.656864510192242124e+00 4.423217248404935162e+02
1.656964532197083173e+00 4.423481609772885577e+02
1.657064554201924444e+00 4.423745987609785857e+02
1.657164576206765494e+00 4.424010376926326558e+02
1.657264598211606321e+00 4.424274772728383027e+02
1.657364620216447371e+00 4.424539170017200718e+02
1.657464642221288642e+00 4.424803563789636769e+02
1.657564664226129691e+00 4.425067949038364645e+02
1.657664686230970741e+00 4.425332320752095825e+02
1.657764708235811790e+00 4.425596673915811721e+02
1.657864730240652840e+00 4.425861003510951832e+02
1.657964752245493667e+00 4.426125304515671814e+02
1.658064774250334938e+00 4.426389571905042430e+02
1.658164796255175988e+00 4.426653800651249071e+02
1.658264818260017037e+00 4.426917985723849256e+02
1.658364840264858309e+00 4.427182122089965901e+02
1.658464862269699358e+00 4.427446204714521514e+02
1.658564884274540407e+00 4.427710228560432597e+02
1.658664906279381235e+00 4.427974188588868287e+02
1.658764928284222284e+00 4.428238079759420316e+02
1.658864950289063334e+00 4.428501897030374721e+02
1.658964972293904605e+00 4.428765635358882378e+02
1.659064994298745654e+00 4.429029289701220478e+02
1.659165016303586704e+00 4.429292855012971586e+02
1.659265038308427975e+00 4.429556326249274321e+02
1.659365060313268803e+00 4.429819698365022305e+02
1.659465082318109852e+00 4.430082966315097792e+02
1.659565104322950901e+00 4.430346125054575168e+02
1.659665126327791951e+00 4.430609169538952301e+02
1.659765148332633000e+00 4.430872094724359158e+02
1.659865170337474272e+00 4.431134895567788021e+02
1.659965192342315321e+00 4.431397567027288460e+02
1.660065214347156148e+00 4.431660104062222558e+02
1.660165236351997198e+00 4.431922501633441129e+02
1.660265258356838469e+00 4.432184754703533827e+02
1.660365280361679519e+00 4.432446858237026959e+02
1.660465302366520568e+00 4.432708807200612569e+02
1.660565324371361617e+00 4.432970596563362733e+02
1.660665346376202667e+00 4.433232221296937041e+02
1.660765368381043494e+00 4.433493676375817927e+02
1.660865390385884766e+00 4.433754956777506209e+02
1.660965412390725815e+00 4.434016057482759834e+02
1.661065434395566864e+00 4.434276973475783734e+02
1.661165456400408136e+00 4.434537699744472548e+02
1.661265478405249185e+00 4.434798231280606728e+02
1.661365500410090235e+00 4.435058563080079352e+02
1.661465522414931062e+00 4.435318690143112690e+02
1.661565544419772111e+00 4.435578607474443515e+02
1.661665566424613161e+00 4.435838310083589704e+02
1.661765588429454432e+00 4.436097792985027013e+02
1.661865610434295482e+00 4.436357051198400541e+02
1.661965632439136531e+00 4.436616079748771426e+02
1.662065654443977802e+00 4.436874873666791927e+02
1.662165676448818630e+00 4.437133427988946437e+02
1.662265698453659679e+00 4.437391737757751571e+02
1.662365720458500729e+00 4.437649798021960237e+02
1.662465742463341778e+00 4.437907603836806061e+02
1.662565764468182827e+00 4.438165150264169370e+02
1.662665786473024099e+00 4.438422432372827870e+02
1.662765808477865148e+00 4.438679445238649350e+02
1.662865830482705976e+00 4.438936183944798586e+02
1.662965852487547025e+00 4.439192643581962443e+02
1.663065874492388296e+00 4.439448819248542577e+02
1.663165896497229346e+00 4.439704706050881100e+02
1.663265918502070395e+00 4.439960299103462376e+02
1.663365940506911445e+00 4.440215593529110265e+02
1.663465962511752494e+00 4.440470584459214933e+02
1.663565984516593321e+00 4.440725267033936916e+02
1.663666006521434593e+00 4.440979636402399251e+02
1.663766028526275642e+00 4.441233687722913146e+02
1.663866050531116692e+00 4.441487416163165562e+02
1.663966072535957963e+00 4.441740816900452273e+02
1.664066094540799012e+00 4.441993885121847256e+02
1.664166116545640062e+00 4.442246616024443711e+02
1.664266138550480889e+00 4.442499004815522312e+02
1.664366160555321938e+00 4.442751046712791663e+02
1.664466182560162988e+00 4.443002736944558251e+02
1.664566204565004259e+00 4.443254070749962921e+02
1.664666226569845309e+00 4.443505043379147992e+02
1.664766248574686358e+00 4.443755650093478380e+02
1.664866270579527630e+00 4.444005886165747938e+02
1.664966292584368457e+00 4.444255746880361926e+02
1.665066314589209506e+00 4.444505227533555285e+02
1.665166336594050556e+00 4.444754323433578520e+02
1.665266358598891605e+00 4.445003029900900060e+02
1.665366380603732654e+00 4.445251342268420558e+02
1.665466402608573926e+00 4.445499255881627505e+02
1.665566424613414753e+00 4.445746766098856142e+02
1.665666446618255803e+00 4.445993868291416220e+02
1.665766468623096852e+00 4.446240557843846091e+02
1.665866490627938123e+00 4.446486830154074141e+02
1.665966512632779173e+00 4.446732680633620589e+02
1.666066534637620222e+00 4.446978104707802117e+02
1.666166556642461272e+00 4.447223097815900701e+02
1.666266578647302099e+00 4.447467655411392684e+02
1.666366600652143148e+00 4.447711772962098848e+02
1.666466622656984420e+00 4.447955445950418607e+02
1.666566644661825469e+00 4.448198669873472682e+02
1.666666666666666519e+00 4.448441440243339571e+02
1.666766688671507790e+00 4.448683752587211870e+02
1.666866710676348839e+00 4.448925602447602046e+02
1.666966732681189667e+00 4.449166985382517510e+02
1.667066754686030716e+00 4.449407896965666396e+02
1.667166776690871766e+00 4.449648332786611036e+02
1.667266798695712815e+00 4.449888288450998743e+02
1.667366820700554086e+00 4.450127759580699944e+02
1.667466842705395136e+00 4.450366741814029297e+02
1.667566864710236185e+00 4.450605230805902579e+02
1.667666886715077013e+00 4.450843222228028822e+02
1.667766908719918284e+00 4.451080711769109257e+02
1.667866930724759333e+00 4.451317695134983978e+02
1.667966952729600383e+00 4.451554168048834867e+02
1.668066974734441432e+00 4.451790126251362949e+02
1.668166996739282482e+00 4.452025565500956645e+02
1.668267018744123753e+00 4.452260481573887887e+02
1.668367040748964580e+00 4.452494870264464453e+02
1.668467062753805630e+00 4.452728727385225511e+02
1.668567084758646679e+00 4.452962048767111582e+02
1.668667106763487951e+00 4.453194830259629384e+02
1.668767128768329000e+00 4.453427067731037141e+02
1.668867150773170049e+00 4.453658757068518526e+02
1.668967172778011099e+00 4.453889894178339546e+02
1.669067194782851926e+00 4.454120474986035561e+02
1.669167216787692976e+00 4.454350495436565893e+02
1.669267238792534247e+00 4.454579951494505394e+02
1.669367260797375296e+00 4.454808839144186550e+02
1.669467282802216346e+00 4.455037154389874559e+02
1.669567304807057617e+00 4.455264893255960033e+02
1.669667326811898667e+00 4.455492051787076662e+02
1.669767348816739494e+00 4.455718626048309829e+02
1.669867370821580543e+00 4.455944612125333606e+02
1.669967392826421593e+00 4.456170006124581278e+02
1.670067414831262642e+00 4.456394804173407920e+02
1.670167436836103914e+00 4.456619002420255811e+02
1.670267458840944963e+00 4.456842597034805067e+02
1.670367480845786012e+00 4.457065584208137352e+02
1.670467502850626840e+00 4.457287960152889355e+02
1.670567524855468111e+00 4.457509721103429001e+02
1.670667546860309161e+00 4.457730863315978809e+02
1.670767568865150210e+00 4.457951383068790392e+02
1.670867590869991259e+00 4.458171276662314995e+02
1.670967612874832309e+00 4.458390540419309218e+02
1.671067634879673580e+00 4.458609170685042500e+02
1.671167656884514408e+00 4.458827163827401137e+02
1.671267678889355457e+00 4.459044516237079279e+02
1.671367700894196506e+00 4.459261224327684090e+02
1.671467722899037778e+00 4.459477284535927311e+02
1.671567744903878827e+00 4.459692693321744628e+02
1.671667766908719877e+00 4.459907447168446311e+02
1.671767788913560926e+00 4.460121542582867278e+02
1.671867810918401753e+00 4.460334976095512616e+02
1.671967832923242803e+00 4.460547744260688887e+02
1.672067854928084074e+00 4.460759843656662724e+02
1.672167876932925124e+00 4.460971270885781337e+02
1.672267898937766173e+00 4.461182022574633947e+02
1.672367920942607444e+00 4.461392095374177416e+02
1.672467942947448494e+00 4.461601485959866977e+02
1.672567964952289321e+00 4.461810191031814838e+02
1.672667986957130370e+00 4.462018207314901019e+02
1.672768008961971420e+00 4.462225531558925127e+02
1.672868030966812469e+00 4.462432160538735388e+02
1.672968052971653741e+00 4.462638091054354277e+02
1.673068074976494790e+00 4.462843319931116071e+02
1.673168096981335840e+00 4.463047844019787931e+02
1.673268118986176667e+00 4.463251660196719399e+02
1.673368140991017938e+00 4.463454765363940169e+02
1.673468162995858988e+00 4.463657156449308445e+02
1.673568185000700037e+00 4.463858830406636571e+02
1.673668207005541086e+00 4.464059784215799027e+02
1.673768229010382136e+00 4.464260014882873406e+02
1.673868251015223407e+00 4.464459519440241593e+02
1.673968273020064235e+00 4.464658294946739829e+02
1.674068295024905284e+00 4.464856338487745688e+02
1.674168317029746333e+00 4.465053647175321885e+02
1.674268339034587605e+00 4.465250218148322574e+02
1.674368361039428654e+00 4.465446048572508175e+02
1.674468383044269704e+00 4.465641135640664174e+02
1.674568405049110753e+00 4.465835476572719926e+02
1.674668427053951580e+00 4.466029068615842448e+02
1.674768449058792630e+00 4.466221909044571134e+02
1.674868471063633901e+00 4.466413995160912691e+02
1.674968493068474951e+00 4.466605324294451975e+02
1.675068515073316000e+00 4.466795893802481032e+02
1.675168537078157271e+00 4.466985701070056507e+02
1.675268559082998321e+00 4.467174743510159942e+02
1.675368581087839148e+00 4.467363018563773949e+02
1.675468603092680198e+00 4.467550523699979408e+02
1.675568625097521247e+00 4.467737256416079390e+02
1.675668647102362296e+00 4.467923214237680440e+02
1.675768669107203568e+00 4.468108394718795466e+02
1.675868691112044617e+00 4.468292795441955150e+02
1.675968713116885667e+00 4.468476414018286960e+02
1.676068735121726494e+00 4.468659248087625997e+02
1.676168757126567765e+00 4.468841295318596849e+02
1.676268779131408815e+00 4.469022553408712497e+02
1.676368801136249864e+00 4.469203020084466971e+02
1.676468823141090914e+00 4.469382693101430846e+02
1.676568845145931963e+00 4.469561570244318318e+02
1.676668867150773234e+00 4.469739649327112261e+02
1.676768889155614062e+00 4.469916928193117087e+02
1.676868911160455111e+00 4.470093404715063912e+02
1.676968933165296161e+00 4.470269076795187857e+02
1.677068955170137432e+00 4.470443942365311614e+02
1.677168977174978481e+00 4.470617999386927863e+02
1.677268999179819531e+00 4.470791245851281701e+02
1.677369021184660580e+00 4.470963679779449649e+02
1.677469043189501408e+00 4.471135299222414119e+02
1.677569065194342457e+00 4.471306102261140154e+02
1.677669087199183728e+00 4.471476087006656712e+02
1.677769109204024778e+00 4.471645251600132838e+02
1.677869131208865827e+00 4.471813594212932799e+02
1.677969153213707099e+00 4.471981113046704195e+02
1.678069175218548148e+00 4.472147806333458675e+02
1.678169197223388975e+00 4.472313672335602064e+02
1.678269219228230025e+00 4.472478709346042365e+02
1.678369241233071074e+00 4.472642915688230687e+02
1.678469263237912124e+00 4.472806289716252195e+02
1.678569285242753395e+00 4.472968829814851688e+02
1.678669307247594444e+00 4.473130534399537623e+02
1.678769329252435494e+00 4.473291401916612244e+02
1.678869351257276321e+00 4.473451430843238654e+02
1.678969373262117593e+00 4.473610619687524377e+02
1.679069395266958642e+00 4.473768966988533862e+02
1.679169417271799691e+00 4.473926471316382845e+02
1.679269439276640741e+00 4.474083131272271885e+02
1.679369461281481790e+00 4.474238945488552304e+02
1.679469483286323062e+00 4.474393912628769385e+02
1.679569505291163889e+00 4.474548031387707852e+02
1.679669527296004938e+00 4.474701300491472580e+02
1.679769549300845988e+00 4.474853718697482350e+02
1.679869571305687259e+00 4.475005284794568752e+02
1.679969593310528309e+00 4.475155997602994944e+02
1.680069615315369358e+00 4.475305855974506812e+02
1.680169637320210407e+00 4.475454858792362529e+02
1.680269659325051235e+00 4.475603004971404744e+02
1.680369681329892284e+00 4.475750293458063993e+02
1.680469703334733556e+00 4.475896723230418957e+02
1.680569725339574605e+00 4.476042293298236245e+02
1.680669747344415654e+00 4.476187002702993141e+02
1.680769769349256926e+00 4.476330850517917952e+02
1.680869791354097975e+00 4.476473835848028102e+02
1.680969813358938802e+00 4.476615957830152865e+02
1.681069835363779852e+00 4.476757215632975999e+02
1.681169857368620901e+00 4.476897608457053366e+02
1.681269879373461951e+00 4.477037135534842491e+02
1.681369901378303222e+00 4.477175796130743493e+02
1.681469923383144272e+00 4.477313589541105330e+02
1.681569945387985321e+00 4.477450515094259913e+02
1.681669967392826148e+00 4.477586572150539723e+02
1.681769989397667420e+00 4.477721760102303392e+02
1.681870011402508469e+00 4.477856078373959008e+02
1.681970033407349518e+00 4.477989526421974347e+02
1.682070055412190568e+00 4.478122103734897905e+02
1.682170077417031617e+00 4.478253809833371406e+02
1.682270099421872889e+00 4.478384644270149124e+02
1.682370121426713716e+00 4.478514606630114372e+02
1.682470143431554765e+00 4.478643696530282341e+02
1.682570165436395815e+00 4.478771913619814313e+02
1.682670187441237086e+00 4.478899257580030167e+02
1.682770209446078136e+00 4.479025728124404395e+02
1.682870231450919185e+00 4.479151324998593964e+02
1.682970253455760012e+00 4.479276047980422391e+02
1.683070275460601062e+00 4.479399896879893390e+02
1.683170297465442111e+00 4.479522871539197126e+02
1.683270319470283383e+00 4.479644971832696569e+02
1.683370341475124432e+00 4.479766197666951371e+02
1.683470363479965481e+00 4.479886548980677503e+02
1.683570385484806753e+00 4.480006025744795011e+02
1.683670407489647580e+00 4.480124627962385375e+02
1.683770429494488630e+00 4.480242355668693790e+02
1.683870451499329679e+00 4.480359208931131434e+02
1.683970473504170728e+00 4.480475187849264671e+02
1.684070495509011778e+00 4.480590292554795724e+02
1.684170517513853049e+00 4.480704523211565515e+02
1.684270539518694099e+00 4.480817880015529227e+02
1.684370561523534926e+00 4.480930363194751749e+02
1.684470583528375975e+00 4.481041973009383810e+02
1.684570605533217247e+00 4.481152709751661973e+02
1.684670627538058296e+00 4.481262573745865438e+02
1.684770649542899346e+00 4.481371565348320587e+02
1.684870671547740395e+00 4.481479684947371993e+02
1.684970693552581444e+00 4.481586932963352297e+02
1.685070715557422272e+00 4.481693309848585614e+02
1.685170737562263543e+00 4.481798816087319892e+02
1.685270759567104593e+00 4.481903452195749082e+02
1.685370781571945642e+00 4.482007218721954587e+02
1.685470803576786913e+00 4.482110116245878544e+02
1.685570825581627963e+00 4.482212145379320418e+02
1.685670847586469012e+00 4.482313306765869925e+02
1.685770869591309840e+00 4.482413601080904755e+02
1.685870891596150889e+00 4.482513029031536576e+02
1.685970913600991938e+00 4.482611591356593408e+02
1.686070935605833210e+00 4.482709288826569605e+02
1.686170957610674259e+00 4.482806122243589471e+02
1.686270979615515309e+00 4.482902092441380546e+02
1.686371001620356580e+00 4.482997200285228701e+02
1.686471023625197407e+00 4.483091446671919584e+02
1.686571045630038457e+00 4.483184832529728965e+02
1.686671067634879506e+00 4.483277358818346556e+02
1.686771089639720556e+00 4.483369026528851009e+02
1.686871111644561605e+00 4.483459836683654203e+02
1.686971133649402876e+00 4.483549790336456908e+02
1.687071155654243926e+00 4.483638888572204451e+02
1.687171177659084753e+00 4.483727132507027591e+02
1.687271199663925803e+00 4.483814523288190799e+02
1.687371221668767074e+00 4.483901062094050758e+02
1.687471243673608123e+00 4.483986750133989290e+02
1.687571265678449173e+00 4.484071588648365037e+02
1.687671287683290222e+00 4.484155578908456050e+02
1.687771309688131272e+00 4.484238722216398401e+02
1.687871331692972099e+00 4.484321019905137291e+02
1.687971353697813370e+00 4.484402473338346908e+02
1.688071375702654420e+00 4.484483083910391201e+02
1.688171397707495469e+00 4.484562853046242026e+02
1.688271419712336741e+00 4.484641782201428555e+02
1.688371441717177790e+00 4.484719872861967929e+02
1.688471463722018839e+00 4.484797126544284538e+02
1.688571485726859667e+00 4.484873544795182170e+02
1.688671507731700716e+00 4.484949129191715542e+02
1.688771529736541765e+00 4.485023881341174956e+02
1.688871551741383037e+00 4.485097802880977156e+02
1.688971573746224086e+00 4.485170895478610191e+02
1.689071595751065136e+00 4.485243160831568616e+02
1.689171617755906407e+00 4.485314600667246054e+02
1.689271639760747235e+00 4.485385216742888019e+02
1.689371661765588284e+00 4.485455010845503239e+02
1.689471683770429333e+00 4.485523984791786347e+02
1.689571705775270383e+00 4.485592140428039443e+02
1.689671727780111432e+00 4.485659479630082274e+02
1.689771749784952704e+00 4.485726004303178343e+02
1.689871771789793753e+00 4.485791716381950778e+02
1.689971793794634580e+00 4.485856617830296500e+02
1.690071815799475630e+00 4.485920710641290725e+02
1.690171837804316901e+00 4.485983996837113637e+02
1.690271859809157950e+00 4.486046478468969667e+02
1.690371881813999000e+00 4.486108157616951644e+02
1.690471903818840049e+00 4.486169036390014071e+02
1.690571925823681099e+00 4.486229116925837843e+02
1.690671947828521926e+00 4.486288401390741001e+02
1.690771969833363197e+00 4.486346891979613929e+02
1.690871991838204247e+00 4.486404590915776680e+02
1.690972013843045296e+00 4.486461500450930657e+02
1.691072035847886568e+00 4.486517622865027306e+02
1.691172057852727617e+00 4.486572960466178870e+02
1.691272079857568666e+00 4.486627515590566873e+02
1.691372101862409494e+00 4.486681290602334116e+02
1.691472123867250543e+00 4.486734287893469855e+02
1.691572145872091593e+00 4.486786509883745566e+02
1.691672167876932864e+00 4.486837959020553512e+02
1.691772189881773913e+00 4.486888637778853308e+02
1.691872211886614963e+00 4.486938548661034361e+02
1.691972233891456234e+00 4.486987694196821508e+02
1.692072255896297062e+00 4.487036076943158491e+02
1.692172277901138111e+00 4.487083699484112458e+02
1.692272299905979160e+00 4.487130564430730146e+02
1.692372321910820210e+00 4.487176674420975360e+02
1.692472343915661259e+00 4.487222032119564119e+02
1.692572365920502531e+00 4.487266640217887925e+02
1.692672387925343580e+00 4.487310501433883587e+02
1.692772409930184407e+00 4.487353618511913282e+02
1.692872431935025457e+00 4.487395994222670197e+02
1.692972453939866728e+00 4.487437631363011405e+02
1.693072475944707778e+00 4.487478532755892502e+02
1.693172497949548827e+00 4.487518701250218669e+02
1.693272519954389876e+00 4.487558139720726444e+02
1.693372541959230926e+00 4.487596851067860371e+02
1.693472563964071753e+00 4.487634838217655897e+02
1.693572585968913025e+00 4.487672104121612051e+02
1.693672607973754074e+00 4.487708651756556719e+02
1.693772629978595123e+00 4.487744484124539781e+02
1.693872651983436395e+00 4.487779604252673380e+02
1.693972673988277444e+00 4.487814015193058026e+02
1.694072695993118494e+00 4.487847720022583076e+02
1.694172717997959321e+00 4.487880721842844309e+02
1.694272740002800370e+00 4.487913023780011486e+02
1.694372762007641420e+00 4.487944628984660085e+02
1.694472784012482691e+00 4.487975540631683202e+02
1.694572806017323741e+00 4.488005761920127270e+02
1.694672828022164790e+00 4.488035296073066434e+02
1.694772850027006061e+00 4.488064146337458737e+02
1.694872872031846889e+00 4.488092315984022207e+02
1.694972894036687938e+00 4.488119808307087055e+02
1.695072916041528988e+00 4.488146626624458122e+02
1.695172938046370037e+00 4.488172774277280155e+02
1.695272960051211086e+00 4.488198254629878079e+02
1.695372982056052358e+00 4.488223071069653543e+02
1.695473004060893407e+00 4.488247227006888806e+02
1.695573026065734235e+00 4.488270725874656932e+02
1.695673048070575284e+00 4.488293571128645567e+02
1.695773070075416555e+00 4.488315766247008014e+02
1.695873092080257605e+00 4.488337314730242156e+02
1.695973114085098654e+00 4.488358220101016514e+02
1.696073136089939704e+00 4.488378485904050308e+02
1.696173158094780753e+00 4.488398115705928149e+02
1.696273180099621580e+00 4.488417113094984643e+02
1.696373202104462852e+00 4.488435481681136139e+02
1.696473224109303901e+00 4.488453225095734069e+02
1.696573246114144951e+00 4.488470346991413180e+02
1.696673268118986222e+00 4.488486851041932368e+02
1.696773290123827271e+00 4.488502740942029732e+02
1.696873312128668321e+00 4.488518020407266818e+02
1.696973334133509148e+00 4.488532693173851840e+02
1.697073356138350197e+00 4.488546762998538497e+02
1.697173378143191247e+00 4.488560233658392917e+02
1.697273400148032518e+00 4.488573108950698725e+02
1.697373422152873568e+00 4.488585392692764344e+02
1.697473444157714617e+00 4.488597088721783166e+02
1.697573466162555889e+00 4.488608200894653351e+02
1.697673488167396716e+00 4.488618733087838564e+02
1.697773510172237765e+00 4.488628689197188351e+02
1.697873532177078815e+00 4.488638073137785796e+02
1.697973554181919864e+00 4.488646888843780403e+02
1.698073576186760913e+00 4.488655140268234618e+02
1.698173598191602185e+00 4.488662831382933405e+02
1.698273620196443234e+00 4.488669966178248956e+02
1.698373642201284062e+00 4.488676548662962773e+02
1.698473664206125111e+00 4.488682582864090023e+02
1.698573686210966383e+00 4.488688072826723214e+02
1.698673708215807432e+00 4.488693022613861672e+02
1.698773730220648481e+00 4.488697436306247255e+02
1.698873752225489531e+00 4.488701318002180187e+02
1.698973774230330580e+00 4.488704671817367853e+02
1.699073796235171407e+00 4.488707501884744602e+02
1.699173818240012679e+00 4.488709812354289852e+02
1.699273840244853728e+00 4.488711607392889391e+02
1.699373862249694778e+00 4.488712891184117098e+02
1.699473884254536049e+00 4.488713667928097948e+02
1.699573906259377098e+00 4.488713941841322708e+02
1.699673928264218148e+00 4.488713717156473422e+02
1.699773950269058975e+00 4.488712998122239242e+02
1.699873972273900025e+00 4.488711789003154422e+02
1.699973994278741074e+00 4.488710094079421538e+02
1.700074016283582345e+00 4.488707917646723899e+02
1.700174038288423395e+00 4.488705264016059004e+02
1.700274060293264444e+00 4.488702137513545267e+02
1.700374082298105272e+00 4.488698542480271954e+02
1.700474104302946543e+00 4.488694483272088291e+02
1.700574126307787592e+00 4.488689964259451699e+02
1.700674148312628642e+00 4.488684989827216327e+02
1.700774170317469691e+00 4.488679564374489246e+02
1.700874192322310741e+00 4.488673692314412165e+02
1.700974214327152012e+00 4.488667378074024441e+02
1.701074236331992839e+00 4.488660626094022632e+02
1.701174258336833889e+00 4.488653440828636008e+02
1.701274280341674938e+00 4.488645826745409977e+02
1.701374302346516210e+00 4.488637788325026463e+02
1.701474324351357259e+00 4.488629330061128258e+02
1.701574346356198308e+00 4.488620456460121204e+02
1.701674368361039358e+00 4.488611172041011059e+02
1.701774390365880185e+00 4.488601481335197718e+02
1.701874412370721235e+00 4.488591388886299001e+02
1.701974434375562506e+00 4.488580899249967047e+02
1.702074456380403555e+00 4.488570016993680269e+02
1.702174478385244605e+00 4.488558746696591015e+02
1.702274500390085876e+00 4.488547092949319222e+02
1.702374522394926926e+00 4.488535060353749486e+02
1.702474544399767753e+00 4.488522653522875316e+02
1.702574566404608802e+00 4.488509877080590513e+02
1.702674588409449852e+00 4.488496735661496473e+02
1.702774610414290901e+00 4.488483233910723129e+02
1.702874632419132173e+00 4.488469376483744782e+02
1.702974654423973222e+00 4.488455168046165227e+02
1.703074676428814271e+00 4.488440613273563713e+02
1.703174698433655099e+00 4.488425716851270977e+02
1.703274720438496370e+00 4.488410483474185639e+02
1.703374742443337420e+00 4.488394917846602539e+02
1.703474764448178469e+00 4.488379024682001273e+02
1.703574786453019518e+00 4.488362808702861457e+02
1.703674808457860568e+00 4.488346274640466618e+02
1.703774830462701839e+00 4.488329427234709783e+02
1.703874852467542667e+00 4.488312271233914998e+02
1.703974874472383716e+00 4.488294811394633257e+02
1.704074896477224765e+00 4.488277052481436158e+02
1.704174918482066037e+00 4.488258999266756177e+02
1.704274940486907086e+00 4.488240656530655315e+02
1.704374962491748136e+00 4.488222029060661384e+02
1.704474984496589185e+00 4.488203121651550873e+02
1.704575006501430012e+00 4.488183939105181821e+02
1.704675028506271062e+00 4.488164486230258490e+02
1.704775050511112333e+00 4.488144767842176179e+02
1.704875072515953383e+00 4.488124788762806929e+02
1.704975094520794432e+00 4.488104553820299998e+02
1.705075116525635703e+00 4.488084067848902805e+02
1.705175138530476753e+00 4.488063335688754023e+02
1.705275160535317580e+00 4.488042362185685761e+02
1.705375182540158630e+00 4.488021152191030296e+02
1.705475204544999679e+00 4.487999710561435336e+02
1.705575226549840728e+00 4.487978042158653125e+02
1.705675248554682000e+00 4.487956151849341495e+02
1.705775270559523049e+00 4.487934044504884810e+02
1.705875292564364099e+00 4.487911725001182504e+02
1.705975314569204926e+00 4.487889198218459796e+02
1.706075336574046197e+00 4.487866469041064192e+02
1.706175358578887247e+00 4.487843542357279603e+02
1.706275380583728296e+00 4.487820423059117729e+02
1.706375402588569345e+00 4.487797116042127641e+02
1.706475424593410395e+00 4.487773626205200799e+02
1.706575446598251666e+00 4.487749958450359031e+02
1.706675468603092494e+00 4.487726117682584572e+02
1.706775490607933543e+00 4.487702108809595529e+02
1.706875512612774592e+00 4.487677936741664553e+02
1.706975534617615864e+00 4.487653606391416474e+02
1.707075556622456913e+00 4.487629122673635038e+02
1.707175578627297963e+00 4.487604490505059402e+02
1.707275600632139012e+00 4.487579714804189734e+02
1.707375622636979839e+00 4.487554800491091100e+02
1.707475644641820889e+00 4.487529752487200199e+02
1.707575666646662160e+00 4.487504575715116744e+02
1.707675688651503210e+00 4.487479275098417020e+02
1.707775710656344259e+00 4.487453855561454361e+02
1.707875732661185531e+00 4.487428322029154515e+02
1.707975754666026580e+00 4.487402679426838290e+02
1.708075776670867407e+00 4.487376932679994184e+02
1.708175798675708457e+00 4.487351086714112398e+02
1.708275820680549506e+00 4.487325146454468836e+02
1.708375842685390555e+00 4.487299116825939223e+02
1.708475864690231827e+00 4.487273002752793332e+02
1.708575886695072876e+00 4.487246809158501719e+02
1.708675908699913926e+00 4.487220540965548707e+02
1.708775930704754753e+00 4.487194203095216380e+02
1.708875952709596024e+00 4.487167800467412349e+02
1.708975974714437074e+00 4.487141338000457154e+02
1.709075996719278123e+00 4.487114820610895549e+02
1.709176018724119173e+00 4.487088253213296412e+02
1.709276040728960222e+00 4.487061640720061177e+02
1.709376062733801493e+00 4.487034988041231713e+02
1.709476084738642321e+00 4.487008300084280563e+02
1.709576106743483370e+00 4.486981581753941555e+02
1.709676128748324420e+00 4.486954837951992658e+02
1.709776150753165691e+00 4.486928073577066698e+02
1.709876172758006740e+00 4.486901293524463767e+02
1.709976194762847790e+00 4.486874502685956259e+02
1.710076216767688839e+00 4.486847705949584224e+02
1.710176238772529667e+00 4.486820908199484279e+02
1.710276260777370716e+00 4.486794114315671322e+02
1.710376282782211987e+00 4.486767329173857206e+02
1.710476304787053037e+00 4.486740557645263152e+02
1.710576326791894086e+00 4.486713804596415685e+02
1.710676348796735358e+00 4.486687074888965867e+02
1.710776370801576407e+00 4.486660373379492626e+02
1.710876392806417234e+00 4.486633704919299817e+02
1.710976414811258284e+00 4.486607074354258202e+02
1.711076436816099333e+00 4.486580486524574667e+02
1.711176458820940383e+00 4.486553946264620549e+02
1.711276480825781654e+00 4.486527458402749744e+02
1.711376502830622703e+00 4.486501027761092928e+02
1.711476524835463753e+00 4.486474659155373956e+02
1.711576546840304580e+00 4.486448357394731374e+02
1.711676568845145852e+00 4.486422127281504686e+02
1.711776590849986901e+00 4.486395973611067234e+02
1.711876612854827950e+00 4.486369901171639754e+02
1.711976634859669000e+00 4.486343914744086305e+02
1.712076656864510049e+00 4.486318019101730101e+02
1.712176678869351321e+00 4.486292219010188091e+02
1.712276700874192148e+00 4.486266519227153822e+02
1.712376722879033197e+00 4.486240924502231451e+02
1.712476744883874247e+00 4.486215439576746462e+02
1.712576766888715518e+00 4.486190069183555806e+02
1.712676788893556568e+00 4.486164818046864866e+02
1.712776810898397617e+00 4.486139690882046693e+02
1.712876832903238666e+00 4.486114692395455563e+02
1.712976854908079494e+00 4.486089827284245075e+02
1.713076876912920543e+00 4.486065100236180569e+02
1.713176898917761815e+00 4.486040515929460071e+02
1.713276920922602864e+00 4.486016079032531252e+02
1.713376942927443913e+00 4.485991794203919198e+02
1.713476964932285185e+00 4.485967666092028026e+02
1.713576986937126234e+00 4.485943699334970347e+02
1.713677008941967062e+00 4.485919898560390493e+02
1.713777030946808111e+00 4.485896268385278063e+02
1.713877052951649160e+00 4.485872813415796259e+02
1.713977074956490210e+00 4.485849538247093733e+02
1.714077096961331481e+00 4.485826447463139175e+02
1.714177118966172531e+00 4.485803545636530316e+02
1.714277140971013580e+00 4.485780837328323969e+02
1.714377162975854407e+00 4.485758327087864927e+02
1.714477184980695679e+00 4.485736019452609753e+02
1.714577206985536728e+00 4.485713918947936349e+02
1.714677228990377778e+00 4.485692030086986506e+02
1.714777250995218827e+00 4.485670357370489683e+02
1.714877273000059876e+00 4.485648905286575996e+02
1.714977295004901148e+00 4.485627678310626720e+02
1.715077317009741975e+00 4.485606680905078179e+02
1.715177339014583024e+00 4.485585917519278496e+02
1.715277361019424074e+00 4.485565392589276712e+02
1.715377383024265345e+00 4.485545110537703408e+02
1.715477405029106395e+00 4.485525075773545041e+02
1.715577427033947444e+00 4.485505292692027979e+02
1.715677449038788493e+00 4.485485765674415575e+02
1.715777471043629321e+00 4.485466499087847296e+02
1.715877493048470370e+00 4.485447497285193776e+02
1.715977515053311642e+00 4.485428764604853882e+02
1.716077537058152691e+00 4.485410305370617721e+02
1.716177559062993740e+00 4.485392123891499523e+02
1.716277581067835012e+00 4.485374224461545509e+02
1.716377603072676061e+00 4.485356611359713952e+02
1.716477625077516889e+00 4.485339288849680770e+02
1.716577647082357938e+00 4.485322261179682073e+02
1.716677669087198987e+00 4.485305532582373758e+02
1.716777691092040037e+00 4.485289107274637672e+02
1.716877713096881308e+00 4.485272989457447466e+02
1.716977735101722358e+00 4.485257183315707152e+02
1.717077757106563407e+00 4.485241693018075466e+02
1.717177779111404234e+00 4.485226522716825457e+02
1.717277801116245506e+00 4.485211676547687603e+02
1.717377823121086555e+00 4.485197158629680416e+02
1.717477845125927605e+00 4.485182973064967769e+02
1.717577867130768654e+00 4.485169123938704843e+02
1.717677889135609703e+00 4.485155615318871014e+02
1.717777911140450531e+00 4.485142451256123763e+02
1.717877933145291802e+00 4.485129635783664526e+02
1.717977955150132852e+00 4.485117172917056223e+02
1.718077977154973901e+00 4.485105066654090251e+02
1.718177999159815172e+00 4.485093320974646076e+02
1.718278021164656222e+00 4.485081939840522978e+02
1.718378043169497271e+00 4.485070927195292825e+02
1.718478065174338099e+00 4.485060286964177294e+02
1.718578087179179148e+00 4.485050023053868813e+02
1.718678109184020197e+00 4.485040139352410620e+02
1.718778131188861469e+00 4.485030639729042150e+02
1.718878153193702518e+00 4.485021528034048401e+02
1.718978175198543568e+00 4.485012808098637720e+02
1.719078197203384839e+00 4.485004483734770133e+02
1.719178219208225666e+00 4.484996558735048211e+02
1.719278241213066716e+00 4.484989036872547103e+02
1.719378263217907765e+00 4.484981921900698012e+02
1.719478285222748815e+00 4.484975217553140965e+02
1.719578307227589864e+00 4.484968927543582708e+02
1.719678329232431135e+00 4.484963055565668242e+02
1.719778351237272185e+00 4.484957605292839844e+02
1.719878373242113012e+00 4.484952580378201787e+02
1.719978395246954062e+00 4.484947984454393008e+02
1.720078417251795333e+00 4.484943821133444999e+02
1.720178439256636382e+00 4.484940094006659024e+02
1.720278461261477432e+00 4.484936806644462877e+02
1.720378483266318481e+00 4.484933962596298898e+02
1.720478505271159531e+00 4.484931565390463675e+02
1.720578527276000358e+00 4.484929618534026190e+02
1.720678549280841629e+00 4.484928125512657289e+02
1.720778571285682679e+00 4.484927089790519403e+02
1.720878593290523728e+00 4.484926514810147182e+02
1.720978615295365000e+00 4.484926403992317319e+02
1.721078637300206049e+00 4.484926760735924631e+02
1.721178659305047098e+00 4.484927588417857010e+02
1.721278681309887926e+00 4.484928890392880021e+02
1.721378703314728975e+00 4.484930669993514130e+02
1.721478725319570025e+00 4.484932930529910209e+02
1.721578747324411296e+00 4.484935675289739265e+02
1.721678769329252345e+00 4.484938907538072499e+02
1.721778791334093395e+00 4.484942630517253406e+02
1.721878813338934666e+00 4.484946847446802849e+02
1.721978835343775494e+00 4.484951561523280930e+02
1.722078857348616543e+00 4.484956775920207406e+02
1.722178879353457592e+00 4.484962493787901963e+02
1.722278901358298642e+00 4.484968718253414295e+02
1.722378923363139691e+00 4.484975452420396778e+02
1.722478945367980963e+00 4.484982699368991916e+02
1.722578967372822012e+00 4.484990462155728892e+02
1.722678989377662839e+00 4.484998743813422379e+02
1.722779011382503889e+00 4.485007547351047492e+02
1.722879033387345160e+00 4.485016875753661338e+02
1.722979055392186210e+00 4.485026731982266028e+02
1.723079077397027259e+00 4.485037118973747283e+02
1.723179099401868308e+00 4.485048039640722095e+02
1.723279121406709358e+00 4.485059496871486431e+02
1.723379143411550185e+00 4.485071493529885061e+02
1.723479165416391456e+00 4.485084032455218903e+02
1.723579187421232506e+00 4.485097116462156919e+02
1.723679209426073555e+00 4.485110748340621853e+02
1.723779231430914827e+00 4.485124930855713501e+02
1.723879253435755876e+00 4.485139666747600131e+02
1.723979275440596926e+00 4.485154958731436636e+02
1.724079297445437753e+00 4.485170809497261644e+02
1.724179319450278802e+00 4.485187221709910546e+02
1.724279341455119852e+00 4.485204198008931371e+02
1.724379363459961123e+00 4.485221741008481331e+02
1.724479385464802172e+00 4.485239853297260311e+02
1.724579407469643222e+00 4.485258537438398889e+02
1.724679429474484493e+00 4.485277795969393537e+02
1.724779451479325321e+00 4.485297631402012257e+02
1.724879473484166370e+00 4.485318046222213297e+02
1.724979495489007419e+00 4.485339042890059886e+02
1.725079517493848469e+00 4.485360623839651453e+02
1.725179539498689518e+00 4.485382791479018465e+02
1.725279561503530790e+00 4.485405548190077525e+02
1.725379583508371839e+00 4.485428896328520523e+02
1.725479605513212666e+00 4.485452838223761773e+02
1.725579627518053716e+00 4.485477376178848772e+02
1.725679649522894987e+00 4.485502512470393413e+02
1.725779671527736037e+00 4.485528249348502072e+02
1.725879693532577086e+00 4.485554589036702851e+02
1.725979715537418135e+00 4.485581533731857462e+02
1.726079737542259185e+00 4.485609085604119173e+02
1.726179759547100012e+00 4.485637246796850945e+02
1.726279781551941284e+00 4.485666019426552111e+02
1.726379803556782333e+00 4.485695405582800959e+02
1.726479825561623382e+00 4.485725407328185383e+02
1.726579847566464654e+00 4.485756026698244341e+02
1.726679869571305703e+00 4.485787265701399065e+02
1.726779891576146753e+00 4.485819126318893382e+02
1.726879913580987580e+00 4.485851610504740847e+02
1.726979935585828629e+00 4.485884720185645733e+02
1.727079957590669679e+00 4.485918457260967216e+02
1.727179979595510950e+00 4.485952823602658555e+02
1.727280001600352000e+00 4.485987821055194900e+02
1.727380023605193049e+00 4.486023451435532365e+02
1.727480045610034320e+00 4.486059716533063693e+02
1.727580067614875148e+00 4.486096618109543215e+02
1.727680089619716197e+00 4.486134157899053889e+02
1.727780111624557247e+00 4.486172337607947611e+02
1.727880133629398296e+00 4.486211158914815655e+02
1.727980155634239345e+00 4.486250623470400569e+02
1.728080177639080617e+00 4.486290732897599014e+02
1.728180199643921666e+00 4.486331488791379911e+02
1.728280221648762494e+00 4.486372892718769663e+02
1.728380243653603543e+00 4.486414946218786781e+02
1.728480265658444814e+00 4.486457650802404373e+02
1.728580287663285864e+00 4.486501007952518876e+02
1.728680309668126913e+00 4.486545019123907423e+02
1.728780331672967963e+00 4.486589685743191467e+02
1.728880353677809012e+00 4.486635009208796419e+02
1.728980375682649839e+00 4.486680990890918110e+02
1.729080397687491111e+00 4.486727632131485848e+02
1.729180419692332160e+00 4.486774934244141377e+02
1.729280441697173210e+00 4.486822898514191706e+02
1.729380463702014481e+00 4.486871526198590345e+02
1.729480485706855530e+00 4.486920818525899222e+02
1.729580507711696580e+00 4.486970776696259122e+02
1.729680529716537407e+00 4.487021401881389124e+02
1.729780551721378457e+00 4.487072695224516679e+02
1.729880573726219506e+00 4.487124657840395230e+02
1.729980595731060777e+00 4.487177290815257038e+02
1.730080617735901827e+00 4.487230595206787029e+02
1.730180639740742876e+00 4.487284572044133029e+02
1.730280661745584148e+00 4.487339222327846073e+02
1.730380683750424975e+00 4.487394547029896330e+02
1.730480705755266024e+00 4.487450547093631599e+02
1.730580727760107074e+00 4.487507223433769923e+02
1.730680749764948123e+00 4.487564576936397316e+02
1.730780771769789173e+00 4.487622608458936497e+02
1.730880793774630444e+00 4.487681318830138935e+02
1.730980815779471493e+00 4.487740708850081433e+02
1.731080837784312321e+00 4.487800779290150217e+02
1.731180859789153370e+00 4.487861530893029567e+02
1.731280881793994642e+00 4.487922964372706929e+02
1.731380903798835691e+00 4.487985080414447339e+02
1.731480925803676740e+00 4.488047879674811611e+02
1.731580947808517790e+00 4.488111362781631897e+02
1.731680969813358839e+00 4.488175530334017935e+02
1.731780991818199666e+00 4.488240382902364445e+02
1.731881013823040938e+00 4.488305921028334637e+02
1.731981035827881987e+00 4.488372145224873293e+02
1.732081057832723037e+00 4.488439055976198233e+02
1.732181079837564308e+00 4.488506653737822489e+02
1.732281101842405358e+00 4.488574938936536114e+02
1.732381123847246407e+00 4.488643911970432896e+02
1.732481145852087234e+00 4.488713573208898424e+02
1.732581167856928284e+00 4.488783922992637940e+02
1.732681189861769333e+00 4.488854961633674066e+02
1.732781211866610604e+00 4.488926689415357032e+02
1.732881233871451654e+00 4.488999106592382304e+02
1.732981255876292703e+00 4.489072213390799106e+02
1.733081277881133975e+00 4.489146010008025769e+02
1.733181299885974802e+00 4.489220496612878151e+02
1.733281321890815851e+00 4.489295673345560544e+02
1.733381343895656901e+00 4.489371540317707741e+02
1.733481365900497950e+00 4.489448097612388437e+02
1.733581387905339000e+00 4.489525345284142759e+02
1.733681409910180271e+00 4.489603283358979979e+02
1.733781431915021320e+00 4.489681911834425136e+02
1.733881453919862148e+00 4.489761230679532105e+02
1.733981475924703197e+00 4.489841239834908606e+02
1.734081497929544469e+00 4.489921939212734969e+02
1.734181519934385518e+00 4.490003328696811877e+02
1.734281541939226567e+00 4.490085408142579695e+02
1.734381563944067617e+00 4.490168177377135521e+02
1.734481585948908666e+00 4.490251636199277527e+02
1.734581607953749494e+00 4.490335784379552138e+02
1.734681629958590765e+00 4.490420621660252323e+02
1.734781651963431814e+00 4.490506147755473307e+02
1.734881673968272864e+00 4.490592362351152929e+02
1.734981695973114135e+00 4.490679265105100626e+02
1.735081717977955185e+00 4.490766855647029843e+02
1.735181739982796012e+00 4.490855133578619416e+02
1.735281761987637061e+00 4.490944098473518125e+02
1.735381783992478111e+00 4.491033749877430523e+02
1.735481805997319160e+00 4.491124087308121489e+02
1.735581828002160432e+00 4.491215110255482159e+02
1.735681850007001481e+00 4.491306818181567451e+02
1.735781872011842530e+00 4.491399210520648921e+02
1.735881894016683358e+00 4.491492286679243762e+02
1.735981916021524629e+00 4.491586046036197786e+02
1.736081938026365679e+00 4.491680487942697937e+02
1.736181960031206728e+00 4.491775611722346184e+02
1.736281982036047777e+00 4.491871416671206703e+02
1.736382004040888827e+00 4.491967902057857600e+02
1.736482026045730098e+00 4.492065067123440372e+02
1.736582048050570926e+00 4.492162911081730954e+02
1.736682070055411975e+00 4.492261433119179515e+02
1.736782092060253024e+00 4.492360632394976392e+02
1.736882114065094296e+00 4.492460508041111780e+02
1.736982136069935345e+00 4.492561059162429160e+02
1.737082158074776395e+00 4.492662284836702042e+02
1.737182180079617444e+00 4.492764184114668637e+02
1.737282202084458271e+00 4.492866756020132470e+02
1.737382224089299321e+00 4.492969999549987392e+02
1.737482246094140592e+00 4.493073913674315349e+02
1.737582268098981642e+00 4.493178497336435839e+02
1.737682290103822691e+00 4.493283749452971847e+02
1.737782312108663962e+00 4.493389668913945911e+02
1.737882334113505012e+00 4.493496254582801157e+02
1.737982356118345839e+00 4.493603505296520098e+02
1.738082378123186889e+00 4.493711419865673520e+02
1.738182400128027938e+00 4.493819997074498360e+02
1.738282422132868987e+00 4.493929235680960801e+02
1.738382444137710259e+00 4.494039134416857451e+02
1.738482466142551308e+00 4.494149691987871620e+02
1.738582488147392358e+00 4.494260907073650060e+02
1.738682510152233185e+00 4.494372778327894480e+02
1.738782532157074456e+00 4.494485304378435444e+02
1.738882554161915506e+00 4.494598483827305131e+02
1.738982576166756555e+00 4.494712315250834536e+02
1.739082598171597605e+00 4.494826797199723387e+02
1.739182620176438654e+00 4.494941928199128256e+02
1.739282642181279925e+00 4.495057706748747819e+02
1.739382664186120753e+00 4.495174131322912672e+02
1.739482686190961802e+00 4.495291200370669458e+02
1.739582708195802851e+00 4.495408912315860448e+02
1.739682730200644123e+00 4.495527265557228134e+02
1.739782752205485172e+00 4.495646258468498218e+02
1.739882774210326222e+00 4.495765889398462605e+02
1.739982796215167271e+00 4.495886156671087406e+02
