2.000080019204609094e+00 5.111324458831254560e+02
2.000180043210370240e+00 5.111487540904196862e+02
2.000280067216131830e+00 5.111650609262107992e+02
2.000380091221892975e+00 5.111813661851121537e+02
2.000480115227654565e+00 5.111976696600615924e+02
2.000580139233416155e+00 5.112139711423229755e+02
2.000680163239177300e+00 5.112302704214897062e+02
2.000780187244938890e+00 5.112465672854858099e+02
2.000880211250700036e+00 5.112628615205702545e+02
2.000980235256461626e+00 5.112791529113383717e+02
2.001080259262222771e+00 5.112954412407261202e+02
2.001180283267984361e+00 5.113117262900112223e+02
2.001280307273745507e+00 5.113280078388179390e+02
2.001380331279507097e+00 5.113442856651180932e+02
2.001480355285268242e+00 5.113605595452367538e+02
2.001580379291029832e+00 5.113768292538529181e+02
2.001680403296790978e+00 5.113930945640049686e+02
2.001780427302552567e+00 5.114093552470915256e+02
2.001880451308313713e+00 5.114256110728774161e+02
2.001980475314075303e+00 5.114418618094969133e+02
2.002080499319836449e+00 5.114581072234539647e+02
2.002180523325598038e+00 5.114743470796304905e+02
2.002280547331359628e+00 5.114905811412878052e+02
2.002380571337120774e+00 5.115068091700699711e+02
2.002480595342882363e+00 5.115230309260084027e+02
2.002580619348643509e+00 5.115392461675264144e+02
2.002680643354405099e+00 5.115554546514413801e+02
2.002780667360166245e+00 5.115716561329717251e+02
2.002880691365927834e+00 5.115878503657379497e+02
2.002980715371688980e+00 5.116040371017693928e+02
2.003080739377450570e+00 5.116202160915067907e+02
2.003180763383211715e+00 5.116363870838079038e+02
2.003280787388973305e+00 5.116525498259513824e+02
2.003380811394734451e+00 5.116687040636413712e+02
2.003480835400496041e+00 5.116848495410121131e+02
2.003580859406257186e+00 5.117009860006332929e+02
2.003680883412018776e+00 5.117171131835136748e+02
2.003780907417779922e+00 5.117332308291069012e+02
2.003880931423541512e+00 5.117493386753158120e+02
2.003980955429302657e+00 5.117654364584983000e+02
2.004080979435064247e+00 5.117815239134706644e+02
2.004181003440825837e+00 5.117976007735155690e+02
2.004281027446586982e+00 5.118136667703838611e+02
2.004381051452348572e+00 5.118297216343021319e+02
2.004481075458110162e+00 5.118457650939775476e+02
2.004581099463871308e+00 5.118617968766037052e+02
2.004681123469632453e+00 5.118778167078654064e+02
2.004781147475394043e+00 5.118938243119437175e+02
2.004881171481155633e+00 5.119098194115238130e+02
2.004981195486916778e+00 5.119258017277981025e+02
2.005081219492677924e+00 5.119417709804740753e+02
2.005181243498439514e+00 5.119577268877789038e+02
2.005281267504201104e+00 5.119736691664662658e+02
2.005381291509962249e+00 5.119895975318211185e+02
2.005481315515723395e+00 5.120055116976669751e+02
2.005581339521484985e+00 5.120214113763721571e+02
2.005681363527246575e+00 5.120372962788551376e+02
2.005781387533007720e+00 5.120531661145911357e+02
2.005881411538768866e+00 5.120690205916189370e+02
2.005981435544530900e+00 5.120848594165464647e+02
2.006081459550292045e+00 5.121006822945586237e+02
2.006181483556053635e+00 5.121164889294223030e+02
2.006281507561814781e+00 5.121322790234945614e+02
2.006381531567576371e+00 5.121480522777279702e+02
2.006481555573337516e+00 5.121638083916787991e+02
2.006581579579099106e+00 5.121795470635123593e+02
2.006681603584860252e+00 5.121952679900118710e+02
2.006781627590621842e+00 5.122109708665827839e+02
2.006881651596382987e+00 5.122266553872627810e+02
2.006981675602144577e+00 5.122423212447266678e+02
2.007081699607905723e+00 5.122579681302954668e+02
2.007181723613667312e+00 5.122735957339415336e+02
2.007281747619428458e+00 5.122892037442983337e+02
2.007381771625190048e+00 5.123047918486649905e+02
2.007481795630951193e+00 5.123203597330179946e+02
2.007581819636712783e+00 5.123359070820129091e+02
2.007681843642473929e+00 5.123514335789978986e+02
2.007781867648235519e+00 5.123669389060183903e+02
2.007881891653997108e+00 5.123824227438235539e+02
2.007981915659758254e+00 5.123978847718777843e+02
2.008081939665519844e+00 5.124133246683653624e+02
2.008181963671280990e+00 5.124287421102010285e+02
2.008281987677042579e+00 5.124441367730349839e+02
2.008382011682803725e+00 5.124595083312642601e+02
2.008482035688565315e+00 5.124748564580381753e+02
2.008582059694326460e+00 5.124901808252686806e+02
2.008682083700088050e+00 5.125054811036361571e+02
2.008782107705849196e+00 5.125207569626015811e+02
2.008882131711610786e+00 5.125360080704102756e+02
2.008982155717371931e+00 5.125512340941046432e+02
2.009082179723133521e+00 5.125664346995292817e+02
2.009182203728894667e+00 5.125816095513430355e+02
2.009282227734656257e+00 5.125967583130241110e+02
2.009382251740417402e+00 5.126118806468809908e+02
2.009482275746178992e+00 5.126269762140620969e+02
2.009582299751940138e+00 5.126420446745613617e+02
2.009682323757701727e+00 5.126570856872306194e+02
2.009782347763463317e+00 5.126720989097868824e+02
2.009882371769224463e+00 5.126870839988207535e+02
2.009982395774986053e+00 5.127020406098084777e+02
2.010082419780747198e+00 5.127169683971167160e+02
2.010182443786508788e+00 5.127318670140163022e+02
2.010282467792269934e+00 5.127467361126880405e+02
2.010382491798031523e+00 5.127615753442340747e+02
2.010482515803792669e+00 5.127763843586872099e+02
2.010582539809554259e+00 5.127911628050192121e+02
2.010682563815315405e+00 5.128059103311517219e+02
2.010782587821076994e+00 5.128206265839644402e+02
2.010882611826838140e+00 5.128353112093069512e+02
2.010982635832599730e+00 5.128499638520058852e+02
2.011082659838360875e+00 5.128645841558759457e+02
2.011182683844122465e+00 5.128791717637312786e+02
2.011282707849883611e+00 5.128937263173920655e+02
2.011382731855645201e+00 5.129082474576970299e+02
2.011482755861406346e+00 5.129227348245135545e+02
2.011582779867167936e+00 5.129371880567455264e+02
2.011682803872929526e+00 5.129516067923465243e+02
2.011782827878691116e+00 5.129659906683259578e+02
2.011882851884452261e+00 5.129803393207647559e+02
2.011982875890213407e+00 5.129946523848207107e+02
2.012082899895974997e+00 5.130089294947413237e+02
2.012182923901736586e+00 5.130231702838740375e+02
2.012282947907497732e+00 5.130373743846760135e+02
2.012382971913258878e+00 5.130515414287248177e+02
2.012482995919020468e+00 5.130656710467309267e+02
2.012583019924782057e+00 5.130797628685438667e+02
2.012683043930543203e+00 5.130938165231683570e+02
2.012783067936304349e+00 5.131078316387715859e+02
2.012883091942065938e+00 5.131218078426943521e+02
2.012983115947827528e+00 5.131357447614632292e+02
2.013083139953588674e+00 5.131496420208002291e+02
2.013183163959349820e+00 5.131634992456342843e+02
2.013283187965111409e+00 5.131773160601123891e+02
2.013383211970872999e+00 5.131910920876102864e+02
2.013483235976634589e+00 5.132048269507446321e+02
2.013583259982395735e+00 5.132185202713819763e+02
2.013683283988157324e+00 5.132321716706526331e+02
2.013783307993918470e+00 5.132457807689595484e+02
2.013883331999680060e+00 5.132593471859916008e+02
2.013983356005441205e+00 5.132728705407331518e+02
2.014083380011202795e+00 5.132863504514781425e+02
2.014183404016963941e+00 5.132997865358377112e+02
2.014283428022725531e+00 5.133131784107551994e+02
2.014383452028486676e+00 5.133265256925160429e+02
2.014483476034248266e+00 5.133398279967591407e+02
2.014583500040009412e+00 5.133530849384897010e+02
2.014683524045771001e+00 5.133662961320904969e+02
2.014783548051532147e+00 5.133794611913322115e+02
2.014883572057293737e+00 5.133925797293879896e+02
2.014983596063054883e+00 5.134056513588424195e+02
2.015083620068816472e+00 5.134186756917058574e+02
2.015183644074577618e+00 5.134316523394236356e+02
2.015283668080339208e+00 5.134445809128914107e+02
2.015383692086100798e+00 5.134574610224638036e+02
2.015483716091861943e+00 5.134702922779699747e+02
2.015583740097623533e+00 5.134830742887218094e+02
2.015683764103384679e+00 5.134958066635291516e+02
2.015783788109146268e+00 5.135084890107106048e+02
2.015883812114907414e+00 5.135211209381059234e+02
2.015983836120669004e+00 5.135337020530892005e+02
2.016083860126430150e+00 5.135462319625793270e+02
2.016183884132191739e+00 5.135587102730546576e+02
2.016283908137952885e+00 5.135711365905626735e+02
2.016383932143714475e+00 5.135835105207347624e+02
2.016483956149475620e+00 5.135958316687988372e+02
2.016583980155237210e+00 5.136080996395886586e+02
2.016684004160998356e+00 5.136203140375605471e+02
2.016784028166759946e+00 5.136324744668029325e+02
2.016884052172521091e+00 5.136445805310506785e+02
2.016984076178282681e+00 5.136566318336966788e+02
2.017084100184044271e+00 5.136686279778056132e+02
2.017184124189805416e+00 5.136805685661248617e+02
2.017284148195567006e+00 5.136924532011001929e+02
2.017384172201328152e+00 5.137042814848854277e+02
2.017484196207089742e+00 5.137160530193576733e+02
2.017584220212850887e+00 5.137277674061292601e+02
2.017684244218612477e+00 5.137394242465599064e+02
2.017784268224373623e+00 5.137510231417710429e+02
2.017884292230135213e+00 5.137625636926576362e+02
2.017984316235896358e+00 5.137740454999026269e+02
2.018084340241657948e+00 5.137854681639889805e+02
2.018184364247419094e+00 5.137968312852115105e+02
2.018284388253180683e+00 5.138081344636926815e+02
2.018384412258941829e+00 5.138193772993943185e+02
2.018484436264703419e+00 5.138305593921307945e+02
2.018584460270464565e+00 5.138416803415813092e+02
2.018684484276226154e+00 5.138527397473054634e+02
2.018784508281987300e+00 5.138637372087541735e+02
2.018884532287748890e+00 5.138746723252850188e+02
2.018984556293510479e+00 5.138855446961736106e+02
2.019084580299272069e+00 5.138963539206280302e+02
2.019184604305033215e+00 5.139070995978022438e+02
2.019284628310794361e+00 5.139177813268088357e+02
2.019384652316555950e+00 5.139283987067324233e+02
2.019484676322317540e+00 5.139389513366450046e+02
2.019584700328078686e+00 5.139494388156164177e+02
2.019684724333839831e+00 5.139598607427308252e+02
2.019784748339601421e+00 5.139702167170969460e+02
2.019884772345363011e+00 5.139805063378648811e+02
2.019984796351124157e+00 5.139907292042373683e+02
2.020084820356885302e+00 5.140008849154850168e+02
2.020184844362646892e+00 5.140109730709583573e+02
2.020284868368408482e+00 5.140209932701031903e+02
2.020384892374169628e+00 5.140309451124724092e+02
2.020484916379930773e+00 5.140408281977404386e+02
2.020584940385692363e+00 5.140506421257184684e+02
2.020684964391453953e+00 5.140603864963659362e+02
2.020784988397215542e+00 5.140700609098037148e+02
2.020885012402976688e+00 5.140796649663320750e+02
2.020985036408738278e+00 5.140891982664401212e+02
2.021085060414499424e+00 5.140986604108200027e+02
2.021185084420261013e+00 5.141080510003843074e+02
2.021285108426022159e+00 5.141173696362757255e+02
2.021385132431783749e+00 5.141266159198826244e+02
2.021485156437544894e+00 5.141357894528539418e+02
2.021585180443306484e+00 5.141448898371113501e+02
2.021685204449067630e+00 5.141539166748634671e+02
2.021785228454829220e+00 5.141628695686204082e+02
2.021885252460590365e+00 5.141717481212078837e+02
2.021985276466351955e+00 5.141805519357798175e+02
2.022085300472113101e+00 5.141892806158340363e+02
2.022185324477874691e+00 5.141979337652242066e+02
2.022285348483635836e+00 5.142065109881752960e+02
2.022385372489397426e+00 5.142150118892983528e+02
2.022485396495158572e+00 5.142234360736015333e+02
2.022585420500920161e+00 5.142317831465069276e+02
2.022685444506681751e+00 5.142400527138632924e+02
2.022785468512442897e+00 5.142482443819606033e+02
2.022885492518204487e+00 5.142563577575431282e+02
2.022985516523965632e+00 5.142643924478250028e+02
2.023085540529727222e+00 5.142723480605026225e+02
2.023185564535488368e+00 5.142802242037698761e+02
2.023285588541249957e+00 5.142880204863322433e+02
2.023385612547011103e+00 5.142957365174195274e+02
2.023485636552772693e+00 5.143033719068010896e+02
2.023585660558533839e+00 5.143109262648007416e+02
2.023685684564295428e+00 5.143183992023089104e+02
2.023785708570056574e+00 5.143257903307968490e+02
2.023885732575818164e+00 5.143330992623327802e+02
2.023985756581579309e+00 5.143403256095946290e+02
2.024085780587340899e+00 5.143474689858834381e+02
2.024185804593102045e+00 5.143545290051378061e+02
2.024285828598863635e+00 5.143615052819502580e+02
2.024385852604624780e+00 5.143683974315779324e+02
2.024485876610386370e+00 5.143752050699584970e+02
2.024585900616147960e+00 5.143819278137245874e+02
2.024685924621909106e+00 5.143885652802165396e+02
2.024785948627670695e+00 5.143951170874978516e+02
2.024885972633431841e+00 5.144015828543687121e+02
2.024985996639193431e+00 5.144079622003796430e+02
2.025086020644954576e+00 5.144142547458460513e+02
2.025186044650716166e+00 5.144204601118628943e+02
2.025286068656477312e+00 5.144265779203182092e+02
2.025386092662238902e+00 5.144326077939060724e+02
2.025486116668000047e+00 5.144385493561435396e+02
2.025586140673761637e+00 5.144444022313813321e+02
2.025686164679522783e+00 5.144501660448204348e+02
2.025786188685284372e+00 5.144558404225251707e+02
2.025886212691045518e+00 5.144614249914371840e+02
2.025986236696807108e+00 5.144669193793898785e+02
2.026086260702568254e+00 5.144723232151224011e+02
2.026186284708329843e+00 5.144776361282932839e+02
2.026286308714090989e+00 5.144828577494944284e+02
2.026386332719853023e+00 5.144879877102657701e+02
2.026486356725614169e+00 5.144930256431092630e+02
2.026586380731375314e+00 5.144979711815017254e+02
2.026686404737136904e+00 5.145028239599107565e+02
2.026786428742898494e+00 5.145075836138064460e+02
2.026886452748659639e+00 5.145122497796771768e+02
2.026986476754420785e+00 5.145168220950423574e+02
2.027086500760182375e+00 5.145213001984672019e+02
2.027186524765943965e+00 5.145256837295769401e+02
2.027286548771705110e+00 5.145299723290688689e+02
2.027386572777466256e+00 5.145341656387287230e+02
2.027486596783227846e+00 5.145382633014418161e+02
2.027586620788989435e+00 5.145422649612102077e+02
2.027686644794750581e+00 5.145461702631638445e+02
2.027786668800511727e+00 5.145499788535747712e+02
2.027886692806273317e+00 5.145536903798723642e+02
2.027986716812034906e+00 5.145573044906557243e+02
2.028086740817796052e+00 5.145608208357082276e+02
2.028186764823557642e+00 5.145642390660113961e+02
2.028286788829319232e+00 5.145675588337572890e+02
2.028386812835080377e+00 5.145707797923638509e+02
2.028486836840841967e+00 5.145739015964870759e+02
2.028586860846603113e+00 5.145769239020372652e+02
2.028686884852364702e+00 5.145798463661897131e+02
2.028786908858125848e+00 5.145826686474001690e+02
2.028886932863887438e+00 5.145853904054163195e+02
2.028986956869648584e+00 5.145880113012954098e+02
2.029086980875410173e+00 5.145905309974132251e+02
2.029187004881171319e+00 5.145929491574812573e+02
2.029287028886932909e+00 5.145952654465578462e+02
2.029387052892694054e+00 5.145974795310626178e+02
2.029487076898455644e+00 5.145995910787901266e+02
2.029587100904216790e+00 5.146015997589224753e+02
2.029687124909978380e+00 5.146035052420443208e+02
2.029787148915739525e+00 5.146053072001534474e+02
2.029887172921501115e+00 5.146070053066775927e+02
2.029987196927262261e+00 5.146085992364864978e+02
2.030087220933023850e+00 5.146100886659020262e+02
2.030187244938785440e+00 5.146114732727162391e+02
2.030287268944546586e+00 5.146127527362029923e+02
2.030387292950308176e+00 5.146139267371288497e+02
2.030487316956069321e+00 5.146149949577696816e+02
2.030587340961830911e+00 5.146159570819227156e+02
2.030687364967592057e+00 5.146168127949171094e+02
2.030787388973353647e+00 5.146175617836310039e+02
2.030887412979114792e+00 5.146182037365022097e+02
2.030987436984876382e+00 5.146187383435411675e+02
2.031087460990637528e+00 5.146191652963451588e+02
2.031187484996399117e+00 5.146194842881093336e+02
2.031287509002160263e+00 5.146196950136434225e+02
2.031387533007921853e+00 5.146197971693799218e+02
2.031487557013682999e+00 5.146197904533887595e+02
2.031587581019444588e+00 5.146196745653925291e+02
2.031687605025205734e+00 5.146194492067753572e+02
2.031787629030967324e+00 5.146191140805981377e+02
2.031887653036728913e+00 5.146186688916106959e+02
2.031987677042490059e+00 5.146181133462628168e+02
2.032087701048251649e+00 5.146174471527205014e+02
2.032187725054012795e+00 5.146166700208754037e+02
2.032287749059774384e+00 5.146157816623573353e+02
2.032387773065535530e+00 5.146147817905487045e+02
2.032487797071297120e+00 5.146136701205966801e+02
2.032587821077058265e+00 5.146124463694233100e+02
2.032687845082819855e+00 5.146111102557407548e+02
2.032787869088581001e+00 5.146096615000623160e+02
2.032887893094342591e+00 5.146080998247135767e+02
2.032987917100103736e+00 5.146064249538469539e+02
2.033087941105865326e+00 5.146046366134531809e+02
2.033187965111626472e+00 5.146027345313717660e+02
2.033287989117388062e+00 5.146007184373050904e+02
2.033388013123149207e+00 5.145985880628302311e+02
2.033488037128910797e+00 5.145963431414098750e+02
2.033588061134671943e+00 5.145939834084051654e+02
2.033688085140433532e+00 5.145915086010876394e+02
2.033788109146195122e+00 5.145889184586498004e+02
2.033888133151956268e+00 5.145862127222203526e+02
2.033988157157717858e+00 5.145833911348707943e+02
2.034088181163479447e+00 5.145804534416326987e+02
2.034188205169240593e+00 5.145773993895047624e+02
2.034288229175001739e+00 5.145742287274673572e+02
2.034388253180763328e+00 5.145709412064927619e+02
2.034488277186524918e+00 5.145675365795574407e+02
2.034588301192286064e+00 5.145640146016530707e+02
2.034688325198047210e+00 5.145603750297973420e+02
2.034788349203808799e+00 5.145566176230477140e+02
2.034888373209570389e+00 5.145527421425097145e+02
2.034988397215331535e+00 5.145487483513493316e+02
2.035088421221092680e+00 5.145446360148066560e+02
2.035188445226854270e+00 5.145404049002022475e+02
2.035288469232615860e+00 5.145360547769524828e+02
2.035388493238377006e+00 5.145315854165784231e+02
2.035488517244138151e+00 5.145269965927186604e+02
2.035588541249900185e+00 5.145222880811362529e+02
2.035688565255661331e+00 5.145174596597357777e+02
2.035788589261422921e+00 5.145125111085681056e+02
2.035888613267184066e+00 5.145074422098452942e+02
2.035988637272945656e+00 5.145022527479494556e+02
2.036088661278706802e+00 5.144969425094440112e+02
2.036188685284468392e+00 5.144915112830832413e+02
2.036288709290229537e+00 5.144859588598251321e+02
2.036388733295991127e+00 5.144802850328387649e+02
2.036488757301752273e+00 5.144744895975182999e+02
2.036588781307513862e+00 5.144685723514899109e+02
2.036688805313275008e+00 5.144625330946246322e+02
2.036788829319036598e+00 5.144563716290463162e+02
2.036888853324797743e+00 5.144500877591449353e+02
2.036988877330559333e+00 5.144436812915835162e+02
2.037088901336320479e+00 5.144371520353092819e+02
2.037188925342082069e+00 5.144304998015651336e+02
2.037288949347843214e+00 5.144237244038981771e+02
2.037388973353604804e+00 5.144168256581685910e+02
2.037488997359366394e+00 5.144098033825615630e+02
2.037589021365127540e+00 5.144026573975960446e+02
2.037689045370889129e+00 5.143953875261341864e+02
2.037789069376650275e+00 5.143879935933921388e+02
2.037889093382411865e+00 5.143804754269466457e+02
2.037989117388173010e+00 5.143728328567492554e+02
2.038089141393934600e+00 5.143650657151308678e+02
2.038189165399695746e+00 5.143571738368150363e+02
2.038289189405457336e+00 5.143491570589236517e+02
2.038389213411218481e+00 5.143410152209889930e+02
2.038489237416980071e+00 5.143327481649627089e+02
2.038589261422741217e+00 5.143243557352219568e+02
2.038689285428502806e+00 5.143158377785821358e+02
2.038789309434263952e+00 5.143071941443040487e+02
2.038889333440025542e+00 5.142984246841022014e+02
2.038989357445786688e+00 5.142895292521550346e+02
2.039089381451548277e+00 5.142805077051126545e+02
2.039189405457309423e+00 5.142713599021055870e+02
2.039289429463071013e+00 5.142620857047536447e+02
2.039389453468832603e+00 5.142526849771746811e+02
2.039489477474593748e+00 5.142431575859928898e+02
2.039589501480355338e+00 5.142335034003456258e+02
2.039689525486116484e+00 5.142237222918948873e+02
2.039789549491878073e+00 5.142138141348323188e+02
2.039889573497639219e+00 5.142037788058894421e+02
2.039989597503400809e+00 5.141936161843453874e+02
2.040089621509161955e+00 5.141833261520337146e+02
2.040189645514923544e+00 5.141729085933515080e+02
2.040289669520684690e+00 5.141623633952676755e+02
2.040389693526446280e+00 5.141516904473290879e+02
2.040489717532207425e+00 5.141408896416693324e+02
2.040589741537969015e+00 5.141299608730167847e+02
2.040689765543730161e+00 5.141189040387013165e+02
2.040789789549491751e+00 5.141077190386613438e+02
2.040889813555252896e+00 5.140964057754531495e+02
2.040989837561014486e+00 5.140849641542561130e+02
2.041089861566775632e+00 5.140733940828807818e+02
2.041189885572537221e+00 5.140616954717768294e+02
2.041289909578298811e+00 5.140498682340388541e+02
2.041389933584060401e+00 5.140379122854142224e+02
2.041489957589821547e+00 5.140258275443095499e+02
2.041589981595582692e+00 5.140136139317972948e+02
2.041690005601344282e+00 5.140012713716243979e+02
2.041790029607105872e+00 5.139887997902160350e+02
2.041890053612867018e+00 5.139761991166848247e+02
2.041990077618628163e+00 5.139634692828353764e+02
2.042090101624389753e+00 5.139506102231728164e+02
2.042190125630151343e+00 5.139376218749067675e+02
2.042290149635912488e+00 5.139245041779602161e+02
2.042390173641673634e+00 5.139112570749732640e+02
2.042490197647435224e+00 5.138978805113109729e+02
2.042590221653196814e+00 5.138843744350688212e+02
2.042690245658957959e+00 5.138707387970789568e+02
2.042790269664719105e+00 5.138569735509148586e+02
2.042890293670480695e+00 5.138430786528990666e+02
2.042990317676242285e+00 5.138290540621085256e+02
2.043090341682003874e+00 5.138148997403777685e+02
2.043190365687765020e+00 5.138006156523068739e+02
2.043290389693526610e+00 5.137862017652689701e+02
2.043390413699287755e+00 5.137716580494090977e+02
2.043490437705049345e+00 5.137569844776555783e+02
2.043590461710810491e+00 5.137421810257235393e+02
2.043690485716572081e+00 5.137272476721188923e+02
2.043790509722333226e+00 5.137121843981434495e+02
2.043890533728094816e+00 5.136969911879016308e+02
2.043990557733855962e+00 5.136816680283044434e+02
2.044090581739617551e+00 5.136662149090731191e+02
2.044190605745378697e+00 5.136506318227444581e+02
2.044290629751140287e+00 5.136349187646775363e+02
2.044390653756901433e+00 5.136190757330543875e+02
2.044490677762663022e+00 5.136031027288879613e+02
2.044590701768424168e+00 5.135869997560243974e+02
2.044690725774185758e+00 5.135707668211481405e+02
2.044790749779946903e+00 5.135544039337854656e+02
2.044890773785708493e+00 5.135379111063101618e+02
2.044990797791470083e+00 5.135212883539443283e+02
2.045090821797231229e+00 5.135045356947664459e+02
2.045190845802992818e+00 5.134876531497117185e+02
2.045290869808753964e+00 5.134706407425777570e+02
2.045390893814515554e+00 5.134534985000277629e+02
2.045490917820276700e+00 5.134362264515934839e+02
2.045590941826038289e+00 5.134188246296789657e+02
2.045690965831799435e+00 5.134012930695653267e+02
2.045790989837561025e+00 5.133836318094115541e+02
2.045891013843322170e+00 5.133658408902598467e+02
2.045991037849083760e+00 5.133479203560375481e+02
2.046091061854844906e+00 5.133298702535607845e+02
2.046191085860606496e+00 5.133116906325367381e+02
2.046291109866367641e+00 5.132933815455666036e+02
2.046391133872129231e+00 5.132749430481496802e+02
2.046491157877890377e+00 5.132563751986835996e+02
2.046591181883651966e+00 5.132376780584691005e+02
2.046691205889413556e+00 5.132188516917123025e+02
2.046791229895174702e+00 5.131998961655236826e+02
2.046891253900936292e+00 5.131808115499269434e+02
2.046991277906697437e+00 5.131615979178535554e+02
2.047091301912459027e+00 5.131422553451518525e+02
2.047191325918220173e+00 5.131227839105845305e+02
2.047291349923981763e+00 5.131031836958308077e+02
2.047391373929742908e+00 5.130834547854917673e+02
2.047491397935504498e+00 5.130635972670871752e+02
2.047591421941265644e+00 5.130436112310617318e+02
2.047691445947027233e+00 5.130234967707831402e+02
2.047791469952788379e+00 5.130032539825457434e+02
2.047891493958549969e+00 5.129828829655707523e+02
2.047991517964311114e+00 5.129623838220076095e+02
2.048091541970072704e+00 5.129417566569361497e+02
2.048191565975833850e+00 5.129210015783662584e+02
2.048291589981595440e+00 5.129001186972402593e+02
2.048391613987356585e+00 5.128791081274315502e+02
2.048491637993118175e+00 5.128579699857492642e+02
2.048591661998879765e+00 5.128367043919348589e+02
2.048691686004641355e+00 5.128153114686651861e+02
2.048791710010402500e+00 5.127937913415531739e+02
2.048891734016163646e+00 5.127721441391463486e+02
2.048991758021925236e+00 5.127503699929281993e+02
2.049091782027686826e+00 5.127284690373196554e+02
2.049191806033447971e+00 5.127064414096766995e+02
2.049291830039209117e+00 5.126842872502930959e+02
2.049391854044970707e+00 5.126620067023977754e+02
2.049491878050732296e+00 5.126395999121568821e+02
2.049591902056493442e+00 5.126170670286726363e+02
2.049691926062254588e+00 5.125944082039821978e+02
2.049791950068016178e+00 5.125716235930589164e+02
2.049891974073777767e+00 5.125487133538108537e+02
2.049991998079538913e+00 5.125256776470790783e+02
2.050092022085300059e+00 5.125025166366395979e+02
2.050192046091061648e+00 5.124792304892007451e+02
2.050292070096823238e+00 5.124558193744013579e+02
2.050392094102584828e+00 5.124322834648133949e+02
2.050492118108345974e+00 5.124086229359355684e+02
2.050592142114107563e+00 5.123848379661977788e+02
2.050692166119868709e+00 5.123609287369556569e+02
2.050792190125630299e+00 5.123368954324904507e+02
2.050892214131391444e+00 5.123127382400095939e+02
2.050992238137153034e+00 5.122884573496405665e+02
2.051092262142914180e+00 5.122640529544341916e+02
2.051192286148675770e+00 5.122395252503602023e+02
2.051292310154436915e+00 5.122148744363047399e+02
2.051392334160198505e+00 5.121901007140706952e+02
2.051492358165959651e+00 5.121652042883742979e+02
2.051592382171721241e+00 5.121401853668426156e+02
2.051692406177482386e+00 5.121150441600129852e+02
2.051792430183243976e+00 5.120897808813274423e+02
2.051892454189005122e+00 5.120643957471348813e+02
2.051992478194766711e+00 5.120388889766842340e+02
2.052092502200527857e+00 5.120132607921246972e+02
2.052192526206289447e+00 5.119875114185016969e+02
2.052292550212051037e+00 5.119616410837539320e+02
2.052392574217812182e+00 5.119356500187119536e+02
2.052492598223573772e+00 5.119095384570931628e+02
2.052592622229334918e+00 5.118833066354997072e+02
2.052692646235096507e+00 5.118569547934160937e+02
2.052792670240857653e+00 5.118304831732044136e+02
2.052892694246619243e+00 5.118038920201015571e+02
2.052992718252380389e+00 5.117771815822162012e+02
2.053092742258141978e+00 5.117503521105244317e+02
2.053192766263903124e+00 5.117234038588670728e+02
2.053292790269664714e+00 5.116963370839445702e+02
2.053392814275425859e+00 5.116691520453143198e+02
2.053492838281187449e+00 5.116418490053870869e+02
2.053592862286948595e+00 5.116144282294202412e+02
2.053692886292710185e+00 5.115868899855166205e+02
2.053792910298471330e+00 5.115592345446203240e+02
2.053892934304232920e+00 5.115314621805092088e+02
2.053992958309994066e+00 5.115035731697944925e+02
2.054092982315755656e+00 5.114755677919119989e+02
2.054193006321517245e+00 5.114474463291223287e+02
2.054293030327278391e+00 5.114192090665014803e+02
2.054393054333039981e+00 5.113908562919401675e+02
2.054493078338801126e+00 5.113623882961346681e+02
2.054593102344562716e+00 5.113338053725864256e+02
2.054693126350323862e+00 5.113051078175934663e+02
2.054793150356085452e+00 5.112762959302464196e+02
2.054893174361846597e+00 5.112473700124235734e+02
2.054993198367608187e+00 5.112183303687850184e+02
2.055093222373369333e+00 5.111891773067670215e+02
2.055193246379130922e+00 5.111599111365775343e+02
2.055293270384892068e+00 5.111305321711893725e+02
2.055393294390653658e+00 5.111010407263354409e+02
2.055493318396414804e+00 5.110714371205008888e+02
2.055593342402176393e+00 5.110417216749206091e+02
2.055693366407937539e+00 5.110118947135700296e+02
2.055793390413699129e+00 5.109819565631607929e+02
2.055893414419460719e+00 5.109519075531338785e+02
2.055993438425222308e+00 5.109217480156530655e+02
2.056093462430983454e+00 5.108914782855999874e+02
2.056193486436744600e+00 5.108610987005652646e+02
2.056293510442506189e+00 5.108306096008446389e+02
2.056393534448267779e+00 5.108000113294294806e+02
2.056493558454028925e+00 5.107693042320031509e+02
2.056593582459790071e+00 5.107384886569305991e+02
2.056693606465551660e+00 5.107075649552554637e+02
2.056793630471313250e+00 5.106765334806893861e+02
2.056893654477074396e+00 5.106453945896064965e+02
2.056993678482835541e+00 5.106141486410369907e+02
2.057093702488597131e+00 5.105827959966580920e+02
2.057193726494358721e+00 5.105513370207884236e+02
2.057293750500119867e+00 5.105197720803787433e+02
2.057393774505881012e+00 5.104881015450057475e+02
2.057493798511642602e+00 5.104563257868639425e+02
2.057593822517404192e+00 5.104244451807581413e+02
2.057693846523165337e+00 5.103924601040944822e+02
2.057793870528926927e+00 5.103603709368750856e+02
2.057893894534688517e+00 5.103281780616860033e+02
2.057993918540449663e+00 5.102958818636936940e+02
2.058093942546211252e+00 5.102634827306340526e+02
2.058193966551972398e+00 5.102309810528032017e+02
2.058293990557733988e+00 5.101983772230527165e+02
2.058394014563495134e+00 5.101656716367775175e+02
2.058494038569256723e+00 5.101328646919099583e+02
2.058594062575017869e+00 5.100999567889094237e+02
2.058694086580779459e+00 5.100669483307545988e+02
2.058794110586540604e+00 5.100338397229343741e+02
2.058894134592302194e+00 5.100006313734385799e+02
2.058994158598063340e+00 5.099673236927500852e+02
2.059094182603824930e+00 5.099339170938341113e+02
2.059194206609586075e+00 5.099004119921313531e+02
2.059294230615347665e+00 5.098668088055459293e+02
2.059394254621108811e+00 5.098331079544383329e+02
2.059494278626870400e+00 5.097993098616152565e+02
2.059594302632631990e+00 5.097654149523193610e+02
2.059694326638393136e+00 5.097314236542218282e+02
2.059794350644154726e+00 5.096973363974096856e+02
2.059894374649915871e+00 5.096631536143794960e+02
2.059994398655677461e+00 5.096288757400232043e+02
2.060094422661438607e+00 5.095945032116229072e+02
2.060194446667200197e+00 5.095600364688380068e+02
2.060294470672961342e+00 5.095254759536961728e+02
2.060394494678722932e+00 5.094908221105816892e+02
2.060494518684484078e+00 5.094560753862273828e+02
2.060594542690245667e+00 5.094212362297027994e+02
2.060694566696006813e+00 5.093863050924048821e+02
2.060794590701768403e+00 5.093512824280464883e+02
2.060894614707529549e+00 5.093161686926467269e+02
2.060994638713291138e+00 5.092809643445186794e+02
2.061094662719052284e+00 5.092456698442602487e+02
2.061194686724813874e+00 5.092102856547439842e+02
2.061294710730575019e+00 5.091748122411042345e+02
2.061394734736336609e+00 5.091392500707263480e+02
2.061494758742098199e+00 5.091035996132384298e+02
2.061594782747859345e+00 5.090678613404963357e+02
2.061694806753620934e+00 5.090320357265749180e+02
2.061794830759382080e+00 5.089961232477559179e+02
2.061894854765143670e+00 5.089601243825173924e+02
2.061994878770904815e+00 5.089240396115213230e+02
2.062094902776666405e+00 5.088878694176023600e+02
2.062194926782427551e+00 5.088516142857563409e+02
2.062294950788189141e+00 5.088152747031289778e+02
2.062394974793950286e+00 5.087788511590037501e+02
2.062494998799711876e+00 5.087423441447900814e+02
2.062595022805473022e+00 5.087057541540111174e+02
2.062695046811234612e+00 5.086690816822929264e+02
2.062795070816995757e+00 5.086323272273511407e+02
2.062895094822757347e+00 5.085954912889789625e+02
2.062995118828518493e+00 5.085585743690363074e+02
2.063095142834280082e+00 5.085215769714367298e+02
2.063195166840041228e+00 5.084844996021338375e+02
2.063295190845803262e+00 5.084473427691112875e+02
2.063395214851564408e+00 5.084101069823678358e+02
2.063495238857325553e+00 5.083727927539069924e+02
2.063595262863087143e+00 5.083354005977231509e+02
2.063695286868848733e+00 5.082979310297895381e+02
2.063795310874609878e+00 5.082603845680441736e+02
2.063895334880371024e+00 5.082227617323786149e+02
2.063995358886132614e+00 5.081850630446243713e+02
2.064095382891894204e+00 5.081472890285395465e+02
2.064195406897655349e+00 5.081094402097969009e+02
2.064295430903416495e+00 5.080715171159685610e+02
2.064395454909178085e+00 5.080335202765163558e+02
2.064495478914939675e+00 5.079954502227746502e+02
2.064595502920700820e+00 5.079573074879403976e+02
2.064695526926461966e+00 5.079190926070573937e+02
2.064795550932223556e+00 5.078808061170038854e+02
2.064895574937985145e+00 5.078424485564787574e+02
2.064995598943746291e+00 5.078040204659881738e+02
2.065095622949507437e+00 5.077655223878317656e+02
2.065195646955269471e+00 5.077269548660896135e+02
2.065295670961030616e+00 5.076883184466061607e+02
2.065395694966792206e+00 5.076496136769800387e+02
2.065495718972553352e+00 5.076108411065470705e+02
2.065595742978314941e+00 5.075720012863673674e+02
2.065695766984076087e+00 5.075330947692112886e+02
2.065795790989837677e+00 5.074941221095465949e+02
2.065895814995598823e+00 5.074550838635203718e+02
2.065995839001360412e+00 5.074159805889508448e+02
2.066095863007121558e+00 5.073768128453082795e+02
2.066195887012883148e+00 5.073375811937012259e+02
2.066295911018644293e+00 5.072982861968642965e+02
2.066395935024405883e+00 5.072589284191418528e+02
2.066495959030167029e+00 5.072195084264747038e+02
2.066595983035928619e+00 5.071800267863843033e+02
2.066696007041689764e+00 5.071404840679593917e+02
2.066796031047451354e+00 5.071008808418395120e+02
2.066896055053212500e+00 5.070612176802026170e+02
2.066996079058974090e+00 5.070214951567480739e+02
2.067096103064735679e+00 5.069817138466834763e+02
2.067196127070496825e+00 5.069418743267094101e+02
2.067296151076258415e+00 5.069019771750027985e+02
2.067396175082019560e+00 5.068620229712038849e+02
2.067496199087781150e+00 5.068220122964003735e+02
2.067596223093542296e+00 5.067819457331128774e+02
2.067696247099303886e+00 5.067418238652776381e+02
2.067796271105065031e+00 5.067016472782345318e+02
2.067896295110826621e+00 5.066614165587099023e+02
2.067996319116587767e+00 5.066211322947996223e+02
2.068096343122349356e+00 5.065807950759580649e+02
2.068196367128110502e+00 5.065404054929781523e+02
2.068296391133872092e+00 5.064999641379781110e+02
2.068396415139633238e+00 5.064594716043865219e+02
2.068496439145394827e+00 5.064189284869242442e+02
2.068596463151155973e+00 5.063783353815918531e+02
2.068696487156917563e+00 5.063376928856508243e+02
2.068796511162678708e+00 5.062970015976106879e+02
2.068896535168440298e+00 5.062562621172110084e+02
2.068996559174201888e+00 5.062154750454068335e+02
2.069096583179963034e+00 5.061746409843523224e+02
2.069196607185724623e+00 5.061337605373846600e+02
2.069296631191485769e+00 5.060928343090083672e+02
2.069396655197247359e+00 5.060518629048796697e+02
2.069496679203008505e+00 5.060108469317886488e+02
2.069596703208770094e+00 5.059697869976459970e+02
2.069696727214531240e+00 5.059286837114644300e+02
2.069796751220292830e+00 5.058875376833440214e+02
2.069896775226053975e+00 5.058463495244540695e+02
2.069996799231815565e+00 5.058051198470191139e+02
2.070096823237576711e+00 5.057638492643015411e+02
2.070196847243338301e+00 5.057225383905843614e+02
2.070296871249099446e+00 5.056811878411571684e+02
2.070396895254861036e+00 5.056397982322957887e+02
2.070496919260622182e+00 5.055983701812502886e+02
2.070596943266383771e+00 5.055569043062261585e+02
2.070696967272145361e+00 5.055154012263665209e+02
2.070796991277906507e+00 5.054738615617388291e+02
2.070897015283668097e+00 5.054322859333145743e+02
2.070997039289429686e+00 5.053906749629556430e+02
2.071097063295190832e+00 5.053490292733958995e+02
2.071197087300951978e+00 5.053073494882242471e+02
2.071297111306713568e+00 5.052656362318705305e+02
2.071397135312475157e+00 5.052238901295841060e+02
2.071497159318236303e+00 5.051821118074209949e+02
2.071597183323997449e+00 5.051403018922262618e+02
2.071697207329759038e+00 5.050984610116149724e+02
2.071797231335520628e+00 5.050565897939576416e+02
2.071897255341281774e+00 5.050146888683610769e+02
2.071997279347042920e+00 5.049727588646540539e+02
2.072097303352804509e+00 5.049308004133680470e+02
2.072197327358566099e+00 5.048888141457223355e+02
2.072297351364327245e+00 5.048468006936034271e+02
2.072397375370088390e+00 5.048047606895504487e+02
2.072497399375849980e+00 5.047626947667395143e+02
2.072597423381611570e+00 5.047206035589620683e+02
2.072697447387373160e+00 5.046784877006121519e+02
2.072797471393134305e+00 5.046363478266657125e+02
2.072897495398895895e+00 5.045941845726657675e+02
2.072997519404657041e+00 5.045519985747045553e+02
2.073097543410418631e+00 5.045097904694043791e+02
2.073197567416179776e+00 5.044675608939036238e+02
2.073297591421941366e+00 5.044253104858362349e+02
2.073397615427702512e+00 5.043830398833160302e+02
2.073497639433464101e+00 5.043407497249187372e+02
2.073597663439225247e+00 5.042984406496656220e+02
2.073697687444986837e+00 5.042561132970038784e+02
2.073797711450747983e+00 5.042137683067910530e+02
2.073897735456509572e+00 5.041714063192774802e+02
2.073997759462270718e+00 5.041290279750871832e+02
2.074097783468032308e+00 5.040866339152020146e+02
2.074197807473793453e+00 5.040442247809430683e+02
2.074297831479555043e+00 5.040018012139551047e+02
2.074397855485316633e+00 5.039593638561850071e+02
2.074497879491077779e+00 5.039169133498680253e+02
2.074597903496839368e+00 5.038744503375093586e+02
2.074697927502600514e+00 5.038319754618638626e+02
2.074797951508362104e+00 5.037894893659232025e+02
2.074897975514123249e+00 5.037469926928920358e+02
2.074997999519884839e+00 5.037044860861773259e+02
2.075098023525645985e+00 5.036619701893641832e+02
2.075198047531407575e+00 5.036194456462026210e+02
2.075298071537168720e+00 5.035769131005883992e+02
2.075398095542930310e+00 5.035343731965440384e+02
2.075498119548691456e+00 5.034918265782035860e+02
2.075598143554453046e+00 5.034492738897923800e+02
2.075698167560214191e+00 5.034067157756117581e+02
2.075798191565975781e+00 5.033641528800186506e+02
2.075898215571736927e+00 5.033215858474097786e+02
2.075998239577498516e+00 5.032790153222032927e+02
2.076098263583259662e+00 5.032364419488212093e+02
2.076198287589021252e+00 5.031938663716704241e+02
2.076298311594782842e+00 5.031512892351275923e+02
2.076398335600543987e+00 5.031087111835180394e+02
2.076498359606305577e+00 5.030661328610997316e+02
2.076598383612066723e+00 5.030235549120461087e+02
2.076698407617828313e+00 5.029809779804265872e+02
2.076798431623589458e+00 5.029384027101900756e+02
2.076898455629351048e+00 5.028958297451465569e+02
2.076998479635112194e+00 5.028532597289489559e+02
2.077098503640873783e+00 5.028106933050768248e+02
2.077198527646634929e+00 5.027681311168160505e+02
2.077298551652396519e+00 5.027255738072431086e+02
2.077398575658157664e+00 5.026830220192072716e+02
2.077498599663919254e+00 5.026404763953102020e+02
2.077598623669680400e+00 5.025979375778923668e+02
2.077698647675441990e+00 5.025554062090105845e+02
2.077798671681203135e+00 5.025128829304242686e+02
2.077898695686964725e+00 5.024703683835751917e+02
2.077998719692725871e+00 5.024278632095692956e+02
2.078098743698487461e+00 5.023853680491623095e+02
2.078198767704249050e+00 5.023428835427368426e+02
2.078298791710010640e+00 5.023004103302898784e+02
2.078398815715771786e+00 5.022579490514100371e+02
2.078498839721532931e+00 5.022155003452644451e+02
2.078598863727294521e+00 5.021730648505765657e+02
2.078698887733056111e+00 5.021306432056127278e+02
2.078798911738817257e+00 5.020882360481606952e+02
2.078898935744578402e+00 5.020458440155143762e+02
2.078998959750339992e+00 5.020034677444548947e+02
2.079098983756101582e+00 5.019611078712327412e+02
2.079199007761862728e+00 5.019187650315510609e+02
2.079299031767623873e+00 5.018764398605475776e+02
2.079399055773385463e+00 5.018341329927758920e+02
2.079499079779147053e+00 5.017918450621901911e+02
2.079599103784908198e+00 5.017495767021242159e+02
2.079699127790669344e+00 5.017073285452769369e+02
2.079799151796430934e+00 5.016651012236919200e+02
2.079899175802192524e+00 5.016228953687434000e+02
2.079999199807954113e+00 5.015807116111143387e+02
2.080099223813715259e+00 5.015385505807828395e+02
2.080199247819476849e+00 5.014964129070013996e+02
2.080299271825237994e+00 5.014542992182817898e+02
2.080399295830999584e+00 5.014122101423758977e+02
2.080499319836760730e+00 5.013701463062592438e+02
2.080599343842522320e+00 5.013281083361126775e+02
2.080699367848283465e+00 5.012860968573060632e+02
2.080799391854045055e+00 5.012441124943784416e+02
2.080899415859806201e+00 5.012021558710244449e+02
2.080999439865567791e+00 5.011602276100732070e+02
2.081099463871328936e+00 5.011183283334735279e+02
2.081199487877090526e+00 5.010764586622743195e+02
2.081299511882851672e+00 5.010346192166089736e+02
2.081399535888613261e+00 5.009928106156786498e+02
2.081499559894374407e+00 5.009510334777310163e+02
2.081599583900135997e+00 5.009092884200488811e+02
2.081699607905897143e+00 5.008675760589289325e+02
2.081799631911658732e+00 5.008258970096645726e+02
2.081899655917420322e+00 5.007842518865310808e+02
2.081999679923181468e+00 5.007426413027661170e+02
2.082099703928943057e+00 5.007010658705544301e+02
2.082199727934704203e+00 5.006595262010085889e+02
2.082299751940465793e+00 5.006180229041551115e+02
2.082399775946226939e+00 5.005765565889141158e+02
2.082499799951988528e+00 5.005351278630845400e+02
2.082599823957749674e+00 5.004937373333254982e+02
2.082699847963511264e+00 5.004523856051418988e+02
2.082799871969272409e+00 5.004110732828644927e+02
2.082899895975033999e+00 5.003698009696344116e+02
2.082999919980795145e+00 5.003285692673879907e+02
2.083099943986556735e+00 5.002873787768371585e+02
2.083199967992317880e+00 5.002462300974524965e+02
2.083299991998079470e+00 5.002051238274510183e+02
2.083400016003840616e+00 5.001640605637737735e+02
2.083500040009602206e+00 5.001230409020721481e+02
2.083600064015363351e+00 5.000820654366924600e+02
2.083700088021124941e+00 5.000411347606553818e+02
2.083800112026886531e+00 5.000002494656433782e+02
2.083900136032647676e+00 4.999594101419819481e+02
2.084000160038409266e+00 4.999186173786246741e+02
2.084100184044170412e+00 4.998778717631346922e+02
2.084200208049932002e+00 4.998371738816700827e+02
2.084300232055693147e+00 4.997965243189673856e+02
2.084400256061454737e+00 4.997559236583240931e+02
2.084500280067215883e+00 4.997153724815838700e+02
2.084600304072977472e+00 4.996748713691196144e+02
2.084700328078738618e+00 4.996344208998169165e+02
2.084800352084500208e+00 4.995940216510588812e+02
2.084900376090261354e+00 4.995536741987091318e+02
2.085000400096022943e+00 4.995133791170960649e+02
2.085100424101784089e+00 4.994731369789970472e+02
2.085200448107545679e+00 4.994329483556231821e+02
2.085300472113306824e+00 4.993928138166011763e+02
2.085400496119068414e+00 4.993527339299599817e+02
2.085500520124830004e+00 4.993127092621128895e+02
2.085600544130591594e+00 4.992727403778443431e+02
2.085700568136352739e+00 4.992328278402912929e+02
2.085800592142113885e+00 4.991929722109292697e+02
2.085900616147875475e+00 4.991531740495565828e+02
2.086000640153637065e+00 4.991134339142788576e+02
2.086100664159398210e+00 4.990737523614927227e+02
2.086200688165159356e+00 4.990341299458712001e+02
2.086300712170920946e+00 4.989945672203478466e+02
2.086400736176682535e+00 4.989550647361022584e+02
2.086500760182443681e+00 4.989156230425427907e+02
2.086600784188204827e+00 4.988762426872938249e+02
2.086700808193966417e+00 4.988369242161784882e+02
2.086800832199728006e+00 4.987976681732046131e+02
2.086900856205489152e+00 4.987584751005501857e+02
2.087000880211250298e+00 4.987193455385458947e+02
2.087100904217011887e+00 4.986802800256638193e+02
2.087200928222773477e+00 4.986412790984991261e+02
2.087300952228534623e+00 4.986023432917567106e+02
2.087400976234296213e+00 4.985634731382368159e+02
2.087501000240057802e+00 4.985246691688198553e+02
2.087601024245818948e+00 4.984859319124505532e+02
2.087701048251580538e+00 4.984472618961260082e+02
2.087801072257341684e+00 4.984086596448779574e+02
2.087901096263103273e+00 4.983701256817611238e+02
2.088001120268864419e+00 4.983316605278369593e+02
2.088101144274626009e+00 4.982932647021599450e+02
2.088201168280387154e+00 4.982549387217626418e+02
2.088301192286148744e+00 4.982166831016426158e+02
2.088401216291909890e+00 4.981784983547472621e+02
2.088501240297671480e+00 4.981403849919596496e+02
2.088601264303432625e+00 4.981023435220860165e+02
2.088701288309194215e+00 4.980643744518391145e+02
2.088801312314955361e+00 4.980264782858261015e+02
2.088901336320716950e+00 4.979886555265347852e+02
2.089001360326478096e+00 4.979509066743183894e+02
2.089101384332239686e+00 4.979132322273833324e+02
2.089201408338001276e+00 4.978756326817750164e+02
2.089301432343762421e+00 4.978381085313648100e+02
2.089401456349524011e+00 4.978006602678330523e+02
2.089501480355285157e+00 4.977632883806618338e+02
2.089601504361046747e+00 4.977259933571158399e+02
2.089701528366807892e+00 4.976887756822322899e+02
2.089801552372569482e+00 4.976516358388068397e+02
2.089901576378330628e+00 4.976145743073790868e+02
2.090001600384092217e+00 4.975775915662221678e+02
2.090101624389853363e+00 4.975406880913262171e+02
2.090201648395614953e+00 4.975038643563891583e+02
2.090301672401376099e+00 4.974671208328012426e+02
2.090401696407137688e+00 4.974304579896321457e+02
2.090501720412898834e+00 4.973938762936205080e+02
2.090601744418660424e+00 4.973573762091580761e+02
2.090701768424421569e+00 4.973209581982792997e+02
2.090801792430183159e+00 4.972846227206483150e+02
2.090901816435944305e+00 4.972483702335472344e+02
2.091001840441705895e+00 4.972122011918611406e+02
2.091101864447467484e+00 4.971761160480677404e+02
2.091201888453228630e+00 4.971401152522258826e+02
2.091301912458990220e+00 4.971041992519616315e+02
2.091401936464751365e+00 4.970683684924573527e+02
2.091501960470512955e+00 4.970326234164388097e+02
2.091601984476274101e+00 4.969969644641632271e+02
2.091702008482035691e+00 4.969613920734090584e+02
2.091802032487796836e+00 4.969259066794616615e+02
2.091902056493558426e+00 4.968905087151044313e+02
2.092002080499319572e+00 4.968551986106034519e+02
2.092102104505081162e+00 4.968199767937006754e+02
2.092202128510842307e+00 4.967848436895982331e+02
2.092302152516603897e+00 4.967497997209492837e+02
2.092402176522365043e+00 4.967148453078458488e+02
2.092502200528126632e+00 4.966799808678083537e+02
2.092602224533887778e+00 4.966452068157738040e+02
2.092702248539649368e+00 4.966105235640842466e+02
2.092802272545410514e+00 4.965759315224782426e+02
2.092902296551172547e+00 4.965414310980763730e+02
2.093002320556933693e+00 4.965070226953729389e+02
2.093102344562694839e+00 4.964727067162253888e+02
2.093202368568456428e+00 4.964384835598406198e+02
2.093302392574218018e+00 4.964043536227687810e+02
2.093402416579979164e+00 4.963703172988896881e+02
2.093502440585740310e+00 4.963363749794036153e+02
2.093602464591501899e+00 4.963025270528197552e+02
2.093702488597263489e+00 4.962687739049478068e+02
2.093802512603024635e+00 4.962351159188874021e+02
2.093902536608785780e+00 4.962015534750159986e+02
2.094002560614547370e+00 4.961680869509825129e+02
2.094102584620308960e+00 4.961347167216935077e+02
2.094202608626070106e+00 4.961014431593067684e+02
2.094302632631831251e+00 4.960682666332192525e+02
2.094402656637592841e+00 4.960351875100588472e+02
2.094502680643354431e+00 4.960022061536740239e+02
2.094602704649115577e+00 4.959693229251253683e+02
2.094702728654876722e+00 4.959365381826739849e+02
2.094802752660638756e+00 4.959038522817746184e+02
2.094902776666399902e+00 4.958712655750669569e+02
2.095002800672161491e+00 4.958387784123636379e+02
2.095102824677922637e+00 4.958063911406429156e+02
2.095202848683684227e+00 4.957741041040401910e+02
2.095302872689445373e+00 4.957419176438382920e+02
2.095402896695206962e+00 4.957098320984597422e+02
2.095502920700968108e+00 4.956778478034570981e+02
2.095602944706729698e+00 4.956459650915041379e+02
2.095702968712490843e+00 4.956141842923883587e+02
2.095802992718252433e+00 4.955825057330033019e+02
2.095903016724013579e+00 4.955509297373385493e+02
2.096003040729775169e+00 4.955194566264721061e+02
2.096103064735536314e+00 4.954880867185632383e+02
2.096203088741297904e+00 4.954568203288418999e+02
2.096303112747059050e+00 4.954256577696049249e+02
2.096403136752820640e+00 4.953945993502045440e+02
2.096503160758581785e+00 4.953636453770428147e+02
2.096603184764343375e+00 4.953327961535626400e+02
2.096703208770104965e+00 4.953020519802416288e+02
2.096803232775866110e+00 4.952714131545822056e+02
2.096903256781627700e+00 4.952408799711090523e+02
2.097003280787388846e+00 4.952104527213550682e+02
2.097103304793150436e+00 4.951801316938610853e+02
2.097203328798911581e+00 4.951499171741638747e+02
2.097303352804673171e+00 4.951198094447911444e+02
2.097403376810434317e+00 4.950898087852555705e+02
2.097503400816195906e+00 4.950599154720458728e+02
2.097603424821957052e+00 4.950301297786215855e+02
2.097703448827718642e+00 4.950004519754065200e+02
2.097803472833479788e+00 4.949708823297814888e+02
2.097903496839241377e+00 4.949414211060783373e+02
2.098003520845002523e+00 4.949120685655748844e+02
2.098103544850764113e+00 4.948828249664860550e+02
2.098203568856525258e+00 4.948536905639596171e+02
2.098303592862286848e+00 4.948246656100701557e+02
2.098403616868047994e+00 4.947957503538134461e+02
2.098503640873809584e+00 4.947669450411001435e+02
2.098603664879571173e+00 4.947382499147481667e+02
2.098703688885332319e+00 4.947096652144815607e+02
2.098803712891093909e+00 4.946811911769210042e+02
2.098903736896855055e+00 4.946528280355806828e+02
2.099003760902616644e+00 4.946245760208618094e+02
2.099103784908377790e+00 4.945964353600473373e+02
2.099203808914139380e+00 4.945684062772983793e+02
2.099303832919900525e+00 4.945404889936481823e+02
2.099403856925662115e+00 4.945126837269957605e+02
2.099503880931423261e+00 4.944849906921049865e+02
2.099603904937184851e+00 4.944574101005953253e+02
2.099703928942945996e+00 4.944299421609402430e+02
2.099803952948707586e+00 4.944025870784629433e+02
2.099903976954468732e+00 4.943753450553291486e+02
2.100004000960230321e+00 4.943482162905456789e+02
2.100104024965991467e+00 4.943212009799550515e+02
2.100204048971753057e+00 4.942942993162315588e+02
2.100304072977514647e+00 4.942675114888773464e+02
2.100404096983275792e+00 4.942408376842181497e+02
2.100504120989037382e+00 4.942142780853996555e+02
2.100604144994798972e+00 4.941878328723844902e+02
2.100704169000560118e+00 4.941615022219481830e+02
2.100804193006321263e+00 4.941352863076755284e+02
2.100904217012082853e+00 4.941091852999568346e+02
2.101004241017844443e+00 4.940831993659853651e+02
2.101104265023605588e+00 4.940573286697542699e+02
2.101204289029366734e+00 4.940315733720533444e+02
2.101304313035128324e+00 4.940059336304657904e+02
2.101404337040889914e+00 4.939804095993641795e+02
2.101504361046651059e+00 4.939550014299117038e+02
2.101604385052412205e+00 4.939297092700541043e+02
2.101704409058173795e+00 4.939045332645219446e+02
2.101804433063935384e+00 4.938794735548244716e+02
2.101904457069696530e+00 4.938545302792501275e+02
2.102004481075457676e+00 4.938297035728620017e+02
2.102104505081219266e+00 4.938049935674972630e+02
2.102204529086980855e+00 4.937804003917648856e+02
2.102304553092742445e+00 4.937559241710430342e+02
2.102404577098503591e+00 4.937315650274771315e+02
2.102504601104265181e+00 4.937073230799800854e+02
2.102604625110026326e+00 4.936831984442275143e+02
2.102704649115787916e+00 4.936591912326590545e+02
2.102804673121549062e+00 4.936353015544759728e+02
2.102904697127310651e+00 4.936115295156388356e+02
2.103004721133071797e+00 4.935878752188675094e+02
2.103104745138833387e+00 4.935643387636397392e+02
2.103204769144594533e+00 4.935409202461908080e+02
2.103304793150356122e+00 4.935176197595111489e+02
2.103404817156117268e+00 4.934944373933464590e+02
2.103504841161878858e+00 4.934713732341971308e+02
2.103604865167640003e+00 4.934484273653177979e+02
2.103704889173401593e+00 4.934255998667161407e+02
2.103804913179162739e+00 4.934028908151528867e+02
2.103904937184924329e+00 4.933803002841411285e+02
2.104004961190685918e+00 4.933578283439484835e+02
2.104104985196447064e+00 4.933354750615923194e+02
2.104205009202208654e+00 4.933132405008445858e+02
2.104305033207969799e+00 4.932911247222300517e+02
2.104405057213731389e+00 4.932691277830249419e+02
2.104505081219492535e+00 4.932472497372602902e+02
2.104605105225254125e+00 4.932254906357212576e+02
2.104705129231015270e+00 4.932038505259455405e+02
2.104805153236776860e+00 4.931823294522268952e+02
2.104905177242538006e+00 4.931609274556157061e+02
2.105005201248299596e+00 4.931396445739183605e+02
2.105105225254060741e+00 4.931184808416982150e+02
2.105205249259822331e+00 4.930974362902783241e+02
2.105305273265583477e+00 4.930765109477409851e+02
2.105405297271345066e+00 4.930557048389308648e+02
2.105505321277106212e+00 4.930350179854542603e+02
2.105605345282867802e+00 4.930144504056810320e+02
2.105705369288628948e+00 4.929940021147487528e+02
2.105805393294390537e+00 4.929736731245603210e+02
2.105905417300152127e+00 4.929534634437889622e+02
2.106005441305913273e+00 4.929333730778786276e+02
2.106105465311674863e+00 4.929134020290467788e+02
2.106205489317436008e+00 4.928935502962856958e+02
2.106305513323197598e+00 4.928738178753653756e+02
2.106405537328958744e+00 4.928542047588356922e+02
2.106505561334720333e+00 4.928347109360282161e+02
2.106605585340481479e+00 4.928153363930600221e+02
2.106705609346243069e+00 4.927960811128351679e+02
2.106805633352004214e+00 4.927769450750471378e+02
2.106905657357765804e+00 4.927579282561843002e+02
2.107005681363526950e+00 4.927390306295286564e+02
2.107105705369288540e+00 4.927202521651622646e+02
2.107205729375049685e+00 4.927015928299693428e+02
2.107305753380811275e+00 4.926830525876385991e+02
2.107405777386572421e+00 4.926646313986685186e+02
2.107505801392334011e+00 4.926463292203688979e+02
2.107605825398095156e+00 4.926281460068656770e+02
2.107705849403856746e+00 4.926100817091027011e+02
2.107805873409618336e+00 4.925921362748488832e+02
2.107905897415379926e+00 4.925743096486984314e+02
2.108005921421141071e+00 4.925566017720775562e+02
2.108105945426902217e+00 4.925390125832468584e+02
2.108205969432663807e+00 4.925215420173056486e+02
2.108305993438425396e+00 4.925041900061971774e+02
2.108406017444186542e+00 4.924869564787114768e+02
2.108506041449947688e+00 4.924698413604917846e+02
2.108606065455709278e+00 4.924528445740375560e+02
2.108706089461470867e+00 4.924359660387099780e+02
2.108806113467232013e+00 4.924192056707348684e+02
2.108906137472993159e+00 4.924025633832104631e+02
2.109006161478754748e+00 4.923860390861108272e+02
2.109106185484516338e+00 4.923696326862907995e+02
2.109206209490277484e+00 4.923533440874909388e+02
2.109306233496038629e+00 4.923371731903429804e+02
2.109406257501800219e+00 4.923211198923767142e+02
2.109506281507561809e+00 4.923051840880232248e+02
2.109606305513323399e+00 4.922893656686205759e+02
2.109706329519084544e+00 4.922736645224213703e+02
2.109806353524846134e+00 4.922580805345974113e+02
2.109906377530607280e+00 4.922426135872440227e+02
2.110006401536368870e+00 4.922272635593898258e+02
2.110106425542130015e+00 4.922120303269977057e+02
2.110206449547891605e+00 4.921969137629751572e+02
2.110306473553652751e+00 4.921819137371799684e+02
2.110406497559414341e+00 4.921670301164224952e+02
2.110506521565175486e+00 4.921522627644778822e+02
2.110606545570937076e+00 4.921376115420890756e+02
2.110706569576698222e+00 4.921230763069736440e+02
2.110806593582459811e+00 4.921086569138321352e+02
2.110906617588220957e+00 4.920943532143527364e+02
2.111006641593982547e+00 4.920801650572201993e+02
2.111106665599743692e+00 4.920660922881207284e+02
2.111206689605505282e+00 4.920521347497514739e+02
2.111306713611266428e+00 4.920382922818259885e+02
2.111406737617028018e+00 4.920245647210815605e+02
2.111506761622789607e+00 4.920109519012878536e+02
2.111606785628550753e+00 4.919974536532528759e+02
2.111706809634312343e+00 4.919840698048319609e+02
2.111806833640073489e+00 4.919708001809335087e+02
2.111906857645835078e+00 4.919576446035294452e+02
2.112006881651596224e+00 4.919446028916606224e+02
2.112106905657357814e+00 4.919316748614448329e+02
2.112206929663118959e+00 4.919188603260880654e+02
2.112306953668880549e+00 4.919061590958872330e+02
2.112406977674641695e+00 4.918935709782438153e+02
2.112507001680403285e+00 4.918810957776686337e+02
2.112607025686164430e+00 4.918687332957913441e+02
2.112707049691926020e+00 4.918564833313694180e+02
2.112807073697687166e+00 4.918443456802952483e+02
2.112907097703448756e+00 4.918323201356062100e+02
2.113007121709209901e+00 4.918204064874936989e+02
2.113107145714971491e+00 4.918086045233093273e+02
2.113207169720732637e+00 4.917969140275779409e+02
2.113307193726494226e+00 4.917853347820033605e+02
2.113407217732255816e+00 4.917738665654782153e+02
2.113507241738016962e+00 4.917625091540940048e+02
2.113607265743778552e+00 4.917512623211501932e+02
2.113707289749539697e+00 4.917401258371625090e+02
2.113807313755301287e+00 4.917290994698732334e+02
2.113907337761062433e+00 4.917181829842614889e+02
2.114007361766824022e+00 4.917073761425507428e+02
2.114107385772585168e+00 4.916966787042203464e+02
2.114207409778346758e+00 4.916860904260157668e+02
2.114307433784107904e+00 4.916756110619561468e+02
2.114407457789869493e+00 4.916652403633458448e+02
2.114507481795630639e+00 4.916549780787844384e+02
2.114607505801392229e+00 4.916448239541776957e+02
2.114707529807153374e+00 4.916347777327451922e+02
2.114807553812914964e+00 4.916248391550325323e+02
2.114907577818676110e+00 4.916150079589225470e+02
2.115007601824437700e+00 4.916052838796433093e+02
2.115107625830199289e+00 4.915956666497809806e+02
2.115207649835960879e+00 4.915861559992891330e+02
2.115307673841722025e+00 4.915767516554993790e+02
2.115407697847483171e+00 4.915674533431334794e+02
2.115507721853244760e+00 4.915582607843126652e+02
2.115607745859006350e+00 4.915491736985688931e+02
2.115707769864767496e+00 4.915401918028581463e+02
2.115807793870528641e+00 4.915313148115671993e+02
2.115907817876290231e+00 4.915225424365293634e+02
2.116007841882051821e+00 4.915138743870323879e+02
2.116107865887812967e+00 4.915053103698321593e+02
2.116207889893574112e+00 4.914968500891617396e+02
2.116307913899335702e+00 4.914884932467459748e+02
2.116407937905097292e+00 4.914802395418093397e+02
2.116507961910858437e+00 4.914720886710916261e+02
2.116607985916619583e+00 4.914640403288563562e+02
2.116708009922381173e+00 4.914560942069042540e+02
2.116808033928142763e+00 4.914482499945848417e+02
2.116908057933903908e+00 4.914405073788090021e+02
2.117008081939665498e+00 4.914328660440587555e+02
2.117108105945427088e+00 4.914253256724028347e+02
2.117208129951188234e+00 4.914178859435056665e+02
2.117308153956949823e+00 4.914105465346415258e+02
2.117408177962710969e+00 4.914033071207073817e+02
2.117508201968472559e+00 4.913961673742318794e+02
2.117608225974233704e+00 4.913891269653927338e+02
2.117708249979995294e+00 4.913821855620252563e+02
2.117808273985756440e+00 4.913753428296370203e+02
2.117908297991518030e+00 4.913685984314199686e+02
2.118008321997279175e+00 4.913619520282633175e+02
2.118108346003040765e+00 4.913554032787662322e+02
2.118208370008801911e+00 4.913489518392510149e+02
2.118308394014563500e+00 4.913425973637754964e+02
2.118408418020324646e+00 4.913363395041464514e+02
2.118508442026086236e+00 4.913301779099334112e+02
2.118608466031847382e+00 4.913241122284804305e+02
2.118708490037608971e+00 4.913181421049204118e+02
2.118808514043370561e+00 4.913122671821878384e+02
2.118908538049131707e+00 4.913064871010329284e+02
2.119008562054893297e+00 4.913008015000332307e+02
2.119108586060654442e+00 4.912952100156101096e+02
2.119208610066416032e+00 4.912897122820397158e+02
2.119308634072177178e+00 4.912843079314668557e+02
2.119408658077938767e+00 4.912789965939205103e+02
2.119508682083699913e+00 4.912737778973266813e+02
2.119608706089461503e+00 4.912686514675203853e+02
2.119708730095222649e+00 4.912636169282624792e+02
2.119808754100984238e+00 4.912586739012521093e+02
2.119908778106745384e+00 4.912538220061408651e+02
2.120008802112506974e+00 4.912490608605462512e+02
2.120108826118268119e+00 4.912443900800672054e+02
2.120208850124029709e+00 4.912398092782970593e+02
2.120308874129790855e+00 4.912353180668387154e+02
2.120408898135552445e+00 4.912309160553180050e+02
2.120508922141313590e+00 4.912266028513986953e+02
2.120608946147075180e+00 4.912223780607970980e+02
2.120708970152836770e+00 4.912182412872957684e+02
2.120808994158597915e+00 4.912141921327587966e+02
2.120909018164359505e+00 4.912102301971457905e+02
2.121009042170120651e+00 4.912063550785272810e+02
2.121109066175882241e+00 4.912025663730987617e+02
2.121209090181643386e+00 4.911988636751956392e+02
2.121309114187404976e+00 4.911952465773081258e+02
2.121409138193166122e+00 4.911917146700959620e+02
2.121509162198927712e+00 4.911882675424034232e+02
2.121609186204688857e+00 4.911849047812746107e+02
2.121709210210450447e+00 4.911816259719682876e+02
2.121809234216211593e+00 4.911784306979720895e+02
2.121909258221973182e+00 4.911753185410184415e+02
2.122009282227734328e+00 4.911722890811006437e+02
2.122109306233495918e+00 4.911693418964873672e+02
2.122209330239257064e+00 4.911664765637353298e+02
2.122309354245018653e+00 4.911636926577102713e+02
2.122409378250779799e+00 4.911609897515960483e+02
2.122509402256541833e+00 4.911583674169156097e+02
2.122609426262302978e+00 4.911558252235415694e+02
2.122709450268064124e+00 4.911533627397168402e+02
2.122809474273825714e+00 4.911509795320647527e+02
2.122909498279587304e+00 4.911486751656087790e+02
2.123009522285348449e+00 4.911464492037868013e+02
2.123109546291109595e+00 4.911443012084660609e+02
2.123209570296871185e+00 4.911422307399602118e+02
2.123309594302632775e+00 4.911402373570440432e+02
2.123409618308393920e+00 4.911383206169699065e+02
2.123509642314155066e+00 4.911364800754835187e+02
2.123609666319916656e+00 4.911347152868396506e+02
2.123709690325678245e+00 4.911330258038185548e+02
2.123809714331439391e+00 4.911314111777409153e+02
2.123909738337200537e+00 4.911298709584851849e+02
2.124009762342962127e+00 4.911284046945025921e+02
2.124109786348723716e+00 4.911270119328343640e+02
2.124209810354484862e+00 4.911256922191262788e+02
2.124309834360246008e+00 4.911244450976464577e+02
2.124409858366008041e+00 4.911232701113001440e+02
2.124509882371769187e+00 4.911221668016480635e+02
2.124609906377530777e+00 4.911211347089202945e+02
2.124709930383291923e+00 4.911201733720335483e+02
2.124809954389053512e+00 4.911192823286083353e+02
2.124909978394814658e+00 4.911184611149848251e+02
2.125010002400576248e+00 4.911177092662377390e+02
2.125110026406337393e+00 4.911170263161956200e+02
2.125210050412098983e+00 4.911164117974557257e+02
2.125310074417860129e+00 4.911158652414002290e+02
2.125410098423621719e+00 4.911153861782130434e+02
2.125510122429382864e+00 4.911149741368988089e+02
2.125610146435144454e+00 4.911146286452941467e+02
2.125710170440905600e+00 4.911143492300892035e+02
2.125810194446667190e+00 4.911141354168436806e+02
2.125910218452428335e+00 4.911139867300004767e+02
2.126010242458189925e+00 4.911139026929055262e+02
2.126110266463951071e+00 4.911138828278232040e+02
2.126210290469712660e+00 4.911139266559543444e+02
2.126310314475474250e+00 4.911140336974507363e+02
2.126410338481235396e+00 4.911142034714339388e+02
2.126510362486996986e+00 4.911144354960117084e+02
2.126610386492758131e+00 4.911147292882943702e+02
2.126710410498519721e+00 4.911150843644130646e+02
2.126810434504280867e+00 4.911155002395339579e+02
2.126910458510042456e+00 4.911159764278784223e+02
2.127010482515803602e+00 4.911165124427380988e+02
2.127110506521565192e+00 4.911171077964920073e+02
2.127210530527326338e+00 4.911177620006244524e+02
2.127310554533087927e+00 4.911184745657406552e+02
2.127410578538849073e+00 4.911192450015857958e+02
2.127510602544610663e+00 4.911200728170604179e+02
2.127610626550371808e+00 4.911209575202378232e+02
2.127710650556133398e+00 4.911218986183815218e+02
2.127810674561894544e+00 4.911228956179627403e+02
2.127910698567656134e+00 4.911239480246766789e+02
2.128010722573417279e+00 4.911250553434596782e+02
2.128110746579178869e+00 4.911262170785079775e+02
2.128210770584940459e+00 4.911274327332932899e+02
2.128310794590701605e+00 4.911287018105794004e+02
2.128410818596463194e+00 4.911300238124424595e+02
2.128510842602224340e+00 4.911313982402838292e+02
2.128610866607985930e+00 4.911328245948517406e+02
2.128710890613747075e+00 4.911343023762556186e+02
2.128810914619508665e+00 4.911358310839844989e+02
2.128910938625269811e+00 4.911374102169237403e+02
2.129010962631031401e+00 4.911390392733732142e+02
2.129110986636792546e+00 4.911407177510631072e+02
2.129211010642554136e+00 4.911424451471729071e+02
2.129311034648315282e+00 4.911442209583478871e+02
2.129411058654076871e+00 4.911460446807159315e+02
2.129511082659838017e+00 4.911479158099064080e+02
2.129611106665599607e+00 4.911498338410655151e+02
2.129711130671360753e+00 4.911517982688749271e+02
2.129811154677122342e+00 4.911538085875694151e+02
2.129911178682883932e+00 4.911558642909526498e+02
2.130011202688645078e+00 4.911579648724163008e+02
2.130111226694406668e+00 4.911601098249562938e+02
2.130211250700168257e+00 4.911622986411903184e+02
2.130311274705929403e+00 4.911645308133755634e+02
2.130411298711690549e+00 4.911668058334262241e+02
2.130511322717452138e+00 4.911691231929295327e+02
2.130611346723213728e+00 4.911714823831653689e+02
2.130711370728974874e+00 4.911738828951209257e+02
2.130811394734736020e+00 4.911763242195108887e+02
2.130911418740497609e+00 4.911788058467924429e+02
2.131011442746259199e+00 4.911813272671839741e+02
2.131111466752020345e+00 4.911838879706817238e+02
2.131211490757781490e+00 4.911864874470775248e+02
2.131311514763543080e+00 4.911891251859768204e+02
2.131411538769304670e+00 4.911918006768141822e+02
2.131511562775065816e+00 4.911945134088721261e+02
2.131611586780826961e+00 4.911972628712975393e+02
2.131711610786588551e+00 4.912000485531216327e+02
2.131811634792350141e+00 4.912028699432718213e+02
2.131911658798111731e+00 4.912057265305948590e+02
2.132011682803872876e+00 4.912086178038705384e+02
2.132111706809634466e+00 4.912115432518302214e+02
2.132211730815395612e+00 4.912145023631735512e+02
2.132311754821157201e+00 4.912174946265869835e+02
2.132411778826918347e+00 4.912205195307594749e+02
2.132511802832679937e+00 4.912235765644009575e+02
2.132611826838441083e+00 4.912266652162585387e+02
2.132711850844202672e+00 4.912297849751344074e+02
2.132811874849963818e+00 4.912329353299031709e+02
2.132911898855725408e+00 4.912361157695279417e+02
2.133011922861486553e+00 4.912393257830793232e+02
2.133111946867248143e+00 4.912425648597509849e+02
2.133211970873009289e+00 4.912458324888775678e+02
2.133311994878770879e+00 4.912491281599517947e+02
2.133412018884532024e+00 4.912524513626408407e+02
2.133512042890293614e+00 4.912558015868052621e+02
2.133612066896055204e+00 4.912591783225133213e+02
2.133712090901816349e+00 4.912625810600607110e+02
2.133812114907577939e+00 4.912660092899863002e+02
2.133912138913339085e+00 4.912694625030891302e+02
2.134012162919100675e+00 4.912729401904451265e+02
2.134112186924861820e+00 4.912764418434260278e+02
2.134212210930623410e+00 4.912799669537133695e+02
2.134312234936384556e+00 4.912835150133182651e+02
2.134412258942146146e+00 4.912870855145953328e+02
2.134512282947907291e+00 4.912906779502632730e+02
2.134612306953668881e+00 4.912942918134184538e+02
2.134712330959430027e+00 4.912979265975536123e+02
2.134812354965191616e+00 4.913015817965733731e+02
2.134912378970952762e+00 4.913052569048124951e+02
2.135012402976714352e+00 4.913089514170514462e+02
2.135112426982475498e+00 4.913126648285347642e+02
2.135212450988237087e+00 4.913163966349845282e+02
2.135312474993998233e+00 4.913201463326212775e+02
2.135412498999759823e+00 4.913239134181775398e+02
2.135512523005521413e+00 4.913276973889149986e+02
2.135612547011282558e+00 4.913314977426429095e+02
2.135712571017044148e+00 4.913353139777321417e+02
2.135812595022805294e+00 4.913391455931329688e+02
2.135912619028566883e+00 4.913429920883921227e+02
2.136012643034328029e+00 4.913468529636685957e+02
2.136112667040089619e+00 4.913507277197492726e+02
2.136212691045850764e+00 4.913546158580677456e+02
2.136312715051612354e+00 4.913585168807172749e+02
2.136412739057373500e+00 4.913624302904705132e+02
2.136512763063135090e+00 4.913663555907935461e+02
2.136612787068896235e+00 4.913702922858630586e+02
2.136712811074657825e+00 4.913742398805828770e+02
2.136812835080418971e+00 4.913781978805990320e+02
2.136912859086180561e+00 4.913821657923169823e+02
2.137012883091941706e+00 4.913861431229174741e+02
2.137112907097703296e+00 4.913901293803726276e+02
2.137212931103464442e+00 4.913941240734615690e+02
2.137312955109226031e+00 4.913981267117863467e+02
2.137412979114987621e+00 4.914021368057893824e+02
2.137513003120749211e+00 4.914061538667675677e+02
2.137613027126510357e+00 4.914101774068898294e+02
2.137713051132271502e+00 4.914142069392105441e+02
2.137813075138033092e+00 4.914182419776884672e+02
2.137913099143794682e+00 4.914222820371994089e+02
2.138013123149555827e+00 4.914263266335547655e+02
2.138113147155316973e+00 4.914303752835154455e+02
2.138213171161078563e+00 4.914344275048075019e+02
2.138313195166840153e+00 4.914384828161386167e+02
2.138413219172601298e+00 4.914425407372128234e+02
2.138513243178362444e+00 4.914466007887467072e+02
2.138613267184124034e+00 4.914506624924848097e+02
2.138713291189885624e+00 4.914547253712137831e+02
2.138813315195646769e+00 4.914587889487796701e+02
2.138913339201407915e+00 4.914628527501010353e+02
2.139013363207169505e+00 4.914669163011871547e+02
2.139113387212931094e+00 4.914709791291502370e+02
2.139213411218692684e+00 4.914750407622220791e+02
2.139313435224453830e+00 4.914791007297692431e+02
2.139413459230215420e+00 4.914831585623076080e+02
2.139513483235976565e+00 4.914872137915180019e+02
2.139613507241738155e+00 4.914912659502600718e+02
2.139713531247499301e+00 4.914953145725888248e+02
2.139813555253260891e+00 4.914993591937673614e+02
2.139913579259022036e+00 4.915033993502840985e+02
2.140013603264783626e+00 4.915074345798653326e+02
2.140113627270544772e+00 4.915114644214917234e+02
2.140213651276306361e+00 4.915154884154117099e+02
2.140313675282067507e+00 4.915195061031564592e+02
2.140413699287829097e+00 4.915235170275550445e+02
2.140513723293590242e+00 4.915275207327465523e+02
2.140613747299351832e+00 4.915315167641984431e+02
2.140713771305112978e+00 4.915355046687178060e+02
2.140813795310874568e+00 4.915394839944667638e+02
2.140913819316635713e+00 4.915434542909760012e+02
2.141013843322397303e+00 4.915474151091602835e+02
2.141113867328158893e+00 4.915513660013315302e+02
2.141213891333920039e+00 4.915553065212129127e+02
2.141313915339681628e+00 4.915592362239538033e+02
2.141413939345442774e+00 4.915631546661423954e+02
2.141513963351204364e+00 4.915670614058208798e+02
2.141613987356965509e+00 4.915709560024978941e+02
2.141714011362727099e+00 4.915748380171634153e+02
2.141814035368488245e+00 4.915787070123030844e+02
2.141914059374249835e+00 4.915825625519093478e+02
2.142014083380010980e+00 4.915864042014968618e+02
2.142114107385772570e+00 4.915902315281165897e+02
2.142214131391533716e+00 4.915940441003683077e+02
2.142314155397295306e+00 4.915978414884128824e+02
2.142414179403056451e+00 4.916016232639877899e+02
2.142514203408818041e+00 4.916053890004193931e+02
2.142614227414579187e+00 4.916091382726355619e+02
2.142714251420340776e+00 4.916128706571805651e+02
2.142814275426101922e+00 4.916165857322249622e+02
2.142914299431863512e+00 4.916202830775825419e+02
2.143014323437625102e+00 4.916239622747205544e+02
2.143114347443386247e+00 4.916276229067728423e+02
2.143214371449147837e+00 4.916312645585529140e+02
2.143314395454908983e+00 4.916348868165690078e+02
2.143414419460670572e+00 4.916384892690315951e+02
2.143514443466431718e+00 4.916420715058711153e+02
2.143614467472193308e+00 4.916456331187473552e+02
2.143714491477954454e+00 4.916491737010630345e+02
2.143814515483716043e+00 4.916526928479765388e+02
2.143914539489477189e+00 4.916561901564129471e+02
2.144014563495238779e+00 4.916596652250779016e+02
2.144114587500999924e+00 4.916631176544678965e+02
2.144214611506761514e+00 4.916665470468841477e+02
2.144314635512522660e+00 4.916699530064432793e+02
2.144414659518284250e+00 4.916733351390909661e+02
2.144514683524045395e+00 4.916766930526110855e+02
2.144614707529806985e+00 4.916800263566401554e+02
2.144714731535568575e+00 4.916833346626773391e+02
2.144814755541330165e+00 4.916866175840977462e+02
2.144914779547091310e+00 4.916898747361616415e+02
2.145014803552852456e+00 4.916931057360284285e+02
2.145114827558614046e+00 4.916963102027661989e+02
2.145214851564375635e+00 4.916994877573644658e+02
2.145314875570136781e+00 4.917026380227449636e+02
2.145414899575897927e+00 4.917057606237709706e+02
2.145514923581659517e+00 4.917088551872624862e+02
2.145614947587421106e+00 4.917119213420033361e+02
2.145714971593182252e+00 4.917149587187538486e+02
2.145814995598943398e+00 4.917179669502626211e+02
2.145915019604704987e+00 4.917209456712749898e+02
2.146015043610466577e+00 4.917238945185450802e+02
2.146115067616227723e+00 4.917268131308484840e+02
2.146215091621988869e+00 4.917297011489880560e+02
2.146315115627750458e+00 4.917325582158087514e+02
2.146415139633512048e+00 4.917353839762057532e+02
2.146515163639273194e+00 4.917381780771358990e+02
2.146615187645034784e+00 4.917409401676266043e+02
2.146715211650796373e+00 4.917436698987882551e+02
2.146815235656557519e+00 4.917463669238215402e+02
2.146915259662319109e+00 4.917490308980294458e+02
2.147015283668080254e+00 4.917516614788263496e+02
2.147115307673841844e+00 4.917542583257488218e+02
2.147215331679602990e+00 4.917568211004632417e+02
2.147315355685364580e+00 4.917593494667779055e+02
2.147415379691125725e+00 4.917618430906508138e+02
2.147515403696887315e+00 4.917643016402004150e+02
2.147615427702648461e+00 4.917667247857144730e+02
2.147715451708410050e+00 4.917691121996593893e+02
2.147815475714171196e+00 4.917714635566885022e+02
2.147915499719932786e+00 4.917737785336536831e+02
2.148015523725693932e+00 4.917760568096122142e+02
2.148115547731455521e+00 4.917782980658367364e+02
2.148215571737216667e+00 4.917805019858241167e+02
2.148315595742978257e+00 4.917826682553030082e+02
2.148415619748739847e+00 4.917847965622446509e+02
2.148515643754500992e+00 4.917868865968707155e+02
2.148615667760262582e+00 4.917889380516611482e+02
2.148715691766023728e+00 4.917909506213630380e+02
2.148815715771785317e+00 4.917929240029998255e+02
2.148915739777546463e+00 4.917948578958781809e+02
2.149015763783308053e+00 4.917967520015970422e+02
2.149115787789069199e+00 4.917986060240564825e+02
2.149215811794830788e+00 4.918004196694635652e+02
2.149315835800591934e+00 4.918021926463425189e+02
2.149415859806353524e+00 4.918039246655410466e+02
2.149515883812114669e+00 4.918056154402398192e+02
2.149615907817876259e+00 4.918072646859579322e+02
2.149715931823637405e+00 4.918088721205622278e+02
2.149815955829398995e+00 4.918104374642738321e+02
2.149915979835160140e+00 4.918119604396760565e+02
2.150016003840921730e+00 4.918134407717217300e+02
2.150116027846682876e+00 4.918148781877399074e+02
2.150216051852444465e+00 4.918162724174439973e+02
2.150316075858206055e+00 4.918176231929376172e+02
2.150416099863967201e+00 4.918189302487219265e+02
2.150516123869728791e+00 4.918201933217029023e+02
2.150616147875489936e+00 4.918214121511992403e+02
2.150716171881251526e+00 4.918225864789450270e+02
2.150816195887012672e+00 4.918237160491005397e+02
2.150916219892774262e+00 4.918248006082570214e+02
2.151016243898535407e+00 4.918258399054433880e+02
2.151116267904296997e+00 4.918268336921320270e+02
2.151216291910058143e+00 4.918277817222453905e+02
2.151316315915819732e+00 4.918286837521615098e+02
2.151416339921580878e+00 4.918295395407222941e+02
2.151516363927342468e+00 4.918303488492360316e+02
2.151616387933103614e+00 4.918311114414859730e+02
2.151716411938865203e+00 4.918318270837346518e+02
2.151816435944626349e+00 4.918324955447301363e+02
2.151916459950387939e+00 4.918331165957117719e+02
2.152016483956149084e+00 4.918336900104145002e+02
2.152116507961911118e+00 4.918342155650756808e+02
2.152216531967672264e+00 4.918346930384394682e+02
2.152316555973433410e+00 4.918351222117628936e+02
2.152416579979194999e+00 4.918355028688190487e+02
2.152516603984956589e+00 4.918358347959043613e+02
2.152616627990717735e+00 4.918361177818421766e+02
2.152716651996478880e+00 4.918363516179885551e+02
2.152816676002240470e+00 4.918365360982353423e+02
2.152916700008002060e+00 4.918366710190164781e+02
2.153016724013763206e+00 4.918367561793115215e+02
2.153116748019524351e+00 4.918367913806497427e+02
2.153216772025285941e+00 4.918367764271162059e+02
2.153316796031047531e+00 4.918367111253543271e+02
2.153416820036808677e+00 4.918365952845711604e+02
2.153516844042569822e+00 4.918364287165388760e+02
2.153616868048331412e+00 4.918362112356034572e+02
2.153716892054093002e+00 4.918359426586838481e+02
2.153816916059854147e+00 4.918356228052782626e+02
2.153916940065615293e+00 4.918352514974671976e+02
2.154016964071377327e+00 4.918348285599168435e+02
2.154116988077138473e+00 4.918343538198827787e+02
2.154217012082900062e+00 4.918338271072131533e+02
2.154317036088661208e+00 4.918332482543532365e+02
2.154417060094422798e+00 4.918326170963454160e+02
2.154517084100183943e+00 4.918319334708361339e+02
2.154617108105945533e+00 4.918311972180758858e+02
2.154717132111706679e+00 4.918304081809239960e+02
2.154817156117468269e+00 4.918295662048503800e+02
2.154917180123229414e+00 4.918286711379383860e+02
2.155017204128991004e+00 4.918277228308883195e+02
2.155117228134752150e+00 4.918267211370178984e+02
2.155217252140513740e+00 4.918256659122666861e+02
2.155317276146274885e+00 4.918245570151979109e+02
2.155417300152036475e+00 4.918233943070002852e+02
2.155517324157797621e+00 4.918221776514895964e+02
2.155617348163559210e+00 4.918209069151125732e+02
2.155717372169320356e+00 4.918195819669462026e+02
2.155817396175081946e+00 4.918182026787015388e+02
2.155917420180843536e+00 4.918167689247260341e+02
2.156017444186604681e+00 4.918152805820017761e+02
2.156117468192366271e+00 4.918137375301504335e+02
2.156217492198127417e+00 4.918121396514339949e+02
2.156317516203889006e+00 4.918104868307544280e+02
2.156417540209650152e+00 4.918087789556569760e+02
2.156517564215411742e+00 4.918070159163294193e+02
2.156617588221172888e+00 4.918051976056052013e+02
2.156717612226934477e+00 4.918033239189628034e+02
2.156817636232695623e+00 4.918013947545267683e+02
2.156917660238457213e+00 4.917994100130690640e+02
2.157017684244218358e+00 4.917973695980092543e+02
2.157117708249979948e+00 4.917952734154159771e+02
2.157217732255741094e+00 4.917931213740048975e+02
2.157317756261502684e+00 4.917909133851430852e+02
2.157417780267263829e+00 4.917886493628450353e+02
2.157517804273025419e+00 4.917863292237764767e+02
2.157617828278786565e+00 4.917839528872513029e+02
2.157717852284548155e+00 4.917815202752339019e+02
2.157817876290309744e+00 4.917790313123386454e+02
2.157917900296070890e+00 4.917764859258275578e+02
2.158017924301832480e+00 4.917738840456137837e+02
2.158117948307593625e+00 4.917712256042578929e+02
2.158217972313355215e+00 4.917685105369681082e+02
2.158317996319116361e+00 4.917657387816013284e+02
2.158418020324877951e+00 4.917629102786600015e+02
2.158518044330639096e+00 4.917600249712941149e+02
2.158618068336400686e+00 4.917570828052968182e+02
2.158718092342161832e+00 4.917540837291073785e+02
2.158818116347923421e+00 4.917510276938058951e+02
2.158918140353684567e+00 4.917479146531169363e+02
2.159018164359446157e+00 4.917447445634037422e+02
2.159118188365207303e+00 4.917415173836688496e+02
2.159218212370968892e+00 4.917382330755542057e+02
2.159318236376730038e+00 4.917348916033357114e+02
2.159418260382491628e+00 4.917314929339249829e+02
2.159518284388253218e+00 4.917280370368673630e+02
2.159618308394014363e+00 4.917245238843366906e+02
2.159718332399775953e+00 4.917209534511383708e+02
2.159818356405537543e+00 4.917173257147034064e+02
2.159918380411298688e+00 4.917136406550881702e+02
2.160018404417059834e+00 4.917098982549703692e+02
2.160118428422821424e+00 4.917060984996501816e+02
2.160218452428583014e+00 4.917022413770440039e+02
2.160318476434344159e+00 4.916983268776842237e+02
2.160418500440105305e+00 4.916943549947161500e+02
2.160518524445866895e+00 4.916903257238940910e+02
2.160618548451628484e+00 4.916862390635818656e+02
2.160718572457389630e+00 4.916820950147454141e+02
2.160818596463150776e+00 4.916778935809533664e+02
2.160918620468912366e+00 4.916736347683727786e+02
2.161018644474673955e+00 4.916693185857650406e+02
2.161118668480435101e+00 4.916649450444842273e+02
2.161218692486196247e+00 4.916605141584726653e+02
2.161318716491957836e+00 4.916560259442582037e+02
2.161418740497719426e+00 4.916514804209501790e+02
2.161518764503481016e+00 4.916468776102364018e+02
2.161618788509242162e+00 4.916422175363773022e+02
2.161718812515003751e+00 4.916375002262054181e+02
2.161818836520764897e+00 4.916327257091201659e+02
2.161918860526526487e+00 4.916278940170813030e+02
2.162018884532287633e+00 4.916230051846100082e+02
2.162118908538049222e+00 4.916180592487794456e+02
2.162218932543810368e+00 4.916130562492144236e+02
2.162318956549571958e+00 4.916079962280847440e+02
2.162418980555333103e+00 4.916028792301007684e+02
2.162519004561094693e+00 4.915977053025114856e+02
2.162619028566855839e+00 4.915924744950964396e+02
2.162719052572617429e+00 4.915871868601630581e+02
2.162819076578378574e+00 4.915818424525410819e+02
2.162919100584140164e+00 4.915764413295784152e+02
2.163019124589901310e+00 4.915709835511353276e+02
2.163119148595662899e+00 4.915654691795797362e+02
2.163219172601424489e+00 4.915598982797824874e+02
2.163319196607185635e+00 4.915542709191114454e+02
2.163419220612947225e+00 4.915485871674256941e+02
2.163519244618708370e+00 4.915428470970711601e+02
2.163619268624469960e+00 4.915370507828756672e+02
2.163719292630231106e+00 4.915311983021411493e+02
2.163819316635992696e+00 4.915252897346394434e+02
2.163919340641753841e+00 4.915193251626067195e+02
2.164019364647515431e+00 4.915133046707370568e+02
2.164119388653276577e+00 4.915072283461764755e+02
2.164219412659038166e+00 4.915010962785172524e+02
2.164319436664799312e+00 4.914949085597907015e+02
2.164419460670560902e+00 4.914886652844630248e+02
2.164519484676322048e+00 4.914823665494274110e+02
2.164619508682083637e+00 4.914760124539984645e+02
2.164719532687844783e+00 4.914696030999044751e+02
2.164819556693606373e+00 4.914631385912828136e+02
2.164919580699367518e+00 4.914566190346712347e+02
2.165019604705129108e+00 4.914500445390032155e+02
2.165119628710890698e+00 4.914434152155998277e+02
2.165219652716651844e+00 4.914367311781628018e+02
2.165319676722413433e+00 4.914299925427684457e+02
2.165419700728174579e+00 4.914231994278601974e+02
2.165519724733936169e+00 4.914163519542404401e+02
2.165619748739697314e+00 4.914094502450661253e+02
2.165719772745458904e+00 4.914024944258371761e+02
2.165819796751220050e+00 4.913954846243939301e+02
2.165919820756981640e+00 4.913884209709057131e+02
2.166019844762742785e+00 4.913813035978654398e+02
2.166119868768504375e+00 4.913741326400815979e+02
2.166219892774265521e+00 4.913669082346704045e+02
2.166319916780027111e+00 4.913596305210479045e+02
2.166419940785788256e+00 4.913522996409224106e+02
2.166519964791549846e+00 4.913449157382868293e+02
2.166619988797310992e+00 4.913374789594092817e+02
2.166720012803072581e+00 4.913299894528271352e+02
2.166820036808833727e+00 4.913224473693364871e+02
2.166920060814595317e+00 4.913148528619861395e+02
2.167020084820356907e+00 4.913072060860675379e+02
2.167120108826118496e+00 4.912995071991089731e+02
2.167220132831879642e+00 4.912917563608619957e+02
2.167320156837640788e+00 4.912839537332987447e+02
2.167420180843402377e+00 4.912760994805996688e+02
2.167520204849163967e+00 4.912681937691459098e+02
2.167620228854925113e+00 4.912602367675112873e+02
2.167720252860686259e+00 4.912522286464507033e+02
2.167820276866447848e+00 4.912441695788954803e+02
2.167920300872209438e+00 4.912360597399401740e+02
2.168020324877970584e+00 4.912278993068366049e+02
2.168120348883731729e+00 4.912196884589826027e+02
2.168220372889493319e+00 4.912114273779137079e+02
2.168320396895254909e+00 4.912031162472946448e+02
2.168420420901016055e+00 4.911947552529083509e+02
2.168520444906777200e+00 4.911863445826472798e+02
2.168620468912538790e+00 4.911778844265043631e+02
2.168720492918300380e+00 4.911693749765624943e+02
2.168820516924061970e+00 4.911608164269858889e+02
2.168920540929823115e+00 4.911522089740093406e+02
2.169020564935584705e+00 4.911435528159295245e+02
2.169120588941345851e+00 4.911348481530945378e+02
2.169220612947107441e+00 4.911260951878929859e+02
2.169320636952868586e+00 4.911172941247463086e+02
2.169420660958630176e+00 4.911084451700965019e+02
2.169520684964391322e+00 4.910995485323970797e+02
2.169620708970152911e+00 4.910906044221037519e+02
2.169720732975914057e+00 4.910816130516611224e+02
2.169820756981675647e+00 4.910725746354960393e+02
2.169920780987436792e+00 4.910634893900050884e+02
2.170020804993198382e+00 4.910543575335437936e+02
2.170120828998959528e+00 4.910451792864168965e+02
2.170220853004721118e+00 4.910359548708693751e+02
2.170320877010482263e+00 4.910266845110721761e+02
2.170420901016243853e+00 4.910173684331139725e+02
2.170520925022004999e+00 4.910080068649900795e+02
2.170620949027766589e+00 4.909986000365915970e+02
2.170720973033528178e+00 4.909891481796938137e+02
2.170820997039289324e+00 4.909796515279455207e+02
2.170921021045050914e+00 4.909701103168593477e+02
2.171021045050812059e+00 4.909605247837969273e+02
2.171121069056573649e+00 4.909508951679633242e+02
2.171221093062334795e+00 4.909412217103905505e+02
2.171321117068096385e+00 4.909315046539300624e+02
2.171421141073857530e+00 4.909217442432380381e+02
2.171521165079619120e+00 4.909119407247679874e+02
2.171621189085380266e+00 4.909020943467558595e+02
2.171721213091141856e+00 4.908922053592095835e+02
2.171821237096903001e+00 4.908822740138979270e+02
2.171921261102664591e+00 4.908723005643394686e+02
2.172021285108425737e+00 4.908622852657892963e+02
2.172121309114187326e+00 4.908522283752286057e+02
2.172221333119948472e+00 4.908421301513519666e+02
2.172321357125710062e+00 4.908319908545557269e+02
2.172421381131471652e+00 4.908218107469272127e+02
2.172521405137232797e+00 4.908115900922306878e+02
2.172621429142994387e+00 4.908013291558972924e+02
2.172721453148755533e+00 4.907910282050122532e+02
2.172821477154517122e+00 4.907806875083019804e+02
2.172921501160278268e+00 4.907703073361230963e+02
2.173021525166039858e+00 4.907598879604499871e+02
2.173121549171801004e+00 4.907494296548615580e+02
2.173221573177562593e+00 4.907389326945303765e+02
2.173321597183323739e+00 4.907283973562093706e+02
2.173421621189085329e+00 4.907178239182190396e+02
2.173521645194846474e+00 4.907072126604357436e+02
2.173621669200608064e+00 4.906965638642801650e+02
2.173721693206369210e+00 4.906858778127015057e+02
2.173821717212130800e+00 4.906751547901689037e+02
2.173921741217891945e+00 4.906643950826548917e+02
2.174021765223653535e+00 4.906535989776261886e+02
2.174121789229414681e+00 4.906427667640284085e+02
2.174221813235176270e+00 4.906318987322745784e+02
2.174321837240937860e+00 4.906209951742317799e+02
2.174421861246699450e+00 4.906100563832077341e+02
2.174521885252460596e+00 4.905990826539394902e+02
2.174621909258221741e+00 4.905880742825793845e+02
2.174721933263983331e+00 4.905770315666811712e+02
2.174821957269744921e+00 4.905659548051884826e+02
2.174921981275506067e+00 4.905548442984210169e+02
2.175022005281267212e+00 4.905437003480607245e+02
2.175122029287028802e+00 4.905325232571418610e+02
2.175222053292790392e+00 4.905213133300317168e+02
2.175322077298551537e+00 4.905100708724233982e+02
2.175422101304312683e+00 4.904987961913187746e+02
2.175522125310074273e+00 4.904874895950172231e+02
2.175622149315835863e+00 4.904761513931009631e+02
2.175722173321597008e+00 4.904647818964217549e+02
2.175822197327358154e+00 4.904533814170873711e+02
2.175922221333119744e+00 4.904419502684495455e+02
2.176022245338881334e+00 4.904304887650880005e+02
2.176122269344642923e+00 4.904189972227999306e+02
2.176222293350404069e+00 4.904074759585831771e+02
2.176322317356165659e+00 4.903959252906239499e+02
2.176422341361926804e+00 4.903843455382838670e+02
2.176522365367688394e+00 4.903727370220859711e+02
2.176622389373449540e+00 4.903611000636993822e+02
2.176722413379211130e+00 4.903494349859283830e+02
2.176822437384972275e+00 4.903377421126953095e+02
2.176922461390733865e+00 4.903260217690294667e+02
2.177022485396495011e+00 4.903142742810517234e+02
2.177122509402256600e+00 4.903024999759613820e+02
2.177222533408017746e+00 4.902906991820215694e+02
2.177322557413779336e+00 4.902788722285451968e+02
2.177422581419540482e+00 4.902670194458827382e+02
2.177522605425302071e+00 4.902551411654054050e+02
2.177622629431063217e+00 4.902432377194936635e+02
2.177722653436824807e+00 4.902313094415208070e+02
2.177822677442585952e+00 4.902193566658415875e+02
2.177922701448347542e+00 4.902073797277751055e+02
2.178022725454109132e+00 4.901953789635928160e+02
2.178122749459870278e+00 4.901833547105042044e+02
2.178222773465631867e+00 4.901713073066405855e+02
2.178322797471393013e+00 4.901592370910435648e+02
2.178422821477154603e+00 4.901471444036483831e+02
2.178522845482915749e+00 4.901350295852726049e+02
2.178622869488677338e+00 4.901228929775979850e+02
2.178722893494438484e+00 4.901107349231597823e+02
2.178822917500200074e+00 4.900985557653294791e+02
2.178922941505961219e+00 4.900863558483022757e+02
2.179022965511722809e+00 4.900741355170831639e+02
2.179122989517483955e+00 4.900618951174693620e+02
2.179223013523245545e+00 4.900496349960400835e+02
2.179323037529006690e+00 4.900373555001385171e+02
2.179423061534768280e+00 4.900250569778604017e+02
2.179523085540529426e+00 4.900127397780370302e+02
2.179623109546291015e+00 4.900004042502218340e+02
2.179723133552052161e+00 4.899880507446769116e+02
2.179823157557813751e+00 4.899756796123559752e+02
2.179923181563575341e+00 4.899632912048918456e+02
2.180023205569336486e+00 4.899508858745813882e+02
2.180123229575098076e+00 4.899384639743711887e+02
2.180223253580859222e+00 4.899260258578421485e+02
2.180323277586620812e+00 4.899135718791964109e+02
2.180423301592381957e+00 4.899011023932395119e+02
2.180523325598143547e+00 4.898886177553701486e+02
2.180623349603904693e+00 4.898761183215627284e+02
2.180723373609666282e+00 4.898636044483532714e+02
2.180823397615427428e+00 4.898510764928248591e+02
2.180923421621189018e+00 4.898385348125930250e+02
2.181023445626950164e+00 4.898259797657910894e+02
2.181123469632711753e+00 4.898134117110560055e+02
2.181223493638472899e+00 4.898008310075117606e+02
2.181323517644234489e+00 4.897882380147573258e+02
2.181423541649995634e+00 4.897756330928497164e+02
2.181523565655757224e+00 4.897630166022918274e+02
2.181623589661518370e+00 4.897503889040138461e+02
2.181723613667280404e+00 4.897377503593625079e+02
2.181823637673041549e+00 4.897251013300844988e+02
2.181923661678802695e+00 4.897124421783111075e+02
2.182023685684564285e+00 4.896997732665453782e+02
2.182123709690325875e+00 4.896870949576456269e+02
2.182223733696087020e+00 4.896744076148113436e+02
2.182323757701848166e+00 4.896617116015685838e+02
2.182423781707609756e+00 4.896490072817558712e+02
2.182523805713371345e+00 4.896362950195079407e+02
2.182623829719132491e+00 4.896235751792420388e+02
2.182723853724893637e+00 4.896108481256429172e+02
2.182823877730655227e+00 4.895981142236486789e+02
2.182923901736416816e+00 4.895853738384347480e+02
2.183023925742177962e+00 4.895726273353996021e+02
2.183123949747939108e+00 4.895598750801520964e+02
2.183223973753700697e+00 4.895471174384934443e+02
2.183323997759462287e+00 4.895343547764040295e+02
2.183424021765223433e+00 4.895215874600293091e+02
2.183524045770985023e+00 4.895088158556644657e+02
2.183624069776746612e+00 4.894960403297390599e+02
2.183724093782507758e+00 4.894832612488044674e+02
2.183824117788269348e+00 4.894704789795160877e+02
2.183924141794030493e+00 4.894576938886203834e+02
2.184024165799792083e+00 4.894449063429419766e+02
2.184124189805553229e+00 4.894321167093651184e+02
2.184224213811314819e+00 4.894193253548215807e+02
2.184324237817075964e+00 4.894065326462757639e+02
2.184424261822837554e+00 4.893937389507097464e+02
2.184524285828598700e+00 4.893809446351079373e+02
2.184624309834360290e+00 4.893681500664441728e+02
2.184724333840121435e+00 4.893553556116656296e+02
2.184824357845883025e+00 4.893425616376781591e+02
2.184924381851644171e+00 4.893297685113333273e+02
2.185024405857405760e+00 4.893169765994117597e+02
2.185124429863166906e+00 4.893041862686102945e+02
2.185224453868928496e+00 4.892913978855261803e+02
2.185324477874689642e+00 4.892786118166440588e+02
2.185424501880451231e+00 4.892658284283195940e+02
2.185524525886212821e+00 4.892530480867654319e+02
2.185624549891973967e+00 4.892402711580390360e+02
2.185724573897735556e+00 4.892274980080242130e+02
2.185824597903496702e+00 4.892147290024206541e+02
2.185924621909258292e+00 4.892019645067261990e+02
2.186024645915019438e+00 4.891892048862247293e+02
2.186124669920781027e+00 4.891764505059712747e+02
2.186224693926542173e+00 4.891637017307762108e+02
2.186324717932303763e+00 4.891509589251931516e+02
2.186424741938064908e+00 4.891382224535024079e+02
2.186524765943826498e+00 4.891254926796989935e+02
2.186624789949587644e+00 4.891127699674767655e+02
2.186724813955349234e+00 4.891000546802134181e+02
2.186824837961110379e+00 4.890873471809592843e+02
2.186924861966871969e+00 4.890746478324200552e+02
2.187024885972633115e+00 4.890619569969421718e+02
2.187124909978394705e+00 4.890492750365037864e+02
2.187224933984156294e+00 4.890366023126949813e+02
2.187324957989917440e+00 4.890239391867049221e+02
2.187424981995679030e+00 4.890112860193099209e+02
2.187525006001440175e+00 4.889986431708582586e+02
2.187625030007201765e+00 4.889860110012547239e+02
2.187725054012962911e+00 4.889733898699483916e+02
2.187825078018724501e+00 4.889607801359182986e+02
2.187925102024485646e+00 4.889481821576592324e+02
2.188025126030247236e+00 4.889355962931670661e+02
2.188125150036008382e+00 4.889230228999270480e+02
2.188225174041769971e+00 4.889104623348970335e+02
2.188325198047531117e+00 4.888979149544954339e+02
2.188425222053292707e+00 4.888853811145885970e+02
2.188525246059053853e+00 4.888728611704733567e+02
2.188625270064815442e+00 4.888603554768677668e+02
2.188725294070576588e+00 4.888478643878934236e+02
2.188825318076338178e+00 4.888353882570642099e+02
2.188925342082099323e+00 4.888229274372721989e+02
2.189025366087860913e+00 4.888104822807732717e+02
2.189125390093622503e+00 4.887980531391746126e+02
2.189225414099383649e+00 4.887856403634204412e+02
2.189325438105145238e+00 4.887732443037791086e+02
2.189425462110906828e+00 4.887608653098286595e+02
2.189525486116667974e+00 4.887485037304452362e+02
2.189625510122429120e+00 4.887361599137865369e+02
2.189725534128190709e+00 4.887238342072826640e+02
2.189825558133952299e+00 4.887115269576191849e+02
2.189925582139713445e+00 4.886992385107255927e+02
2.190025606145474590e+00 4.886869692117621753e+02
2.190125630151236180e+00 4.886747194051058614e+02
2.190225654156997770e+00 4.886624894343381129e+02
2.190325678162758916e+00 4.886502796422308279e+02
2.190425702168520061e+00 4.886380903707345738e+02
2.190525726174281651e+00 4.886259219609642059e+02
2.190625750180043241e+00 4.886137747531862487e+02
2.190725774185804386e+00 4.886016490868068445e+02
2.190825798191565532e+00 4.885895453003569742e+02
2.190925822197327566e+00 4.885774637314830215e+02
2.191025846203088712e+00 4.885654047169293790e+02
2.191125870208850301e+00 4.885533685925297505e+02
2.191225894214611447e+00 4.885413556931912353e+02
2.191325918220373037e+00 4.885293663528849493e+02
2.191425942226134183e+00 4.885174009046295396e+02
2.191525966231895772e+00 4.885054596804824882e+02
2.191625990237656918e+00 4.884935430115254462e+02
2.191726014243418508e+00 4.884816512278509890e+02
2.191826038249179653e+00 4.884697846585523280e+02
2.191926062254941243e+00 4.884579436317093268e+02
2.192026086260702389e+00 4.884461284743766214e+02
2.192126110266463979e+00 4.884343395125720804e+02
2.192226134272225124e+00 4.884225770712632766e+02
2.192326158277986714e+00 4.884108414743554931e+02
2.192426182283747860e+00 4.883991330446813208e+02
2.192526206289509449e+00 4.883874521039855381e+02
2.192626230295270595e+00 4.883757989729158453e+02
2.192726254301032185e+00 4.883641739710094498e+02
2.192826278306793775e+00 4.883525774166814699e+02
2.192926302312554920e+00 4.883410096272137935e+02
2.193026326318316510e+00 4.883294709187408671e+02
2.193126350324077656e+00 4.883179616062412833e+02
2.193226374329839246e+00 4.883064820035224898e+02
2.193326398335600391e+00 4.882950324232127741e+02
2.193426422341361981e+00 4.882836131767466554e+02
2.193526446347123127e+00 4.882722245743547091e+02
2.193626470352884716e+00 4.882608669250527100e+02
2.193726494358645862e+00 4.882495405366276486e+02
2.193826518364407452e+00 4.882382457156294890e+02
2.193926542370168598e+00 4.882269827673569011e+02
2.194026566375930187e+00 4.882157519958494163e+02
2.194126590381691333e+00 4.882045537038729321e+02
2.194226614387452923e+00 4.881933881929097083e+02
2.194326638393214068e+00 4.881822557631478503e+02
2.194426662398975658e+00 4.881711567134695997e+02
2.194526686404736804e+00 4.881600913414402498e+02
2.194626710410498394e+00 4.881490599432988802e+02
2.194726734416259983e+00 4.881380628139444866e+02
2.194826758422021129e+00 4.881271002469276823e+02
2.194926782427782719e+00 4.881161725344386468e+02
2.195026806433543864e+00 4.881052799672973492e+02
2.195126830439305454e+00 4.880944228349421792e+02
2.195226854445066600e+00 4.880836014254202837e+02
2.195326878450828190e+00 4.880728160253747774e+02
2.195426902456589335e+00 4.880620669200384896e+02
2.195526926462350925e+00 4.880513543932186167e+02
2.195626950468112071e+00 4.880406787272897304e+02
2.195726974473873661e+00 4.880300402031840008e+02
2.195826998479634806e+00 4.880194391003780083e+02
2.195927022485396396e+00 4.880088756968847292e+02
2.196027046491157542e+00 4.879983502692429056e+02
2.196127070496919131e+00 4.879878630925082916e+02
2.196227094502680277e+00 4.879774144402413185e+02
2.196327118508441867e+00 4.879670045844993069e+02
2.196427142514203013e+00 4.879566337958254962e+02
2.196527166519964602e+00 4.879463023432396085e+02
2.196627190525726192e+00 4.879360104942292651e+02
2.196727214531487782e+00 4.879257585147385043e+02
2.196827238537248927e+00 4.879155466691599372e+02
2.196927262543010073e+00 4.879053752203241174e+02
2.197027286548771663e+00 4.878952444294893098e+02
2.197127310554533253e+00 4.878851545563368859e+02
2.197227334560294398e+00 4.878751058589555214e+02
2.197327358566055544e+00 4.878650985938361373e+02
2.197427382571817134e+00 4.878551330158622932e+02
2.197527406577578724e+00 4.878452093783001828e+02
2.197627430583339869e+00 4.878353279327892551e+02
2.197727454589101015e+00 4.878254889293362453e+02
2.197827478594862605e+00 4.878156926163026128e+02
2.197927502600624194e+00 4.878059392403974925e+02
2.198027526606385340e+00 4.877962290466697368e+02
2.198127550612146486e+00 4.877865622784987636e+02
2.198227574617908076e+00 4.877769391775838699e+02
2.198327598623669665e+00 4.877673599839395706e+02
2.198427622629431255e+00 4.877578249358850826e+02
2.198527646635192401e+00 4.877483342700350022e+02
2.198627670640953990e+00 4.877388882212927683e+02
2.198727694646715136e+00 4.877294870228424202e+02
2.198827718652476726e+00 4.877201309061400138e+02
2.198927742658237872e+00 4.877108201009046979e+02
2.199027766663999461e+00 4.877015548351124608e+02
2.199127790669760607e+00 4.876923353349866375e+02
2.199227814675522197e+00 4.876831618249920552e+02
2.199327838681283342e+00 4.876740345278251993e+02
2.199427862687044932e+00 4.876649536644068803e+02
2.199527886692806078e+00 4.876559194538768907e+02
2.199627910698567668e+00 4.876469321135833752e+02
2.199727934704328813e+00 4.876379918590773173e+02
2.199827958710090403e+00 4.876290989041059447e+02
2.199927982715851549e+00 4.876202534606011909e+02
2.200028006721613139e+00 4.876114557386782167e+02
2.200128030727374284e+00 4.876027059466250080e+02
2.200228054733135874e+00 4.875940042908951000e+02
2.200328078738897464e+00 4.875853509761013242e+02
2.200428102744658609e+00 4.875767462050103518e+02
2.200528126750420199e+00 4.875681901785328591e+02
2.200628150756181345e+00 4.875596830957194925e+02
2.200728174761942935e+00 4.875512251537521706e+02
2.200828198767704080e+00 4.875428165479395943e+02
2.200928222773465670e+00 4.875344574717082651e+02
2.201028246779226816e+00 4.875261481165987334e+02
2.201128270784988405e+00 4.875178886722564471e+02
2.201228294790749551e+00 4.875096793264281132e+02
2.201328318796511141e+00 4.875015202649537969e+02
2.201428342802272287e+00 4.874934116717612369e+02
2.201528366808033876e+00 4.874853537288601615e+02
2.201628390813795022e+00 4.874773466163356943e+02
2.201728414819556612e+00 4.874693905123427271e+02
2.201828438825317757e+00 4.874614855931009174e+02
2.201928462831079347e+00 4.874536320328882084e+02
2.202028486836840937e+00 4.874458300040348604e+02
2.202128510842602083e+00 4.874380796769180506e+02
2.202228534848363672e+00 4.874303812199574395e+02
2.202328558854124818e+00 4.874227347996092021e+02
2.202428582859886408e+00 4.874151405803591501e+02
2.202528606865647554e+00 4.874075987247201738e+02
2.202628630871409143e+00 4.874001093932258755e+02
2.202728654877170289e+00 4.873926727444246580e+02
2.202828678882931879e+00 4.873852889348754616e+02
2.202928702888693024e+00 4.873779581191441821e+02
2.203028726894454614e+00 4.873706804497959411e+02
2.203128750900215760e+00 4.873634560773936073e+02
2.203228774905977350e+00 4.873562851504906348e+02
2.203328798911738495e+00 4.873491678156274247e+02
2.203428822917500085e+00 4.873421042173271189e+02
2.203528846923261231e+00 4.873350944980905979e+02
2.203628870929022820e+00 4.873281387983934110e+02
2.203728894934783966e+00 4.873212372566792965e+02
2.203828918940545556e+00 4.873143900093575098e+02
2.203928942946307146e+00 4.873075971907997541e+02
2.204028966952068735e+00 4.873008589333336431e+02
2.204128990957829881e+00 4.872941753672415075e+02
2.204229014963591027e+00 4.872875466207534600e+02
2.204329038969352617e+00 4.872809728200475661e+02
2.204429062975114206e+00 4.872744540892416580e+02
2.204529086980875352e+00 4.872679905503939040e+02
2.204629110986636498e+00 4.872615823234978620e+02
2.204729134992398087e+00 4.872552295264774784e+02
2.204829158998159677e+00 4.872489322751852114e+02
2.204929183003920823e+00 4.872426906833998714e+02
2.205029207009681969e+00 4.872365048628214481e+02
2.205129231015443558e+00 4.872303749230686094e+02
2.205229255021205148e+00 4.872243009716769961e+02
2.205329279026966294e+00 4.872182831140943904e+02
2.205429303032727439e+00 4.872123214536788964e+02
2.205529327038489029e+00 4.872064160916967808e+02
2.205629351044250619e+00 4.872005671273191183e+02
2.205729375050012209e+00 4.871947746576193481e+02
2.205829399055773354e+00 4.871890387775698628e+02
2.205929423061534944e+00 4.871833595800414969e+02
2.206029447067296090e+00 4.871777371558007985e+02
2.206129471073057680e+00 4.871721715935054249e+02
2.206229495078818825e+00 4.871666629797060750e+02
2.206329519084580415e+00 4.871612113988405213e+02
2.206429543090341561e+00 4.871558169332348029e+02
2.206529567096103150e+00 4.871504796630988494e+02
2.206629591101864296e+00 4.871451996665262527e+02
2.206729615107625886e+00 4.871399770194926759e+02
2.206829639113387032e+00 4.871348117958521584e+02
2.206929663119148621e+00 4.871297040673385368e+02
2.207029687124909767e+00 4.871246539035617502e+02
2.207129711130671357e+00 4.871196613720077266e+02
2.207229735136432502e+00 4.871147265380367912e+02
2.207329759142194092e+00 4.871098494648811084e+02
2.207429783147955238e+00 4.871050302136462733e+02
2.207529807153716828e+00 4.871002688433084131e+02
2.207629831159478417e+00 4.870955654107131636e+02
2.207729855165239563e+00 4.870909199705757828e+02
2.207829879171001153e+00 4.870863325754799575e+02
2.207929903176762299e+00 4.870818032758764957e+02
2.208029927182523888e+00 4.870773321200846340e+02
2.208129951188285034e+00 4.870729191542885133e+02
2.208229975194046624e+00 4.870685644225392821e+02
2.208329999199807769e+00 4.870642679667545281e+02
2.208430023205569359e+00 4.870600298267167432e+02
2.208530047211330505e+00 4.870558500400737785e+02
2.208630071217092095e+00 4.870517286423390146e+02
2.208730095222853240e+00 4.870476656668914188e+02
2.208830119228614830e+00 4.870436611449748625e+02
2.208930143234375976e+00 4.870397151056988605e+02
2.209030167240137565e+00 4.870358275760401057e+02
2.209130191245898711e+00 4.870319985808399110e+02
2.209230215251660301e+00 4.870282281428062561e+02
2.209330239257421447e+00 4.870245162825148100e+02
2.209430263263183036e+00 4.870208630184097274e+02
2.209530287268944626e+00 4.870172683668016589e+02
2.209630311274705772e+00 4.870137323418723554e+02
2.209730335280467362e+00 4.870102549556726785e+02
2.209830359286228507e+00 4.870068362181241923e+02
2.209930383291990097e+00 4.870034761370208685e+02
2.210030407297751243e+00 4.870001747180299390e+02
2.210130431303512832e+00 4.869969319646918393e+02
2.210230455309273978e+00 4.869937478784241307e+02
2.210330479315035568e+00 4.869906224585208179e+02
2.210430503320796713e+00 4.869875557021521786e+02
2.210530527326558303e+00 4.869845476043716417e+02
2.210630551332319449e+00 4.869815981581113533e+02
2.210730575338081039e+00 4.869787073541885434e+02
2.210830599343842184e+00 4.869758751813041044e+02
2.210930623349603774e+00 4.869731016260456045e+02
2.211030647355364920e+00 4.869703866728902995e+02
2.211130671361126510e+00 4.869677303042054177e+02
2.211230695366887655e+00 4.869651325002513431e+02
2.211330719372649689e+00 4.869625932391833771e+02
2.211430743378410835e+00 4.869601124970532737e+02
2.211530767384171980e+00 4.869576902478141847e+02
2.211630791389933570e+00 4.869553264633195795e+02
2.211730815395695160e+00 4.869530211133285320e+02
2.211830839401456306e+00 4.869507741655065161e+02
2.211930863407217451e+00 4.869485855854298393e+02
2.212030887412979041e+00 4.869464553365862116e+02
2.212130911418740631e+00 4.869443833803801454e+02
2.212230935424501777e+00 4.869423696761334668e+02
2.212330959430262922e+00 4.869404141810891815e+02
2.212430983436024512e+00 4.869385168504160220e+02
2.212531007441786102e+00 4.869366776372089021e+02
2.212631031447547247e+00 4.869348964924951702e+02
2.212731055453308393e+00 4.869331733652344383e+02
2.212831079459069983e+00 4.869315082023256309e+02
2.212931103464831573e+00 4.869299009486077239e+02
2.213031127470592718e+00 4.869283515468652013e+02
2.213131151476354308e+00 4.869268599378307272e+02
2.213231175482115898e+00 4.869254260601874194e+02
2.213331199487877043e+00 4.869240498505768073e+02
2.213431223493638633e+00 4.869227312435981503e+02
2.213531247499399779e+00 4.869214701718154856e+02
2.213631271505161369e+00 4.869202665657597322e+02
2.213731295510922514e+00 4.869191203539348294e+02
2.213831319516684104e+00 4.869180314628194992e+02
2.213931343522445250e+00 4.869169998168741245e+02
2.214031367528206840e+00 4.869160253385426245e+02
2.214131391533967985e+00 4.869151079482592195e+02
2.214231415539729575e+00 4.869142475644506476e+02
2.214331439545490721e+00 4.869134441035420195e+02
2.214431463551252310e+00 4.869126974799625600e+02
2.214531487557013456e+00 4.869120076061479949e+02
2.214631511562775046e+00 4.869113743925469180e+02
2.214731535568536192e+00 4.869107977476256792e+02
2.214831559574297781e+00 4.869102775778720229e+02
2.214931583580058927e+00 4.869098137878019656e+02
2.215031607585820517e+00 4.869094062799642870e+02
2.215131631591582106e+00 4.869090549549440539e+02
2.215231655597343252e+00 4.869087597113711468e+02
2.215331679603104842e+00 4.869085204459230454e+02
2.215431703608865988e+00 4.869083370533304560e+02
2.215531727614627577e+00 4.869082094263844169e+02
2.215631751620388723e+00 4.869081374559402775e+02
2.215731775626150313e+00 4.869081210309237804e+02
2.215831799631911458e+00 4.869081600383374280e+02
2.215931823637673048e+00 4.869082543632657121e+02
2.216031847643434194e+00 4.869084038888802866e+02
2.216131871649195784e+00 4.869086084964479824e+02
2.216231895654956929e+00 4.869088680653346728e+02
2.216331919660718519e+00 4.869091824730118105e+02
2.216431943666479665e+00 4.869095515950637036e+02
2.216531967672241255e+00 4.869099753051935977e+02
2.216631991678002400e+00 4.869104534752273139e+02
2.216732015683763990e+00 4.869109859751245040e+02
2.216832039689525580e+00 4.869115726729802418e+02
2.216932063695286725e+00 4.869122134350342890e+02
2.217032087701048315e+00 4.869129081256768927e+02
2.217132111706809461e+00 4.869136566074562325e+02
2.217232135712571051e+00 4.869144587410834788e+02
2.217332159718332196e+00 4.869153143854414338e+02
2.217432183724093786e+00 4.869162233975895333e+02
2.217532207729854932e+00 4.869171856327733963e+02
2.217632231735616521e+00 4.869182009444288610e+02
2.217732255741377667e+00 4.869192691841908527e+02
2.217832279747139257e+00 4.869203902019002612e+02
2.217932303752900403e+00 4.869215638456106490e+02
2.218032327758661992e+00 4.869227899615968340e+02
2.218132351764423138e+00 4.869240683943599493e+02
2.218232375770184728e+00 4.869253989866372194e+02
2.218332399775945873e+00 4.869267815794077023e+02
2.218432423781707463e+00 4.869282160119010996e+02
2.218532447787468609e+00 4.869297021216043504e+02
2.218632471793230199e+00 4.869312397442699307e+02
2.218732495798991788e+00 4.869328287139231861e+02
2.218832519804752934e+00 4.869344688628709719e+02
2.218932543810514524e+00 4.869361600217083605e+02
2.219032567816276114e+00 4.869379020193271685e+02
2.219132591822037259e+00 4.869396946829241415e+02
2.219232615827798405e+00 4.869415378380081165e+02
2.219332639833559995e+00 4.869434313084096857e+02
2.219432663839321584e+00 4.869453749162881877e+02
2.219532687845082730e+00 4.869473684821398933e+02
2.219632711850843876e+00 4.869494118248071572e+02
2.219732735856605466e+00 4.869515047614856940e+02
2.219832759862367055e+00 4.869536471077341275e+02
2.219932783868128201e+00 4.869558386774824612e+02
2.220032807873889347e+00 4.869580792830387850e+02
2.220132831879650936e+00 4.869603687351000190e+02
2.220232855885412526e+00 4.869627068427599852e+02
2.220332879891173672e+00 4.869650934135177636e+02
2.220432903896934818e+00 4.869675282532870710e+02
2.220532927902696851e+00 4.869700111664030828e+02
2.220632951908457997e+00 4.869725419556349948e+02
2.220732975914219587e+00 4.869751204221928447e+02
2.220832999919980733e+00 4.869777463657345606e+02
2.220933023925742322e+00 4.869804195843794901e+02
2.221033047931503468e+00 4.869831398747138564e+02
2.221133071937265058e+00 4.869859070318017871e+02
2.221233095943026203e+00 4.869887208491937827e+02
2.221333119948787793e+00 4.869915811189366650e+02
2.221433143954548939e+00 4.869944876315817623e+02
2.221533167960310529e+00 4.869974401761961644e+02
2.221633191966071674e+00 4.870004385403694869e+02
2.221733215971833264e+00 4.870034825102279683e+02
2.221833239977594410e+00 4.870065718704381652e+02
2.221933263983355999e+00 4.870097064042202533e+02
2.222033287989117145e+00 4.870128858933576339e+02
2.222133311994878735e+00 4.870161101182064840e+02
2.222233336000639881e+00 4.870193788577035434e+02
2.222333360006401470e+00 4.870226918893783932e+02
2.222433384012163060e+00 4.870260489893621525e+02
2.222533408017924206e+00 4.870294499323982222e+02
2.222633432023685796e+00 4.870328944918504703e+02
2.222733456029446941e+00 4.870363824397165331e+02
2.222833480035208531e+00 4.870399135466336134e+02
2.222933504040969677e+00 4.870434875818925207e+02
2.223033528046731266e+00 4.870471043134456863e+02
2.223133552052492412e+00 4.870507635079177362e+02
2.223233576058254002e+00 4.870544649306161773e+02
2.223333600064015148e+00 4.870582083455414590e+02
2.223433624069776737e+00 4.870619935153976598e+02
2.223533648075537883e+00 4.870658202016025484e+02
2.223633672081299473e+00 4.870696881642975313e+02
2.223733696087060618e+00 4.870735971623596470e+02
2.223833720092822208e+00 4.870775469534102058e+02
2.223933744098583354e+00 4.870815372938283190e+02
2.224033768104344944e+00 4.870855679387572081e+02
2.224133792110106089e+00 4.870896386421190982e+02
2.224233816115867679e+00 4.870937491566235167e+02
2.224333840121629269e+00 4.870978992337784348e+02
2.224433864127390414e+00 4.871020886239023184e+02
2.224533888133152004e+00 4.871063170761334504e+02
2.224633912138913150e+00 4.871105843384412992e+02
2.224733936144674740e+00 4.871148901576373191e+02
2.224833960150435885e+00 4.871192342793872285e+02
2.224933984156197475e+00 4.871236164482201048e+02
2.225034008161958621e+00 4.871280364075407761e+02
2.225134032167720211e+00 4.871324938996403944e+02
2.225234056173481356e+00 4.871369886657070651e+02
2.225334080179242946e+00 4.871415204458385233e+02
2.225434104185004092e+00 4.871460889790515694e+02
2.225534128190765681e+00 4.871506940032950865e+02
2.225634152196526827e+00 4.871553352554595904e+02
2.225734176202288417e+00 4.871600124713899049e+02
2.225834200208049563e+00 4.871647253858959061e+02
2.225934224213811152e+00 4.871694737327635494e+02
2.226034248219572298e+00 4.871742572447669772e+02
2.226134272225333888e+00 4.871790756536804565e+02
2.226234296231095477e+00 4.871839286902884965e+02
2.226334320236857067e+00 4.871888160843979563e+02
2.226434344242618213e+00 4.871937375648500392e+02
2.226534368248379359e+00 4.871986928595311497e+02
2.226634392254140948e+00 4.872036816953856260e+02
2.226734416259902538e+00 4.872087037984260292e+02
2.226834440265663684e+00 4.872137588937455916e+02
2.226934464271424829e+00 4.872188467055312344e+02
2.227034488277186419e+00 4.872239669570711840e+02
2.227134512282948009e+00 4.872291193707714001e+02
2.227234536288709155e+00 4.872343036681664898e+02
2.227334560294470300e+00 4.872395195699276655e+02
2.227434584300231890e+00 4.872447667958796842e+02
2.227534608305993480e+00 4.872500450650103403e+02
2.227634632311754626e+00 4.872553540954816071e+02
2.227734656317515771e+00 4.872606936046435635e+02
2.227834680323277361e+00 4.872660633090444549e+02
2.227934704329038951e+00 4.872714629244451316e+02
2.228034728334800540e+00 4.872768921658277463e+02
2.228134752340561686e+00 4.872823507474111011e+02
2.228234776346323276e+00 4.872878383826604249e+02
2.228334800352084422e+00 4.872933547843002771e+02
2.228434824357846011e+00 4.872988996643276778e+02
2.228534848363607157e+00 4.873044727340216582e+02
2.228634872369368747e+00 4.873100737039585511e+02
2.228734896375129892e+00 4.873157022840219383e+02
2.228834920380891482e+00 4.873213581834150432e+02
2.228934944386652628e+00 4.873270411106751681e+02
2.229034968392414218e+00 4.873327507736826192e+02
2.229134992398175363e+00 4.873384868796754290e+02
2.229235016403936953e+00 4.873442491352604975e+02
2.229335040409698099e+00 4.873500372464267230e+02
2.229435064415459689e+00 4.873558509185569960e+02
2.229535088421220834e+00 4.873616898564396251e+02
2.229635112426982424e+00 4.873675537642815812e+02
2.229735136432743570e+00 4.873734423457217417e+02
2.229835160438505159e+00 4.873793553038414643e+02
2.229935184444266749e+00 4.873852923411780012e+02
2.230035208450027895e+00 4.873912531597378006e+02
2.230135232455789485e+00 4.873972374610061138e+02
2.230235256461550630e+00 4.874032449459626832e+02
2.230335280467312220e+00 4.874092753150924295e+02
2.230435304473073366e+00 4.874153282683980137e+02
2.230535328478834955e+00 4.874214035054133092e+02
2.230635352484596101e+00 4.874275007252144860e+02
2.230735376490357691e+00 4.874336196264341083e+02
2.230835400496118837e+00 4.874397599072715366e+02
2.230935424501880426e+00 4.874459212655086162e+02
2.231035448507641572e+00 4.874521033985186591e+02
2.231135472513403162e+00 4.874583060032817343e+02
2.231235496519164307e+00 4.874645287763958663e+02
2.231335520524925897e+00 4.874707714140905068e+02
2.231435544530687043e+00 4.874770336122377330e+02
2.231535568536448633e+00 4.874833150663665720e+02
2.231635592542210222e+00 4.874896154716744263e+02
2.231735616547971368e+00 4.874959345230395797e+02
2.231835640553732958e+00 4.875022719150350667e+02
2.231935664559494104e+00 4.875086273419397003e+02
2.232035688565255693e+00 4.875150004977524532e+02
2.232135712571016839e+00 4.875213910762026899e+02
2.232235736576778429e+00 4.875277987707656848e+02
2.232335760582539574e+00 4.875342232746728541e+02
2.232435784588301164e+00 4.875406642809256255e+02
2.232535808594062310e+00 4.875471214823082846e+02
2.232635832599823900e+00 4.875535945713987758e+02
2.232735856605585045e+00 4.875600832405846177e+02
2.232835880611346635e+00 4.875665871820726807e+02
2.232935904617107781e+00 4.875731060879022607e+02
2.233035928622869370e+00 4.875796396499591197e+02
2.233135952628630516e+00 4.875861875599872519e+02
2.233235976634392106e+00 4.875927495096012763e+02
2.233336000640153252e+00 4.875993251902996803e+02
2.233436024645914841e+00 4.876059142934770989e+02
2.233536048651676431e+00 4.876125165104363646e+02
2.233636072657438021e+00 4.876191315324034008e+02
2.233736096663199167e+00 4.876257590505368285e+02
2.233836120668960312e+00 4.876323987559430293e+02
2.233936144674721902e+00 4.876390503396874010e+02
2.234036168680483492e+00 4.876457134928070900e+02
2.234136192686244637e+00 4.876523879063242362e+02
2.234236216692005783e+00 4.876590732712583645e+02
2.234336240697767373e+00 4.876657692786391749e+02
2.234436264703528963e+00 4.876724756195187638e+02
2.234536288709290108e+00 4.876791919849832198e+02
2.234636312715051254e+00 4.876859180661679716e+02
2.234736336720812844e+00 4.876926535542677925e+02
2.234836360726574433e+00 4.876993981405507270e+02
2.234936384732335579e+00 4.877061515163694025e+02
2.235036408738096725e+00 4.877129133731752972e+02
2.235136432743858315e+00 4.877196834025299950e+02
2.235236456749619904e+00 4.877264612961181456e+02
2.235336480755381494e+00 4.877332467457597431e+02
2.235436504761142640e+00 4.877400394434233135e+02
2.235536528766904230e+00 4.877468390812377379e+02
2.235636552772665375e+00 4.877536453515043036e+02
2.235736576778426965e+00 4.877604579467103463e+02
2.235836600784188111e+00 4.877672765595416990e+02
2.235936624789949700e+00 4.877741008828930376e+02
2.236036648795710846e+00 4.877809306098833986e+02
2.236136672801472436e+00 4.877877654338659568e+02
2.236236696807233582e+00 4.877946050484417810e+02
2.236336720812995171e+00 4.878014491474727947e+02
2.236436744818756317e+00 4.878082974250922348e+02
2.236536768824517907e+00 4.878151495757176122e+02
2.236636792830279052e+00 4.878220052940644109e+02
2.236736816836040642e+00 4.878288642751575139e+02
2.236836840841801788e+00 4.878357262143427988e+02
2.236936864847563378e+00 4.878425908072999846e+02
2.237036888853324523e+00 4.878494577500556488e+02
2.237136912859086113e+00 4.878563267389940279e+02
2.237236936864847703e+00 4.878631974708696930e+02
2.237336960870608848e+00 4.878700696428214769e+02
2.237436984876370438e+00 4.878769429523808867e+02
2.237537008882131584e+00 4.878838170974885884e+02
2.237637032887893174e+00 4.878906917765025923e+02
2.237737056893654319e+00 4.878975666882136011e+02
2.237837080899415909e+00 4.879044415318554684e+02
2.237937104905177055e+00 4.879113160071162270e+02
2.238037128910938645e+00 4.879181898141533793e+02
2.238137152916699790e+00 4.879250626536017421e+02
2.238237176922461380e+00 4.879319342265891919e+02
2.238337200928222526e+00 4.879388042347462715e+02
2.238437224933984115e+00 4.879456723802184683e+02
2.238537248939745261e+00 4.879525383656791178e+02
2.238637272945506851e+00 4.879594018943399760e+02
2.238737296951267997e+00 4.879662626699646353e+02
2.238837320957029586e+00 4.879731203968782438e+02
2.238937344962790732e+00 4.879799747799813758e+02
2.239037368968552322e+00 4.879868255247600359e+02
2.239137392974313912e+00 4.879936723372992446e+02
2.239237416980075057e+00 4.880005149242928155e+02
2.239337440985836647e+00 4.880073529930562017e+02
2.239437464991597793e+00 4.880141862515380353e+02
2.239537488997359382e+00 4.880210144083312684e+02
2.239637513003120528e+00 4.880278371726849400e+02
2.239737537008882118e+00 4.880346542545157718e+02
2.239837561014643263e+00 4.880414653644206169e+02
2.239937585020404853e+00 4.880482702136860098e+02
2.240037609026165999e+00 4.880550685142999328e+02
