1.900018003960871393e+00 5.364924469603995476e+02
1.900118025965712443e+00 5.364866518124763388e+02
1.900218047970553270e+00 5.364809699217350953e+02
1.900318069975394319e+00 5.364754015801266860e+02
1.900418091980235591e+00 5.364699470761939892e+02
1.900518113985076640e+00 5.364646066950592740e+02
1.900618135989917690e+00 5.364593807184129446e+02
1.900718157994758739e+00 5.364542694245018311e+02
1.900818179999599788e+00 5.364492730881183888e+02
1.900918202004440616e+00 5.364443919805879659e+02
1.901018224009281887e+00 5.364396263697597078e+02
1.901118246014122937e+00 5.364349765199935973e+02
1.901218268018963986e+00 5.364304426921501090e+02
1.901318290023805258e+00 5.364260251435812279e+02
1.901418312028646307e+00 5.364217241281157840e+02
1.901518334033487356e+00 5.364175398960526309e+02
1.901618356038328184e+00 5.364134726941485951e+02
1.901718378043169233e+00 5.364095227656075622e+02
1.901818400048010282e+00 5.364056903500709268e+02
1.901918422052851554e+00 5.364019756836084980e+02
1.902018444057692603e+00 5.363983789987053115e+02
1.902118466062533653e+00 5.363949005242566272e+02
1.902218488067374924e+00 5.363915404855526958e+02
1.902318510072215751e+00 5.363882991042737558e+02
1.902418532077056801e+00 5.363851765984767326e+02
1.902518554081897850e+00 5.363821731825893266e+02
1.902618576086738900e+00 5.363792890673985312e+02
1.902718598091579949e+00 5.363765244600407414e+02
1.902818620096421220e+00 5.363738795639953878e+02
1.902918642101262270e+00 5.363713545790740227e+02
1.903018664106103097e+00 5.363689497014120207e+02
1.903118686110944147e+00 5.363666651234595975e+02
1.903218708115785418e+00 5.363645010339741930e+02
1.903318730120626467e+00 5.363624576180109216e+02
1.903418752125467517e+00 5.363605350569149550e+02
1.903518774130308566e+00 5.363587335283129960e+02
1.903618796135149616e+00 5.363570532061057747e+02
1.903718818139990443e+00 5.363554942604591815e+02
1.903818840144831714e+00 5.363540568577971044e+02
1.903918862149672764e+00 5.363527411607938120e+02
1.904018884154513813e+00 5.363515473283661095e+02
1.904118906159355085e+00 5.363504755156657211e+02
1.904218928164196134e+00 5.363495258740730378e+02
1.904318950169037183e+00 5.363486985511883631e+02
1.904418972173878011e+00 5.363479936908256605e+02
1.904518994178719060e+00 5.363474114330061866e+02
1.904619016183560110e+00 5.363469519139506474e+02
1.904719038188401381e+00 5.363466152660736270e+02
1.904819060193242430e+00 5.363464016179758573e+02
1.904919082198083480e+00 5.363463110944384198e+02
1.905019104202924751e+00 5.363463438164162653e+02
1.905119126207765579e+00 5.363464999010333258e+02
1.905219148212606628e+00 5.363467794615739876e+02
1.905319170217447677e+00 5.363471826074795672e+02
1.905419192222288727e+00 5.363477094443410351e+02
1.905519214227129776e+00 5.363483600738944688e+02
1.905619236231971048e+00 5.363491345940141173e+02
1.905719258236812097e+00 5.363500330987095595e+02
1.905819280241652924e+00 5.363510556781162677e+02
1.905919302246493974e+00 5.363522024184958354e+02
1.906019324251335245e+00 5.363534734022263137e+02
1.906119346256176295e+00 5.363548687078003923e+02
1.906219368261017344e+00 5.363563884098188055e+02
1.906319390265858393e+00 5.363580325789870358e+02
1.906419412270699443e+00 5.363598012821092880e+02
1.906519434275540270e+00 5.363616945820866704e+02
1.906619456280381542e+00 5.363637125379120789e+02
1.906719478285222591e+00 5.363658552046626937e+02
1.906819500290063640e+00 5.363681226335016845e+02
1.906919522294904912e+00 5.363705148716708209e+02
1.907019544299745961e+00 5.363730319624877438e+02
1.907119566304587011e+00 5.363756739453431237e+02
1.907219588309427838e+00 5.363784408556952030e+02
1.907319610314268887e+00 5.363813327250691145e+02
1.907419632319109937e+00 5.363843495810518789e+02
1.907519654323951208e+00 5.363874914472914952e+02
1.907619676328792258e+00 5.363907583434903472e+02
1.907719698333633307e+00 5.363941502854081591e+02
1.907819720338474578e+00 5.363976672848524458e+02
1.907919742343315406e+00 5.364013093496827196e+02
1.908019764348156455e+00 5.364050764838040095e+02
1.908119786352997505e+00 5.364089686871667482e+02
1.908219808357838554e+00 5.364129859557622240e+02
1.908319830362679603e+00 5.364171282816241728e+02
1.908419852367520875e+00 5.364213956528242306e+02
1.908519874372361924e+00 5.364257880534722744e+02
1.908619896377202751e+00 5.364303054637125570e+02
1.908719918382043801e+00 5.364349478597248435e+02
1.908819940386885072e+00 5.364397152137213425e+02
1.908919962391726122e+00 5.364446074939476148e+02
1.909019984396567171e+00 5.364496246646791633e+02
1.909120006401408220e+00 5.364547666862216602e+02
1.909220028406249048e+00 5.364600335149124248e+02
1.909320050411090097e+00 5.364654251031156491e+02
1.909420072415931369e+00 5.364709413992260352e+02
1.909520094420772418e+00 5.364765823476653850e+02
1.909620116425613467e+00 5.364823478888853288e+02
1.909720138430454739e+00 5.364882379593641417e+02
1.909820160435295788e+00 5.364942524916102684e+02
1.909920182440136616e+00 5.365003914141600490e+02
1.910020204444977665e+00 5.365066546515796517e+02
1.910120226449818714e+00 5.365130421244648460e+02
1.910220248454659764e+00 5.365195537494410019e+02
1.910320270459501035e+00 5.365261894391665010e+02
1.910420292464342085e+00 5.365329491023309174e+02
1.910520314469183134e+00 5.365398326436575189e+02
1.910620336474023961e+00 5.365468399639040626e+02
1.910720358478865233e+00 5.365539709598649551e+02
1.910820380483706282e+00 5.365612255243715936e+02
1.910920402488547332e+00 5.365686035462945256e+02
1.911020424493388381e+00 5.365761049105460643e+02
1.911120446498229430e+00 5.365837294980805154e+02
1.911220468503070702e+00 5.365914771858980430e+02
1.911320490507911529e+00 5.365993478470451237e+02
1.911420512512752579e+00 5.366073413506188672e+02
1.911520534517593628e+00 5.366154575617683804e+02
1.911620556522434899e+00 5.366236963416961316e+02
1.911720578527275949e+00 5.366320575476626118e+02
1.911820600532116998e+00 5.366405410329903134e+02
1.911920622536958048e+00 5.366491466470627074e+02
1.912020644541798875e+00 5.366578742353307234e+02
1.912120666546639924e+00 5.366667236393152507e+02
1.912220688551481196e+00 5.366756946966105488e+02
1.912320710556322245e+00 5.366847872408870899e+02
1.912420732561163295e+00 5.366940011018962196e+02
1.912520754566004566e+00 5.367033361054739089e+02
1.912620776570845615e+00 5.367127920735441649e+02
1.912720798575686443e+00 5.367223688241239188e+02
1.912820820580527492e+00 5.367320661713257550e+02
1.912920842585368542e+00 5.367418839253650731e+02
1.913020864590209591e+00 5.367518218925612246e+02
1.913120886595050862e+00 5.367618798753452438e+02
1.913220908599891912e+00 5.367720576722624628e+02
1.913320930604732961e+00 5.367823550779787638e+02
1.913420952609573789e+00 5.367927718832850132e+02
1.913520974614415060e+00 5.368033078751012681e+02
1.913620996619256109e+00 5.368139628364867804e+02
1.913721018624097159e+00 5.368247365466376095e+02
1.913821040628938208e+00 5.368356287808990146e+02
1.913921062633779258e+00 5.368466393107687509e+02
1.914021084638620529e+00 5.368577679039017312e+02
1.914121106643461356e+00 5.368690143241194619e+02
1.914221128648302406e+00 5.368803783314109523e+02
1.914321150653143455e+00 5.368918596819453342e+02
1.914421172657984727e+00 5.369034581280726570e+02
1.914521194662825776e+00 5.369151734183332110e+02
1.914621216667666825e+00 5.369270052974652572e+02
1.914721238672507875e+00 5.369389535064083248e+02
1.914821260677348702e+00 5.369510177823138974e+02
1.914921282682189752e+00 5.369631978585495062e+02
1.915021304687031023e+00 5.369754934647079381e+02
1.915121326691872072e+00 5.369879043266147391e+02
1.915221348696713122e+00 5.370004301663328761e+02
1.915321370701554393e+00 5.370130707021737635e+02
1.915421392706395443e+00 5.370258256487035169e+02
1.915521414711236270e+00 5.370386947167503422e+02
1.915621436716077319e+00 5.370516776134136308e+02
1.915721458720918369e+00 5.370647740420707805e+02
1.915821480725759418e+00 5.370779837023875416e+02
1.915921502730600690e+00 5.370913062903242690e+02
1.916021524735441739e+00 5.371047414981449037e+02
1.916121546740282788e+00 5.371182890144267503e+02
1.916221568745123616e+00 5.371319485240690028e+02
1.916321590749964887e+00 5.371457197082999073e+02
1.916421612754805937e+00 5.371596022446882444e+02
1.916521634759646986e+00 5.371735958071508321e+02
1.916621656764488035e+00 5.371877000659629857e+02
1.916721678769329085e+00 5.372019146877659068e+02
1.916821700774170356e+00 5.372162393355800987e+02
1.916921722779011183e+00 5.372306736688107094e+02
1.917021744783852233e+00 5.372452173432596965e+02
1.917121766788693282e+00 5.372598700111357175e+02
1.917221788793534554e+00 5.372746313210639073e+02
1.917321810798375603e+00 5.372895009180961097e+02
1.917421832803216653e+00 5.373044784437208818e+02
1.917521854808057702e+00 5.373195635358739537e+02
1.917621876812898529e+00 5.373347558289495964e+02
1.917721898817739579e+00 5.373500549538107407e+02
1.917821920822580850e+00 5.373654605377995495e+02
1.917921942827421899e+00 5.373809722047491277e+02
1.918021964832262949e+00 5.373965895749930723e+02
1.918121986837104220e+00 5.374123122653788869e+02
1.918222008841945270e+00 5.374281398892784409e+02
1.918322030846786097e+00 5.374440720565977472e+02
1.918422052851627146e+00 5.374601083737909448e+02
1.918522074856468196e+00 5.374762484438706451e+02
1.918622096861309245e+00 5.374924918664206643e+02
1.918722118866150517e+00 5.375088382376060281e+02
1.918822140870991566e+00 5.375252871501877507e+02
1.918922162875832615e+00 5.375418381935324987e+02
1.919022184880673443e+00 5.375584909536277110e+02
1.919122206885514714e+00 5.375752450130902389e+02
1.919222228890355764e+00 5.375920999511830587e+02
1.919322250895196813e+00 5.376090553438232291e+02
1.919422272900037862e+00 5.376261107636005363e+02
1.919522294904878912e+00 5.376432657797847696e+02
1.919622316909720183e+00 5.376605199583419790e+02
1.919722338914561011e+00 5.376778728619460708e+02
1.919822360919402060e+00 5.376953240499932463e+02
1.919922382924243109e+00 5.377128730786154165e+02
1.920022404929084381e+00 5.377305195006920258e+02
1.920122426933925430e+00 5.377482628658656267e+02
1.920222448938766480e+00 5.377661027205541586e+02
1.920322470943607529e+00 5.377840386079650443e+02
1.920422492948448356e+00 5.378020700681101971e+02
1.920522514953289406e+00 5.378201966378186398e+02
1.920622536958130677e+00 5.378384178507513980e+02
1.920722558962971727e+00 5.378567332374160515e+02
1.920822580967812776e+00 5.378751423251806045e+02
1.920922602972654047e+00 5.378936446382876966e+02
1.921022624977495097e+00 5.379122396978707457e+02
1.921122646982335924e+00 5.379309270219657719e+02
1.921222668987176974e+00 5.379497061255300423e+02
1.921322690992018023e+00 5.379685765204541212e+02
1.921422712996859072e+00 5.379875377155779006e+02
1.921522735001700344e+00 5.380065892167057200e+02
1.921622757006541393e+00 5.380257305266216008e+02
1.921722779011382443e+00 5.380449611451049350e+02
1.921822801016223270e+00 5.380642805689451507e+02
1.921922823021064541e+00 5.380836882919591062e+02
1.922022845025905591e+00 5.381031838050034821e+02
1.922122867030746640e+00 5.381227665959946762e+02
1.922222889035587690e+00 5.381424361499224460e+02
1.922322911040428739e+00 5.381621919488645744e+02
1.922422933045270010e+00 5.381820334720065375e+02
1.922522955050110838e+00 5.382019601956543511e+02
1.922622977054951887e+00 5.382219715932535564e+02
1.922722999059792937e+00 5.382420671354043407e+02
1.922823021064634208e+00 5.382622462898768845e+02
1.922923043069475257e+00 5.382825085216306888e+02
1.923023065074316307e+00 5.383028532928292407e+02
1.923123087079157356e+00 5.383232800628582027e+02
1.923223109083998184e+00 5.383437882883413295e+02
1.923323131088839233e+00 5.383643774231572934e+02
1.923423153093680504e+00 5.383850469184586700e+02
1.923523175098521554e+00 5.384057962226867176e+02
1.923623197103362603e+00 5.384266247815907036e+02
1.923723219108203875e+00 5.384475320382438213e+02
1.923823241113044924e+00 5.384685174330618338e+02
1.923923263117885751e+00 5.384895804038208098e+02
1.924023285122726801e+00 5.385107203856734941e+02
1.924123307127567850e+00 5.385319368111686344e+02
1.924223329132408900e+00 5.385532291102676936e+02
1.924323351137250171e+00 5.385745967103630392e+02
1.924423373142091220e+00 5.385960390362976113e+02
1.924523395146932270e+00 5.386175555103801571e+02
1.924623417151773097e+00 5.386391455524069443e+02
1.924723439156614369e+00 5.386608085796771093e+02
1.924823461161455418e+00 5.386825440070128934e+02
1.924923483166296467e+00 5.387043512467774917e+02
1.925023505171137517e+00 5.387262297088944933e+02
1.925123527175978566e+00 5.387481788008647072e+02
1.925223549180819838e+00 5.387701979277873079e+02
1.925323571185660665e+00 5.387922864923779116e+02
1.925423593190501714e+00 5.388144438949857431e+02
1.925523615195342764e+00 5.388366695336158045e+02
1.925623637200184035e+00 5.388589628039470654e+02
1.925723659205025085e+00 5.388813230993488332e+02
1.925823681209866134e+00 5.389037498109039461e+02
1.925923703214707183e+00 5.389262423274263938e+02
1.926023725219548011e+00 5.389488000354816677e+02
1.926123747224389060e+00 5.389714223194043825e+02
1.926223769229230331e+00 5.389941085613197629e+02
1.926323791234071381e+00 5.390168581411629702e+02
1.926423813238912430e+00 5.390396704366992253e+02
1.926523835243753702e+00 5.390625448235421118e+02
1.926623857248594529e+00 5.390854806751765409e+02
1.926723879253435578e+00 5.391084773629747815e+02
1.926823901258276628e+00 5.391315342562202204e+02
1.926923923263117677e+00 5.391546507221253250e+02
1.927023945267958727e+00 5.391778261258529028e+02
1.927123967272799998e+00 5.392010598305371332e+02
1.927223989277641047e+00 5.392243511973013028e+02
1.927324011282481875e+00 5.392476995852816799e+02
1.927424033287322924e+00 5.392711043516453628e+02
1.927524055292164196e+00 5.392945648516129040e+02
1.927624077297005245e+00 5.393180804384776366e+02
1.927724099301846294e+00 5.393416504636273885e+02
1.927824121306687344e+00 5.393652742765643779e+02
1.927924143311528393e+00 5.393889512249264726e+02
1.928024165316369221e+00 5.394126806545094723e+02
1.928124187321210492e+00 5.394364619092868907e+02
1.928224209326051541e+00 5.394602943314298500e+02
1.928324231330892591e+00 5.394841772613312969e+02
1.928424253335733862e+00 5.395081100376244194e+02
1.928524275340574912e+00 5.395320919972059528e+02
1.928624297345415961e+00 5.395561224752575527e+02
1.928724319350256788e+00 5.395802008052642122e+02
1.928824341355097838e+00 5.396043263190397283e+02
1.928924363359938887e+00 5.396284983467467100e+02
1.929024385364780159e+00 5.396527162169171561e+02
1.929124407369621208e+00 5.396769792564753061e+02
1.929224429374462257e+00 5.397012867907601503e+02
1.929324451379303529e+00 5.397256381435446428e+02
1.929424473384144356e+00 5.397500326370609400e+02
1.929524495388985406e+00 5.397744695920191589e+02
1.929624517393826455e+00 5.397989483276304554e+02
1.929724539398667504e+00 5.398234681616314674e+02
1.929824561403508554e+00 5.398480284103014810e+02
1.929924583408349825e+00 5.398726283884899431e+02
1.930024605413190875e+00 5.398972674096347646e+02
1.930124627418031702e+00 5.399219447857856267e+02
1.930224649422872751e+00 5.399466598276277409e+02
1.930324671427714023e+00 5.399714118445019722e+02
1.930424693432555072e+00 5.399962001444293946e+02
1.930524715437396122e+00 5.400210240341302779e+02
1.930624737442237171e+00 5.400458828190526219e+02
1.930724759447078220e+00 5.400707758033876189e+02
1.930824781451919048e+00 5.400957022900975062e+02
1.930924803456760319e+00 5.401206615809355753e+02
1.931024825461601369e+00 5.401456529764711831e+02
1.931124847466442418e+00 5.401706757761080553e+02
1.931224869471283689e+00 5.401957292781129354e+02
1.931324891476124739e+00 5.402208127796335475e+02
1.931424913480965788e+00 5.402459255767241757e+02
1.931524935485806616e+00 5.402710669643670371e+02
1.931624957490647665e+00 5.402962362364966111e+02
1.931724979495488714e+00 5.403214326860216943e+02
1.931825001500329986e+00 5.403466556048480243e+02
1.931925023505171035e+00 5.403719042839029498e+02
1.932025045510012085e+00 5.403971780131568039e+02
1.932125067514853356e+00 5.404224760816470052e+02
1.932225089519694183e+00 5.404477977775009094e+02
1.932325111524535233e+00 5.404731423879592285e+02
1.932425133529376282e+00 5.404985091993988817e+02
1.932525155534217332e+00 5.405238974973567565e+02
1.932625177539058381e+00 5.405493065665526728e+02
1.932725199543899652e+00 5.405747356909118935e+02
1.932825221548740702e+00 5.406001841535913854e+02
1.932925243553581529e+00 5.406256512369994880e+02
1.933025265558422578e+00 5.406511362228216058e+02
1.933125287563263850e+00 5.406766383920431736e+02
1.933225309568104899e+00 5.407021570249730757e+02
1.933325331572945949e+00 5.407276914012669522e+02
1.933425353577786998e+00 5.407532407999512998e+02
1.933525375582628048e+00 5.407788044994466645e+02
1.933625397587468875e+00 5.408043817775904927e+02
1.933725419592310146e+00 5.408299719116622555e+02
1.933825441597151196e+00 5.408555741784057318e+02
1.933925463601992245e+00 5.408811878540541329e+02
1.934025485606833517e+00 5.409068122143511346e+02
1.934125507611674566e+00 5.409324465345779345e+02
1.934225529616515615e+00 5.409580900895751938e+02
1.934325551621356443e+00 5.409837421537648652e+02
1.934425573626197492e+00 5.410094020011781595e+02
1.934525595631038541e+00 5.410350689054766917e+02
1.934625617635879813e+00 5.410607421399757868e+02
1.934725639640720862e+00 5.410864209776691496e+02
1.934825661645561912e+00 5.411121046912539896e+02
1.934925683650403183e+00 5.411377925531515984e+02
1.935025705655244010e+00 5.411634838355347483e+02
1.935125727660085060e+00 5.411891778103489514e+02
1.935225749664926109e+00 5.412148737493373574e+02
1.935325771669767159e+00 5.412405709240642864e+02
1.935425793674608208e+00 5.412662686059394446e+02
1.935525815679449479e+00 5.412919660662421393e+02
1.935625837684290529e+00 5.413176625761437890e+02
1.935725859689131356e+00 5.413433574067331620e+02
1.935825881693972406e+00 5.413690498290402502e+02
1.935925903698813677e+00 5.413947391140586660e+02
1.936025925703654726e+00 5.414204245327711078e+02
1.936125947708495776e+00 5.414461053561735753e+02
1.936225969713336825e+00 5.414717808552965153e+02
1.936325991718177875e+00 5.414974503012331297e+02
1.936426013723018702e+00 5.415231129651587025e+02
1.936526035727859973e+00 5.415487681183577706e+02
1.936626057732701023e+00 5.415744150322470887e+02
1.936726079737542072e+00 5.416000529783989350e+02
1.936826101742383344e+00 5.416256812285648721e+02
1.936926123747224393e+00 5.416512990547013260e+02
1.937026145752065442e+00 5.416769057289924376e+02
1.937126167756906270e+00 5.417025005238729136e+02
1.937226189761747319e+00 5.417280827120534923e+02
1.937326211766588369e+00 5.417536515665442494e+02
1.937426233771429640e+00 5.417792063606782449e+02
1.937526255776270689e+00 5.418047463681355111e+02
1.937626277781111739e+00 5.418302708629679501e+02
1.937726299785953010e+00 5.418557791196208200e+02
1.937826321790793838e+00 5.418812704129589974e+02
1.937926343795634887e+00 5.419067440182897144e+02
1.938026365800475936e+00 5.419321992113849547e+02
1.938126387805316986e+00 5.419576352685089660e+02
1.938226409810158035e+00 5.419830514664383827e+02
1.938326431814999307e+00 5.420084470824873506e+02
1.938426453819840356e+00 5.420338213945319694e+02
1.938526475824681183e+00 5.420591736810324619e+02
1.938626497829522233e+00 5.420845032210592080e+02
1.938726519834363504e+00 5.421098092943128677e+02
1.938826541839204554e+00 5.421350911811523474e+02
1.938926563844045603e+00 5.421603481626150369e+02
1.939026585848886652e+00 5.421855795204420474e+02
1.939126607853727702e+00 5.422107845371012900e+02
1.939226629858568529e+00 5.422359624958111226e+02
1.939326651863409801e+00 5.422611126805642243e+02
1.939426673868250850e+00 5.422862343761516968e+02
1.939526695873091899e+00 5.423113268681837553e+02
1.939626717877933171e+00 5.423363894431170138e+02
1.939726739882774220e+00 5.423614213882760851e+02
1.939826761887615270e+00 5.423864219918755225e+02
1.939926783892456097e+00 5.424113905430467639e+02
1.940026805897297146e+00 5.424363263318582540e+02
1.940126827902138196e+00 5.424612286493403417e+02
1.940226849906979467e+00 5.424860967875085862e+02
1.940326871911820517e+00 5.425109300393860394e+02
1.940426893916661566e+00 5.425357276990279161e+02
1.940526915921502837e+00 5.425604890615436489e+02
1.940626937926343665e+00 5.425852134231203081e+02
1.940726959931184714e+00 5.426099000810463622e+02
1.940826981936025764e+00 5.426345483337339601e+02
1.940927003940866813e+00 5.426591574807431471e+02
1.941027025945707862e+00 5.426837268228018729e+02
1.941127047950549134e+00 5.427082556618336184e+02
1.941227069955390183e+00 5.427327433009763809e+02
1.941327091960231011e+00 5.427571890446084808e+02
1.941427113965072060e+00 5.427815921983678891e+02
1.941527135969913331e+00 5.428059520691793978e+02
1.941627157974754381e+00 5.428302679652741745e+02
1.941727179979595430e+00 5.428545391962129543e+02
1.941827201984436480e+00 5.428787650729101415e+02
1.941927223989277529e+00 5.429029449076548417e+02
1.942027245994118356e+00 5.429270780141357591e+02
1.942127267998959628e+00 5.429511637074597274e+02
1.942227290003800677e+00 5.429752013041791088e+02
1.942327312008641726e+00 5.429991901223095283e+02
1.942427334013482998e+00 5.430231294813568184e+02
1.942527356018324047e+00 5.430470187023347535e+02
1.942627378023165097e+00 5.430708571077919942e+02
1.942727400028005924e+00 5.430946440218299358e+02
1.942827422032846973e+00 5.431183787701286292e+02
1.942927444037688023e+00 5.431420606799664483e+02
1.943027466042529294e+00 5.431656890802431690e+02
1.943127488047370344e+00 5.431892633015008869e+02
1.943227510052211393e+00 5.432127826759494837e+02
1.943327532057052665e+00 5.432362465374839076e+02
1.943427554061893492e+00 5.432596542217080469e+02
1.943527576066734541e+00 5.432830050659575818e+02
1.943627598071575591e+00 5.433062984093212435e+02
1.943727620076416640e+00 5.433295335926600274e+02
1.943827642081257689e+00 5.433527099586323175e+02
1.943927664086098961e+00 5.433758268517143506e+02
1.944027686090939788e+00 5.433988836182198838e+02
1.944127708095780838e+00 5.434218796063239552e+02
1.944227730100621887e+00 5.434448141660833471e+02
1.944327752105463158e+00 5.434676866494576188e+02
1.944427774110304208e+00 5.434904964103302518e+02
1.944527796115145257e+00 5.435132428045319557e+02
1.944627818119986307e+00 5.435359251898581761e+02
1.944727840124827134e+00 5.435585429260925139e+02
1.944827862129668183e+00 5.435810953750269618e+02
1.944927884134509455e+00 5.436035819004846417e+02
1.945027906139350504e+00 5.436260018683366297e+02
1.945127928144191554e+00 5.436483546465271957e+02
1.945227950149032825e+00 5.436706396050909689e+02
1.945327972153873874e+00 5.436928561161760172e+02
1.945427994158714702e+00 5.437150035540623776e+02
1.945528016163555751e+00 5.437370812951845664e+02
1.945628038168396801e+00 5.437590887181506787e+02
1.945728060173237850e+00 5.437810252037626242e+02
1.945828082178079121e+00 5.438028901350378419e+02
1.945928104182920171e+00 5.438246828972272624e+02
1.946028126187761220e+00 5.438464028778357715e+02
1.946128148192602048e+00 5.438680494666459708e+02
1.946228170197443319e+00 5.438896220557321612e+02
1.946328192202284368e+00 5.439111200394847856e+02
1.946428214207125418e+00 5.439325428146282775e+02
1.946528236211966467e+00 5.439538897802410702e+02
1.946628258216807517e+00 5.439751603377750371e+02
1.946728280221648788e+00 5.439963538910757279e+02
1.946828302226489615e+00 5.440174698464012408e+02
1.946928324231330665e+00 5.440385076124408670e+02
1.947028346236171714e+00 5.440594666003371458e+02
1.947128368241012986e+00 5.440803462237008716e+02
1.947228390245854035e+00 5.441011458986338312e+02
1.947328412250695084e+00 5.441218650437460838e+02
1.947428434255536134e+00 5.441425030801759704e+02
1.947528456260376961e+00 5.441630594316073939e+02
1.947628478265218011e+00 5.441835335242899419e+02
1.947728500270059282e+00 5.442039247870570762e+02
1.947828522274900331e+00 5.442242326513452326e+02
1.947928544279741381e+00 5.442444565512103054e+02
1.948028566284582652e+00 5.442645959233502708e+02
1.948128588289423702e+00 5.442846502071178065e+02
1.948228610294264529e+00 5.443046188445446205e+02
1.948328632299105578e+00 5.443245012803542977e+02
1.948428654303946628e+00 5.443442969619827636e+02
1.948528676308787677e+00 5.443640053395978384e+02
1.948628698313628949e+00 5.443836258661133343e+02
1.948728720318469998e+00 5.444031579972097461e+02
1.948828742323311047e+00 5.444226011913506227e+02
1.948928764328151875e+00 5.444419549098001880e+02
1.949028786332993146e+00 5.444612186166420997e+02
1.949128808337834196e+00 5.444803917787944556e+02
1.949228830342675245e+00 5.444994738660295752e+02
1.949328852347516294e+00 5.445184643509888929e+02
1.949428874352357344e+00 5.445373627092022843e+02
1.949528896357198615e+00 5.445561684191025051e+02
1.949628918362039443e+00 5.445748809620448583e+02
1.949728940366880492e+00 5.445934998223215189e+02
1.949828962371721541e+00 5.446120244871799514e+02
1.949928984376562813e+00 5.446304544468374615e+02
1.950029006381403862e+00 5.446487891945006368e+02
1.950129028386244912e+00 5.446670282263785339e+02
1.950229050391085961e+00 5.446851710417017784e+02
1.950329072395926788e+00 5.447032171427359799e+02
1.950429094400767838e+00 5.447211660347998077e+02
1.950529116405609109e+00 5.447390172262801116e+02
1.950629138410450159e+00 5.447567702286472695e+02
1.950729160415291208e+00 5.447744245564730363e+02
1.950829182420132479e+00 5.447919797274437315e+02
1.950929204424973529e+00 5.448094352623753593e+02
1.951029226429814356e+00 5.448267906852327087e+02
1.951129248434655405e+00 5.448440455231400392e+02
1.951229270439496455e+00 5.448611993064002945e+02
1.951329292444337504e+00 5.448782515685068120e+02
1.951429314449178776e+00 5.448952018461602620e+02
1.951529336454019825e+00 5.449120496792828590e+02
1.951629358458860874e+00 5.449287946110335952e+02
1.951729380463701702e+00 5.449454361878225654e+02
1.951829402468542973e+00 5.449619739593244958e+02
1.951929424473384023e+00 5.449784074784942050e+02
1.952029446478225072e+00 5.449947363015816109e+02
1.952129468483066121e+00 5.450109599881444638e+02
1.952229490487907171e+00 5.450270781010626706e+02
1.952329512492748442e+00 5.450430902065519376e+02
1.952429534497589270e+00 5.450589958741791179e+02
1.952529556502430319e+00 5.450747946768748307e+02
1.952629578507271368e+00 5.450904861909455121e+02
1.952729600512112640e+00 5.451060699960906959e+02
1.952829622516953689e+00 5.451215456754121078e+02
1.952929644521794739e+00 5.451369128154303780e+02
1.953029666526635788e+00 5.451521710060959549e+02
1.953129688531476615e+00 5.451673198408016106e+02
1.953229710536317665e+00 5.451823589163989254e+02
1.953329732541158936e+00 5.451972878332067012e+02
1.953429754545999986e+00 5.452121061950261947e+02
1.953529776550841035e+00 5.452268136091524866e+02
1.953629798555682306e+00 5.452414096863873283e+02
1.953729820560523356e+00 5.452558940410510786e+02
1.953829842565364183e+00 5.452702662909961191e+02
1.953929864570205233e+00 5.452845260576164037e+02
1.954029886575046282e+00 5.452986729658613285e+02
1.954129908579887331e+00 5.453127066442473279e+02
1.954229930584728603e+00 5.453266267248678787e+02
1.954329952589569652e+00 5.453404328434085073e+02
1.954429974594410702e+00 5.453541246391520190e+02
1.954529996599251529e+00 5.453677017549977109e+02
1.954630018604092800e+00 5.453811638374662607e+02
1.954730040608933850e+00 5.453945105367126871e+02
1.954830062613774899e+00 5.454077415065394234e+02
1.954930084618615949e+00 5.454208564044020022e+02
1.955030106623456998e+00 5.454338548914251987e+02
1.955130128628298269e+00 5.454467366324103068e+02
1.955230150633139097e+00 5.454595012958458256e+02
1.955330172637980146e+00 5.454721485539183732e+02
1.955430194642821196e+00 5.454846780825237147e+02
1.955530216647662467e+00 5.454970895612733557e+02
1.955630238652503516e+00 5.455093826735092080e+02
1.955730260657344566e+00 5.455215571063081370e+02
1.955830282662185615e+00 5.455336125504958318e+02
1.955930304667026443e+00 5.455455487006541944e+02
1.956030326671867492e+00 5.455573652551310033e+02
1.956130348676708763e+00 5.455690619160492361e+02
1.956230370681549813e+00 5.455806383893158227e+02
1.956330392686390862e+00 5.455920943846302862e+02
1.956430414691232134e+00 5.456034296154955427e+02
1.956530436696073183e+00 5.456146437992238134e+02
1.956630458700914010e+00 5.456257366569467422e+02
1.956730480705755060e+00 5.456367079136231268e+02
1.956830502710596109e+00 5.456475572980490369e+02
1.956930524715437159e+00 5.456582845428623614e+02
1.957030546720278430e+00 5.456688893845534949e+02
1.957130568725119479e+00 5.456793715634740920e+02
1.957230590729960529e+00 5.456897308238410460e+02
1.957330612734801356e+00 5.456999669137476303e+02
1.957430634739642628e+00 5.457100795851694102e+02
1.957530656744483677e+00 5.457200685939714049e+02
1.957630678749324726e+00 5.457299336999160460e+02
1.957730700754165776e+00 5.457396746666702256e+02
1.957830722759006825e+00 5.457492912618102991e+02
1.957930744763848097e+00 5.457587832568323165e+02
1.958030766768688924e+00 5.457681504271552058e+02
1.958130788773529973e+00 5.457773925521295268e+02
1.958230810778371023e+00 5.457865094150425875e+02
1.958330832783212294e+00 5.457955008031262878e+02
1.958430854788053344e+00 5.458043665075603030e+02
1.958530876792894393e+00 5.458131063234814064e+02
1.958630898797735442e+00 5.458217200499869932e+02
1.958730920802576270e+00 5.458302074901407650e+02
1.958830942807417319e+00 5.458385684509806879e+02
1.958930964812258591e+00 5.458468027435210388e+02
1.959030986817099640e+00 5.458549101827600225e+02
1.959131008821940689e+00 5.458628905876842055e+02
1.959231030826781961e+00 5.458707437812722674e+02
1.959331052831623010e+00 5.458784695905031867e+02
1.959431074836463837e+00 5.458860678463562408e+02
1.959531096841304887e+00 5.458935383838203279e+02
1.959631118846145936e+00 5.459008810418945359e+02
1.959731140850986986e+00 5.459080956635943949e+02
1.959831162855828257e+00 5.459151820959558563e+02
1.959931184860669307e+00 5.459221401900389310e+02
1.960031206865510356e+00 5.459289698009313270e+02
1.960131228870351183e+00 5.459356707877534518e+02
1.960231250875192455e+00 5.459422430136600042e+02
1.960331272880033504e+00 5.459486863458454309e+02
1.960431294884874553e+00 5.459550006555447226e+02
1.960531316889715603e+00 5.459611858180398940e+02
1.960631338894556652e+00 5.459672417126594155e+02
1.960731360899397924e+00 5.459731682227841247e+02
1.960831382904238751e+00 5.459789652358485910e+02
1.960931404909079800e+00 5.459846326433431614e+02
1.961031426913920850e+00 5.459901703408169169e+02
1.961131448918762121e+00 5.459955782278802872e+02
1.961231470923603171e+00 5.460008562082084609e+02
1.961331492928444220e+00 5.460060041895388849e+02
1.961431514933285047e+00 5.460110220836781991e+02
1.961531536938126097e+00 5.460159098065029184e+02
1.961631558942967146e+00 5.460206672779571591e+02
1.961731580947808418e+00 5.460252944220599147e+02
1.961831602952649467e+00 5.460297911669015321e+02
1.961931624957490516e+00 5.460341574446472350e+02
1.962031646962331788e+00 5.460383931915382618e+02
1.962131668967172615e+00 5.460424983478917511e+02
1.962231690972013665e+00 5.460464728581019926e+02
1.962331712976854714e+00 5.460503166706408820e+02
1.962431734981695763e+00 5.460540297380580341e+02
1.962531756986536813e+00 5.460576120169826027e+02
1.962631778991378084e+00 5.460610634681214606e+02
1.962731800996219134e+00 5.460643840562601099e+02
1.962831823001059961e+00 5.460675737502627953e+02
1.962931845005901010e+00 5.460706325230721632e+02
1.963031867010742282e+00 5.460735603517080108e+02
1.963131889015583331e+00 5.460763572172686509e+02
1.963231911020424381e+00 5.460790231049281829e+02
1.963331933025265430e+00 5.460815580039364932e+02
1.963431955030106479e+00 5.460839619076178906e+02
1.963531977034947307e+00 5.460862348133721298e+02
1.963631999039788578e+00 5.460883767226696364e+02
1.963732021044629628e+00 5.460903876410526436e+02
1.963832043049470677e+00 5.460922675781328053e+02
1.963932065054311948e+00 5.460940165475891490e+02
1.964032087059152998e+00 5.460956345671681902e+02
1.964132109063994047e+00 5.460971216586789296e+02
1.964232131068834875e+00 5.460984778479933084e+02
1.964332153073675924e+00 5.460997031650429108e+02
1.964432175078516973e+00 5.461007976438154401e+02
1.964532197083358245e+00 5.461017613223549461e+02
1.964632219088199294e+00 5.461025942427571636e+02
1.964732241093040344e+00 5.461032964511666705e+02
1.964832263097881615e+00 5.461038679977754100e+02
1.964932285102722442e+00 5.461043089368172332e+02
1.965032307107563492e+00 5.461046193265675583e+02
1.965132329112404541e+00 5.461047992293367770e+02
1.965232351117245591e+00 5.461048487114708223e+02
1.965332373122086640e+00 5.461047678433421879e+02
1.965432395126927911e+00 5.461045566993518605e+02
1.965532417131768961e+00 5.461042153579205660e+02
1.965632439136609788e+00 5.461037439014878601e+02
1.965732461141450838e+00 5.461031424165065573e+02
1.965832483146292109e+00 5.461024109934382977e+02
1.965932505151133158e+00 5.461015497267499086e+02
1.966032527155974208e+00 5.461005587149074927e+02
1.966132549160815257e+00 5.460994380603733589e+02
1.966232571165656307e+00 5.460981878695995420e+02
1.966332593170497134e+00 5.460968082530231413e+02
1.966432615175338405e+00 5.460952993250617737e+02
1.966532637180179455e+00 5.460936612041083436e+02
1.966632659185020504e+00 5.460918940125236531e+02
1.966732681189861776e+00 5.460899978766335607e+02
1.966832703194702825e+00 5.460879729267206812e+02
1.966932725199543874e+00 5.460858192970208620e+02
1.967032747204384702e+00 5.460835371257157931e+02
1.967132769209225751e+00 5.460811265549261861e+02
1.967232791214066800e+00 5.460785877307077953e+02
1.967332813218908072e+00 5.460759208030433456e+02
1.967432835223749121e+00 5.460731259258336650e+02
1.967532857228590171e+00 5.460702032568976847e+02
1.967632879233431442e+00 5.460671529579583421e+02
1.967732901238272269e+00 5.460639751946404203e+02
1.967832923243113319e+00 5.460606701364608853e+02
1.967932945247954368e+00 5.460572379568221777e+02
1.968032967252795418e+00 5.460536788330074387e+02
1.968132989257636467e+00 5.460499929461675492e+02
1.968233011262477739e+00 5.460461804813194249e+02
1.968333033267318788e+00 5.460422416273331692e+02
1.968433055272159615e+00 5.460381765769285494e+02
1.968533077277000665e+00 5.460339855266640825e+02
1.968633099281841936e+00 5.460296686769304415e+02
1.968733121286682985e+00 5.460252262319387455e+02
1.968833143291524035e+00 5.460206583997180587e+02
1.968933165296365084e+00 5.460159653921019753e+02
1.969033187301206134e+00 5.460111474247221395e+02
1.969133209306046961e+00 5.460062047169973312e+02
1.969233231310888232e+00 5.460011374921278957e+02
1.969333253315729282e+00 5.459959459770832382e+02
1.969433275320570331e+00 5.459906304025945474e+02
1.969533297325411603e+00 5.459851910031450188e+02
1.969633319330252652e+00 5.459796280169601914e+02
1.969733341335093701e+00 5.459739416859983976e+02
1.969833363339934529e+00 5.459681322559415548e+02
1.969933385344775578e+00 5.459621999761833422e+02
1.970033407349616628e+00 5.459561450998221517e+02
1.970133429354457899e+00 5.459499678836492649e+02
1.970233451359298948e+00 5.459436685881381663e+02
1.970333473364139998e+00 5.459372474774352213e+02
1.970433495368981269e+00 5.459307048193487617e+02
1.970533517373822097e+00 5.459240408853380586e+02
1.970633539378663146e+00 5.459172559505035451e+02
1.970733561383504195e+00 5.459103502935743109e+02
1.970833583388345245e+00 5.459033241968993480e+02
1.970933605393186294e+00 5.458961779464345909e+02
1.971033627398027566e+00 5.458889118317322300e+02
1.971133649402868615e+00 5.458815261459292287e+02
1.971233671407709442e+00 5.458740211857362965e+02
1.971333693412550492e+00 5.458663972514248144e+02
1.971433715417391763e+00 5.458586546468180813e+02
1.971533737422232813e+00 5.458507936792757391e+02
1.971633759427073862e+00 5.458428146596851320e+02
1.971733781431914911e+00 5.458347179024458455e+02
1.971833803436755961e+00 5.458265037254608387e+02
1.971933825441596788e+00 5.458181724501212102e+02
1.972033847446438060e+00 5.458097244012960800e+02
1.972133869451279109e+00 5.458011599073184925e+02
1.972233891456120158e+00 5.457924792999730244e+02
1.972333913460961430e+00 5.457836829144832791e+02
1.972433935465802479e+00 5.457747710894980173e+02
1.972533957470643529e+00 5.457657441670801290e+02
1.972633979475484356e+00 5.457566024926916270e+02
1.972734001480325405e+00 5.457473464151795497e+02
1.972834023485166455e+00 5.457379762867656154e+02
1.972934045490007726e+00 5.457284924630298519e+02
1.973034067494848776e+00 5.457188953028985452e+02
1.973134089499689825e+00 5.457091851686294603e+02
1.973234111504531096e+00 5.456993624257988813e+02
1.973334133509371924e+00 5.456894274432868315e+02
1.973434155514212973e+00 5.456793805932638861e+02
1.973534177519054023e+00 5.456692222511754835e+02
1.973634199523895072e+00 5.456589527957296468e+02
1.973734221528736121e+00 5.456485726088807269e+02
1.973834243533577393e+00 5.456380820758148502e+02
1.973934265538418442e+00 5.456274815849378683e+02
1.974034287543259270e+00 5.456167715278569403e+02
1.974134309548100319e+00 5.456059522993682549e+02
1.974234331552941590e+00 5.455950242974412276e+02
1.974334353557782640e+00 5.455839879232032672e+02
1.974434375562623689e+00 5.455728435809236316e+02
1.974534397567464739e+00 5.455615916780011503e+02
1.974634419572305788e+00 5.455502326249452381e+02
1.974734441577146615e+00 5.455387668353630488e+02
1.974834463581987887e+00 5.455271947259425360e+02
1.974934485586828936e+00 5.455155167164355134e+02
1.975034507591669986e+00 5.455037332296461727e+02
1.975134529596511257e+00 5.454918446914095966e+02
1.975234551601352306e+00 5.454798515305799356e+02
1.975334573606193356e+00 5.454677541790117630e+02
1.975434595611034183e+00 5.454555530715456371e+02
1.975534617615875232e+00 5.454432486459909342e+02
1.975634639620716282e+00 5.454308413431084546e+02
1.975734661625557553e+00 5.454183316065953022e+02
1.975834683630398603e+00 5.454057198830684001e+02
1.975934705635239652e+00 5.453930066220461867e+02
1.976034727640080924e+00 5.453801922759334957e+02
1.976134749644921751e+00 5.453672773000034795e+02
1.976234771649762800e+00 5.453542621523804428e+02
1.976334793654603850e+00 5.453411472940240401e+02
1.976434815659444899e+00 5.453279331887109720e+02
1.976534837664285948e+00 5.453146203030175911e+02
1.976634859669127220e+00 5.453012091063038724e+02
1.976734881673968269e+00 5.452877000706928357e+02
1.976834903678809097e+00 5.452740936710572441e+02
1.976934925683650146e+00 5.452603903849980043e+02
1.977034947688491417e+00 5.452465906928291588e+02
1.977134969693332467e+00 5.452326950775576506e+02
1.977234991698173516e+00 5.452187040248688845e+02
1.977335013703014566e+00 5.452046180231036487e+02
1.977435035707855615e+00 5.451904375632435631e+02
1.977535057712696442e+00 5.451761631388939122e+02
1.977635079717537714e+00 5.451617952462607946e+02
1.977735101722378763e+00 5.451473343841366841e+02
1.977835123727219813e+00 5.451327810538809899e+02
1.977935145732061084e+00 5.451181357594001611e+02
1.978035167736902133e+00 5.451033990071300650e+02
1.978135189741743183e+00 5.450885713060183662e+02
1.978235211746584010e+00 5.450736531675026981e+02
1.978335233751425060e+00 5.450586451054959980e+02
1.978435255756266109e+00 5.450435476363618363e+02
1.978535277761107380e+00 5.450283612789013432e+02
1.978635299765948430e+00 5.450130865543301297e+02
1.978735321770789479e+00 5.449977239862607803e+02
1.978835343775630307e+00 5.449822741006819342e+02
1.978935365780471578e+00 5.449667374259412327e+02
1.979035387785312627e+00 5.449511144927241730e+02
1.979135409790153677e+00 5.449354058340350093e+02
1.979235431794994726e+00 5.449196119851756066e+02
1.979335453799835776e+00 5.449037334837302069e+02
1.979435475804677047e+00 5.448877708695407591e+02
1.979535497809517874e+00 5.448717246846889566e+02
1.979635519814358924e+00 5.448555954734769102e+02
1.979735541819199973e+00 5.448393837824067987e+02
1.979835563824041245e+00 5.448230901601598362e+02
1.979935585828882294e+00 5.448067151575780827e+02
1.980035607833723343e+00 5.447902593276425023e+02
1.980135629838564393e+00 5.447737232254528408e+02
1.980235651843405220e+00 5.447571074082087534e+02
1.980335673848246270e+00 5.447404124351877499e+02
1.980435695853087541e+00 5.447236388677249579e+02
1.980535717857928590e+00 5.447067872691943649e+02
1.980635739862769640e+00 5.446898582049852848e+02
1.980735761867610911e+00 5.446728522424840548e+02
1.980835783872451961e+00 5.446557699510530028e+02
1.980935805877292788e+00 5.446386119020073693e+02
1.981035827882133837e+00 5.446213786685984815e+02
1.981135849886974887e+00 5.446040708259881740e+02
1.981235871891815936e+00 5.445866889512324178e+02
1.981335893896657208e+00 5.445692336232559683e+02
1.981435915901498257e+00 5.445517054228351981e+02
1.981535937906339306e+00 5.445341049325734275e+02
1.981635959911180134e+00 5.445164327368829618e+02
1.981735981916021405e+00 5.444986894219605347e+02
1.981836003920862455e+00 5.444808755757680956e+02
1.981936025925703504e+00 5.444629917880120047e+02
1.982036047930544553e+00 5.444450386501196135e+02
1.982136069935385603e+00 5.444270167552181192e+02
1.982236091940226874e+00 5.444089266981146693e+02
1.982336113945067702e+00 5.443907690752730559e+02
1.982436135949908751e+00 5.443725444847931385e+02
1.982536157954749800e+00 5.443542535263874242e+02
1.982636179959591072e+00 5.443358968013617414e+02
1.982736201964432121e+00 5.443174749125920471e+02
1.982836223969273171e+00 5.442989884645024858e+02
1.982936245974114220e+00 5.442804380630431069e+02
1.983036267978955047e+00 5.442618243156694007e+02
1.983136289983796097e+00 5.442431478313191064e+02
1.983236311988637368e+00 5.442244092203910668e+02
1.983336333993478418e+00 5.442056090947212397e+02
1.983436355998319467e+00 5.441867480675632578e+02
1.983536378003160738e+00 5.441678267535636451e+02
1.983636400008001788e+00 5.441488457687421487e+02
1.983736422012842615e+00 5.441298057304670692e+02
1.983836444017683664e+00 5.441107072574346830e+02
1.983936466022524714e+00 5.440915509696458230e+02
1.984036488027365763e+00 5.440723374883843917e+02
1.984136510032207035e+00 5.440530674361939418e+02
1.984236532037048084e+00 5.440337414368567579e+02
1.984336554041889134e+00 5.440143601153689588e+02
1.984436576046729961e+00 5.439949240979207161e+02
1.984536598051571232e+00 5.439754340118716982e+02
1.984636620056412282e+00 5.439558904857287871e+02
1.984736642061253331e+00 5.439362941491256151e+02
1.984836664066094380e+00 5.439166456327960759e+02
1.984936686070935430e+00 5.438969455685542016e+02
1.985036708075776701e+00 5.438771945892713120e+02
1.985136730080617529e+00 5.438573933288531634e+02
1.985236752085458578e+00 5.438375424222160746e+02
1.985336774090299627e+00 5.438176425052650984e+02
1.985436796095140899e+00 5.437976942148709441e+02
1.985536818099981948e+00 5.437776981888480350e+02
1.985636840104822998e+00 5.437576550659297254e+02
1.985736862109664047e+00 5.437375654857468135e+02
1.985836884114504874e+00 5.437174300888038943e+02
1.985936906119345924e+00 5.436972495164568500e+02
1.986036928124187195e+00 5.436770244108909083e+02
1.986136950129028245e+00 5.436567554150943806e+02
1.986236972133869294e+00 5.436364431728388809e+02
1.986336994138710565e+00 5.436160883286559056e+02
1.986437016143551615e+00 5.435956915278110273e+02
1.986537038148392442e+00 5.435752534162839993e+02
1.986637060153233492e+00 5.435547746407447676e+02
1.986737082158074541e+00 5.435342558485298241e+02
1.986837104162915590e+00 5.435136976876185599e+02
1.986937126167756862e+00 5.434931008066105278e+02
1.987037148172597911e+00 5.434724658547049785e+02
1.987137170177438961e+00 5.434517934816726665e+02
1.987237192182279788e+00 5.434310843378370919e+02
1.987337214187121059e+00 5.434103390740481245e+02
1.987437236191962109e+00 5.433895583416615409e+02
1.987537258196803158e+00 5.433687427925128759e+02
1.987637280201644208e+00 5.433478930788978687e+02
1.987737302206485257e+00 5.433270098535460875e+02
1.987837324211326528e+00 5.433060937695981920e+02
1.987937346216167356e+00 5.432851454805839921e+02
1.988037368221008405e+00 5.432641656403989145e+02
1.988137390225849455e+00 5.432431549032789917e+02
1.988237412230690726e+00 5.432221139237805119e+02
1.988337434235531775e+00 5.432010433567540986e+02
1.988437456240372825e+00 5.431799438573228826e+02
1.988537478245213874e+00 5.431588160808585144e+02
1.988637500250054702e+00 5.431376606829600178e+02
1.988737522254895751e+00 5.431164783194252550e+02
1.988837544259737022e+00 5.430952696462355789e+02
1.988937566264578072e+00 5.430740353195246826e+02
1.989037588269419121e+00 5.430527759955608644e+02
1.989137610274260393e+00 5.430314923307208801e+02
1.989237632279101442e+00 5.430101849814680008e+02
1.989337654283942269e+00 5.429888546043287079e+02
1.989437676288783319e+00 5.429675018558680222e+02
1.989537698293624368e+00 5.429461273926680178e+02
1.989637720298465418e+00 5.429247318713050845e+02
1.989737742303306689e+00 5.429033159483237796e+02
1.989837764308147738e+00 5.428818802802161372e+02
1.989937786312988788e+00 5.428604255233988169e+02
1.990037808317829615e+00 5.428389523341872973e+02
1.990137830322670887e+00 5.428174613687752981e+02
1.990237852327511936e+00 5.427959532832110199e+02
1.990337874332352985e+00 5.427744287333723605e+02
1.990437896337194035e+00 5.427528883749470197e+02
1.990537918342035084e+00 5.427313328634057825e+02
1.990637940346876356e+00 5.427097628539812604e+02
1.990737962351717183e+00 5.426881790016459490e+02
1.990837984356558232e+00 5.426665819610873314e+02
1.990938006361399282e+00 5.426449723866842305e+02
1.991038028366240553e+00 5.426233509324874831e+02
1.991138050371081603e+00 5.426017182521921995e+02
1.991238072375922652e+00 5.425800749991179828e+02
1.991338094380763701e+00 5.425584218261852811e+02
1.991438116385604529e+00 5.425367593858921964e+02
1.991538138390445578e+00 5.425150883302917464e+02
1.991638160395286850e+00 5.424934093109676496e+02
1.991738182400127899e+00 5.424717229790148849e+02
1.991838204404968948e+00 5.424500299850126339e+02
1.991938226409810220e+00 5.424283309790049543e+02
1.992038248414651269e+00 5.424066266104765646e+02
1.992138270419492097e+00 5.423849175283294244e+02
1.992238292424333146e+00 5.423632043808615890e+02
1.992338314429174195e+00 5.423414878157427665e+02
1.992438336434015245e+00 5.423197684799932858e+02
1.992538358438856516e+00 5.422980470199611318e+02
1.992638380443697566e+00 5.422763240812988670e+02
1.992738402448538615e+00 5.422546003089407805e+02
1.992838424453379442e+00 5.422328763470817421e+02
1.992938446458220714e+00 5.422111528391527600e+02
1.993038468463061763e+00 5.421894304278018808e+02
1.993138490467902812e+00 5.421677097548659958e+02
1.993238512472743862e+00 5.421459914613561750e+02
1.993338534477584911e+00 5.421242761874287908e+02
1.993438556482426183e+00 5.421025645723652815e+02
1.993538578487267010e+00 5.420808572545527113e+02
1.993638600492108059e+00 5.420591548714571672e+02
1.993738622496949109e+00 5.420374580596043188e+02
1.993838644501790380e+00 5.420157674545563395e+02
1.993938666506631430e+00 5.419940836908913298e+02
1.994038688511472479e+00 5.419724074021778506e+02
1.994138710516313528e+00 5.419507392209579848e+02
1.994238732521154356e+00 5.419290797787200518e+02
1.994338754525995405e+00 5.419074297058807588e+02
1.994438776530836677e+00 5.418857896317617815e+02
1.994538798535677726e+00 5.418641601845672540e+02
1.994638820540518775e+00 5.418425419913642145e+02
1.994738842545360047e+00 5.418209356780582766e+02
1.994838864550201096e+00 5.417993418693746435e+02
1.994938886555041924e+00 5.417777611888329830e+02
1.995038908559882973e+00 5.417561942587306021e+02
1.995138930564724022e+00 5.417346417001169812e+02
1.995238952569565072e+00 5.417131041327741059e+02
1.995338974574406343e+00 5.416915821751946396e+02
1.995438996579247393e+00 5.416700764445616869e+02
1.995539018584088442e+00 5.416485875567252606e+02
1.995639040588929269e+00 5.416271161261838643e+02
1.995739062593770541e+00 5.416056627660605045e+02
1.995839084598611590e+00 5.415842280880834778e+02
1.995939106603452640e+00 5.415628127025663616e+02
1.996039128608293689e+00 5.415414172183832306e+02
1.996139150613134738e+00 5.415200422429522860e+02
1.996239172617975566e+00 5.414986883822114123e+02
1.996339194622816837e+00 5.414773562405990788e+02
1.996439216627657887e+00 5.414560464210346709e+02
1.996539238632498936e+00 5.414347595248934795e+02
1.996639260637340207e+00 5.414134961519932858e+02
1.996739282642181257e+00 5.413922569005667356e+02
1.996839304647022306e+00 5.413710423672449679e+02
1.996939326651863134e+00 5.413498531470357875e+02
1.997039348656704183e+00 5.413286898333042245e+02
1.997139370661545232e+00 5.413075530177509336e+02
1.997239392666386504e+00 5.412864432903945726e+02
1.997339414671227553e+00 5.412653612395480422e+02
1.997439436676068603e+00 5.412443074518008643e+02
1.997539458680909874e+00 5.412232825119994004e+02
1.997639480685750701e+00 5.412022870032255923e+02
1.997739502690591751e+00 5.411813215067779765e+02
1.997839524695432800e+00 5.411603866021519025e+02
1.997939546700273850e+00 5.411394828670204333e+02
1.998039568705114899e+00 5.411186108772121770e+02
1.998139590709956170e+00 5.410977712066949152e+02
1.998239612714797220e+00 5.410769644275549126e+02
1.998339634719638047e+00 5.410561911099771351e+02
1.998439656724479097e+00 5.410354518222267188e+02
1.998539678729320368e+00 5.410147471306288480e+02
1.998639700734161417e+00 5.409940775995489730e+02
1.998739722739002467e+00 5.409734437913775764e+02
1.998839744743843516e+00 5.409528462665065263e+02
1.998939766748684566e+00 5.409322855833123640e+02
1.999039788753525393e+00 5.409117622981382283e+02
1.999139810758366664e+00 5.408912769652727093e+02
1.999239832763207714e+00 5.408708301369343872e+02
1.999339854768048763e+00 5.408504223632494359e+02
1.999439876772890035e+00 5.408300541922366165e+02
1.999539898777731084e+00 5.408097261697881777e+02
1.999639920782572133e+00 5.407894388396485965e+02
1.999739942787412961e+00 5.407691927434008221e+02
1.999839964792254010e+00 5.407489884204446753e+02
1.999939986797095060e+00 5.407288264079805913e+02
2.000040008801936331e+00 5.130312866251001651e+02
2.000140030806777602e+00 5.129344138533383557e+02
2.000240052811618430e+00 5.128375577841076165e+02
2.000340074816459701e+00 5.127407201777033379e+02
2.000440096821300529e+00 5.126439027926668359e+02
2.000540118826141356e+00 5.125471073857336251e+02
2.000640140830982627e+00 5.124503357117835094e+02
2.000740162835823899e+00 5.123535895237865816e+02
2.000840184840664726e+00 5.122568705727546785e+02
2.000940206845505998e+00 5.121601806076891990e+02
2.001040228850347269e+00 5.120635213755292625e+02
2.001140250855187652e+00 5.119668946211029379e+02
2.001240272860028924e+00 5.118703020870742648e+02
2.001340294864870195e+00 5.117737455138930613e+02
2.001440316869711022e+00 5.116772266397456406e+02
2.001540338874552294e+00 5.115807472005015484e+02
2.001640360879393565e+00 5.114843089296670655e+02
2.001740382884234393e+00 5.113879135583301263e+02
2.001840404889075220e+00 5.112915628151135365e+02
2.001940426893916491e+00 5.111952584261244397e+02
2.002040448898757319e+00 5.110990021149018503e+02
2.002140470903598590e+00 5.110027956023693605e+02
2.002240492908439862e+00 5.109066406067840376e+02
2.002340514913280689e+00 5.108105388436871408e+02
2.002440536918121960e+00 5.107144920258542129e+02
2.002540558922962788e+00 5.106185018632454558e+02
2.002640580927804059e+00 5.105225700629559924e+02
2.002740602932644887e+00 5.104266983291681754e+02
2.002840624937486158e+00 5.103308883631003141e+02
2.002940646942326985e+00 5.102351418629590967e+02
2.003040668947168257e+00 5.101394605238901931e+02
2.003140690952009528e+00 5.100438460379284606e+02
2.003240712956850356e+00 5.099483000939507633e+02
2.003340734961691183e+00 5.098528243776277122e+02
2.003440756966532454e+00 5.097574205713719948e+02
2.003540778971373726e+00 5.096620903542946621e+02
2.003640800976214553e+00 5.095668354021524351e+02
2.003740822981055825e+00 5.094716573873039351e+02
2.003840844985896652e+00 5.093765579786578428e+02
2.003940866990737923e+00 5.092815388416283895e+02
2.004040888995578751e+00 5.091866016380844258e+02
2.004140911000420022e+00 5.090917480263052539e+02
2.004240933005260850e+00 5.089969796609306059e+02
2.004340955010102121e+00 5.089022981929144862e+02
2.004440977014943392e+00 5.088077052694784470e+02
2.004540999019784220e+00 5.087132025340642940e+02
2.004641021024625047e+00 5.086187916262854856e+02
2.004741043029466319e+00 5.085244741818847842e+02
2.004841065034307590e+00 5.084302518326826998e+02
2.004941087039148417e+00 5.083361262065351980e+02
2.005041109043989689e+00 5.082420989272842462e+02
2.005141131048830516e+00 5.081481716147143288e+02
2.005241153053671788e+00 5.080543458845054374e+02
2.005341175058512615e+00 5.079606233481860613e+02
2.005441197063353886e+00 5.078670056130902708e+02
2.005541219068194714e+00 5.077734942823100255e+02
2.005641241073035985e+00 5.076800909546515754e+02
2.005741263077877257e+00 5.075867972245881674e+02
2.005841285082718084e+00 5.074936146822177534e+02
2.005941307087559355e+00 5.074005449132153558e+02
2.006041329092400183e+00 5.073075894987913443e+02
2.006141351097241010e+00 5.072147500156445403e+02
2.006241373102082282e+00 5.071220280359192429e+02
2.006341395106923553e+00 5.070294251271611756e+02
2.006441417111764380e+00 5.069369428522725229e+02
2.006541439116605652e+00 5.068445827694687296e+02
2.006641461121446923e+00 5.067523464322361519e+02
2.006741483126287307e+00 5.066602353892855604e+02
2.006841505131128578e+00 5.065682511845122349e+02
2.006941527135969849e+00 5.064763953569506612e+02
2.007041549140810677e+00 5.063846694407328641e+02
2.007141571145651948e+00 5.062930749650446955e+02
2.007241593150493220e+00 5.062016134540846792e+02
2.007341615155334047e+00 5.061102864270196164e+02
2.007441637160174874e+00 5.060190953979454775e+02
2.007541659165016146e+00 5.059280418758414157e+02
2.007641681169856973e+00 5.058371273645315114e+02
2.007741703174698245e+00 5.057463533626429921e+02
2.007841725179539516e+00 5.056557213635608150e+02
2.007941747184380343e+00 5.055652328553921961e+02
2.008041769189221615e+00 5.054748893209207949e+02
2.008141791194062442e+00 5.053846922375694248e+02
2.008241813198903714e+00 5.052946430773567386e+02
2.008341835203744541e+00 5.052047433068590863e+02
2.008441857208585812e+00 5.051149943871682240e+02
2.008541879213426640e+00 5.050253977738537969e+02
2.008641901218267911e+00 5.049359549169189449e+02
2.008741923223109183e+00 5.048466672607677310e+02
2.008841945227950010e+00 5.047575362441588140e+02
2.008941967232790837e+00 5.046685633001707743e+02
2.009041989237632109e+00 5.045797498561609586e+02
2.009142011242473380e+00 5.044910973337279643e+02
2.009242033247314208e+00 5.044026071486716774e+02
2.009342055252155479e+00 5.043142807109553587e+02
2.009442077256996306e+00 5.042261194246698892e+02
2.009542099261837578e+00 5.041381246879910805e+02
2.009642121266678405e+00 5.040502978931464781e+02
2.009742143271519677e+00 5.039626404263754011e+02
2.009842165276360504e+00 5.038751536678929597e+02
2.009942187281201775e+00 5.037878389918513449e+02
2.010042209286043047e+00 5.037006977663039038e+02
2.010142231290883874e+00 5.036137313531697259e+02
2.010242253295724701e+00 5.035269411081954445e+02
2.010342275300565973e+00 5.034403283809193681e+02
2.010442297305407244e+00 5.033538945146368633e+02
2.010542319310248072e+00 5.032676408463629514e+02
2.010642341315089343e+00 5.031815687067978615e+02
2.010742363319930170e+00 5.030956794202908213e+02
2.010842385324771442e+00 5.030099743048061214e+02
2.010942407329612269e+00 5.029244546718883271e+02
2.011042429334453541e+00 5.028391218266257283e+02
2.011142451339294368e+00 5.027539770676191324e+02
2.011242473344135639e+00 5.026690216869441201e+02
2.011342495348976911e+00 5.025842569701213733e+02
2.011442517353817738e+00 5.024996841960785332e+02
2.011542539358659010e+00 5.024153046371212668e+02
2.011642561363499837e+00 5.023311195588959777e+02
2.011742583368340664e+00 5.022471302203593382e+02
2.011842605373181936e+00 5.021633378737453768e+02
2.011942627378023207e+00 5.020797437645327363e+02
2.012042649382864035e+00 5.019963491314118187e+02
2.012142671387705306e+00 5.019131552062543733e+02
2.012242693392546578e+00 5.018301632140796755e+02
2.012342715397386961e+00 5.017473743730246269e+02
2.012442737402228232e+00 5.016647898943129462e+02
2.012542759407069504e+00 5.015824109822217451e+02
2.012642781411910331e+00 5.015002388340540165e+02
2.012742803416751602e+00 5.014182746401062900e+02
2.012842825421592874e+00 5.013365195836370845e+02
2.012942847426433701e+00 5.012549748408406458e+02
2.013042869431274529e+00 5.011736415808136371e+02
2.013142891436115800e+00 5.010925209655272283e+02
2.013242913440956627e+00 5.010116141497989020e+02
2.013342935445797899e+00 5.009309222812609619e+02
2.013442957450639170e+00 5.008504465003338737e+02
2.013542979455479998e+00 5.007701879401968199e+02
2.013643001460320825e+00 5.006901477267600740e+02
2.013743023465162096e+00 5.006103269786368628e+02
2.013843045470003368e+00 5.005307268071155704e+02
2.013943067474844195e+00 5.004513483161312593e+02
2.014043089479685467e+00 5.003721926022420234e+02
2.014143111484526294e+00 5.002932607545971564e+02
2.014243133489367565e+00 5.002145538549148114e+02
2.014343155494208393e+00 5.001360729774530682e+02
2.014443177499049664e+00 5.000578191889845243e+02
2.014543199503890492e+00 4.999797935487709424e+02
2.014643221508731763e+00 4.999019971085376710e+02
2.014743243513573034e+00 4.998244309124460187e+02
2.014843265518413862e+00 4.997470959970727336e+02
2.014943287523255133e+00 4.996699933913807854e+02
2.015043309528095961e+00 4.995931241166975951e+02
2.015143331532937232e+00 4.995164891866891708e+02
2.015243353537778059e+00 4.994400896073377680e+02
2.015343375542619331e+00 4.993639263769160834e+02
2.015443397547460158e+00 4.992880004859665632e+02
2.015543419552301430e+00 4.992123129172755398e+02
2.015643441557142701e+00 4.991368646458515173e+02
2.015743463561983528e+00 4.990616566389038553e+02
2.015843485566824356e+00 4.989866898558170760e+02
2.015943507571665627e+00 4.989119652481327876e+02
2.016043529576506899e+00 4.988374837595250710e+02
2.016143551581347726e+00 4.987632463257806421e+02
2.016243573586188997e+00 4.986892538747755452e+02
2.016343595591029825e+00 4.986155073264564521e+02
2.016443617595870652e+00 4.985420075928192318e+02
2.016543639600711924e+00 4.984687555778880892e+02
2.016643661605553195e+00 4.983957521776961812e+02
2.016743683610394022e+00 4.983229982802639597e+02
2.016843705615235294e+00 4.982504947655829710e+02
2.016943727620076565e+00 4.981782425055931753e+02
2.017043749624917393e+00 4.981062423641669170e+02
2.017143771629758220e+00 4.980344951970857892e+02
2.017243793634599491e+00 4.979630018520288672e+02
2.017343815639440319e+00 4.978917631685478682e+02
2.017443837644281590e+00 4.978207799780539062e+02
2.017543859649122862e+00 4.977500531037978817e+02
2.017643881653963689e+00 4.976795833608524617e+02
2.017743903658804960e+00 4.976093715560980399e+02
2.017843925663645788e+00 4.975394184882021591e+02
2.017943947668486615e+00 4.974697249476068350e+02
2.018043969673327886e+00 4.974002917165097983e+02
2.018143991678169158e+00 4.973311195688487487e+02
2.018244013683009985e+00 4.972622092702874284e+02
2.018344035687851257e+00 4.971935615782000468e+02
2.018444057692692528e+00 4.971251772416539438e+02
2.018544079697533355e+00 4.970570570013970837e+02
2.018644101702374183e+00 4.969892015898439581e+02
2.018744123707215454e+00 4.969216117310596132e+02
2.018844145712056282e+00 4.968542881407473715e+02
2.018944167716897553e+00 4.967872315262349048e+02
2.019044189721738825e+00 4.967204425864593986e+02
2.019144211726579652e+00 4.966539220119572633e+02
2.019244233731420479e+00 4.965876704848504914e+02
2.019344255736261751e+00 4.965216886788319925e+02
2.019444277741103022e+00 4.964559772591576348e+02
2.019544299745943849e+00 4.963905368826300446e+02
2.019644321750785121e+00 4.963253681975915015e+02
2.019744343755625948e+00 4.962604718439088174e+02
2.019844365760467220e+00 4.961958484529646967e+02
2.019944387765308047e+00 4.961314986476454578e+02
2.020044409770149318e+00 4.960674230423333029e+02
2.020144431774990146e+00 4.960036222428938686e+02
2.020244453779831417e+00 4.959400968466671884e+02
2.020344475784672689e+00 4.958768474424583133e+02
2.020444497789513516e+00 4.958138746105281029e+02
2.020544519794354787e+00 4.957511789225846996e+02
2.020644541799195615e+00 4.956887609417736371e+02
2.020744563804036886e+00 4.956266212226714742e+02
2.020844585808877714e+00 4.955647603112769275e+02
2.020944607813718985e+00 4.955031787450024581e+02
2.021044629818559812e+00 4.954418770526673939e+02
2.021144651823401084e+00 4.953808557544920177e+02
2.021244673828242355e+00 4.953201153620881314e+02
2.021344695833083183e+00 4.952596563784553041e+02
2.021444717837924010e+00 4.951994792979729709e+02
2.021544739842765281e+00 4.951395846063951467e+02
2.021644761847606553e+00 4.950799727808441162e+02
2.021744783852447380e+00 4.950206442898051478e+02
2.021844805857288652e+00 4.949615995931238785e+02
2.021944827862129479e+00 4.949028391419975605e+02
2.022044849866970306e+00 4.948443633789736964e+02
2.022144871871811578e+00 4.947861727379437298e+02
2.022244893876652849e+00 4.947282676441413969e+02
2.022344915881493677e+00 4.946706485141372127e+02
2.022444937886334948e+00 4.946133157558371067e+02
2.022544959891176219e+00 4.945562697684770228e+02
2.022644981896017047e+00 4.944995109426217255e+02
2.022745003900857874e+00 4.944430396601636062e+02
2.022845025905699146e+00 4.943868562943176812e+02
2.022945047910539973e+00 4.943309612096221599e+02
2.023045069915381244e+00 4.942753547619360006e+02
2.023145091920222516e+00 4.942200372984378873e+02
2.023245113925063343e+00 4.941650091576251498e+02
2.023345135929904615e+00 4.941102706693137634e+02
2.023445157934745442e+00 4.940558221546363598e+02
2.023545179939586269e+00 4.940016639260454667e+02
2.023645201944427541e+00 4.939477962873097567e+02
2.023745223949268812e+00 4.938942195335171732e+02
2.023845245954109640e+00 4.938409339510754421e+02
2.023945267958950911e+00 4.937879398177134362e+02
2.024045289963792182e+00 4.937352374024812320e+02
2.024145311968633010e+00 4.936828269657528381e+02
2.024245333973473837e+00 4.936307087592289236e+02
2.024345355978315109e+00 4.935788830259378983e+02
2.024445377983155936e+00 4.935273500002389255e+02
2.024545399987997207e+00 4.934761099078249345e+02
2.024645421992838479e+00 4.934251629657265426e+02
2.024745443997679306e+00 4.933745093823135903e+02
2.024845466002520133e+00 4.933241493573015077e+02
2.024945488007361405e+00 4.932740830817529059e+02
2.025045510012202676e+00 4.932243107380837159e+02
2.025145532017043504e+00 4.931748325000671116e+02
2.025245554021884775e+00 4.931256485328385679e+02
2.025345576026725603e+00 4.930767589929012047e+02
2.025445598031566874e+00 4.930281640281313003e+02
2.025545620036407701e+00 4.929798637777835779e+02
2.025645642041248973e+00 4.929318583724983682e+02
2.025745664046089800e+00 4.928841479343070660e+02
2.025845686050931072e+00 4.928367325766394060e+02
2.025945708055772343e+00 4.927896124043298300e+02
2.026045730060613170e+00 4.927427875136259559e+02
2.026145752065454442e+00 4.926962579921943188e+02
2.026245774070295269e+00 4.926500239191300352e+02
2.026345796075136541e+00 4.926040853649632822e+02
2.026445818079977368e+00 4.925584423916689616e+02
2.026545840084818639e+00 4.925130950526755669e+02
2.026645862089659467e+00 4.924680433928725733e+02
2.026745884094500738e+00 4.924232874486212950e+02
2.026845906099342010e+00 4.923788272477628425e+02
2.026945928104182837e+00 4.923346628096305722e+02
2.027045950109023664e+00 4.922907941450572480e+02
2.027145972113864936e+00 4.922472212563874905e+02
2.027245994118706207e+00 4.922039441374868147e+02
2.027346016123547034e+00 4.921609627737548749e+02
2.027446038128388306e+00 4.921182771421343318e+02
2.027546060133229133e+00 4.920758872111234155e+02
2.027646082138069961e+00 4.920337929407888282e+02
2.027746104142911232e+00 4.919919942827751242e+02
2.027846126147752503e+00 4.919504911803196592e+02
2.027946148152593331e+00 4.919092835682636746e+02
2.028046170157434602e+00 4.918683713730663385e+02
2.028146192162275874e+00 4.918277545128178190e+02
2.028246214167116701e+00 4.917874328972503122e+02
2.028346236171957528e+00 4.917474064277559478e+02
2.028446258176798800e+00 4.917076749973970209e+02
2.028546280181639627e+00 4.916682384909238976e+02
2.028646302186480899e+00 4.916290967847857019e+02
2.028746324191322170e+00 4.915902497471479364e+02
2.028846346196162997e+00 4.915516972379064669e+02
2.028946368201004269e+00 4.915134391087035510e+02
2.029046390205845096e+00 4.914754752029423344e+02
2.029146412210685924e+00 4.914378053558050965e+02
2.029246434215527195e+00 4.914004293942665527e+02
2.029346456220368466e+00 4.913633471371119867e+02
2.029446478225209294e+00 4.913265583949537358e+02
2.029546500230050565e+00 4.912900629702488686e+02
2.029646522234891837e+00 4.912538606573147035e+02
2.029746544239732664e+00 4.912179512423477945e+02
2.029846566244573491e+00 4.911823345034414388e+02
2.029946588249414763e+00 4.911470102106046625e+02
2.030046610254255590e+00 4.911119781257766022e+02
2.030146632259096862e+00 4.910772380028513453e+02
2.030246654263938133e+00 4.910427895876911180e+02
2.030346676268778960e+00 4.910086326181491359e+02
2.030446698273619788e+00 4.909747668240865437e+02
2.030546720278461059e+00 4.909411919273945273e+02
2.030646742283302331e+00 4.909079076420115371e+02
2.030746764288143158e+00 4.908749136739444339e+02
2.030846786292984429e+00 4.908422097212910558e+02
2.030946808297825257e+00 4.908097954742568731e+02
2.031046830302666528e+00 4.907776706151781809e+02
2.031146852307507356e+00 4.907458348185447221e+02
2.031246874312348627e+00 4.907142877510183894e+02
2.031346896317189454e+00 4.906830290714565308e+02
2.031446918322030726e+00 4.906520584309317883e+02
2.031546940326871997e+00 4.906213754727583591e+02
2.031646962331712825e+00 4.905909798325098450e+02
2.031746984336553652e+00 4.905608711380459681e+02
2.031847006341394923e+00 4.905310490095311025e+02
2.031947028346236195e+00 4.905015130594618427e+02
2.032047050351077022e+00 4.904722628926883203e+02
2.032147072355918294e+00 4.904432981064369983e+02
2.032247094360759121e+00 4.904146182903364206e+02
2.032347116365600392e+00 4.903862230264401774e+02
2.032447138370441220e+00 4.903581118892526547e+02
2.032547160375282491e+00 4.903302844457510901e+02
2.032647182380123319e+00 4.903027402554132550e+02
2.032747204384964590e+00 4.902754788702417272e+02
2.032847226389805861e+00 4.902484998347870828e+02
2.032947248394646689e+00 4.902218026861776252e+02
2.033047270399487960e+00 4.901953869541413269e+02
2.033147292404328788e+00 4.901692521610336257e+02
2.033247314409169615e+00 4.901433978218640846e+02
2.033347336414010886e+00 4.901178234443223118e+02
2.033447358418852158e+00 4.900925285288044506e+02
2.033547380423692985e+00 4.900675125684405202e+02
2.033647402428534257e+00 4.900427750491225538e+02
2.033747424433375528e+00 4.900183154495289273e+02
2.033847446438215911e+00 4.899941332411574422e+02
2.033947468443057183e+00 4.899702278883466420e+02
2.034047490447898454e+00 4.899465988483100318e+02
2.034147512452739281e+00 4.899232455711602938e+02
2.034247534457580553e+00 4.899001674999393003e+02
2.034347556462421824e+00 4.898773640706468768e+02
2.034447578467262652e+00 4.898548347122709288e+02
2.034547600472103479e+00 4.898325788468141582e+02
2.034647622476944751e+00 4.898105958893247021e+02
2.034747644481785578e+00 4.897888852479280217e+02
2.034847666486626849e+00 4.897674463238528233e+02
2.034947688491468121e+00 4.897462785114631174e+02
2.035047710496308948e+00 4.897253811982904494e+02
2.035147732501150220e+00 4.897047537650606728e+02
2.035247754505991047e+00 4.896843955857261790e+02
2.035347776510832318e+00 4.896643060274984691e+02
2.035447798515673146e+00 4.896444844508781671e+02
2.035547820520514417e+00 4.896249302096840665e+02
2.035647842525355244e+00 4.896056426510895108e+02
2.035747864530196516e+00 4.895866211156489953e+02
2.035847886535037787e+00 4.895678649373344342e+02
2.035947908539878615e+00 4.895493734435649458e+02
2.036047930544719442e+00 4.895311459552390261e+02
2.036147952549560713e+00 4.895131817867689961e+02
2.036247974554401985e+00 4.894954802461120380e+02
2.036347996559242812e+00 4.894780406348033921e+02
2.036448018564084084e+00 4.894608622479905762e+02
2.036548040568924911e+00 4.894439443744661844e+02
2.036648062573766182e+00 4.894272862967009132e+02
2.036748084578607010e+00 4.894108872908769854e+02
2.036848106583448281e+00 4.893947466269244160e+02
2.036948128588289109e+00 4.893788635685524468e+02
2.037048150593130380e+00 4.893632373732849032e+02
2.037148172597971651e+00 4.893478672924946409e+02
2.037248194602812479e+00 4.893327525714391868e+02
2.037348216607653306e+00 4.893178924492931969e+02
2.037448238612494578e+00 4.893032861591862570e+02
2.037548260617335849e+00 4.892889329282364770e+02
2.037648282622176676e+00 4.892748319775857340e+02
2.037748304627017948e+00 4.892609825224366205e+02
2.037848326631858775e+00 4.892473837720863230e+02
2.037948348636700047e+00 4.892340349299651052e+02
2.038048370641540874e+00 4.892209351936691064e+02
2.038148392646382145e+00 4.892080837550001888e+02
2.038248414651222973e+00 4.891954797999985658e+02
2.038348436656064244e+00 4.891831225089828763e+02
2.038448458660905516e+00 4.891710110565862237e+02
2.038548480665746343e+00 4.891591446117902819e+02
2.038648502670587614e+00 4.891475223379659951e+02
2.038748524675428442e+00 4.891361433929095028e+02
2.038848546680269269e+00 4.891250069288790314e+02
2.038948568685110541e+00 4.891141120926337180e+02
2.039048590689951812e+00 4.891034580254695925e+02
2.039148612694792639e+00 4.890930438632595951e+02
2.039248634699633911e+00 4.890828687364900134e+02
2.039348656704475182e+00 4.890729317702991921e+02
2.039448678709315566e+00 4.890632320845171535e+02
2.039548700714156837e+00 4.890537687937011242e+02
2.039648722718998108e+00 4.890445410071781112e+02
2.039748744723838936e+00 4.890355478290807127e+02
2.039848766728680207e+00 4.890267883583870230e+02
2.039948788733521479e+00 4.890182616889610472e+02
2.040048810738362306e+00 4.890099669095895933e+02
2.040148832743203133e+00 4.890019031040231425e+02
2.040248854748044405e+00 4.889940693510156962e+02
2.040348876752885232e+00 4.889864647243634863e+02
2.040448898757726504e+00 4.889790882929462441e+02
2.040548920762567775e+00 4.889719391207650006e+02
2.040648942767408602e+00 4.889650162669840370e+02
2.040748964772249874e+00 4.889583187859707891e+02
2.040848986777090701e+00 4.889518457273355807e+02
2.040949008781931973e+00 4.889455961359726643e+02
2.041049030786772800e+00 4.889395690521008078e+02
2.041149052791614071e+00 4.889337635113034821e+02
2.041249074796454899e+00 4.889281785445711535e+02
2.041349096801296170e+00 4.889228131783410163e+02
2.041449118806137442e+00 4.889176664345380345e+02
2.041549140810978269e+00 4.889127373306171194e+02
2.041649162815819096e+00 4.889080248796045112e+02
2.041749184820660368e+00 4.889035280901376836e+02
2.041849206825501639e+00 4.888992459665092838e+02
2.041949228830342467e+00 4.888951775087064675e+02
2.042049250835183738e+00 4.888913217124559196e+02
2.042149272840024565e+00 4.888876775692617684e+02
2.042249294844865837e+00 4.888842440664507762e+02
2.042349316849706664e+00 4.888810201872140624e+02
2.042449338854547936e+00 4.888780049106472347e+02
2.042549360859388763e+00 4.888751972117958644e+02
2.042649382864230034e+00 4.888725960616957309e+02
2.042749404869071306e+00 4.888702004274158526e+02
2.042849426873912133e+00 4.888680092721025972e+02
2.042949448878752960e+00 4.888660215550207795e+02
2.043049470883594232e+00 4.888642362315962941e+02
2.043149492888435503e+00 4.888626522534612491e+02
2.043249514893276331e+00 4.888612685684958024e+02
2.043349536898117602e+00 4.888600841208699421e+02
2.043449558902958429e+00 4.888590978510889045e+02
2.043549580907799701e+00 4.888583086960367723e+02
2.043649602912640528e+00 4.888577155890166068e+02
2.043749624917481800e+00 4.888573174597983098e+02
2.043849646922322627e+00 4.888571132346584136e+02
2.043949668927163899e+00 4.888571018364274323e+02
2.044049690932005170e+00 4.888572821845305043e+02
2.044149712936845997e+00 4.888576531950325261e+02
2.044249734941687269e+00 4.888582137806821493e+02
2.044349756946528096e+00 4.888589628509558906e+02
2.044449778951368923e+00 4.888598993121020158e+02
2.044549800956210195e+00 4.888610220671845354e+02
2.044649822961051466e+00 4.888623300161281122e+02
2.044749844965892294e+00 4.888638220557606928e+02
2.044849866970733565e+00 4.888654970798600061e+02
2.044949888975574837e+00 4.888673539791968778e+02
2.045049910980415220e+00 4.888693916415794547e+02
2.045149932985256491e+00 4.888716089518991907e+02
2.045249954990097763e+00 4.888740047921726841e+02
2.045349976994938590e+00 4.888765780415896529e+02
2.045449998999779861e+00 4.888793275765561930e+02
2.045550021004621133e+00 4.888822522707381495e+02
2.045650043009461960e+00 4.888853509951084106e+02
2.045750065014302788e+00 4.888886226179911318e+02
2.045850087019144059e+00 4.888920660051048799e+02
2.045950109023984886e+00 4.888956800196107793e+02
2.046050131028826158e+00 4.888994635221548606e+02
2.046150153033667429e+00 4.889034153709137058e+02
2.046250175038508257e+00 4.889075344216411168e+02
2.046350197043349528e+00 4.889118195277114296e+02
2.046450219048190355e+00 4.889162695401663541e+02
2.046550241053031627e+00 4.889208833077580607e+02
2.046650263057872454e+00 4.889256596769977818e+02
2.046750285062713726e+00 4.889305974921966822e+02
2.046850307067554553e+00 4.889356955955166768e+02
2.046950329072395824e+00 4.889409528270100509e+02
2.047050351077237096e+00 4.889463680246702779e+02
2.047150373082077923e+00 4.889519400244731173e+02
2.047250395086918751e+00 4.889576676604249315e+02
2.047350417091760022e+00 4.889635497646073645e+02
2.047450439096601293e+00 4.889695851672215667e+02
2.047550461101442121e+00 4.889757726966363975e+02
2.047650483106283392e+00 4.889821111794321951e+02
2.047750505111124220e+00 4.889885994404460234e+02
2.047850527115965491e+00 4.889952363028193645e+02
2.047950549120806318e+00 4.890020205880402386e+02
2.048050571125647590e+00 4.890089511159940798e+02
2.048150593130488417e+00 4.890160267050036964e+02
2.048250615135329689e+00 4.890232461718796912e+02
2.048350637140170960e+00 4.890306083319618438e+02
2.048450659145011787e+00 4.890381119991694732e+02
2.048550681149852615e+00 4.890457559860431047e+02
2.048650703154693886e+00 4.890535391037923318e+02
2.048750725159535158e+00 4.890614601623410067e+02
2.048850747164375985e+00 4.890695179703733402e+02
2.048950769169217256e+00 4.890777113353776713e+02
2.049050791174058084e+00 4.890860390636961483e+02
2.049150813178898911e+00 4.890944999605654857e+02
2.049250835183740183e+00 4.891030928301669292e+02
2.049350857188581454e+00 4.891118164756686610e+02
2.049450879193422281e+00 4.891206696992747993e+02
2.049550901198263553e+00 4.891296513022680870e+02
2.049650923203104824e+00 4.891387600850564468e+02
2.049750945207945652e+00 4.891479948472193655e+02
2.049850967212786479e+00 4.891573543875538235e+02
2.049950989217627750e+00 4.891668375041173249e+02
2.050051011222468578e+00 4.891764429942765560e+02
2.050151033227309849e+00 4.891861696547522342e+02
2.050251055232151121e+00 4.891960162816619118e+02
2.050351077236991948e+00 4.892059816705699404e+02
2.050451099241833219e+00 4.892160646165287972e+02
2.050551121246674047e+00 4.892262639141283103e+02
2.050651143251514874e+00 4.892365783575375531e+02
2.050751165256356146e+00 4.892470067405529335e+02
2.050851187261197417e+00 4.892575478566425886e+02
2.050951209266038244e+00 4.892682004989908364e+02
2.051051231270879516e+00 4.892789634605451283e+02
2.051151253275720787e+00 4.892898355340602734e+02
2.051251275280561615e+00 4.893008155121438563e+02
2.051351297285402442e+00 4.893119021873012571e+02
2.051451319290243713e+00 4.893230943519812399e+02
2.051551341295084541e+00 4.893343907986212571e+02
2.051651363299925812e+00 4.893457903196917869e+02
2.051751385304767084e+00 4.893572917077401598e+02
2.051851407309607911e+00 4.893688937554396716e+02
2.051951429314448738e+00 4.893805952556297143e+02
2.052051451319290010e+00 4.893923950013629565e+02
2.052151473324131281e+00 4.894042917859509316e+02
2.052251495328972108e+00 4.894162844030067276e+02
2.052351517333813380e+00 4.894283716464913141e+02
2.052451539338654207e+00 4.894405523107568570e+02
2.052551561343495479e+00 4.894528251905919660e+02
2.052651583348336306e+00 4.894651890812673400e+02
2.052751605353177577e+00 4.894776427785781152e+02
2.052851627358018405e+00 4.894901850788885440e+02
2.052951649362859676e+00 4.895028147791787774e+02
2.053051671367700948e+00 4.895155306770850530e+02
2.053151693372541775e+00 4.895283315709485805e+02
2.053251715377383047e+00 4.895412162598543659e+02
2.053351737382223874e+00 4.895541835436806082e+02
2.053451759387065145e+00 4.895672322231384896e+02
2.053551781391905973e+00 4.895803610998177646e+02
2.053651803396747244e+00 4.895935689762308130e+02
2.053751825401588071e+00 4.896068546558565231e+02
2.053851847406429343e+00 4.896202169431813900e+02
2.053951869411270614e+00 4.896336546437481161e+02
2.054051891416111442e+00 4.896471665641925028e+02
2.054151913420952269e+00 4.896607515122921654e+02
2.054251935425793540e+00 4.896744082970085401e+02
2.054351957430634812e+00 4.896881357285294030e+02
2.054451979435475639e+00 4.897019326183104226e+02
2.054552001440316911e+00 4.897157977791219423e+02
2.054652023445157738e+00 4.897297300250887702e+02
2.054752045449998565e+00 4.897437281717341193e+02
2.054852067454839837e+00 4.897577910360232636e+02
2.054952089459681108e+00 4.897719174364041805e+02
2.055052111464521936e+00 4.897861061928521167e+02
2.055152133469363207e+00 4.898003561269100601e+02
2.055252155474204478e+00 4.898146660617326233e+02
2.055352177479045306e+00 4.898290348221289605e+02
2.055452199483886133e+00 4.898434612346013637e+02
2.055552221488727405e+00 4.898579441273913631e+02
2.055652243493568232e+00 4.898724823305193468e+02
2.055752265498409503e+00 4.898870746758273071e+02
2.055852287503250775e+00 4.899017199970194838e+02
2.055952309508091602e+00 4.899164171297051098e+02
2.056052331512932874e+00 4.899311649114396232e+02
2.056152353517773701e+00 4.899459621817652533e+02
2.056252375522614528e+00 4.899608077822529140e+02
2.056352397527455800e+00 4.899757005565430745e+02
2.056452419532297071e+00 4.899906393503879372e+02
2.056552441537137899e+00 4.900056230116893516e+02
2.056652463541979170e+00 4.900206503905434943e+02
2.056752485546820441e+00 4.900357203392780434e+02
2.056852507551661269e+00 4.900508317124941868e+02
2.056952529556502096e+00 4.900659833671079468e+02
2.057052551561343368e+00 4.900811741623881517e+02
2.057152573566184195e+00 4.900964029599987271e+02
2.057252595571025466e+00 4.901116686240374634e+02
2.057352617575866738e+00 4.901269700210752944e+02
2.057452639580707565e+00 4.901423060201980206e+02
2.057552661585548393e+00 4.901576754930445077e+02
2.057652683590389664e+00 4.901730773138453401e+02
2.057752705595230935e+00 4.901885103594647148e+02
2.057852727600071763e+00 4.902039735094365369e+02
2.057952749604913034e+00 4.902194656460055739e+02
2.058052771609753862e+00 4.902349856541663371e+02
2.058152793614595133e+00 4.902505324216995746e+02
2.058252815619435960e+00 4.902661048392139946e+02
2.058352837624277232e+00 4.902817018001821907e+02
2.058452859629118059e+00 4.902973222009801475e+02
2.058552881633959331e+00 4.903129649409249282e+02
2.058652903638800602e+00 4.903286289223140102e+02
2.058752925643641429e+00 4.903443130504606415e+02
2.058852947648482701e+00 4.903600162337331199e+02
2.058952969653323528e+00 4.903757373835930480e+02
2.059052991658164800e+00 4.903914754146302357e+02
2.059153013663005627e+00 4.904072292446034567e+02
2.059253035667846898e+00 4.904229977944730763e+02
2.059353057672687726e+00 4.904387799884428318e+02
2.059453079677528997e+00 4.904545747539922331e+02
2.059553101682370269e+00 4.904703810219159550e+02
2.059653123687211096e+00 4.904861977263589097e+02
2.059753145692051923e+00 4.905020238048534793e+02
2.059853167696893195e+00 4.905178581983557251e+02
2.059953189701734466e+00 4.905336998512777882e+02
2.060053211706575294e+00 4.905495477115292147e+02
2.060153233711416565e+00 4.905654007305496975e+02
2.060253255716257392e+00 4.905812578633431826e+02
2.060353277721098220e+00 4.905971180685153286e+02
2.060453299725939491e+00 4.906129803083072147e+02
2.060553321730780763e+00 4.906288435486315507e+02
2.060653343735621590e+00 4.906447067591066684e+02
2.060753365740462861e+00 4.906605689130898327e+02
2.060853387745304133e+00 4.906764289877152692e+02
2.060953409750144960e+00 4.906922859639225862e+02
2.061053431754985787e+00 4.907081388264956558e+02
2.061153453759827059e+00 4.907239865640962080e+02
2.061253475764667886e+00 4.907398281692933324e+02
2.061353497769509158e+00 4.907556626386015068e+02
2.061453519774350429e+00 4.907714889725123726e+02
2.061553541779191256e+00 4.907873061755259414e+02
2.061653563784032528e+00 4.908031132561858385e+02
2.061753585788873355e+00 4.908189092271114760e+02
2.061853607793714183e+00 4.908346931050297712e+02
2.061953629798555454e+00 4.908504639108085144e+02
2.062053651803396725e+00 4.908662206694874612e+02
2.062153673808237553e+00 4.908819624103118713e+02
2.062253695813078824e+00 4.908976881667612702e+02
2.062353717817920096e+00 4.909133969765847496e+02
2.062453739822760923e+00 4.909290878818297870e+02
2.062553761827601750e+00 4.909447599288736797e+02
2.062653783832443022e+00 4.909604121684561164e+02
2.062753805837283849e+00 4.909760436557078833e+02
2.062853827842125121e+00 4.909916534501820706e+02
2.062953849846966392e+00 4.910072406158852800e+02
2.063053871851807219e+00 4.910228042213080926e+02
2.063153893856648047e+00 4.910383433394513872e+02
2.063253915861489318e+00 4.910538570478615270e+02
2.063353937866330590e+00 4.910693444286565637e+02
2.063453959871171417e+00 4.910848045685552847e+02
2.063553981876012688e+00 4.911002365589084206e+02
2.063654003880853516e+00 4.911156394957256452e+02
2.063754025885694787e+00 4.911310124797055892e+02
2.063854047890535615e+00 4.911463546162636931e+02
2.063954069895376886e+00 4.911616650155612547e+02
2.064054091900217713e+00 4.911769427925318041e+02
2.064154113905058985e+00 4.911921870669112877e+02
2.064254135909900256e+00 4.912073969632636476e+02
2.064354157914741084e+00 4.912225716110100961e+02
2.064454179919582355e+00 4.912377101444544678e+02
2.064554201924423182e+00 4.912528117028125507e+02
2.064654223929264454e+00 4.912678754302363018e+02
2.064754245934105281e+00 4.912829004758427800e+02
2.064854267938946553e+00 4.912978859937380776e+02
2.064954289943787380e+00 4.913128311430459689e+02
2.065054311948628651e+00 4.913277350879322398e+02
2.065154333953469923e+00 4.913425969976315741e+02
2.065254355958310750e+00 4.913574160464705756e+02
2.065354377963151578e+00 4.913721914138973261e+02
2.065454399967992849e+00 4.913869222845012246e+02
2.065554421972834120e+00 4.914016078480422607e+02
2.065654443977674948e+00 4.914162472994723316e+02
2.065754465982516219e+00 4.914308398389633226e+02
2.065854487987357047e+00 4.914453846719260355e+02
2.065954509992197874e+00 4.914598810090396910e+02
2.066054531997039145e+00 4.914743280662715961e+02
2.066154554001880417e+00 4.914887250649017005e+02
2.066254576006721244e+00 4.915030712315469259e+02
2.066354598011562516e+00 4.915173657981830502e+02
2.066454620016403787e+00 4.915316080021673883e+02
2.066554642021244170e+00 4.915457970862623824e+02
2.066654664026085442e+00 4.915599322986563493e+02
2.066754686030926713e+00 4.915740128929869002e+02
2.066854708035767541e+00 4.915880381283620864e+02
2.066954730040608812e+00 4.916020072693822272e+02
2.067054752045450083e+00 4.916159195861609987e+02
2.067154774050290911e+00 4.916297743543479442e+02
2.067254796055131738e+00 4.916435708551463222e+02
2.067354818059973010e+00 4.916573083753369247e+02
2.067454840064813837e+00 4.916709862072965507e+02
2.067554862069655108e+00 4.916846036490197775e+02
2.067654884074496380e+00 4.916981600041362981e+02
2.067754906079337207e+00 4.917116545819342832e+02
2.067854928084178479e+00 4.917250866973770940e+02
2.067954950089019306e+00 4.917384556711220966e+02
2.068054972093860577e+00 4.917517608295419791e+02
2.068154994098701405e+00 4.917650015047424858e+02
2.068255016103542676e+00 4.917781770345801533e+02
2.068355038108383503e+00 4.917912867626815796e+02
2.068455060113224775e+00 4.918043300384603072e+02
2.068555082118066046e+00 4.918173062171362631e+02
2.068655104122906874e+00 4.918302146597514479e+02
2.068755126127747701e+00 4.918430547331884668e+02
2.068855148132588972e+00 4.918558258101874685e+02
2.068955170137430244e+00 4.918685272693620618e+02
2.069055192142271071e+00 4.918811584952169369e+02
2.069155214147112343e+00 4.918937188781629857e+02
2.069255236151953170e+00 4.919062078145348096e+02
2.069355258156794442e+00 4.919186247066052715e+02
2.069455280161635269e+00 4.919309689626014688e+02
2.069555302166476540e+00 4.919432399967203651e+02
2.069655324171317368e+00 4.919554372291427740e+02
2.069755346176158639e+00 4.919675600860508666e+02
2.069855368180999911e+00 4.919796079996385743e+02
2.069955390185840738e+00 4.919915804081293800e+02
2.070055412190681565e+00 4.920034767557891655e+02
2.070155434195522837e+00 4.920152964929388304e+02
2.070255456200364108e+00 4.920270390759708903e+02
2.070355478205204935e+00 4.920387039673593108e+02
2.070455500210046207e+00 4.920502906356744575e+02
2.070555522214887034e+00 4.920617985555966811e+02
2.070655544219728306e+00 4.920732272079262657e+02
2.070755566224569133e+00 4.920845760795983779e+02
2.070855588229410404e+00 4.920958446636929580e+02
2.070955610234251232e+00 4.921070324594489875e+02
2.071055632239092503e+00 4.921181389722728454e+02
2.071155654243933775e+00 4.921291637137526891e+02
2.071255676248774602e+00 4.921401062016673222e+02
2.071355698253615873e+00 4.921509659599981319e+02
2.071455720258456701e+00 4.921617425189389792e+02
2.071555742263297528e+00 4.921724354149075111e+02
2.071655764268138800e+00 4.921830441905534030e+02
2.071755786272980071e+00 4.921935683947699545e+02
2.071855808277820898e+00 4.922040075827013084e+02
2.071955830282662170e+00 4.922143613157549566e+02
2.072055852287503441e+00 4.922246291616077087e+02
2.072155874292343825e+00 4.922348106942168329e+02
2.072255896297185096e+00 4.922449054938261952e+02
2.072355918302026367e+00 4.922549131469756389e+02
2.072455940306867195e+00 4.922648332465098520e+02
2.072555962311708466e+00 4.922746653915845627e+02
2.072655984316549738e+00 4.922844091876752941e+02
2.072756006321390565e+00 4.922940642465823657e+02
2.072856028326231392e+00 4.923036301864414668e+02
2.072956050331072664e+00 4.923131066317264413e+02
2.073056072335913491e+00 4.923224932132585536e+02
2.073156094340754763e+00 4.923317895682110930e+02
2.073256116345596034e+00 4.923409953401168195e+02
2.073356138350436861e+00 4.923501101788714323e+02
2.073456160355278133e+00 4.923591337407403898e+02
2.073556182360118960e+00 4.923680656883653342e+02
2.073656204364960232e+00 4.923769056907652271e+02
2.073756226369801059e+00 4.923856534233444222e+02
2.073856248374642330e+00 4.923943085678966440e+02
2.073956270379483158e+00 4.924028708126073752e+02
2.074056292384324429e+00 4.924113398520582905e+02
2.074156314389165701e+00 4.924197153872328272e+02
2.074256336394006528e+00 4.924279971255164128e+02
2.074356358398847355e+00 4.924361847807020922e+02
2.074456380403688627e+00 4.924442780729916080e+02
2.074556402408529898e+00 4.924522767290000047e+02
2.074656424413370726e+00 4.924601804817556285e+02
2.074756446418211997e+00 4.924679890707041068e+02
2.074856468423052824e+00 4.924757022417083476e+02
2.074956490427894096e+00 4.924833197470520645e+02
2.075056512432734923e+00 4.924908413454396054e+02
2.075156534437576195e+00 4.924982668019972607e+02
2.075256556442417022e+00 4.925055958882757068e+02
2.075356578447258293e+00 4.925128283822473918e+02
2.075456600452099565e+00 4.925199640683094913e+02
2.075556622456940392e+00 4.925270027372828849e+02
2.075656644461781219e+00 4.925339441864117020e+02
2.075756666466622491e+00 4.925407882193635487e+02
2.075856688471463762e+00 4.925475346462285415e+02
2.075956710476304590e+00 4.925541832835173182e+02
2.076056732481145861e+00 4.925607339541618899e+02
2.076156754485986689e+00 4.925671864875115489e+02
2.076256776490827960e+00 4.925735407193336641e+02
2.076356798495668787e+00 4.925797964918095317e+02
2.076456820500510059e+00 4.925859536535330676e+02
2.076556842505350886e+00 4.925920120595090452e+02
2.076656864510192158e+00 4.925979715711486620e+02
2.076756886515033429e+00 4.926038320562679473e+02
2.076856908519874256e+00 4.926095933890836136e+02
2.076956930524715528e+00 4.926152554502092471e+02
2.077056952529556355e+00 4.926208181266541715e+02
2.077156974534397182e+00 4.926262813118148642e+02
2.077256996539238454e+00 4.926316449054744453e+02
2.077357018544079725e+00 4.926369088137973336e+02
2.077457040548920553e+00 4.926420729493227100e+02
2.077557062553761824e+00 4.926471372309619028e+02
2.077657084558603096e+00 4.926521015839912820e+02
2.077757106563443479e+00 4.926569659400485079e+02
2.077857128568284750e+00 4.926617302371242886e+02
2.077957150573126022e+00 4.926663944195577756e+02
2.078057172577966849e+00 4.926709584380323577e+02
2.078157194582808120e+00 4.926754222495643489e+02
2.078257216587649392e+00 4.926797858175013403e+02
2.078357238592490219e+00 4.926840491115100349e+02
2.078457260597331047e+00 4.926882121075743726e+02
2.078557282602172318e+00 4.926922747879839335e+02
2.078657304607013145e+00 4.926962371413278561e+02
2.078757326611854417e+00 4.927000991624872768e+02
2.078857348616695688e+00 4.927038608526253256e+02
2.078957370621536516e+00 4.927075222191807597e+02
2.079057392626377787e+00 4.927110832758570496e+02
2.079157414631218614e+00 4.927145440426155574e+02
2.079257436636059886e+00 4.927179045456651352e+02
2.079357458640900713e+00 4.927211648174525180e+02
2.079457480645741985e+00 4.927243248966539113e+02
2.079557502650582812e+00 4.927273848281635082e+02
2.079657524655424083e+00 4.927303446630827466e+02
2.079757546660265355e+00 4.927332044587130895e+02
2.079857568665106182e+00 4.927359642785426672e+02
2.079957590669947010e+00 4.927386241922354202e+02
2.080057612674788281e+00 4.927411842756214924e+02
2.080157634679629552e+00 4.927436446106844983e+02
2.080257656684470380e+00 4.927460052855511776e+02
2.080357678689311651e+00 4.927482663944775823e+02
2.080457700694152479e+00 4.927504280378387875e+02
2.080557722698993750e+00 4.927524903221166142e+02
2.080657744703834577e+00 4.927544533598857015e+02
2.080757766708675849e+00 4.927563172698017411e+02
2.080857788713516676e+00 4.927580821765888004e+02
2.080957810718357948e+00 4.927597482110240321e+02
2.081057832723199219e+00 4.927613155099276696e+02
2.081157854728040046e+00 4.927627842161457465e+02
2.081257876732880874e+00 4.927641544785386714e+02
2.081357898737722145e+00 4.927654264519663911e+02
2.081457920742563417e+00 4.927666002972716797e+02
2.081557942747404244e+00 4.927676761812704171e+02
2.081657964752245515e+00 4.927686542767325477e+02
2.081757986757086343e+00 4.927695347623682665e+02
2.081858008761927614e+00 4.927703178228133538e+02
2.081958030766768442e+00 4.927710036486129752e+02
2.082058052771609713e+00 4.927715924362059354e+02
2.082158074776450540e+00 4.927720843879084214e+02
2.082258096781291812e+00 4.927724797118995639e+02
2.082358118786133083e+00 4.927727786222028499e+02
2.082458140790973911e+00 4.927729813386699789e+02
2.082558162795815182e+00 4.927730880869652310e+02
2.082658184800656009e+00 4.927730990985473909e+02
2.082758206805496837e+00 4.927730146106523534e+02
2.082858228810338108e+00 4.927728348662753888e+02
2.082958250815179380e+00 4.927725601141550555e+02
2.083058272820020207e+00 4.927721906087539310e+02
2.083158294824861478e+00 4.927717266102392841e+02
2.083258316829702750e+00 4.927711683844672166e+02
2.083358338834543133e+00 4.927705162029627672e+02
2.083458360839384405e+00 4.927697703429006992e+02
2.083558382844225676e+00 4.927689310870883332e+02
2.083658404849066503e+00 4.927679987239431512e+02
2.083758426853907775e+00 4.927669735474763684e+02
2.083858448858749046e+00 4.927658558572718448e+02
2.083958470863589874e+00 4.927646459584673266e+02
2.084058492868430701e+00 4.927633441617324479e+02
2.084158514873271972e+00 4.927619507832501995e+02
2.084258536878112800e+00 4.927604661446956698e+02
2.084358558882954071e+00 4.927588905732161493e+02
2.084458580887795343e+00 4.927572244014090188e+02
2.084558602892636170e+00 4.927554679673016267e+02
2.084658624897476997e+00 4.927536216143299157e+02
2.084758646902318269e+00 4.927516856913159700e+02
2.084858668907159540e+00 4.927496605524486881e+02
2.084958690912000367e+00 4.927475465572585449e+02
2.085058712916841639e+00 4.927453440705982644e+02
2.085158734921682466e+00 4.927430534626201961e+02
2.085258756926523738e+00 4.927406751087517023e+02
2.085358778931364565e+00 4.927382093896752053e+02
2.085458800936205837e+00 4.927356566913039728e+02
2.085558822941046664e+00 4.927330174047583569e+02
2.085658844945887935e+00 4.927302919263452736e+02
2.085758866950729207e+00 4.927274806575312027e+02
2.085858888955570034e+00 4.927245840049207573e+02
2.085958910960411306e+00 4.927216023802334917e+02
2.086058932965252133e+00 4.927185362002770717e+02
2.086158954970093404e+00 4.927153858869263559e+02
2.086258976974934232e+00 4.927121518670969635e+02
2.086358998979775503e+00 4.927088345727219121e+02
2.086459020984616330e+00 4.927054344407243889e+02
2.086559042989457602e+00 4.927019519129971741e+02
2.086659064994298873e+00 4.926983874363736504e+02
2.086759086999139701e+00 4.926947414626038153e+02
2.086859109003980528e+00 4.926910144483304066e+02
2.086959131008821799e+00 4.926872068550599693e+02
2.087059153013663071e+00 4.926833191491401749e+02
2.087159175018503898e+00 4.926793518017324800e+02
2.087259197023345170e+00 4.926753052887850117e+02
2.087359219028185997e+00 4.926711800910086936e+02
2.087459241033026824e+00 4.926669766938488237e+02
2.087559263037868096e+00 4.926626955874587566e+02
2.087659285042709367e+00 4.926583372666732430e+02
2.087759307047550195e+00 4.926539022309814300e+02
2.087859329052391466e+00 4.926493909844997461e+02
2.087959351057232738e+00 4.926448040359443326e+02
2.088059373062073565e+00 4.926401418986043836e+02
2.088159395066914392e+00 4.926354050903122470e+02
2.088259417071755664e+00 4.926305941334183558e+02
2.088359439076596491e+00 4.926257095547620679e+02
2.088459461081437762e+00 4.926207518856418801e+02
2.088559483086279034e+00 4.926157216617912127e+02
2.088659505091119861e+00 4.926106194233450424e+02
2.088759527095961133e+00 4.926054457148146639e+02
2.088859549100801960e+00 4.926002010850577904e+02
2.088959571105642787e+00 4.925948860872492787e+02
2.089059593110484059e+00 4.925895012788534473e+02
2.089159615115325330e+00 4.925840472215926980e+02
2.089259637120166158e+00 4.925785244814197767e+02
2.089359659125007429e+00 4.925729336284878741e+02
2.089459681129848700e+00 4.925672752371208389e+02
2.089559703134689528e+00 4.925615498857827106e+02
2.089659725139530355e+00 4.925557581570487855e+02
2.089759747144371627e+00 4.925499006375751492e+02
2.089859769149212454e+00 4.925439779180678670e+02
2.089959791154053725e+00 4.925379905932542215e+02
2.090059813158894997e+00 4.925319392618479810e+02
2.090159835163735824e+00 4.925258245265256960e+02
2.090259857168576652e+00 4.925196469938895234e+02
2.090359879173417923e+00 4.925134072744383502e+02
2.090459901178259194e+00 4.925071059825384623e+02
2.090559923183100022e+00 4.925007437363901204e+02
2.090659945187941293e+00 4.924943211579962963e+02
2.090759967192782121e+00 4.924878388731322048e+02
2.090859989197623392e+00 4.924812975113147218e+02
2.090960011202464219e+00 4.924746977057668573e+02
2.091060033207305491e+00 4.924680400933903002e+02
2.091160055212146318e+00 4.924613253147297200e+02
2.091260077216987590e+00 4.924545540139432092e+02
2.091360099221828861e+00 4.924477268387698246e+02
2.091460121226669688e+00 4.924408444404948568e+02
2.091560143231510960e+00 4.924339074739199305e+02
2.091660165236351787e+00 4.924269165973298641e+02
2.091760187241193059e+00 4.924198724724590193e+02
2.091860209246033886e+00 4.924127757644591270e+02
2.091960231250875157e+00 4.924056271418659207e+02
2.092060253255715985e+00 4.923984272765674746e+02
2.092160275260557256e+00 4.923911768437693581e+02
2.092260297265398528e+00 4.923838765219609854e+02
2.092360319270239355e+00 4.923765269928851467e+02
2.092460341275080182e+00 4.923691289415004348e+02
2.092560363279921454e+00 4.923616830559514597e+02
2.092660385284762725e+00 4.923541900275320131e+02
2.092760407289603553e+00 4.923466505506545445e+02
2.092860429294444824e+00 4.923390653228127007e+02
2.092960451299285651e+00 4.923314350445491527e+02
2.093060473304126479e+00 4.923237604194221717e+02
2.093160495308967750e+00 4.923160421539701588e+02
2.093260517313809022e+00 4.923082809576769705e+02
2.093360539318649849e+00 4.923004775429399160e+02
2.093460561323491120e+00 4.922926326250318994e+02
2.093560583328332392e+00 4.922847469220694165e+02
2.093660605333173219e+00 4.922768211549770285e+02
2.093760627338014046e+00 4.922688560474528003e+02
2.093860649342855318e+00 4.922608523259319782e+02
2.093960671347696145e+00 4.922528107195550433e+02
2.094060693352537417e+00 4.922447319601299114e+02
2.094160715357378688e+00 4.922366167820972578e+02
2.094260737362219515e+00 4.922284659224972643e+02
2.094360759367060787e+00 4.922202801209322729e+02
2.094460781371901614e+00 4.922120601195322820e+02
2.094560803376742442e+00 4.922038066629193054e+02
2.094660825381583713e+00 4.921955204981719589e+02
2.094760847386424985e+00 4.921872023747890239e+02
2.094860869391265812e+00 4.921788530446567620e+02
2.094960891396107083e+00 4.921704732620092386e+02
2.095060913400948355e+00 4.921620637833946716e+02
2.095160935405789182e+00 4.921536253676395631e+02
2.095260957410630009e+00 4.921451587758123196e+02
2.095360979415471281e+00 4.921366647711874975e+02
2.095461001420312108e+00 4.921281441192095372e+02
2.095561023425153380e+00 4.921195975874564397e+02
2.095661045429994651e+00 4.921110259456041831e+02
2.095761067434835478e+00 4.921024299653903427e+02
2.095861089439676306e+00 4.920938104205772561e+02
2.095961111444517577e+00 4.920851680869159281e+02
2.096061133449358849e+00 4.920765037421103898e+02
2.096161155454199676e+00 4.920678181657791583e+02
2.096261177459040947e+00 4.920591121394218135e+02
2.096361199463881775e+00 4.920503864463790933e+02
2.096461221468723046e+00 4.920416418717991291e+02
2.096561243473563874e+00 4.920328792025991334e+02
2.096661265478405145e+00 4.920240992274281666e+02
2.096761287483245972e+00 4.920153027366323499e+02
2.096861309488087244e+00 4.920064905222172911e+02
2.096961331492928515e+00 4.919976633778084647e+02
2.097061353497769343e+00 4.919888220986209717e+02
2.097161375502610614e+00 4.919799674814141781e+02
2.097261397507451441e+00 4.919711003244611902e+02
2.097361419512292713e+00 4.919622214275097463e+02
2.097461441517133540e+00 4.919533315917440177e+02
2.097561463521974812e+00 4.919444316197493094e+02
2.097661485526815639e+00 4.919355223154738610e+02
2.097761507531656910e+00 4.919266044841927510e+02
2.097861529536498182e+00 4.919176789324684478e+02
2.097961551541339009e+00 4.919087464681183519e+02
2.098061573546179837e+00 4.918998079001707424e+02
2.098161595551021108e+00 4.918908640388337403e+02
2.098261617555862379e+00 4.918819156954544383e+02
2.098361639560703207e+00 4.918729636824836007e+02
2.098461661565544478e+00 4.918640088134371240e+02
2.098561683570385306e+00 4.918550519028577810e+02
2.098661705575226133e+00 4.918460937662820811e+02
2.098761727580067404e+00 4.918371352201978652e+02
2.098861749584908676e+00 4.918281770820088923e+02
2.098961771589749503e+00 4.918192201699995394e+02
2.099061793594590775e+00 4.918102653032932494e+02
2.099161815599432046e+00 4.918013133018197323e+02
2.099261837604272873e+00 4.917923649862734123e+02
2.099361859609113701e+00 4.917834211780781288e+02
2.099461881613954972e+00 4.917744826993509264e+02
2.099561903618795800e+00 4.917655503728614121e+02
2.099661925623637071e+00 4.917566250219966264e+02
2.099761947628478342e+00 4.917477074707231850e+02
2.099861969633319170e+00 4.917387985435501605e+02
2.099961991638160441e+00 4.917298990654904856e+02
2.100062013643001269e+00 4.917210098620239478e+02
2.100162035647842096e+00 4.917121317590616059e+02
2.100262057652683367e+00 4.917032655829057148e+02
2.100362079657524639e+00 4.916944121602139148e+02
2.100462101662365466e+00 4.916855723179609186e+02
2.100562123667206738e+00 4.916767468834020747e+02
2.100662145672048009e+00 4.916679366840361922e+02
2.100762167676888836e+00 4.916591425475666597e+02
2.100862189681729664e+00 4.916503653018654632e+02
2.100962211686570935e+00 4.916416057749343622e+02
2.101062233691411762e+00 4.916328647948708976e+02
2.101162255696253034e+00 4.916241431898278620e+02
2.101262277701094305e+00 4.916154417879766356e+02
2.101362299705935133e+00 4.916067614174695564e+02
2.101462321710775960e+00 4.915981029064073482e+02
2.101562343715617232e+00 4.915894670827930781e+02
2.101662365720458503e+00 4.915808547745044734e+02
2.101762387725299330e+00 4.915722668092492995e+02
2.101862409730140602e+00 4.915637040145340961e+02
2.101962431734981429e+00 4.915551672176219427e+02
2.102062453739822701e+00 4.915466572454998300e+02
2.102162475744663528e+00 4.915381749248390975e+02
2.102262497749504799e+00 4.915297210819588827e+02
2.102362519754345627e+00 4.915212965427893437e+02
2.102462541759186898e+00 4.915129021328364161e+02
2.102562563764028170e+00 4.915045386771411131e+02
2.102662585768868997e+00 4.914962070002472956e+02
2.102762607773709824e+00 4.914879079261618813e+02
2.102862629778551096e+00 4.914796422783189769e+02
2.102962651783392367e+00 4.914714108795431002e+02
2.103062673788233194e+00 4.914632145520124027e+02
2.103162695793074466e+00 4.914550541172243356e+02
2.103262717797915293e+00 4.914469303959551780e+02
2.103362739802756565e+00 4.914388442082265556e+02
2.103462761807597392e+00 4.914307963732673556e+02
2.103562783812438663e+00 4.914227877094803034e+02
2.103662805817279491e+00 4.914148190344005798e+02
2.103762827822120762e+00 4.914068911646654669e+02
2.103862849826962034e+00 4.913990049159720570e+02
2.103962871831802861e+00 4.913911611030483186e+02
2.104062893836644133e+00 4.913833605396094981e+02
2.104162915841484960e+00 4.913756040383279355e+02
2.104262937846325787e+00 4.913678924107937291e+02
2.104362959851167059e+00 4.913602264674809135e+02
2.104462981856008330e+00 4.913526070177105112e+02
2.104563003860849157e+00 4.913450348696155743e+02
2.104663025865690429e+00 4.913375108301040655e+02
2.104763047870531700e+00 4.913300357048256046e+02
2.104863069875372084e+00 4.913226102981341228e+02
2.104963091880213355e+00 4.913152354130536992e+02
2.105063113885054626e+00 4.913079118512412720e+02
2.105163135889895454e+00 4.913006404129538964e+02
2.105263157894736725e+00 4.912934218970117399e+02
2.105363179899577997e+00 4.912862571007639190e+02
2.105463201904418824e+00 4.912791468200527447e+02
2.105563223909259651e+00 4.912720918491788780e+02
2.105663245914100923e+00 4.912650929808683031e+02
2.105763267918941750e+00 4.912581510062341295e+02
2.105863289923783022e+00 4.912512667147449861e+02
2.105963311928624293e+00 4.912444408941879601e+02
2.106063333933465120e+00 4.912376743306368780e+02
2.106163355938306392e+00 4.912309678084149027e+02
2.106263377943147219e+00 4.912243221100630990e+02
2.106363399947988491e+00 4.912177380163041676e+02
2.106463421952829318e+00 4.912112163060077137e+02
2.106563443957670589e+00 4.912047577561592675e+02
2.106663465962511417e+00 4.911983631418235632e+02
2.106763487967352688e+00 4.911920332361112855e+02
2.106863509972193960e+00 4.911857688101467261e+02
2.106963531977034787e+00 4.911795706330318012e+02
2.107063553981875614e+00 4.911734394718142767e+02
2.107163575986716886e+00 4.911673760914547415e+02
2.107263597991558157e+00 4.911613812547903990e+02
2.107363619996398985e+00 4.911554557225054509e+02
2.107463642001240256e+00 4.911496002530965370e+02
2.107563664006081083e+00 4.911438156028382309e+02
2.107663686010922355e+00 4.911381025257513784e+02
2.107763708015763182e+00 4.911324617735726292e+02
2.107863730020604454e+00 4.911268940957164659e+02
2.107963752025445281e+00 4.911214002392487146e+02
2.108063774030286552e+00 4.911159809488490282e+02
2.108163796035127824e+00 4.911106369667809872e+02
2.108263818039968651e+00 4.911053690328603807e+02
2.108363840044809479e+00 4.911001778844211572e+02
2.108463862049650750e+00 4.910950642562851272e+02
2.108563884054492021e+00 4.910900288807306424e+02
2.108663906059332849e+00 4.910850724874578077e+02
2.108763928064174120e+00 4.910801958035605139e+02
2.108863950069014948e+00 4.910753995534925025e+02
2.108963972073856219e+00 4.910706844590366700e+02
2.109063994078697046e+00 4.910660512392758505e+02
2.109164016083538318e+00 4.910615006105571183e+02
2.109264038088379145e+00 4.910570332864659235e+02
2.109364060093220417e+00 4.910526499777915319e+02
2.109464082098061688e+00 4.910483513924987165e+02
2.109564104102902515e+00 4.910441382356958684e+02
2.109664126107743787e+00 4.910400112096048701e+02
2.109764148112584614e+00 4.910359710135317073e+02
2.109864170117425441e+00 4.910320183438332151e+02
2.109964192122266713e+00 4.910281538938928634e+02
2.110064214127107984e+00 4.910243783540842628e+02
2.110164236131948812e+00 4.910206924117453582e+02
2.110264258136790083e+00 4.910170967511497793e+02
2.110364280141631355e+00 4.910135920534723937e+02
2.110464302146471738e+00 4.910101789967661716e+02
2.110564324151313009e+00 4.910068582559283072e+02
2.110664346156154281e+00 4.910036305026738432e+02
2.110764368160995108e+00 4.910004964055050891e+02
2.110864390165836380e+00 4.909974566296844500e+02
2.110964412170677651e+00 4.909945118372049819e+02
2.111064434175518478e+00 4.909916626867615150e+02
2.111164456180359306e+00 4.909889098337237101e+02
2.111264478185200577e+00 4.909862539301065567e+02
2.111364500190041404e+00 4.909836956245438842e+02
2.111464522194882676e+00 4.909812355622585756e+02
2.111564544199723947e+00 4.909788743850367609e+02
2.111664566204564775e+00 4.909766127311998503e+02
2.111764588209406046e+00 4.909744512355756569e+02
2.111864610214246873e+00 4.909723905294746373e+02
2.111964632219088145e+00 4.909704312406582858e+02
2.112064654223928972e+00 4.909685739933161699e+02
2.112164676228770244e+00 4.909668194080377930e+02
2.112264698233611071e+00 4.909651681017842861e+02
2.112364720238452342e+00 4.909636206878663529e+02
2.112464742243293614e+00 4.909621777759134034e+02
2.112564764248134441e+00 4.909608399718504756e+02
2.112664786252975269e+00 4.909596078778714627e+02
2.112764808257816540e+00 4.909584820924121686e+02
2.112864830262657811e+00 4.909574632101274005e+02
2.112964852267498639e+00 4.909565518218636271e+02
2.113064874272339910e+00 4.909557485146339673e+02
2.113164896277180738e+00 4.909550538715934067e+02
2.113264918282022009e+00 4.909544684720149803e+02
2.113364940286862836e+00 4.909539928912623736e+02
2.113464962291704108e+00 4.909536277007686635e+02
2.113564984296544935e+00 4.909533734680094312e+02
2.113665006301386207e+00 4.909532307564797975e+02
2.113765028306227478e+00 4.909532001256704348e+02
2.113865050311068305e+00 4.909532821310435224e+02
2.113965072315909133e+00 4.909534773240087020e+02
2.114065094320750404e+00 4.909537862518998850e+02
2.114165116325591676e+00 4.909542094579530271e+02
2.114265138330432503e+00 4.909547474812810037e+02
2.114365160335273774e+00 4.909554008568522931e+02
2.114465182340114602e+00 4.909561701154676712e+02
2.114565204344955873e+00 4.909570557837381557e+02
2.114665226349796701e+00 4.909580583840612462e+02
2.114765248354637972e+00 4.909591784346000054e+02
2.114865270359478799e+00 4.909604164492614586e+02
2.114965292364320071e+00 4.909617729376730040e+02
2.115065314369161342e+00 4.909632484051626307e+02
2.115165336374002170e+00 4.909648433527360112e+02
2.115265358378843441e+00 4.909665582770561514e+02
2.115365380383684268e+00 4.909683936704226426e+02
2.115465402388525096e+00 4.909703500207498905e+02
2.115565424393366367e+00 4.909724278115454013e+02
2.115665446398207639e+00 4.909746275218937512e+02
2.115765468403048466e+00 4.909769496264300415e+02
2.115865490407889737e+00 4.909793945953252887e+02
2.115965512412731009e+00 4.909819628942627787e+02
2.116065534417571392e+00 4.909846549844201036e+02
2.116165556422412664e+00 4.909874713224496077e+02
2.116265578427253935e+00 4.909904123604585493e+02
2.116365600432094762e+00 4.909934785459898876e+02
2.116465622436936034e+00 4.909966703220040927e+02
2.116565644441777305e+00 4.909999881268600461e+02
2.116665666446618133e+00 4.910034323942961692e+02
2.116765688451458960e+00 4.910070035534117778e+02
2.116865710456300231e+00 4.910107020286503712e+02
2.116965732461141059e+00 4.910145282397803612e+02
2.117065754465982330e+00 4.910184826018779063e+02
2.117165776470823602e+00 4.910225655253091190e+02
2.117265798475664429e+00 4.910267774157128997e+02
2.117365820480505700e+00 4.910311186739845084e+02
2.117465842485346528e+00 4.910355896962563520e+02
2.117565864490187799e+00 4.910401908738845123e+02
2.117665886495028627e+00 4.910449225934289075e+02
2.117765908499869898e+00 4.910497852366402185e+02
2.117865930504710725e+00 4.910547791804409599e+02
2.117965952509551997e+00 4.910599047969110416e+02
2.118065974514393268e+00 4.910651624532724782e+02
2.118165996519234096e+00 4.910705525118721084e+02
2.118266018524074923e+00 4.910760753301684645e+02
2.118366040528916194e+00 4.910817312607152303e+02
2.118466062533757466e+00 4.910875206511464057e+02
2.118566084538598293e+00 4.910934438441629482e+02
2.118666106543439565e+00 4.910995011775165153e+02
2.118766128548280392e+00 4.911056929839967324e+02
2.118866150553121663e+00 4.911120195914168107e+02
2.118966172557962491e+00 4.911184813225987682e+02
2.119066194562803762e+00 4.911250784953610378e+02
2.119166216567644589e+00 4.911318114225050522e+02
2.119266238572485861e+00 4.911386804118002942e+02
2.119366260577327132e+00 4.911456857659737238e+02
2.119466282582167960e+00 4.911528277826960220e+02
2.119566304587008787e+00 4.911601067545679484e+02
2.119666326591850058e+00 4.911675229691103937e+02
2.119766348596691330e+00 4.911750767087499412e+02
2.119866370601532157e+00 4.911827682508084081e+02
2.119966392606373429e+00 4.911905978674906805e+02
2.120066414611214256e+00 4.911985658258733451e+02
2.120166436616055083e+00 4.912066723878925245e+02
2.120266458620896355e+00 4.912149178103352369e+02
2.120366480625737626e+00 4.912233023448256972e+02
2.120466502630578454e+00 4.912318262378170743e+02
2.120566524635419725e+00 4.912404897305788722e+02
2.120666546640260997e+00 4.912492930591894265e+02
2.120766568645101824e+00 4.912582364545230007e+02
2.120866590649942651e+00 4.912673201422429656e+02
2.120966612654783923e+00 4.912765443427897480e+02
2.121066634659624750e+00 4.912859092713738960e+02
2.121166656664466021e+00 4.912954151379640280e+02
2.121266678669307293e+00 4.913050621472816601e+02
2.121366700674148120e+00 4.913148504987893261e+02
2.121466722678989392e+00 4.913247803866839831e+02
2.121566744683830219e+00 4.913348519998883148e+02
2.121666766688671046e+00 4.913450655220426597e+02
2.121766788693512318e+00 4.913554211314972804e+02
2.121866810698353589e+00 4.913659190013046327e+02
2.121966832703194417e+00 4.913765592992131133e+02
2.122066854708035688e+00 4.913873421876588736e+02
2.122166876712876959e+00 4.913982678237576920e+02
2.122266898717717787e+00 4.914093363593033246e+02
2.122366920722558614e+00 4.914205479407535222e+02
2.122466942727399886e+00 4.914319027092311103e+02
2.122566964732240713e+00 4.914434008005129044e+02
2.122666986737081984e+00 4.914550423450270955e+02
2.122767008741923256e+00 4.914668274678452917e+02
2.122867030746764083e+00 4.914787562886796195e+02
2.122967052751604911e+00 4.914908289218748223e+02
2.123067074756446182e+00 4.915030454764067827e+02
2.123167096761287453e+00 4.915154060558741094e+02
2.123267118766128281e+00 4.915279107584967733e+02
2.123367140770969552e+00 4.915405596771103660e+02
2.123467162775810380e+00 4.915533528991628032e+02
2.123567184780651651e+00 4.915662905067094357e+02
2.123667206785492478e+00 4.915793725764114583e+02
2.123767228790333750e+00 4.915925991795303958e+02
2.123867250795174577e+00 4.916059703819266247e+02
2.123967272800015849e+00 4.916194862440551105e+02
2.124067294804857120e+00 4.916331468209648392e+02
2.124167316809697947e+00 4.916469521622940420e+02
2.124267338814539219e+00 4.916609023122694566e+02
2.124367360819380046e+00 4.916749973097037127e+02
2.124467382824221318e+00 4.916892371879944221e+02
2.124567404829062145e+00 4.917036219751210524e+02
2.124667426833903416e+00 4.917181516936448133e+02
2.124767448838744244e+00 4.917328263607078611e+02
2.124867470843585515e+00 4.917476459880315360e+02
2.124967492848426787e+00 4.917626105819161353e+02
2.125067514853267614e+00 4.917777201432395486e+02
2.125167536858108441e+00 4.917929746674595322e+02
2.125267558862949713e+00 4.918083741446109798e+02
2.125367580867790984e+00 4.918239185593071170e+02
2.125467602872631812e+00 4.918396078907414335e+02
2.125567624877473083e+00 4.918554421126851821e+02
2.125667646882313910e+00 4.918714211934914147e+02
2.125767668887154738e+00 4.918875450960946978e+02
2.125867690891996009e+00 4.919038137780125339e+02
2.125967712896837281e+00 4.919202271913463278e+02
2.126067734901678108e+00 4.919367852827845127e+02
2.126167756906519379e+00 4.919534879936041420e+02
2.126267778911360651e+00 4.919703352596733907e+02
2.126367800916201478e+00 4.919873270114507022e+02
2.126467822921042305e+00 4.920044631739934289e+02
2.126567844925883577e+00 4.920217436669553308e+02
2.126667866930724404e+00 4.920391684045942498e+02
2.126767888935565676e+00 4.920567372957707448e+02
2.126867910940406947e+00 4.920744502439547432e+02
2.126967932945247775e+00 4.920923071472290076e+02
2.127067954950089046e+00 4.921103078982920351e+02
2.127167976954929873e+00 4.921284523844631167e+02
2.127267998959770701e+00 4.921467404876863725e+02
2.127368020964611972e+00 4.921651720845363798e+02
2.127468042969453244e+00 4.921837470462207875e+02
2.127568064974294071e+00 4.922024652385883314e+02
2.127668086979135342e+00 4.922213265221307665e+02
2.127768108983976614e+00 4.922403307519921896e+02
2.127868130988817441e+00 4.922594777779711990e+02
2.127968152993658268e+00 4.922787674445287394e+02
2.128068174998499540e+00 4.922981995907948658e+02
2.128168197003340367e+00 4.923177740505732345e+02
2.128268219008181639e+00 4.923374906523484924e+02
2.128368241013022910e+00 4.923573492192949175e+02
2.128468263017863737e+00 4.923773495692786355e+02
2.128568285022704565e+00 4.923974915148714899e+02
2.128668307027545836e+00 4.924177748633521787e+02
2.128768329032387108e+00 4.924381994167183620e+02
2.128868351037227935e+00 4.924587649716917213e+02
2.128968373042069206e+00 4.924794713197285319e+02
2.129068395046910034e+00 4.925003182470251772e+02
2.129168417051751305e+00 4.925213055345288353e+02
2.129268439056592133e+00 4.925424329579452660e+02
2.129368461061433404e+00 4.925637002877478494e+02
2.129468483066274231e+00 4.925851072891870785e+02
2.129568505071115503e+00 4.926066537222996544e+02
2.129668527075956774e+00 4.926283393419172398e+02
2.129768549080797602e+00 4.926501638976773734e+02
2.129868571085638873e+00 4.926721271340339285e+02
2.129968593090479700e+00 4.926942287902652424e+02
2.130068615095320972e+00 4.927164686004861096e+02
2.130168637100161799e+00 4.927388462936579003e+02
2.130268659105003071e+00 4.927613615935990765e+02
2.130368681109843898e+00 4.927840142189977541e+02
2.130468703114685169e+00 4.928068038834198319e+02
2.130568725119526441e+00 4.928297302953242252e+02
2.130668747124367268e+00 4.928527931580706536e+02
2.130768769129208096e+00 4.928759921699347615e+02
2.130868791134049367e+00 4.928993270241178948e+02
2.130968813138890638e+00 4.929227974087602888e+02
2.131068835143731466e+00 4.929464030069535170e+02
2.131168857148572737e+00 4.929701434967529394e+02
2.131268879153413565e+00 4.929940185511901518e+02
2.131368901158254392e+00 4.930180278382872530e+02
2.131468923163095663e+00 4.930421710210683273e+02
2.131568945167936935e+00 4.930664477575737692e+02
2.131668967172777762e+00 4.930908577008752331e+02
2.131768989177619034e+00 4.931154004990866611e+02
2.131869011182460305e+00 4.931400757953799143e+02
2.131969033187301132e+00 4.931648832280001216e+02
2.132069055192141960e+00 4.931898224302769904e+02
2.132169077196983231e+00 4.932148930306425996e+02
2.132269099201824059e+00 4.932400946526445296e+02
2.132369121206665330e+00 4.932654269149608126e+02
2.132469143211506601e+00 4.932908894314159056e+02
2.132569165216347429e+00 4.933164818109952989e+02
2.132669187221188700e+00 4.933422036578616598e+02
2.132769209226029528e+00 4.933680545713700667e+02
2.132869231230870355e+00 4.933940341460843229e+02
2.132969253235711626e+00 4.934201419717928729e+02
2.133069275240552898e+00 4.934463776335261400e+02
2.133169297245393725e+00 4.934727407115712481e+02
2.133269319250234997e+00 4.934992307814893593e+02
2.133369341255076268e+00 4.935258474141338070e+02
2.133469363259917095e+00 4.935525901756657845e+02
2.133569385264757923e+00 4.935794586275719098e+02
2.133669407269599194e+00 4.936064523266813922e+02
2.133769429274440022e+00 4.936335708251850178e+02
2.133869451279281293e+00 4.936608136706511232e+02
2.133969473284122564e+00 4.936881804060445234e+02
2.134069495288963392e+00 4.937156705697452139e+02
2.134169517293804219e+00 4.937432836955651965e+02
2.134269539298645491e+00 4.937710193127682032e+02
2.134369561303486762e+00 4.937988769460883418e+02
2.134469583308327589e+00 4.938268561157485124e+02
2.134569605313168861e+00 4.938549563374800755e+02
2.134669627318009688e+00 4.938831771225410421e+02
2.134769649322850960e+00 4.939115179777359117e+02
2.134869671327691787e+00 4.939399784054363636e+02
2.134969693332533058e+00 4.939685579035995033e+02
2.135069715337373886e+00 4.939972559657885540e+02
2.135169737342215157e+00 4.940260720811929787e+02
2.135269759347056429e+00 4.940550057346472386e+02
2.135369781351897256e+00 4.940840564066548382e+02
2.135469803356738527e+00 4.941132235734049800e+02
2.135569825361579355e+00 4.941425067067955297e+02
2.135669847366420626e+00 4.941719052744526834e+02
2.135769869371261453e+00 4.942014187397539899e+02
2.135869891376102725e+00 4.942310465618475632e+02
2.135969913380943552e+00 4.942607881956746496e+02
2.136069935385784824e+00 4.942906430919913987e+02
2.136169957390625651e+00 4.943206106973890996e+02
2.136269979395466923e+00 4.943506904543178280e+02
2.136370001400307750e+00 4.943808818011083872e+02
2.136470023405149021e+00 4.944111841719932272e+02
2.136570045409990293e+00 4.944415969971296363e+02
2.136670067414831120e+00 4.944721197026232176e+02
2.136770089419672392e+00 4.945027517105484094e+02
2.136870111424513219e+00 4.945334924389738376e+02
2.136970133429354046e+00 4.945643413019828358e+02
2.137070155434195318e+00 4.945952977096991390e+02
2.137170177439036589e+00 4.946263610683085972e+02
2.137270199443877416e+00 4.946575307800824248e+02
2.137370221448718688e+00 4.946888062434022686e+02
2.137470243453559959e+00 4.947201868527825468e+02
2.137570265458400343e+00 4.947516719988954037e+02
2.137670287463241614e+00 4.947832610685939017e+02
2.137770309468082885e+00 4.948149534449377143e+02
2.137870331472923713e+00 4.948467485072140448e+02
2.137970353477764984e+00 4.948786456309674691e+02
2.138070375482606256e+00 4.949106441880206262e+02
2.138170397487447083e+00 4.949427435464986615e+02
2.138270419492287910e+00 4.949749430708573072e+02
2.138370441497129182e+00 4.950072421219049943e+02
2.138470463501970009e+00 4.950396400568306490e+02
2.138570485506811281e+00 4.950721362292257481e+02
2.138670507511652552e+00 4.951047299891133662e+02
2.138770529516493379e+00 4.951374206829715945e+02
2.138870551521334651e+00 4.951702076537590074e+02
2.138970573526175478e+00 4.952030902409430837e+02
2.139070595531016750e+00 4.952360677805220917e+02
2.139170617535857577e+00 4.952691396050563526e+02
2.139270639540698848e+00 4.953023050436900689e+02
2.139370661545539676e+00 4.953355634221795754e+02
2.139470683550380947e+00 4.953689140629208509e+02
2.139570705555222219e+00 4.954023562849738482e+02
2.139670727560063046e+00 4.954358894040916539e+02
2.139770749564903873e+00 4.954695127327456134e+02
2.139870771569745145e+00 4.955032255801527867e+02
2.139970793574586416e+00 4.955370272523040853e+02
