1.400008001760387089e+00 5.454447565185233771e+02
1.400108023765228360e+00 5.454452900418007175e+02
1.400208045770069409e+00 5.454457558312903984e+02
1.400308067774910459e+00 5.454461539396929766e+02
1.400408089779751286e+00 5.454464844218285862e+02
1.400508111784592558e+00 5.454467473346362567e+02
1.400608133789433607e+00 5.454469427371707297e+02
1.400708155794274656e+00 5.454470706905990482e+02
1.400808177799115706e+00 5.454471312582004430e+02
1.400908199803956755e+00 5.454471245053604207e+02
1.401008221808798027e+00 5.454470504995724696e+02
1.401108243813638854e+00 5.454469093104303283e+02
1.401208265818479903e+00 5.454467010096298054e+02
1.401308287823320953e+00 5.454464256709637766e+02
1.401408309828162224e+00 5.454460833703167282e+02
1.401508331833003274e+00 5.454456741856675990e+02
1.401608353837844323e+00 5.454451981970807992e+02
1.401708375842685372e+00 5.454446554867070063e+02
1.401808397847526200e+00 5.454440461387774803e+02
1.401908419852367249e+00 5.454433702396025865e+02
1.402008441857208521e+00 5.454426278775655419e+02
1.402108463862049570e+00 5.454418191431236664e+02
1.402208485866890619e+00 5.454409441287987192e+02
1.402308507871731891e+00 5.454400029291792862e+02
1.402408529876572940e+00 5.454389956409108891e+02
1.402508551881413768e+00 5.454379223626991688e+02
1.402608573886254817e+00 5.454367831952994266e+02
1.402708595891095866e+00 5.454355782415163958e+02
1.402808617895936916e+00 5.454343076061994680e+02
1.402908639900778187e+00 5.454329713962384858e+02
1.403008661905619237e+00 5.454315697205582865e+02
1.403108683910460286e+00 5.454301026901172236e+02
1.403208705915301113e+00 5.454285704179002323e+02
1.403308727920142385e+00 5.454269730189148504e+02
1.403408749924983434e+00 5.454253106101881485e+02
1.403508771929824483e+00 5.454235833107608187e+02
1.403608793934665533e+00 5.454217912416828540e+02
1.403708815939506582e+00 5.454199345260091150e+02
1.403808837944347410e+00 5.454180132887934178e+02
1.403908859949188681e+00 5.454160276570858059e+02
1.404008881954029730e+00 5.454139777599251602e+02
1.404108903958870780e+00 5.454118637283352200e+02
1.404208925963712051e+00 5.454096856953221959e+02
1.404308947968553101e+00 5.454074437958628323e+02
1.404408969973394150e+00 5.454051381669058856e+02
1.404508991978234977e+00 5.454027689473638247e+02
1.404609013983076027e+00 5.454003362781073747e+02
1.404709035987917076e+00 5.453978403019611960e+02
1.404809057992758348e+00 5.453952811636969500e+02
1.404909079997599397e+00 5.453926590100286376e+02
1.405009102002440446e+00 5.453899739896064602e+02
1.405109124007281718e+00 5.453872262530113630e+02
1.405209146012122545e+00 5.453844159527488955e+02
1.405309168016963595e+00 5.453815432432443231e+02
1.405409190021804644e+00 5.453786082808345554e+02
1.405509212026645693e+00 5.453756112237638263e+02
1.405609234031486743e+00 5.453725522321775543e+02
1.405709256036328014e+00 5.453694314681156357e+02
1.405809278041169064e+00 5.453662490955047133e+02
1.405909300046009891e+00 5.453630052801554484e+02
1.406009322050850940e+00 5.453597001897528571e+02
1.406109344055692212e+00 5.453563339938519903e+02
1.406209366060533261e+00 5.453529068638687249e+02
1.406309388065374311e+00 5.453494189730763537e+02
1.406409410070215360e+00 5.453458704965955803e+02
1.406509432075056409e+00 5.453422616113917911e+02
1.406609454079897237e+00 5.453385924962653917e+02
1.406709476084738508e+00 5.453348633318443035e+02
1.406809498089579558e+00 5.453310743005786208e+02
1.406909520094420607e+00 5.453272255867341300e+02
1.407009542099261878e+00 5.453233173763829882e+02
1.407109564104102928e+00 5.453193498573997431e+02
1.407209586108943977e+00 5.453153232194492830e+02
1.407309608113784805e+00 5.453112376539847901e+02
1.407409630118625854e+00 5.453070933542362582e+02
1.407509652123466903e+00 5.453028905152073094e+02
1.407609674128308175e+00 5.452986293336617791e+02
1.407709696133149224e+00 5.452943100081225793e+02
1.407809718137990274e+00 5.452899327388587380e+02
1.407909740142831545e+00 5.452854977278818751e+02
1.408009762147672372e+00 5.452810051789352883e+02
1.408109784152513422e+00 5.452764552974878143e+02
1.408209806157354471e+00 5.452718482907247335e+02
1.408309828162195521e+00 5.452671843675417449e+02
1.408409850167036570e+00 5.452624637385350752e+02
1.408509872171877841e+00 5.452576866159944302e+02
1.408609894176718891e+00 5.452528532138934452e+02
1.408709916181559718e+00 5.452479637478842278e+02
1.408809938186400768e+00 5.452430184352849665e+02
1.408909960191242039e+00 5.452380174950762921e+02
1.409009982196083088e+00 5.452329611478892275e+02
1.409110004200924138e+00 5.452278496159979113e+02
1.409210026205765187e+00 5.452226831233119810e+02
1.409310048210606237e+00 5.452174618953669096e+02
1.409410070215447064e+00 5.452121861593143421e+02
1.409510092220288335e+00 5.452068561439165251e+02
1.409610114225129385e+00 5.452014720795341418e+02
1.409710136229970434e+00 5.451960341981193778e+02
1.409810158234811706e+00 5.451905427332077352e+02
1.409910180239652755e+00 5.451849979199055269e+02
1.410010202244493804e+00 5.451793999948853298e+02
1.410110224249334632e+00 5.451737491963742741e+02
1.410210246254175681e+00 5.451680457641446083e+02
1.410310268259016730e+00 5.451622899395066497e+02
1.410410290263858002e+00 5.451564819652970755e+02
1.410510312268699051e+00 5.451506220858722145e+02
1.410610334273540101e+00 5.451447105470949737e+02
1.410710356278381372e+00 5.451387475963296083e+02
1.410810378283222200e+00 5.451327334824298987e+02
1.410910400288063249e+00 5.451266684557288045e+02
1.411010422292904298e+00 5.451205527680313025e+02
1.411110444297745348e+00 5.451143866726032456e+02
1.411210466302586397e+00 5.451081704241611305e+02
1.411310488307427669e+00 5.451019042788640263e+02
1.411410510312268718e+00 5.450955884943023193e+02
1.411510532317109545e+00 5.450892233294882772e+02
1.411610554321950595e+00 5.450828090448461580e+02
1.411710576326791866e+00 5.450763459022023198e+02
1.411810598331632916e+00 5.450698341647747611e+02
1.411910620336473965e+00 5.450632740971639123e+02
1.412010642341315014e+00 5.450566659653414945e+02
1.412110664346156064e+00 5.450500100366410834e+02
1.412210686350996891e+00 5.450433065797469681e+02
1.412310708355838162e+00 5.450365558646847148e+02
1.412410730360679212e+00 5.450297581628109356e+02
1.412510752365520261e+00 5.450229137468015779e+02
1.412610774370361533e+00 5.450160228906429438e+02
1.412710796375202582e+00 5.450090858696198666e+02
1.412810818380043631e+00 5.450021029603074112e+02
1.412910840384884459e+00 5.449950744405575733e+02
1.413010862389725508e+00 5.449880005894890473e+02
1.413110884394566558e+00 5.449808816874793820e+02
1.413210906399407829e+00 5.449737180161498600e+02
1.413310928404248878e+00 5.449665098583585632e+02
1.413410950409089928e+00 5.449592574981872986e+02
1.413510972413931199e+00 5.449519612209312527e+02
1.413610994418772027e+00 5.449446213130884189e+02
1.413711016423613076e+00 5.449372380623481149e+02
1.413811038428454125e+00 5.449298117575798415e+02
1.413911060433295175e+00 5.449223426888228232e+02
1.414011082438136224e+00 5.449148311472749810e+02
1.414111104442977496e+00 5.449072774252819045e+02
1.414211126447818545e+00 5.448996818163218450e+02
1.414311148452659372e+00 5.448920446150018506e+02
1.414411170457500422e+00 5.448843661170396899e+02
1.414511192462341693e+00 5.448766466192566895e+02
1.414611214467182743e+00 5.448688864195635233e+02
1.414711236472023792e+00 5.448610858169507765e+02
1.414811258476864841e+00 5.448532451114770083e+02
1.414911280481705891e+00 5.448453646042562468e+02
1.415011302486546718e+00 5.448374445974476430e+02
1.415111324491387990e+00 5.448294853942443297e+02
1.415211346496229039e+00 5.448214872988587558e+02
1.415311368501070088e+00 5.448134506165154107e+02
1.415411390505911360e+00 5.448053756534354761e+02
1.415511412510752409e+00 5.447972627168267081e+02
1.415611434515593459e+00 5.447891121148716138e+02
1.415711456520434286e+00 5.447809241567156278e+02
1.415811478525275335e+00 5.447726991524546065e+02
1.415911500530116385e+00 5.447644374131242557e+02
1.416011522534957656e+00 5.447561392506853508e+02
1.416111544539798706e+00 5.447478049780161200e+02
1.416211566544639755e+00 5.447394349088964418e+02
1.416311588549481026e+00 5.447310293579970448e+02
1.416411610554321854e+00 5.447225886408685938e+02
1.416511632559162903e+00 5.447141130739273649e+02
1.416611654564003953e+00 5.447056029744453554e+02
1.416711676568845002e+00 5.446970586605364133e+02
1.416811698573686051e+00 5.446884804511454377e+02
1.416911720578527323e+00 5.446798686660342810e+02
1.417011742583368372e+00 5.446712236257709492e+02
1.417111764588209200e+00 5.446625456517173234e+02
1.417211786593050249e+00 5.446538350660154038e+02
1.417311808597891520e+00 5.446450921915773051e+02
1.417411830602732570e+00 5.446363173520705914e+02
1.417511852607573619e+00 5.446275108719066793e+02
1.417611874612414669e+00 5.446186730762285606e+02
1.417711896617255718e+00 5.446098042908979551e+02
1.417811918622096545e+00 5.446009048424845105e+02
1.417911940626937817e+00 5.445919750582486358e+02
1.418011962631778866e+00 5.445830152661357033e+02
1.418111984636619916e+00 5.445740257947566079e+02
1.418212006641461187e+00 5.445650069733800365e+02
1.418312028646302236e+00 5.445559591319183710e+02
1.418412050651143286e+00 5.445468826009137047e+02
1.418512072655984113e+00 5.445377777115264735e+02
1.418612094660825163e+00 5.445286447955224958e+02
1.418712116665666212e+00 5.445194841852603531e+02
1.418812138670507483e+00 5.445102962136777478e+02
1.418912160675348533e+00 5.445010812142800205e+02
1.419012182680189582e+00 5.444918395211263942e+02
1.419112204685030854e+00 5.444825714688178095e+02
1.419212226689871681e+00 5.444732773924829417e+02
1.419312248694712730e+00 5.444639576277656943e+02
1.419412270699553780e+00 5.444546125108146271e+02
1.419512292704394829e+00 5.444452423782649930e+02
1.419612314709235878e+00 5.444358475672313489e+02
1.419712336714077150e+00 5.444264284152908431e+02
1.419812358718918199e+00 5.444169852604704829e+02
1.419912380723759027e+00 5.444075184412375847e+02
1.420012402728600076e+00 5.443980282964821527e+02
1.420112424733441348e+00 5.443885151655063055e+02
1.420212446738282397e+00 5.443789793880110892e+02
1.420312468743123446e+00 5.443694213040827208e+02
1.420412490747964496e+00 5.443598412541805374e+02
1.420512512752805545e+00 5.443502395791225581e+02
1.420612534757646372e+00 5.443406166200732059e+02
1.420712556762487644e+00 5.443309727185301199e+02
1.420812578767328693e+00 5.443213082163107401e+02
1.420912600772169743e+00 5.443116234555393476e+02
1.421012622777011014e+00 5.443019187786334214e+02
1.421112644781852064e+00 5.442921945282914749e+02
1.421212666786692891e+00 5.442824510474783892e+02
1.421312688791533940e+00 5.442726886794142729e+02
1.421412710796374990e+00 5.442629077675584313e+02
1.421512732801216039e+00 5.442531086555987940e+02
1.421612754806057310e+00 5.442432916874369084e+02
1.421712776810898360e+00 5.442334572071748653e+02
1.421812798815739409e+00 5.442236055591038166e+02
1.421912820820580237e+00 5.442137370876889690e+02
1.422012842825421508e+00 5.442038521375545770e+02
1.422112864830262557e+00 5.441939510534760984e+02
1.422212886835103607e+00 5.441840341803613228e+02
1.422312908839944656e+00 5.441741018632392297e+02
1.422412930844785706e+00 5.441641544472482792e+02
1.422512952849626977e+00 5.441541922776195861e+02
1.422612974854467804e+00 5.441442156996668018e+02
1.422712996859308854e+00 5.441342250587714489e+02
1.422813018864149903e+00 5.441242207003685962e+02
1.422913040868991175e+00 5.441142029699358318e+02
1.423013062873832224e+00 5.441041722129783693e+02
1.423113084878673273e+00 5.440941287750154061e+02
1.423213106883514323e+00 5.440840730015680720e+02
1.423313128888355150e+00 5.440740052381444229e+02
1.423413150893196200e+00 5.440639258302282997e+02
1.423513172898037471e+00 5.440538351232635250e+02
1.423613194902878520e+00 5.440437334626426491e+02
1.423713216907719570e+00 5.440336211936916015e+02
1.423813238912560841e+00 5.440234986616587776e+02
1.423913260917401891e+00 5.440133662116994628e+02
1.424013282922242718e+00 5.440032241888637827e+02
1.424113304927083767e+00 5.439930729380822640e+02
1.424213326931924817e+00 5.439829128041541253e+02
1.424313348936765866e+00 5.439727441317317016e+02
1.424413370941607138e+00 5.439625672653097581e+02
1.424513392946448187e+00 5.439523825492095739e+02
1.424613414951289236e+00 5.439421903275674595e+02
1.424713436956130064e+00 5.439319909443213419e+02
1.424813458960971335e+00 5.439217847431954169e+02
1.424913480965812385e+00 5.439115720676894625e+02
1.425013502970653434e+00 5.439013532610639459e+02
1.425113524975494483e+00 5.438911286663274041e+02
1.425213546980335533e+00 5.438808986262223470e+02
1.425313568985176804e+00 5.438706634832140026e+02
1.425413590990017632e+00 5.438604235794730357e+02
1.425513612994858681e+00 5.438501792568672499e+02
1.425613634999699730e+00 5.438399308569457844e+02
1.425713657004541002e+00 5.438296787209237664e+02
1.425813679009382051e+00 5.438194231896733299e+02
1.425913701014223101e+00 5.438091646037076998e+02
1.426013723019064150e+00 5.437989033031698227e+02
1.426113745023904977e+00 5.437886396278161101e+02
1.426213767028746027e+00 5.437783739170057515e+02
1.426313789033587298e+00 5.437681065096879820e+02
1.426413811038428348e+00 5.437578377443861655e+02
1.426513833043269397e+00 5.437475679591887001e+02
1.426613855048110668e+00 5.437372974917309421e+02
1.426713877052951718e+00 5.437270266791864515e+02
1.426813899057792545e+00 5.437167558582522133e+02
1.426913921062633595e+00 5.437064853651341991e+02
1.427013943067474644e+00 5.436962155355364530e+02
1.427113965072315693e+00 5.436859467046469945e+02
1.427213987077156965e+00 5.436756792071251994e+02
1.427314009081998014e+00 5.436654133770888393e+02
1.427414031086839064e+00 5.436551495480994163e+02
1.427514053091679891e+00 5.436448880531519308e+02
1.427614075096521162e+00 5.436346292246607845e+02
1.427714097101362212e+00 5.436243733944453425e+02
1.427814119106203261e+00 5.436141208937198144e+02
1.427914141111044311e+00 5.436038720530766568e+02
1.428014163115885360e+00 5.435936272024788423e+02
1.428114185120726631e+00 5.435833866712420104e+02
1.428214207125567459e+00 5.435731507880241224e+02
1.428314229130408508e+00 5.435629198808119327e+02
1.428414251135249557e+00 5.435526942769099605e+02
1.428514273140090829e+00 5.435424743029237789e+02
1.428614295144931878e+00 5.435322602847526241e+02
1.428714317149772928e+00 5.435220525475716613e+02
1.428814339154613977e+00 5.435118514158223206e+02
1.428914361159454804e+00 5.435016572131993371e+02
1.429014383164295854e+00 5.434914702626363123e+02
1.429114405169137125e+00 5.434812908862951417e+02
1.429214427173978175e+00 5.434711194055533952e+02
1.429314449178819224e+00 5.434609561409891967e+02
1.429414471183660496e+00 5.434508014123725843e+02
1.429514493188501545e+00 5.434406555386499349e+02
1.429614515193342372e+00 5.434305188379321407e+02
1.429714537198183422e+00 5.434203916274841504e+02
1.429814559203024471e+00 5.434102742237085977e+02
1.429914581207865520e+00 5.434001669421385259e+02
1.430014603212706792e+00 5.433900700974206757e+02
1.430114625217547841e+00 5.433799840033054807e+02
1.430214647222388891e+00 5.433699089726339935e+02
1.430314669227229718e+00 5.433598453173253802e+02
1.430414691232070989e+00 5.433497933483668021e+02
1.430514713236912039e+00 5.433397533757971587e+02
1.430614735241753088e+00 5.433297257086995842e+02
1.430714757246594138e+00 5.433197106551860998e+02
1.430814779251435187e+00 5.433097085223860176e+02
1.430914801256276458e+00 5.432997196164354818e+02
1.431014823261117286e+00 5.432897442424650762e+02
1.431114845265958335e+00 5.432797827045844770e+02
1.431214867270799385e+00 5.432698353058766543e+02
1.431314889275640656e+00 5.432599023483796827e+02
1.431414911280481705e+00 5.432499841330802610e+02
1.431514933285322755e+00 5.432400809598974547e+02
1.431614955290163804e+00 5.432301931276736013e+02
1.431714977295004632e+00 5.432203209341624870e+02
1.431814999299845681e+00 5.432104646760162723e+02
1.431915021304686952e+00 5.432006246487746921e+02
1.432015043309528002e+00 5.431908011468532322e+02
1.432115065314369051e+00 5.431809944635322154e+02
1.432215087319210323e+00 5.431712048909441819e+02
1.432315109324051372e+00 5.431614327200627486e+02
1.432415131328892199e+00 5.431516782406915809e+02
1.432515153333733249e+00 5.431419417414530244e+02
1.432615175338574298e+00 5.431322235097761677e+02
1.432715197343415348e+00 5.431225238318845641e+02
1.432815219348256619e+00 5.431128429927882735e+02
1.432915241353097668e+00 5.431031812762694244e+02
1.433015263357938718e+00 5.430935389648716409e+02
1.433115285362779545e+00 5.430839163398896972e+02
1.433215307367620817e+00 5.430743136813588308e+02
1.433315329372461866e+00 5.430647312680417826e+02
1.433415351377302915e+00 5.430551693774197020e+02
1.433515373382143965e+00 5.430456282856798680e+02
1.433615395386985014e+00 5.430361082677054583e+02
1.433715417391826286e+00 5.430266095970652032e+02
1.433815439396667113e+00 5.430171325460007665e+02
1.433915461401508162e+00 5.430076773854176508e+02
1.434015483406349212e+00 5.429982443848740559e+02
1.434115505411190483e+00 5.429888338125699647e+02
1.434215527416031533e+00 5.429794459353371394e+02
1.434315549420872582e+00 5.429700810186260469e+02
1.434415571425713631e+00 5.429607393264999473e+02
1.434515593430554459e+00 5.429514211216201147e+02
1.434615615435395508e+00 5.429421266652382201e+02
1.434715637440236780e+00 5.429328562171829162e+02
1.434815659445077829e+00 5.429236100358542672e+02
1.434915681449918878e+00 5.429143883782082867e+02
1.435015703454760150e+00 5.429051914997498898e+02
1.435115725459601199e+00 5.428960196545224335e+02
1.435215747464442027e+00 5.428868730950963482e+02
1.435315769469283076e+00 5.428777520725604973e+02
1.435415791474124125e+00 5.428686568365108087e+02
1.435515813478965175e+00 5.428595876350422031e+02
1.435615835483806446e+00 5.428505447147359746e+02
1.435715857488647496e+00 5.428415283206535378e+02
1.435815879493488545e+00 5.428325386963228993e+02
1.435915901498329372e+00 5.428235760837319503e+02
1.436015923503170644e+00 5.428146407233168702e+02
1.436115945508011693e+00 5.428057328539536002e+02
1.436215967512852743e+00 5.427968527129467020e+02
1.436315989517693792e+00 5.427880005360241285e+02
1.436416011522534841e+00 5.427791765573208522e+02
1.436516033527376113e+00 5.427703810093770471e+02
1.436616055532216940e+00 5.427616141231220581e+02
1.436716077537057989e+00 5.427528761278704224e+02
1.436816099541899039e+00 5.427441672513091362e+02
1.436916121546740310e+00 5.427354877194907203e+02
1.437016143551581360e+00 5.427268377568231017e+02
1.437116165556422409e+00 5.427182175860602911e+02
1.437216187561263459e+00 5.427096274282946524e+02
1.437316209566104286e+00 5.427010675029467848e+02
1.437416231570945335e+00 5.426925380277569957e+02
1.437516253575786607e+00 5.426840392187777979e+02
1.437616275580627656e+00 5.426755712903628819e+02
1.437716297585468705e+00 5.426671344551606353e+02
1.437816319590309977e+00 5.426587289241045937e+02
1.437916341595151026e+00 5.426503549064046865e+02
1.438016363599991854e+00 5.426420126095391652e+02
1.438116385604832903e+00 5.426337022392461904e+02
1.438216407609673952e+00 5.426254239995162152e+02
1.438316429614515002e+00 5.426171780925815256e+02
1.438416451619356273e+00 5.426089647189114658e+02
1.438516473624197323e+00 5.426007840771997053e+02
1.438616495629038150e+00 5.425926363643626473e+02
1.438716517633879199e+00 5.425845217755239673e+02
1.438816539638720471e+00 5.425764405040124529e+02
1.438916561643561520e+00 5.425683927413513175e+02
1.439016583648402570e+00 5.425603786772517196e+02
1.439116605653243619e+00 5.425523984996038962e+02
1.439216627658084668e+00 5.425444523944706816e+02
1.439316649662925496e+00 5.425365405460786405e+02
1.439416671667766767e+00 5.425286631368121562e+02
1.439516693672607817e+00 5.425208203472038804e+02
1.439616715677448866e+00 5.425130123559297317e+02
1.439716737682290137e+00 5.425052393397996866e+02
1.439816759687131187e+00 5.424975014737510719e+02
1.439916781691972236e+00 5.424897989308426531e+02
1.440016803696813064e+00 5.424821318822451985e+02
1.440116825701654113e+00 5.424745004972353399e+02
1.440216847706495162e+00 5.424669049431911390e+02
1.440316869711336434e+00 5.424593453855808320e+02
1.440416891716177483e+00 5.424518219879597609e+02
1.440516913721018533e+00 5.424443349119601407e+02
1.440616935725859804e+00 5.424368843172887864e+02
1.440716957730700631e+00 5.424294703617158575e+02
1.440816979735541681e+00 5.424220932010713341e+02
1.440917001740382730e+00 5.424147529892385364e+02
1.441017023745223780e+00 5.424074498781450302e+02
1.441117045750064829e+00 5.424001840177601252e+02
1.441217067754906100e+00 5.423929555560849849e+02
1.441317089759747150e+00 5.423857646391502385e+02
1.441417111764587977e+00 5.423786114110055223e+02
1.441517133769429027e+00 5.423714960137174330e+02
1.441617155774270298e+00 5.423644185873615697e+02
1.441717177779111347e+00 5.423573792700168497e+02
1.441817199783952397e+00 5.423503781977592553e+02
1.441917221788793446e+00 5.423434155046575142e+02
1.442017243793634496e+00 5.423364913227669604e+02
1.442117265798475323e+00 5.423296057821229397e+02
1.442217287803316594e+00 5.423227590107369451e+02
1.442317309808157644e+00 5.423159511345887722e+02
1.442417331812998693e+00 5.423091822776247000e+02
1.442517353817839965e+00 5.423024525617487370e+02
1.442617375822681014e+00 5.422957621068193248e+02
1.442717397827522063e+00 5.422891110306441078e+02
1.442817419832362891e+00 5.422824994489747041e+02
1.442917441837203940e+00 5.422759274755018168e+02
1.443017463842044990e+00 5.422693952218492086e+02
1.443117485846886261e+00 5.422629027975706322e+02
1.443217507851727310e+00 5.422564503101446007e+02
1.443317529856568360e+00 5.422500378649699542e+02
1.443417551861409631e+00 5.422436655653589241e+02
1.443517573866250459e+00 5.422373335125364520e+02
1.443617595871091508e+00 5.422310418056337085e+02
1.443717617875932557e+00 5.422247905416829781e+02
1.443817639880773607e+00 5.422185798156153851e+02
1.443917661885614656e+00 5.422124097202554367e+02
1.444017683890455928e+00 5.422062803463168166e+02
1.444117705895296977e+00 5.422001917823986332e+02
1.444217727900137804e+00 5.421941441149831462e+02
1.444317749904978854e+00 5.421881374284286039e+02
1.444417771909820125e+00 5.421821718049677656e+02
1.444517793914661175e+00 5.421762473247047183e+02
1.444617815919502224e+00 5.421703640656089647e+02
1.444717837924343273e+00 5.421645221035137183e+02
1.444817859929184323e+00 5.421587215121111285e+02
1.444917881934025150e+00 5.421529623629510297e+02
1.445017903938866421e+00 5.421472447254358258e+02
1.445117925943707471e+00 5.421415686668167382e+02
1.445217947948548520e+00 5.421359342521933513e+02
1.445317969953389792e+00 5.421303415445073597e+02
1.445417991958230841e+00 5.421247906045418858e+02
1.445518013963071891e+00 5.421192814909178423e+02
1.445618035967912718e+00 5.421138142600912033e+02
1.445718057972753767e+00 5.421083889663495938e+02
1.445818079977594817e+00 5.421030056618113804e+02
1.445918101982436088e+00 5.420976643964214645e+02
1.446018123987277137e+00 5.420923652179476449e+02
1.446118145992118187e+00 5.420871081719840276e+02
1.446218167996959458e+00 5.420818933019402266e+02
1.446318190001800286e+00 5.420767206490461376e+02
1.446418212006641335e+00 5.420715902523464820e+02
1.446518234011482384e+00 5.420665021486995556e+02
1.446618256016323434e+00 5.420614563727741597e+02
1.446718278021164483e+00 5.420564529570505101e+02
1.446818300026005755e+00 5.420514919318155762e+02
1.446918322030846804e+00 5.420465733251617166e+02
1.447018344035687631e+00 5.420416971629873615e+02
1.447118366040528681e+00 5.420368634689921237e+02
1.447218388045369952e+00 5.420320722646773675e+02
1.447318410050211002e+00 5.420273235693456400e+02
1.447418432055052051e+00 5.420226174000963510e+02
1.447518454059893100e+00 5.420179537718279335e+02
1.447618476064734150e+00 5.420133326972337500e+02
1.447718498069574977e+00 5.420087541868031167e+02
1.447818520074416249e+00 5.420042182488194840e+02
1.447918542079257298e+00 5.419997248893596407e+02
1.448018564084098347e+00 5.419952741122931457e+02
1.448118586088939619e+00 5.419908659192798268e+02
1.448218608093780668e+00 5.419865003097733052e+02
1.448318630098621718e+00 5.419821772810155380e+02
1.448418652103462545e+00 5.419778968280397748e+02
1.448518674108303594e+00 5.419736589436689655e+02
1.448618696113144644e+00 5.419694636185147374e+02
1.448718718117985915e+00 5.419653108409787592e+02
1.448818740122826965e+00 5.419612005972510360e+02
1.448918762127668014e+00 5.419571328713108187e+02
1.449018784132509285e+00 5.419531076449275133e+02
1.449118806137350113e+00 5.419491248976580664e+02
1.449218828142191162e+00 5.419451846068493523e+02
1.449318850147032212e+00 5.419412867476381734e+02
1.449418872151873261e+00 5.419374312929519419e+02
1.449518894156714310e+00 5.419336182135062927e+02
1.449618916161555582e+00 5.419298474778108812e+02
1.449718938166396631e+00 5.419261190521648359e+02
1.449818960171237459e+00 5.419224329006602829e+02
1.449918982176078508e+00 5.419187889851824593e+02
1.450019004180919779e+00 5.419151872654108502e+02
1.450119026185760829e+00 5.419116276988188474e+02
1.450219048190601878e+00 5.419081102406784112e+02
1.450319070195442928e+00 5.419046348440559768e+02
1.450419092200283977e+00 5.419012014598173437e+02
1.450519114205124804e+00 5.418978100366277886e+02
1.450619136209966076e+00 5.418944605209537713e+02
1.450719158214807125e+00 5.418911528570645260e+02
1.450819180219648175e+00 5.418878869870330846e+02
1.450919202224489446e+00 5.418846628507379819e+02
1.451019224229330495e+00 5.418814803858657569e+02
1.451119246234171545e+00 5.418783395279108390e+02
1.451219268239012372e+00 5.418752402101804364e+02
1.451319290243853422e+00 5.418721823637931720e+02
1.451419312248694471e+00 5.418691659176849953e+02
1.451519334253535742e+00 5.418661907986061124e+02
1.451619356258376792e+00 5.418632569311289444e+02
1.451719378263217841e+00 5.418603642376465359e+02
1.451819400268059113e+00 5.418575126383756242e+02
1.451919422272899940e+00 5.418547020513607322e+02
1.452019444277740989e+00 5.418519323924741684e+02
1.452119466282582039e+00 5.418492035754217113e+02
1.452219488287423088e+00 5.418465155117427230e+02
1.452319510292264138e+00 5.418438681108140145e+02
1.452419532297105409e+00 5.418412612798531427e+02
1.452519554301946458e+00 5.418386949239205705e+02
1.452619576306787286e+00 5.418361689459221679e+02
1.452719598311628335e+00 5.418336832466150099e+02
1.452819620316469607e+00 5.418312377246077176e+02
1.452919642321310656e+00 5.418288322763652332e+02
1.453019664326151705e+00 5.418264667962118892e+02
1.453119686330992755e+00 5.418241411763339102e+02
1.453219708335833804e+00 5.418218553067857783e+02
1.453319730340674631e+00 5.418196090754904617e+02
1.453419752345515903e+00 5.418174023682454390e+02
1.453519774350356952e+00 5.418152350687247463e+02
1.453619796355198002e+00 5.418131070584851159e+02
1.453719818360039273e+00 5.418110182169677955e+02
1.453819840364880323e+00 5.418089684215045736e+02
1.453919862369721372e+00 5.418069575473191435e+02
1.454019884374562199e+00 5.418049854675339247e+02
1.454119906379403249e+00 5.418030520531738148e+02
1.454219928384244298e+00 5.418011571731689173e+02
1.454319950389085569e+00 5.417993006943622731e+02
1.454419972393926619e+00 5.417974824815092916e+02
1.454519994398767668e+00 5.417957023972885509e+02
1.454620016403608940e+00 5.417939603023015707e+02
1.454720038408449767e+00 5.417922560550795197e+02
1.454820060413290816e+00 5.417905895120895821e+02
1.454920082418131866e+00 5.417889605277349574e+02
1.455020104422972915e+00 5.417873689543667979e+02
1.455120126427813965e+00 5.417858146422832988e+02
1.455220148432655236e+00 5.417842974397382250e+02
1.455320170437496285e+00 5.417828171929445489e+02
1.455420192442337113e+00 5.417813737460816128e+02
1.455520214447178162e+00 5.417799669412985395e+02
1.455620236452019434e+00 5.417785966187209397e+02
1.455720258456860483e+00 5.417772626164545500e+02
1.455820280461701532e+00 5.417759647705947827e+02
1.455920302466542582e+00 5.417747029152294544e+02
1.456020324471383409e+00 5.417734768824443563e+02
1.456120346476224459e+00 5.417722865023310987e+02
1.456220368481065730e+00 5.417711316029907493e+02
1.456320390485906779e+00 5.417700120105425867e+02
1.456420412490747829e+00 5.417689275491278522e+02
1.456520434495589100e+00 5.417678780409175943e+02
1.456620456500430150e+00 5.417668633061173296e+02
1.456720478505270977e+00 5.417658831629747738e+02
1.456820500510112026e+00 5.417649374277864354e+02
1.456920522514953076e+00 5.417640259149026178e+02
1.457020544519794125e+00 5.417631484367345820e+02
1.457120566524635397e+00 5.417623048037627314e+02
1.457220588529476446e+00 5.417614948245408186e+02
1.457320610534317495e+00 5.417607183057048132e+02
1.457420632539158323e+00 5.417599750519793815e+02
1.457520654543999594e+00 5.417592648661834573e+02
1.457620676548840644e+00 5.417585875492384275e+02
1.457720698553681693e+00 5.417579429001757489e+02
1.457820720558522742e+00 5.417573307161426328e+02
1.457920742563363792e+00 5.417567507924115944e+02
1.458020764568205063e+00 5.417562029223850004e+02
1.458120786573045891e+00 5.417556868976040505e+02
1.458220808577886940e+00 5.417552025077562803e+02
1.458320830582727989e+00 5.417547495406834059e+02
1.458420852587569261e+00 5.417543277823872359e+02
1.458520874592410310e+00 5.417539370170393340e+02
1.458620896597251360e+00 5.417535770269879549e+02
1.458720918602092409e+00 5.417532475927646374e+02
1.458820940606933236e+00 5.417529484930962553e+02
1.458920962611774286e+00 5.417526795049072916e+02
1.459020984616615557e+00 5.417524404033317751e+02
1.459121006621456607e+00 5.417522309617211249e+02
1.459221028626297656e+00 5.417520509516505172e+02
1.459321050631138927e+00 5.417519001429288892e+02
1.459421072635979977e+00 5.417517783036063292e+02
1.459521094640820804e+00 5.417516851999828305e+02
1.459621116645661854e+00 5.417516205966168172e+02
1.459721138650502903e+00 5.417515842563338992e+02
1.459821160655343952e+00 5.417515759402340336e+02
1.459921182660185224e+00 5.417515954077030074e+02
1.460021204665026273e+00 5.417516424164182354e+02
1.460121226669867323e+00 5.417517167223601291e+02
1.460221248674708150e+00 5.417518180798176672e+02
1.460321270679549421e+00 5.417519462414029476e+02
1.460421292684390471e+00 5.417521009580519831e+02
1.460521314689231520e+00 5.417522819790430049e+02
1.460621336694072570e+00 5.417524890519980545e+02
1.460721358698913619e+00 5.417527219228968534e+02
1.460821380703754890e+00 5.417529803360844198e+02
1.460921402708595718e+00 5.417532640342798231e+02
1.461021424713436767e+00 5.417535727585866425e+02
1.461121446718277817e+00 5.417539062485018349e+02
1.461221468723119088e+00 5.417542642419267622e+02
1.461321490727960137e+00 5.417546464751737858e+02
1.461421512732801187e+00 5.417550526829787714e+02
1.461521534737642236e+00 5.417554825985102980e+02
1.461621556742483063e+00 5.417559359533777297e+02
1.461721578747324113e+00 5.417564124776431527e+02
1.461821600752165384e+00 5.417569118998308113e+02
1.461921622757006434e+00 5.417574339469354072e+02
1.462021644761847483e+00 5.417579783444350596e+02
1.462121666766688755e+00 5.417585448162993771e+02
1.462221688771529804e+00 5.417591330849990072e+02
1.462321710776370631e+00 5.417597428715197339e+02
1.462421732781211681e+00 5.417603738953662287e+02
1.462521754786052730e+00 5.417610258745797864e+02
1.462621776790893779e+00 5.417616985257432134e+02
1.462721798795735051e+00 5.417623915639936740e+02
1.462821820800576100e+00 5.417631047030325817e+02
1.462921842805417150e+00 5.417638376551378769e+02
1.463021864810257977e+00 5.417645901311707348e+02
1.463121886815099248e+00 5.417653618405911402e+02
1.463221908819940298e+00 5.417661524914645952e+02
1.463321930824781347e+00 5.417669617904759889e+02
1.463421952829622397e+00 5.417677894429375556e+02
1.463521974834463446e+00 5.417686351528033128e+02
1.463621996839304717e+00 5.417694986226769061e+02
1.463722018844145545e+00 5.417703795538235454e+02
1.463822040848986594e+00 5.417712776461827389e+02
1.463922062853827644e+00 5.417721925983762503e+02
1.464022084858668915e+00 5.417731241077229924e+02
1.464122106863509964e+00 5.417740718702488039e+02
1.464222128868351014e+00 5.417750355806953166e+02
1.464322150873192063e+00 5.417760149325353041e+02
1.464422172878032891e+00 5.417770096179815482e+02
1.464522194882873940e+00 5.417780193279987770e+02
1.464622216887715211e+00 5.417790437523169658e+02
1.464722238892556261e+00 5.417800825794396360e+02
1.464822260897397310e+00 5.417811354966586350e+02
1.464922282902238582e+00 5.417822021900633445e+02
1.465022304907079631e+00 5.417832823445548911e+02
1.465122326911920458e+00 5.417843756438544460e+02
1.465222348916761508e+00 5.417854817705203914e+02
1.465322370921602557e+00 5.417866004059534362e+02
1.465422392926443607e+00 5.417877312304148063e+02
1.465522414931284878e+00 5.417888739230345436e+02
1.465622436936125927e+00 5.417900281618244662e+02
1.465722458940966977e+00 5.417911936236899919e+02
1.465822480945807804e+00 5.417923699844432122e+02
1.465922502950649076e+00 5.417935569188142608e+02
1.466022524955490125e+00 5.417947541004633649e+02
1.466122546960331174e+00 5.417959612019939186e+02
1.466222568965172224e+00 5.417971778949639656e+02
1.466322590970013273e+00 5.417984038498987047e+02
1.466422612974854545e+00 5.417996387363031090e+02
1.466522634979695372e+00 5.418008822226748862e+02
1.466622656984536421e+00 5.418021339765152788e+02
1.466722678989377471e+00 5.418033936643441848e+02
1.466822700994218742e+00 5.418046609517094794e+02
1.466922722999059792e+00 5.418059355032023632e+02
1.467022745003900841e+00 5.418072169824686171e+02
1.467122767008741890e+00 5.418085050522228130e+02
1.467222789013582718e+00 5.418097993742590006e+02
1.467322811018423767e+00 5.418110996094637812e+02
1.467422833023265039e+00 5.418124054178301776e+02
1.467522855028106088e+00 5.418137164584710490e+02
1.467622877032947137e+00 5.418150323896293230e+02
1.467722899037788409e+00 5.418163528686944801e+02
1.467822921042629458e+00 5.418176775522113076e+02
1.467922943047470286e+00 5.418190060958969525e+02
1.468022965052311335e+00 5.418203381546525179e+02
1.468122987057152384e+00 5.418216733825734082e+02
1.468223009061993434e+00 5.418230114329676326e+02
1.468323031066834705e+00 5.418243519583641046e+02
1.468423053071675755e+00 5.418256946105294674e+02
1.468523075076516804e+00 5.418270390404788941e+02
1.468623097081357631e+00 5.418283848984910946e+02
1.468723119086198903e+00 5.418297318341183200e+02
1.468823141091039952e+00 5.418310794962048931e+02
1.468923163095881002e+00 5.418324275328964177e+02
1.469023185100722051e+00 5.418337755916548986e+02
1.469123207105563100e+00 5.418351233192706786e+02
1.469223229110404372e+00 5.418364703618783551e+02
1.469323251115245199e+00 5.418378163649679209e+02
1.469423273120086249e+00 5.418391609733994301e+02
1.469523295124927298e+00 5.418405038314165267e+02
1.469623317129768569e+00 5.418418445826595189e+02
1.469723339134609619e+00 5.418431828701791346e+02
1.469823361139450668e+00 5.418445183364508466e+02
1.469923383144291718e+00 5.418458506233862408e+02
1.470023405149132545e+00 5.418471793723515475e+02
1.470123427153973594e+00 5.418485042241746896e+02
1.470223449158814866e+00 5.418498248191649509e+02
1.470323471163655915e+00 5.418511407971229801e+02
1.470423493168496965e+00 5.418524517973569345e+02
1.470523515173338236e+00 5.418537574586940764e+02
1.470623537178179285e+00 5.418550574194962337e+02
1.470723559183020113e+00 5.418563513176737843e+02
1.470823581187861162e+00 5.418576387906979335e+02
1.470923603192702211e+00 5.418589194756166307e+02
1.471023625197543261e+00 5.418601930090667338e+02
1.471123647202384532e+00 5.418614590272892428e+02
1.471223669207225582e+00 5.418627171661416924e+02
1.471323691212066631e+00 5.418639670611150905e+02
1.471423713216907458e+00 5.418652083473443781e+02
1.471523735221748730e+00 5.418664406596243452e+02
1.471623757226589779e+00 5.418676636324247511e+02
1.471723779231430829e+00 5.418688768999012382e+02
1.471823801236271878e+00 5.418700800959126127e+02
1.471923823241112927e+00 5.418712728540326680e+02
1.472023845245954199e+00 5.418724548075661005e+02
1.472123867250795026e+00 5.418736255895618115e+02
1.472223889255636076e+00 5.418747848328262080e+02
1.472323911260477125e+00 5.418759321699383236e+02
1.472423933265318396e+00 5.418770672332644835e+02
1.472523955270159446e+00 5.418781896549721750e+02
1.472623977275000495e+00 5.418792990670433483e+02
1.472723999279841545e+00 5.418803951012885136e+02
1.472824021284682372e+00 5.418814773893639085e+02
1.472924043289523421e+00 5.418825455627821839e+02
1.473024065294364693e+00 5.418835992529279793e+02
1.473124087299205742e+00 5.418846380910723610e+02
1.473224109304046792e+00 5.418856617083886249e+02
1.473324131308888063e+00 5.418866697359627551e+02
1.473424153313728890e+00 5.418876618048119553e+02
1.473524175318569940e+00 5.418886375458952216e+02
1.473624197323410989e+00 5.418895965901319869e+02
1.473724219328252039e+00 5.418905385684113298e+02
1.473824241333093088e+00 5.418914631116101646e+02
1.473924263337934359e+00 5.418923698506069968e+02
1.474024285342775409e+00 5.418932584162947705e+02
1.474124307347616236e+00 5.418941284395959883e+02
1.474224329352457286e+00 5.418949795514788548e+02
1.474324351357298557e+00 5.418958113829680769e+02
1.474424373362139606e+00 5.418966235651613488e+02
1.474524395366980656e+00 5.418974157292459495e+02
1.474624417371821705e+00 5.418981875065073837e+02
1.474724439376662755e+00 5.418989385283505271e+02
1.474824461381503582e+00 5.418996684263087218e+02
1.474924483386344853e+00 5.419003768320594645e+02
1.475024505391185903e+00 5.419010633774419148e+02
1.475124527396026952e+00 5.419017276944665582e+02
1.475224549400868224e+00 5.419023694153338511e+02
1.475324571405709273e+00 5.419029881724447932e+02
1.475424593410550322e+00 5.419035835984191181e+02
1.475524615415391150e+00 5.419041553261059789e+02
1.475624637420232199e+00 5.419047029886023665e+02
1.475724659425073249e+00 5.419052262192625449e+02
1.475824681429914520e+00 5.419057246517181738e+02
1.475924703434755569e+00 5.419061979198877452e+02
1.476024725439596619e+00 5.419066456579938631e+02
1.476124747444437890e+00 5.419070675005767725e+02
1.476224769449278718e+00 5.419074630825080021e+02
1.476324791454119767e+00 5.419078320390067347e+02
1.476424813458960816e+00 5.419081740056518584e+02
1.476524835463801866e+00 5.419084886183977687e+02
1.476624857468642915e+00 5.419087755135886937e+02
1.476724879473484187e+00 5.419090343279724493e+02
1.476824901478325236e+00 5.419092646987148783e+02
1.476924923483166063e+00 5.419094662634140604e+02
1.477024945488007113e+00 5.419096386601167978e+02
1.477124967492848384e+00 5.419097815273281640e+02
1.477224989497689434e+00 5.419098945040318540e+02
1.477325011502530483e+00 5.419099772296984838e+02
1.477425033507371532e+00 5.419100293443048031e+02
1.477525055512212582e+00 5.419100504883456324e+02
1.477625077517053409e+00 5.419100403028471646e+02
1.477725099521894681e+00 5.419099984293836769e+02
1.477825121526735730e+00 5.419099245100909457e+02
1.477925143531576779e+00 5.419098181876790932e+02
1.478025165536418051e+00 5.419096791054479354e+02
1.478125187541259100e+00 5.419095069073016475e+02
1.478225209546100150e+00 5.419093012377619516e+02
1.478325231550940977e+00 5.419090617419831233e+02
1.478425253555782026e+00 5.419087880657652931e+02
1.478525275560623076e+00 5.419084798555693396e+02
1.478625297565464347e+00 5.419081367585303042e+02
1.478725319570305397e+00 5.419077584224720567e+02
1.478825341575146446e+00 5.419073444959213930e+02
1.478925363579987717e+00 5.419068946281216768e+02
1.479025385584828545e+00 5.419064084690476193e+02
1.479125407589669594e+00 5.419058856694180122e+02
1.479225429594510643e+00 5.419053258807109614e+02
1.479325451599351693e+00 5.419047287551778709e+02
1.479425473604192742e+00 5.419040939458565163e+02
1.479525495609034014e+00 5.419034211065852560e+02
1.479625517613875063e+00 5.419027098920173557e+02
1.479725539618715890e+00 5.419019599576347446e+02
1.479825561623556940e+00 5.419011709597618847e+02
1.479925583628398211e+00 5.419003425555799822e+02
1.480025605633239261e+00 5.418994744031393793e+02
1.480125627638080310e+00 5.418985661613753564e+02
1.480225649642921359e+00 5.418976174901205241e+02
1.480325671647762409e+00 5.418966280501190340e+02
1.480425693652603236e+00 5.418955975030401078e+02
1.480525715657444508e+00 5.418945255114925885e+02
1.480625737662285557e+00 5.418934117390368783e+02
1.480725759667126606e+00 5.418922558502001721e+02
1.480825781671967878e+00 5.418910575104904410e+02
1.480925803676808927e+00 5.418898163864066646e+02
1.481025825681649977e+00 5.418885321454586119e+02
1.481125847686490804e+00 5.418872044561722987e+02
1.481225869691331853e+00 5.418858329881113605e+02
1.481325891696172903e+00 5.418844174118847832e+02
1.481425913701014174e+00 5.418829573991637290e+02
1.481525935705855224e+00 5.418814526226924499e+02
1.481625957710696273e+00 5.418799027563045456e+02
1.481725979715537544e+00 5.418783074749338766e+02
1.481826001720378372e+00 5.418766664546280936e+02
1.481926023725219421e+00 5.418749793725636437e+02
1.482026045730060471e+00 5.418732459070575942e+02
1.482126067734901520e+00 5.418714657375809338e+02
1.482226089739742569e+00 5.418696385447715329e+02
1.482326111744583841e+00 5.418677640104481270e+02
1.482426133749424890e+00 5.418658418176237319e+02
1.482526155754265718e+00 5.418638716505164439e+02
1.482626177759106767e+00 5.418618531945646737e+02
1.482726199763948038e+00 5.418597861364405617e+02
1.482826221768789088e+00 5.418576701640602096e+02
1.482926243773630137e+00 5.418555049665984598e+02
1.483026265778471187e+00 5.418532902345017419e+02
1.483126287783312236e+00 5.418510256595012606e+02
1.483226309788153063e+00 5.418487109346247053e+02
1.483326331792994335e+00 5.418463457542093238e+02
1.483426353797835384e+00 5.418439298139146558e+02
1.483526375802676434e+00 5.418414628107362887e+02
1.483626397807517705e+00 5.418389444430168851e+02
1.483726419812358754e+00 5.418363744104592570e+02
1.483826441817199804e+00 5.418337524141393260e+02
1.483926463822040631e+00 5.418310781565194247e+02
1.484026485826881681e+00 5.418283513414578465e+02
1.484126507831722730e+00 5.418255716742243067e+02
1.484226529836564001e+00 5.418227388615114251e+02
1.484326551841405051e+00 5.418198526114459810e+02
1.484426573846246100e+00 5.418169126336024419e+02
1.484526595851087372e+00 5.418139186390150144e+02
1.484626617855928199e+00 5.418108703401885577e+02
1.484726639860769248e+00 5.418077674511137047e+02
1.484826661865610298e+00 5.418046096872744783e+02
1.484926683870451347e+00 5.418013967656648902e+02
1.485026705875292397e+00 5.417981284047981489e+02
1.485126727880133668e+00 5.417948043247192800e+02
1.485226749884974717e+00 5.417914242470178579e+02
1.485326771889815545e+00 5.417879878948372152e+02
1.485426793894656594e+00 5.417844949928906999e+02
1.485526815899497866e+00 5.417809452674694057e+02
1.485626837904338915e+00 5.417773384464549054e+02
1.485726859909179964e+00 5.417736742593336885e+02
1.485826881914021014e+00 5.417699524372031874e+02
1.485926903918862063e+00 5.417661727127887161e+02
1.486026925923702890e+00 5.417623348204529066e+02
1.486126947928544162e+00 5.417584384962052582e+02
1.486226969933385211e+00 5.417544834777174856e+02
1.486326991938226261e+00 5.417504695043310221e+02
1.486427013943067532e+00 5.417463963170712304e+02
1.486527035947908582e+00 5.417422636586559292e+02
1.486627057952749631e+00 5.417380712735100587e+02
1.486727079957590458e+00 5.417338189077726156e+02
1.486827101962431508e+00 5.417295063093110912e+02
1.486927123967272557e+00 5.417251332277311349e+02
1.487027145972113829e+00 5.417206994143866723e+02
1.487127167976954878e+00 5.417162046223932066e+02
1.487227189981795927e+00 5.417116486066364587e+02
1.487327211986637199e+00 5.417070311237825990e+02
1.487427233991478026e+00 5.417023519322922311e+02
1.487527255996319075e+00 5.416976107924280086e+02
1.487627278001160125e+00 5.416928074662662311e+02
1.487727300006001174e+00 5.416879417177084406e+02
1.487827322010842224e+00 5.416830133124891518e+02
1.487927344015683495e+00 5.416780220181890400e+02
1.488027366020524545e+00 5.416729676042442634e+02
1.488127388025365372e+00 5.416678498419562402e+02
1.488227410030206421e+00 5.416626685045033582e+02
1.488327432035047693e+00 5.416574233669489331e+02
1.488427454039888742e+00 5.416521142062538274e+02
1.488527476044729791e+00 5.416467408012841815e+02
1.488627498049570841e+00 5.416413029328234643e+02
1.488727520054411890e+00 5.416358003835804311e+02
1.488827542059252718e+00 5.416302329382008338e+02
1.488927564064093989e+00 5.416246003832754923e+02
1.489027586068935038e+00 5.416189025073517769e+02
1.489127608073776088e+00 5.416131391009421350e+02
1.489227630078617359e+00 5.416073099565336406e+02
1.489327652083458409e+00 5.416014148685981127e+02
1.489427674088299458e+00 5.415954536336006413e+02
1.489527696093140285e+00 5.415894260500106157e+02
1.489627718097981335e+00 5.415833319183104777e+02
1.489727740102822384e+00 5.415771710410026571e+02
1.489827762107663656e+00 5.415709432226226454e+02
1.489927784112504705e+00 5.415646482697460442e+02
1.490027806117345754e+00 5.415582859909972058e+02
1.490127828122187026e+00 5.415518561970579867e+02
1.490227850127027853e+00 5.415453587006801399e+02
1.490327872131868903e+00 5.415387933166897483e+02
1.490427894136709952e+00 5.415321598619984798e+02
1.490527916141551001e+00 5.415254581556109770e+02
1.490627938146392051e+00 5.415186880186349754e+02
1.490727960151233322e+00 5.415118492742892613e+02
1.490827982156074150e+00 5.415049417479114027e+02
1.490928004160915199e+00 5.414979652669678671e+02
1.491028026165756248e+00 5.414909196610610707e+02
1.491128048170597520e+00 5.414838047619372219e+02
1.491228070175438569e+00 5.414766204034958719e+02
1.491328092180279619e+00 5.414693664217979858e+02
1.491428114185120668e+00 5.414620426550739012e+02
1.491528136189961495e+00 5.414546489437298078e+02
1.491628158194802545e+00 5.414471851303577523e+02
1.491728180199643816e+00 5.414396510597430279e+02
1.491828202204484866e+00 5.414320465788699721e+02
1.491928224209325915e+00 5.414243715369332222e+02
1.492028246214167186e+00 5.414166257853433990e+02
1.492128268219008236e+00 5.414088091777332465e+02
1.492228290223849063e+00 5.414009215699675224e+02
1.492328312228690113e+00 5.413929628201501600e+02
1.492428334233531162e+00 5.413849327886301808e+02
1.492528356238372211e+00 5.413768313380098789e+02
1.492628378243213483e+00 5.413686583331525526e+02
1.492728400248054532e+00 5.413604136411880745e+02
1.492828422252895582e+00 5.413520971315210772e+02
1.492928444257736409e+00 5.413437086758391388e+02
1.493028466262577680e+00 5.413352481481161931e+02
1.493128488267418730e+00 5.413267154246220798e+02
1.493228510272259779e+00 5.413181103839290245e+02
1.493328532277100829e+00 5.413094329069177775e+02
1.493428554281941878e+00 5.413006828767837533e+02
1.493528576286783149e+00 5.412918601790449884e+02
1.493628598291623977e+00 5.412829647015466890e+02
1.493728620296465026e+00 5.412739963344688476e+02
1.493828642301306076e+00 5.412649549703326102e+02
1.493928664306147347e+00 5.412558405040056186e+02
1.494028686310988396e+00 5.412466528327074684e+02
1.494128708315829446e+00 5.412373918560197126e+02
1.494228730320670495e+00 5.412280574758863168e+02
1.494328752325511322e+00 5.412186495966226403e+02
1.494428774330352372e+00 5.412091681249208932e+02
1.494528796335193643e+00 5.411996129698563891e+02
1.494628818340034693e+00 5.411899840428915240e+02
1.494728840344875742e+00 5.411802812578823705e+02
1.494828862349717014e+00 5.411705045310841342e+02
1.494928884354558063e+00 5.411606537811562703e+02
1.495028906359398890e+00 5.411507289291681673e+02
1.495128928364239940e+00 5.411407298986040360e+02
1.495228950369080989e+00 5.411306566153683661e+02
1.495328972373922038e+00 5.411205090077892237e+02
1.495428994378763310e+00 5.411102870066270043e+02
1.495529016383604359e+00 5.410999905450763663e+02
1.495629038388445409e+00 5.410896195587702096e+02
1.495729060393286236e+00 5.410791739857879747e+02
1.495829082398127508e+00 5.410686537666567801e+02
1.495929104402968557e+00 5.410580588443586976e+02
1.496029126407809606e+00 5.410473891643323441e+02
1.496129148412650656e+00 5.410366446744808400e+02
1.496229170417491705e+00 5.410258253251726046e+02
1.496329192422332977e+00 5.410149310692474955e+02
1.496429214427173804e+00 5.410039618620216970e+02
1.496529236432014853e+00 5.409929176612888568e+02
1.496629258436855903e+00 5.409817984273270213e+02
1.496729280441697174e+00 5.409706041229009088e+02
1.496829302446538223e+00 5.409593347132673671e+02
1.496929324451379273e+00 5.409479901661759413e+02
1.497029346456220322e+00 5.409365704518759230e+02
1.497129368461061150e+00 5.409250755431177140e+02
1.497229390465902199e+00 5.409135054151572604e+02
1.497329412470743470e+00 5.409018600457598041e+02
1.497429434475584520e+00 5.408901394152004514e+02
1.497529456480425569e+00 5.408783435062724720e+02
1.497629478485266841e+00 5.408664723042850255e+02
1.497729500490107890e+00 5.408545257970693001e+02
1.497829522494948717e+00 5.408425039749809002e+02
1.497929544499789767e+00 5.408304068309030299e+02
1.498029566504630816e+00 5.408182343602475157e+02
1.498129588509471866e+00 5.408059865609590133e+02
1.498229610514313137e+00 5.407936634335187591e+02
1.498329632519154186e+00 5.407812649809436607e+02
1.498429654523995236e+00 5.407687912087924360e+02
1.498529676528836063e+00 5.407562421251656133e+02
1.498629698533677335e+00 5.407436177407071227e+02
1.498729720538518384e+00 5.407309180686098671e+02
1.498829742543359433e+00 5.407181431246144712e+02
1.498929764548200483e+00 5.407052929270121240e+02
1.499029786553041532e+00 5.406923674966482167e+02
1.499129808557882804e+00 5.406793668569215470e+02
1.499229830562723631e+00 5.406662910337877292e+02
1.499329852567564680e+00 5.406531400557604456e+02
1.499429874572405730e+00 5.406399139539122416e+02
1.499529896577247001e+00 5.406266127618775954e+02
1.499629918582088051e+00 5.406132365158526909e+02
1.499729940586929100e+00 5.405997852545982596e+02
1.499829962591770149e+00 5.405862590194387849e+02
1.499929984596610977e+00 5.405726578542655716e+02
1.500030006601452026e+00 5.160730789532207154e+02
1.500130028606293298e+00 5.160028566248430479e+02
1.500230050611134347e+00 5.159327250579208339e+02
1.500330072615975396e+00 5.158626857021922660e+02
1.500430094620816668e+00 5.157927400044244450e+02
1.500530116625657717e+00 5.157228894083701789e+02
1.500630138630498545e+00 5.156531353547237586e+02
1.500730160635339594e+00 5.155834792810791214e+02
1.500830182640180643e+00 5.155139226218839212e+02
1.500930204645021693e+00 5.154444668083995111e+02
1.501030226649862964e+00 5.153751132686547862e+02
1.501130248654704014e+00 5.153058634274051428e+02
1.501230270659545063e+00 5.152367187060892775e+02
1.501330292664385890e+00 5.151676805227851901e+02
1.501430314669227162e+00 5.150987502921688019e+02
1.501530336674068211e+00 5.150299294254715505e+02
1.501630358678909261e+00 5.149612193304366201e+02
1.501730380683750310e+00 5.148926214112774460e+02
1.501830402688591359e+00 5.148241370686348546e+02
1.501930424693432631e+00 5.147557676995371594e+02
1.502030446698273458e+00 5.146875146973543451e+02
1.502130468703114508e+00 5.146193794517586184e+02
1.502230490707955557e+00 5.145513633486846174e+02
1.502330512712796828e+00 5.144834677702824592e+02
1.502430534717637878e+00 5.144156940948807915e+02
1.502530556722478927e+00 5.143480436969438188e+02
1.502630578727319977e+00 5.142805179470293524e+02
1.502730600732160804e+00 5.142131182117497019e+02
1.502830622737001853e+00 5.141458458537283605e+02
1.502930644741843125e+00 5.140787022315599870e+02
1.503030666746684174e+00 5.140116886997711845e+02
1.503130688751525224e+00 5.139448066087772986e+02
1.503230710756366495e+00 5.138780573048434235e+02
1.503330732761207544e+00 5.138114421300444974e+02
1.503430754766048372e+00 5.137449624222238072e+02
1.503530776770889421e+00 5.136786195149545620e+02
1.503630798775730470e+00 5.136124147374974882e+02
1.503730820780571520e+00 5.135463494147639949e+02
1.503830842785412791e+00 5.134804248672751328e+02
1.503930864790253841e+00 5.134146424111218039e+02
1.504030886795094890e+00 5.133490033579250849e+02
1.504130908799935717e+00 5.132835090147993924e+02
1.504230930804776989e+00 5.132181606843105328e+02
1.504330952809618038e+00 5.131529596644381854e+02
1.504430974814459088e+00 5.130879072485372490e+02
1.504530996819300137e+00 5.130230047252999839e+02
1.504631018824141186e+00 5.129582533787151988e+02
1.504731040828982458e+00 5.128936544880325528e+02
1.504831062833823285e+00 5.128292093277232198e+02
1.504931084838664335e+00 5.127649191674418034e+02
1.505031106843505384e+00 5.127007852719885932e+02
1.505131128848346656e+00 5.126368089012731843e+02
1.505231150853187705e+00 5.125729913102752562e+02
1.505331172858028754e+00 5.125093337490075101e+02
1.505431194862869804e+00 5.124458374624805401e+02
1.505531216867710631e+00 5.123825036906632704e+02
1.505631238872551680e+00 5.123193336684473707e+02
1.505731260877392952e+00 5.122563286256103083e+02
1.505831282882234001e+00 5.121934897867797645e+02
1.505931304887075051e+00 5.121308183713956623e+02
1.506031326891916322e+00 5.120683155936760613e+02
1.506131348896757371e+00 5.120059826625792994e+02
1.506231370901598199e+00 5.119438207817690909e+02
1.506331392906439248e+00 5.118818311495795115e+02
1.506431414911280298e+00 5.118200149589784473e+02
1.506531436916121347e+00 5.117583733975328641e+02
1.506631458920962618e+00 5.116969076473745872e+02
1.506731480925803668e+00 5.116356188851632396e+02
1.506831502930644717e+00 5.115745082820538414e+02
1.506931524935485545e+00 5.115135770036609983e+02
1.507031546940326816e+00 5.114528262100249094e+02
1.507131568945167865e+00 5.113922570555770335e+02
1.507231590950008915e+00 5.113318706891068359e+02
1.507331612954849964e+00 5.112716682537270572e+02
1.507431634959691014e+00 5.112116508868406299e+02
1.507531656964532285e+00 5.111518197201071985e+02
1.507631678969373112e+00 5.110921758794096377e+02
1.507731700974214162e+00 5.110327204848224483e+02
1.507831722979055211e+00 5.109734546505761728e+02
1.507931744983896483e+00 5.109143794850276663e+02
1.508031766988737532e+00 5.108554960906258202e+02
1.508131788993578581e+00 5.107968055638807527e+02
1.508231810998419409e+00 5.107383089953293620e+02
1.508331833003260458e+00 5.106800074695071316e+02
1.508431855008101508e+00 5.106219020649130016e+02
1.508531877012942779e+00 5.105639938539802074e+02
1.508631899017783828e+00 5.105062839030430837e+02
1.508731921022624878e+00 5.104487732723090403e+02
1.508831943027466149e+00 5.103914630158242858e+02
1.508931965032306977e+00 5.103343541814458035e+02
1.509031987037148026e+00 5.102774478108092353e+02
1.509132009041989075e+00 5.102207449393009142e+02
1.509232031046830125e+00 5.101642465960240997e+02
1.509332053051671174e+00 5.101079538037733982e+02
1.509432075056512446e+00 5.100518675790029874e+02
1.509532097061353495e+00 5.099959889317966031e+02
1.509632119066194322e+00 5.099403188658396857e+02
1.509732141071035372e+00 5.098848583783915274e+02
1.509832163075876643e+00 5.098296084602530414e+02
1.509932185080717693e+00 5.097745700957421491e+02
1.510032207085558742e+00 5.097197442626622887e+02
1.510132229090399791e+00 5.096651319322763811e+02
1.510232251095240841e+00 5.096107340692790331e+02
1.510332273100081668e+00 5.095565516317665242e+02
1.510432295104922940e+00 5.095025855712131602e+02
1.510532317109763989e+00 5.094488368324408611e+02
1.510632339114605038e+00 5.093953063535934689e+02
1.510732361119446310e+00 5.093419950661103712e+02
1.510832383124287359e+00 5.092889038946989331e+02
1.510932405129128409e+00 5.092360337573096558e+02
1.511032427133969236e+00 5.091833855651080398e+02
1.511132449138810285e+00 5.091309602224514492e+02
1.511232471143651335e+00 5.090787586268610312e+02
1.511332493148492606e+00 5.090267816689973870e+02
1.511432515153333656e+00 5.089750302326359019e+02
1.511532537158174705e+00 5.089235051946408817e+02
1.511632559163015976e+00 5.088722074249414504e+02
1.511732581167856804e+00 5.088211377865060285e+02
1.511832603172697853e+00 5.087702971353212433e+02
1.511932625177538903e+00 5.087196863203629391e+02
1.512032647182379952e+00 5.086693061835771914e+02
1.512132669187221001e+00 5.086191575598538748e+02
1.512232691192062273e+00 5.085692412770039255e+02
1.512332713196903322e+00 5.085195581557375704e+02
1.512432735201744149e+00 5.084701090096401117e+02
1.512532757206585199e+00 5.084208946451493034e+02
1.512632779211426470e+00 5.083719158615342621e+02
1.512732801216267520e+00 5.083231734508729005e+02
1.512832823221108569e+00 5.082746681980288486e+02
1.512932845225949618e+00 5.082264008806308766e+02
1.513032867230790668e+00 5.081783722690523746e+02
1.513132889235631495e+00 5.081305831263884443e+02
1.513232911240472767e+00 5.080830342084357198e+02
1.513332933245313816e+00 5.080357262636729843e+02
1.513432955250154865e+00 5.079886600332388866e+02
1.513532977254996137e+00 5.079418362509123881e+02
1.513632999259837186e+00 5.078952556430932077e+02
1.513733021264678236e+00 5.078489189287826093e+02
1.513833043269519063e+00 5.078028268195625969e+02
1.513933065274360112e+00 5.077569800195768721e+02
1.514033087279201162e+00 5.077113792255153157e+02
1.514133109284042433e+00 5.076660251265890906e+02
1.514233131288883483e+00 5.076209184045185339e+02
1.514333153293724532e+00 5.075760597335105331e+02
1.514433175298565804e+00 5.075314497802431219e+02
1.514533197303406631e+00 5.074870892038461534e+02
1.514633219308247680e+00 5.074429786558862929e+02
1.514733241313088730e+00 5.073991187803462140e+02
1.514833263317929779e+00 5.073555102136111827e+02
1.514933285322770828e+00 5.073121535844509822e+02
1.515033307327612100e+00 5.072690495140026883e+02
1.515133329332453149e+00 5.072261986157558340e+02
1.515233351337293977e+00 5.071836014955367773e+02
1.515333373342135026e+00 5.071412587514910797e+02
1.515433395346976297e+00 5.070991709740704891e+02
1.515533417351817347e+00 5.070573387460166259e+02
1.515633439356658396e+00 5.070157626423457486e+02
1.515733461361499446e+00 5.069744432303348844e+02
1.515833483366340495e+00 5.069333810695080160e+02
1.515933505371181322e+00 5.068925767116202223e+02
1.516033527376022594e+00 5.068520307006463668e+02
1.516133549380863643e+00 5.068117435727650673e+02
1.516233571385704693e+00 5.067717158563459066e+02
1.516333593390545964e+00 5.067319480719380635e+02
1.516433615395387013e+00 5.066924407322565003e+02
1.516533637400228063e+00 5.066531943421688311e+02
1.516633659405068890e+00 5.066142093986841246e+02
1.516733681409909940e+00 5.065754863909392043e+02
1.516833703414750989e+00 5.065370258001901789e+02
1.516933725419592260e+00 5.064988280997973789e+02
1.517033747424433310e+00 5.064608937552160910e+02
1.517133769429274359e+00 5.064232232239847917e+02
1.517233791434115631e+00 5.063858169557167344e+02
1.517333813438956458e+00 5.063486753920858519e+02
1.517433835443797507e+00 5.063117989668195946e+02
1.517533857448638557e+00 5.062751881056881302e+02
1.517633879453479606e+00 5.062388432264933158e+02
1.517733901458320656e+00 5.062027647390625020e+02
1.517833923463161927e+00 5.061669530452359709e+02
1.517933945468002976e+00 5.061314085388612511e+02
1.518033967472843804e+00 5.060961316057821477e+02
1.518133989477684853e+00 5.060611226238316931e+02
1.518234011482526125e+00 5.060263819628236774e+02
1.518334033487367174e+00 5.059919099845461119e+02
1.518434055492208223e+00 5.059577070427517356e+02
1.518534077497049273e+00 5.059237734831518196e+02
1.518634099501890322e+00 5.058901096434103124e+02
1.518734121506731150e+00 5.058567158531350856e+02
1.518834143511572421e+00 5.058235924338732161e+02
1.518934165516413470e+00 5.057907396991035966e+02
1.519034187521254520e+00 5.057581579542329564e+02
1.519134209526095791e+00 5.057258474965881305e+02
1.519234231530936841e+00 5.056938086154117400e+02
1.519334253535777890e+00 5.056620415918563936e+02
1.519434275540618717e+00 5.056305466989825845e+02
1.519534297545459767e+00 5.055993242017506191e+02
1.519634319550300816e+00 5.055683743570178876e+02
1.519734341555142088e+00 5.055376974135358523e+02
1.519834363559983137e+00 5.055072936119446467e+02
1.519934385564824186e+00 5.054771631847706885e+02
1.520034407569665458e+00 5.054473063564240078e+02
1.520134429574506285e+00 5.054177233431933018e+02
1.520234451579347335e+00 5.053884143532465032e+02
1.520334473584188384e+00 5.053593795866243568e+02
1.520434495589029433e+00 5.053306192352424659e+02
1.520534517593870483e+00 5.053021334828864042e+02
1.520634539598711754e+00 5.052739225052125107e+02
1.520734561603552804e+00 5.052459864697444232e+02
1.520834583608393631e+00 5.052183255358740439e+02
1.520934605613234680e+00 5.051909398548594936e+02
1.521034627618075952e+00 5.051638295698247703e+02
1.521134649622917001e+00 5.051369948157607723e+02
1.521234671627758051e+00 5.051104357195239913e+02
1.521334693632599100e+00 5.050841523998377056e+02
1.521434715637440149e+00 5.050581449672921508e+02
1.521534737642280977e+00 5.050324135243457704e+02
1.521634759647122248e+00 5.050069581653256705e+02
1.521734781651963297e+00 5.049817789764302916e+02
1.521834803656804347e+00 5.049568760357302608e+02
1.521934825661645618e+00 5.049322494131702115e+02
1.522034847666486668e+00 5.049078991705724775e+02
1.522134869671327717e+00 5.048838253616366956e+02
1.522234891676168544e+00 5.048600280319464559e+02
1.522334913681009594e+00 5.048365072189684497e+02
1.522434935685850643e+00 5.048132629520595174e+02
1.522534957690691915e+00 5.047902952524670468e+02
1.522634979695532964e+00 5.047676041333347712e+02
1.522735001700374013e+00 5.047451895997066913e+02
1.522835023705215285e+00 5.047230516485302587e+02
1.522935045710056112e+00 5.047011902686627423e+02
1.523035067714897162e+00 5.046796054408755481e+02
1.523135089719738211e+00 5.046582971378580851e+02
1.523235111724579260e+00 5.046372653242260640e+02
1.523335133729420310e+00 5.046165099565246237e+02
1.523435155734261581e+00 5.045960309832351527e+02
1.523535177739102631e+00 5.045758283447827353e+02
1.523635199743943458e+00 5.045559019735405855e+02
1.523735221748784507e+00 5.045362517938392557e+02
1.523835243753625779e+00 5.045168777219710137e+02
1.523935265758466828e+00 5.044977796662001310e+02
1.524035287763307878e+00 5.044789575267681698e+02
1.524135309768148927e+00 5.044604111959028501e+02
1.524235331772989976e+00 5.044421405578264057e+02
1.524335353777830804e+00 5.044241454887633154e+02
1.524435375782672075e+00 5.044064258569497952e+02
1.524535397787513125e+00 5.043889815226412452e+02
1.524635419792354174e+00 5.043718123381237888e+02
1.524735441797195445e+00 5.043549181477217189e+02
1.524835463802036495e+00 5.043382987878080712e+02
1.524935485806877544e+00 5.043219540868144577e+02
1.525035507811718372e+00 5.043058838652410714e+02
1.525135529816559421e+00 5.042900879356682822e+02
1.525235551821400470e+00 5.042745661027661868e+02
1.525335573826241742e+00 5.042593181633055792e+02
1.525435595831082791e+00 5.042443439061707409e+02
1.525535617835923841e+00 5.042296431123696721e+02
1.525635639840764668e+00 5.042152155550450061e+02
1.525735661845605939e+00 5.042010609994898687e+02
1.525835683850446989e+00 5.041871792031554378e+02
1.525935705855288038e+00 5.041735699156665760e+02
1.526035727860129088e+00 5.041602328788346199e+02
1.526135749864970137e+00 5.041471678266688059e+02
1.526235771869811408e+00 5.041343744853909357e+02
1.526335793874652236e+00 5.041218525734484501e+02
1.526435815879493285e+00 5.041096018015290952e+02
1.526535837884334335e+00 5.040976218725739955e+02
1.526635859889175606e+00 5.040859124817932297e+02
1.526735881894016655e+00 5.040744733166783362e+02
1.526835903898857705e+00 5.040633040570208436e+02
1.526935925903698754e+00 5.040524043749227872e+02
1.527035947908539582e+00 5.040417739348163195e+02
1.527135969913380631e+00 5.040314123934775807e+02
1.527235991918221902e+00 5.040213194000414205e+02
1.527336013923062952e+00 5.040114945960202704e+02
1.527436035927904001e+00 5.040019376153176722e+02
1.527536057932745273e+00 5.039926480842472643e+02
1.527636079937586322e+00 5.039836256215489811e+02
1.527736101942427149e+00 5.039748698384049703e+02
1.527836123947268199e+00 5.039663803384584639e+02
1.527936145952109248e+00 5.039581567178310593e+02
1.528036167956950298e+00 5.039501985651402265e+02
1.528136189961791569e+00 5.039425054615185786e+02
1.528236211966632618e+00 5.039350769806306403e+02
1.528336233971473668e+00 5.039279126886919471e+02
1.528436255976314495e+00 5.039210121444888841e+02
1.528536277981155767e+00 5.039143748993968757e+02
1.528636299985996816e+00 5.039080004974005078e+02
1.528736321990837865e+00 5.039018884751121163e+02
1.528836343995678915e+00 5.038960383617915681e+02
1.528936366000519964e+00 5.038904496793680323e+02
1.529036388005361236e+00 5.038851219424582268e+02
1.529136410010202063e+00 5.038800546583888718e+02
1.529236432015043112e+00 5.038752473272158454e+02
1.529336454019884162e+00 5.038706994417458986e+02
1.529436476024725433e+00 5.038664104875583689e+02
1.529536498029566483e+00 5.038623799430254735e+02
1.529636520034407532e+00 5.038586072793353878e+02
1.529736542039248581e+00 5.038550919605140166e+02
1.529836564044089409e+00 5.038518334434457415e+02
1.529936586048930458e+00 5.038488311778980915e+02
1.530036608053771729e+00 5.038460846065415808e+02
1.530136630058612779e+00 5.038435931649758004e+02
1.530236652063453828e+00 5.038413562817509046e+02
1.530336674068295100e+00 5.038393733783898369e+02
1.530436696073136149e+00 5.038376438694140802e+02
1.530536718077976976e+00 5.038361671623674738e+02
1.530636740082818026e+00 5.038349426578369048e+02
1.530736762087659075e+00 5.038339697494806160e+02
1.530836784092500125e+00 5.038332478240505452e+02
1.530936806097341396e+00 5.038327762614181893e+02
1.531036828102182445e+00 5.038325544345973412e+02
1.531136850107023495e+00 5.038325817097717163e+02
1.531236872111864322e+00 5.038328574463201335e+02
1.531336894116705594e+00 5.038333809968398214e+02
1.531436916121546643e+00 5.038341517071736462e+02
1.531536938126387692e+00 5.038351689164383629e+02
1.531636960131228742e+00 5.038364319570464431e+02
1.531736982136069791e+00 5.038379401547360317e+02
1.531837004140911063e+00 5.038396928285956733e+02
1.531937026145751890e+00 5.038416892910914271e+02
1.532037048150592939e+00 5.038439288480968798e+02
1.532137070155433989e+00 5.038464107989152012e+02
1.532237092160275260e+00 5.038491344363109192e+02
1.532337114165116310e+00 5.038520990465358409e+02
1.532437136169957359e+00 5.038553039093577013e+02
1.532537158174798408e+00 5.038587482980873347e+02
1.532637180179639236e+00 5.038624314796082899e+02
1.532737202184480285e+00 5.038663527144045133e+02
1.532837224189321557e+00 5.038705112565893955e+02
1.532937246194162606e+00 5.038749063539343638e+02
1.533037268199003655e+00 5.038795372478988384e+02
1.533137290203844927e+00 5.038844031736593934e+02
1.533237312208685976e+00 5.038895033601381783e+02
1.533337334213526804e+00 5.038948370300341821e+02
1.533437356218367853e+00 5.039004033998532464e+02
1.533537378223208902e+00 5.039062016799363732e+02
1.533637400228049952e+00 5.039122310744918991e+02
1.533737422232891223e+00 5.039184907816242003e+02
1.533837444237732273e+00 5.039249799933691065e+02
1.533937466242573322e+00 5.039316978957178890e+02
1.534037488247414149e+00 5.039386436686537536e+02
1.534137510252255421e+00 5.039458164861804335e+02
1.534237532257096470e+00 5.039532155163550442e+02
1.534337554261937520e+00 5.039608399213200869e+02
1.534437576266778569e+00 5.039686888573333476e+02
1.534537598271619618e+00 5.039767614748022879e+02
1.534637620276460890e+00 5.039850569183134894e+02
1.534737642281301717e+00 5.039935743266692612e+02
1.534837664286142767e+00 5.040023128329166866e+02
1.534937686290983816e+00 5.040112715643804790e+02
1.535037708295825087e+00 5.040204496426995320e+02
1.535137730300666137e+00 5.040298461838550566e+02
1.535237752305507186e+00 5.040394602982084393e+02
1.535337774310348236e+00 5.040492910905312556e+02
1.535437796315189063e+00 5.040593376600426154e+02
1.535537818320030112e+00 5.040695991004376424e+02
1.535637840324871384e+00 5.040800744999282301e+02
1.535737862329712433e+00 5.040907629412715778e+02
1.535837884334553483e+00 5.041016635018074794e+02
1.535937906339394754e+00 5.041127752534924866e+02
1.536037928344235803e+00 5.041240972629334465e+02
1.536137950349076631e+00 5.041356285914241653e+02
1.536237972353917680e+00 5.041473682949789463e+02
1.536337994358758730e+00 5.041593154243682307e+02
1.536438016363599779e+00 5.041714690251545790e+02
1.536538038368441050e+00 5.041838281377278008e+02
1.536638060373282100e+00 5.041963917973404250e+02
1.536738082378123149e+00 5.042091590341427718e+02
1.536838104382963976e+00 5.042221288732217772e+02
1.536938126387805248e+00 5.042353003346335072e+02
1.537038148392646297e+00 5.042486724334417545e+02
1.537138170397487347e+00 5.042622441797545889e+02
1.537238192402328396e+00 5.042760145787599981e+02
1.537338214407169446e+00 5.042899826307625517e+02
1.537438236412010717e+00 5.043041473312210314e+02
1.537538258416851544e+00 5.043185076707856069e+02
1.537638280421692594e+00 5.043330626353342723e+02
1.537738302426533643e+00 5.043478112060114995e+02
1.537838324431374915e+00 5.043627523592630837e+02
1.537938346436215964e+00 5.043778850668778091e+02
1.538038368441057013e+00 5.043932082960214984e+02
1.538138390445898063e+00 5.044087210092766895e+02
1.538238412450738890e+00 5.044244221646809478e+02
1.538338434455579939e+00 5.044403107157637010e+02
1.538438456460421211e+00 5.044563856115871658e+02
1.538538478465262260e+00 5.044726457967807391e+02
1.538638500470103310e+00 5.044890902115834592e+02
1.538738522474944581e+00 5.045057177918814091e+02
1.538838544479785631e+00 5.045225274692452331e+02
1.538938566484626458e+00 5.045395181709722010e+02
1.539038588489467507e+00 5.045566888201213942e+02
1.539138610494308557e+00 5.045740383355562244e+02
1.539238632499149606e+00 5.045915656319824620e+02
1.539338654503990877e+00 5.046092696199873444e+02
1.539438676508831927e+00 5.046271492060803894e+02
1.539538698513672976e+00 5.046452032927322762e+02
1.539638720518513804e+00 5.046634307784141811e+02
1.539738742523355075e+00 5.046818305576391026e+02
1.539838764528196124e+00 5.047004015210011403e+02
1.539938786533037174e+00 5.047191425552163651e+02
1.540038808537878223e+00 5.047380525431611318e+02
1.540138830542719273e+00 5.047571303639155644e+02
1.540238852547560544e+00 5.047763748928018117e+02
1.540338874552401371e+00 5.047957850014249175e+02
1.540438896557242421e+00 5.048153595577151691e+02
1.540538918562083470e+00 5.048350974259667510e+02
1.540638940566924742e+00 5.048549974668804907e+02
1.540738962571765791e+00 5.048750585376039908e+02
1.540838984576606840e+00 5.048952794917727260e+02
1.540939006581447890e+00 5.049156591795519944e+02
1.541039028586288717e+00 5.049361964476779008e+02
1.541139050591129767e+00 5.049568901394981140e+02
1.541239072595971038e+00 5.049777390950144991e+02
1.541339094600812087e+00 5.049987421509256365e+02
1.541439116605653137e+00 5.050198981406643952e+02
1.541539138610494408e+00 5.050412058944458522e+02
1.541639160615335458e+00 5.050626642393035581e+02
1.541739182620176285e+00 5.050842719991355807e+02
1.541839204625017334e+00 5.051060279947440677e+02
1.541939226629858384e+00 5.051279310438785615e+02
1.542039248634699433e+00 5.051499799612785182e+02
1.542139270639540705e+00 5.051721735587151443e+02
1.542239292644381754e+00 5.051945106450336311e+02
1.542339314649222803e+00 5.052169900261952762e+02
1.542439336654063631e+00 5.052396105053218207e+02
1.542539358658904902e+00 5.052623708827368318e+02
1.542639380663745952e+00 5.052852699560078804e+02
1.542739402668587001e+00 5.053083065199903672e+02
1.542839424673428050e+00 5.053314793668702691e+02
1.542939446678269100e+00 5.053547872862068289e+02
1.543039468683109927e+00 5.053782290649746756e+02
1.543139490687951199e+00 5.054018034876094134e+02
1.543239512692792248e+00 5.054255093360488331e+02
1.543339534697633297e+00 5.054493453897750896e+02
1.543439556702474569e+00 5.054733104258602907e+02
1.543539578707315618e+00 5.054974032190094704e+02
1.543639600712156668e+00 5.055216225416026532e+02
1.543739622716997495e+00 5.055459671637386236e+02
1.543839644721838544e+00 5.055704358532794913e+02
1.543939666726679594e+00 5.055950273758933804e+02
1.544039688731520865e+00 5.056197404950986538e+02
1.544139710736361915e+00 5.056445739723060342e+02
1.544239732741202964e+00 5.056695265668640218e+02
1.544339754746044235e+00 5.056945970361018681e+02
1.544439776750885063e+00 5.057197841353739136e+02
1.544539798755726112e+00 5.057450866181027891e+02
1.544639820760567162e+00 5.057705032358234121e+02
1.544739842765408211e+00 5.057960327382268702e+02
1.544839864770249260e+00 5.058216738732049862e+02
1.544939886775090532e+00 5.058474253868934625e+02
1.545039908779931581e+00 5.058732860237166733e+02
1.545139930784772409e+00 5.058992545264312639e+02
1.545239952789613458e+00 5.059253296361703747e+02
1.545339974794454729e+00 5.059515100924878084e+02
1.545439996799295779e+00 5.059777946334025955e+02
1.545540018804136828e+00 5.060041819954415132e+02
1.545640040808977878e+00 5.060306709136866630e+02
1.545740062813818927e+00 5.060572601218159434e+02
1.545840084818659754e+00 5.060839483521489228e+02
1.545940106823501026e+00 5.061107343356927686e+02
1.546040128828342075e+00 5.061376168021839703e+02
1.546140150833183124e+00 5.061645944801338146e+02
1.546240172838024396e+00 5.061916660968724955e+02
1.546340194842865445e+00 5.062188303785947028e+02
1.546440216847706495e+00 5.062460860504018569e+02
1.546540238852547322e+00 5.062734318363475268e+02
1.546640260857388371e+00 5.063008664594836432e+02
1.546740282862229421e+00 5.063283886419006308e+02
1.546840304867070692e+00 5.063559971047767476e+02
1.546940326871911742e+00 5.063836905684183307e+02
1.547040348876752791e+00 5.064114677523077717e+02
1.547140370881594063e+00 5.064393273751456377e+02
1.547240392886434890e+00 5.064672681548951232e+02
1.547340414891275939e+00 5.064952888088276950e+02
1.547440436896116989e+00 5.065233880535673165e+02
1.547540458900958038e+00 5.065515646051337626e+02
1.547640480905799087e+00 5.065798171789887192e+02
1.547740502910640359e+00 5.066081444900788142e+02
1.547840524915481408e+00 5.066365452528807509e+02
1.547940546920322236e+00 5.066650181814451912e+02
1.548040568925163285e+00 5.066935619894426281e+02
1.548140590930004556e+00 5.067221753902048249e+02
1.548240612934845606e+00 5.067508570967730179e+02
1.548340634939686655e+00 5.067796058219391853e+02
1.548440656944527705e+00 5.068084202782914645e+02
1.548540678949368754e+00 5.068372991782588883e+02
1.548640700954209581e+00 5.068662412341552681e+02
1.548740722959050853e+00 5.068952451582240997e+02
1.548840744963891902e+00 5.069243096626814804e+02
1.548940766968732952e+00 5.069534334597605607e+02
1.549040788973574223e+00 5.069826152617586104e+02
1.549140810978415272e+00 5.070118537810764110e+02
1.549240832983256322e+00 5.070411477302666867e+02
1.549340854988097149e+00 5.070704958220754293e+02
1.549440876992938199e+00 5.070998967694876569e+02
1.549540898997779248e+00 5.071293492857708429e+02
1.549640921002620519e+00 5.071588520845178323e+02
1.549740943007461569e+00 5.071884038796940786e+02
1.549840965012302618e+00 5.072180033856778891e+02
1.549940987017143890e+00 5.072476493173058998e+02
1.550041009021984717e+00 5.072773403899175264e+02
1.550141031026825766e+00 5.073070753193982227e+02
1.550241053031666816e+00 5.073368528222224541e+02
1.550341075036507865e+00 5.073666716154992855e+02
1.550441097041348915e+00 5.073965304170135369e+02
1.550541119046190186e+00 5.074264279452729625e+02
1.550641141051031235e+00 5.074563629195474164e+02
1.550741163055872063e+00 5.074863340599159756e+02
1.550841185060713112e+00 5.075163400873094020e+02
1.550941207065554384e+00 5.075463797235523771e+02
1.551041229070395433e+00 5.075764516914080104e+02
1.551141251075236482e+00 5.076065547146216659e+02
1.551241273080077532e+00 5.076366875179621729e+02
1.551341295084918581e+00 5.076668488272673585e+02
1.551441317089759409e+00 5.076970373694854857e+02
1.551541339094600680e+00 5.077272518727190800e+02
1.551641361099441729e+00 5.077574910662682441e+02
1.551741383104282779e+00 5.077877536806706757e+02
1.551841405109124050e+00 5.078180384477511780e+02
1.551941427113965100e+00 5.078483441006555950e+02
1.552041449118806149e+00 5.078786693739011753e+02
1.552141471123646976e+00 5.079090130034147705e+02
1.552241493128488026e+00 5.079393737265776849e+02
1.552341515133329075e+00 5.079697502822657498e+02
1.552441537138170347e+00 5.080001414108942868e+02
1.552541559143011396e+00 5.080305458544586372e+02
1.552641581147852445e+00 5.080609623565782158e+02
1.552741603152693717e+00 5.080913896625356756e+02
1.552841625157534544e+00 5.081218265193227239e+02
1.552941647162375594e+00 5.081522716756788327e+02
1.553041669167216643e+00 5.081827238821346100e+02
1.553141691172057692e+00 5.082131818910552283e+02
1.553241713176898742e+00 5.082436444566775435e+02
1.553341735181740013e+00 5.082741103351571610e+02
1.553441757186581063e+00 5.083045782846057818e+02
1.553541779191421890e+00 5.083350470651355408e+02
1.553641801196262939e+00 5.083655154388977166e+02
1.553741823201104211e+00 5.083959821701270130e+02
1.553841845205945260e+00 5.084264460251789615e+02
1.553941867210786310e+00 5.084569057725757375e+02
1.554041889215627359e+00 5.084873601830408916e+02
1.554141911220468408e+00 5.085178080295473251e+02
1.554241933225309236e+00 5.085482480873521354e+02
1.554341955230150507e+00 5.085786791340404420e+02
1.554441977234991557e+00 5.086090999495645519e+02
1.554541999239832606e+00 5.086395093162856256e+02
1.554642021244673877e+00 5.086699060190119326e+02
1.554742043249514927e+00 5.087002888450415412e+02
1.554842065254355976e+00 5.087306565842005170e+02
1.554942087259196803e+00 5.087610080288836798e+02
1.555042109264037853e+00 5.087913419740943368e+02
1.555142131268878902e+00 5.088216572174835619e+02
1.555242153273720174e+00 5.088519525593912363e+02
1.555342175278561223e+00 5.088822268028843609e+02
1.555442197283402272e+00 5.089124787537953125e+02
1.555542219288243544e+00 5.089427072207643050e+02
1.555642241293084371e+00 5.089729110152749740e+02
1.555742263297925421e+00 5.090030889516959292e+02
1.555842285302766470e+00 5.090332398473190096e+02
1.555942307307607519e+00 5.090633625223972558e+02
1.556042329312448569e+00 5.090934558001839036e+02
1.556142351317289840e+00 5.091235185069713793e+02
1.556242373322130890e+00 5.091535494721290434e+02
1.556342395326971717e+00 5.091835475281416734e+02
1.556442417331812766e+00 5.092135115106484591e+02
1.556542439336654038e+00 5.092434402584779036e+02
1.556642461341495087e+00 5.092733326136901724e+02
1.556742483346336137e+00 5.093031874216111419e+02
1.556842505351177186e+00 5.093330035308708830e+02
1.556942527356018235e+00 5.093627797934420869e+02
1.557042549360859063e+00 5.093925150646765019e+02
1.557142571365700334e+00 5.094222082033413699e+02
1.557242593370541384e+00 5.094518580716584211e+02
1.557342615375382433e+00 5.094814635353380936e+02
1.557442637380223704e+00 5.095110234636183009e+02
1.557542659385064754e+00 5.095405367293001859e+02
1.557642681389905803e+00 5.095700022087839898e+02
1.557742703394746631e+00 5.095994187821066816e+02
1.557842725399587680e+00 5.096287853329757809e+02
1.557942747404428729e+00 5.096581007488077830e+02
1.558042769409270001e+00 5.096873639207630049e+02
1.558142791414111050e+00 5.097165737437794633e+02
1.558242813418952100e+00 5.097457291166110736e+02
1.558342835423793371e+00 5.097748289418613581e+02
1.558442857428634198e+00 5.098038721260185753e+02
1.558542879433475248e+00 5.098328575794909057e+02
1.558642901438316297e+00 5.098617842166429455e+02
1.558742923443157347e+00 5.098906509558262314e+02
1.558842945447998396e+00 5.099194567194178376e+02
1.558942967452839667e+00 5.099482004338530032e+02
1.559042989457680717e+00 5.099768810296595234e+02
1.559143011462521544e+00 5.100054974414908315e+02
1.559243033467362594e+00 5.100340486081607310e+02
1.559343055472203865e+00 5.100625334726778419e+02
1.559443077477044914e+00 5.100909509822764676e+02
1.559543099481885964e+00 5.101193000884528601e+02
1.559643121486727013e+00 5.101475797469965414e+02
1.559743143491568063e+00 5.101757889180234997e+02
1.559843165496408890e+00 5.102039265660102387e+02
1.559943187501250161e+00 5.102319916598231657e+02
1.560043209506091211e+00 5.102599831727552555e+02
1.560143231510932260e+00 5.102879000825548701e+02
1.560243253515773532e+00 5.103157413714602626e+02
1.560343275520614581e+00 5.103435060262289085e+02
1.560443297525455408e+00 5.103711930381713273e+02
1.560543319530296458e+00 5.103988014031818921e+02
1.560643341535137507e+00 5.104263301217706044e+02
1.560743363539978557e+00 5.104537781990927101e+02
1.560843385544819828e+00 5.104811446449817254e+02
1.560943407549660877e+00 5.105084284739779150e+02
1.561043429554501927e+00 5.105356287053612050e+02
1.561143451559342754e+00 5.105627443631802862e+02
1.561243473564184026e+00 5.105897744762829120e+02
1.561343495569025075e+00 5.106167180783453432e+02
1.561443517573866124e+00 5.106435742079046918e+02
1.561543539578707174e+00 5.106703419083843301e+02
1.561643561583548223e+00 5.106970202281268598e+02
1.561743583588389495e+00 5.107236082204221361e+02
1.561843605593230322e+00 5.107501049435359732e+02
1.561943627598071371e+00 5.107765094607399874e+02
1.562043649602912421e+00 5.108028208403384838e+02
1.562143671607753692e+00 5.108290381556984130e+02
1.562243693612594742e+00 5.108551604852776791e+02
1.562343715617435791e+00 5.108811869126516285e+02
1.562443737622276840e+00 5.109071165265426089e+02
1.562543759627117668e+00 5.109329484208466283e+02
1.562643781631958717e+00 5.109586816946610384e+02
1.562743803636799989e+00 5.109843154523118187e+02
1.562843825641641038e+00 5.110098488033797253e+02
1.562943847646482087e+00 5.110352808627288255e+02
1.563043869651323359e+00 5.110606107505329874e+02
1.563143891656164408e+00 5.110858375922985033e+02
1.563243913661005235e+00 5.111109605188961496e+02
1.563343935665846285e+00 5.111359786665822753e+02
1.563443957670687334e+00 5.111608911770276222e+02
1.563543979675528384e+00 5.111856971973409713e+02
1.563644001680369655e+00 5.112103958800958594e+02
1.563744023685210704e+00 5.112349863833549080e+02
1.563844045690051754e+00 5.112594678706943228e+02
1.563944067694892581e+00 5.112838395112298713e+02
1.564044089699733853e+00 5.113081004796397337e+02
1.564144111704574902e+00 5.113322499561909353e+02
1.564244133709415951e+00 5.113562871267608898e+02
1.564344155714257001e+00 5.113802111828635475e+02
1.564444177719098050e+00 5.114040213216707116e+02
1.564544199723939322e+00 5.114277167460376745e+02
1.564644221728780149e+00 5.114512966645241363e+02
1.564744243733621198e+00 5.114747602914203526e+02
1.564844265738462248e+00 5.114981068467649266e+02
1.564944287743303519e+00 5.115213355563721507e+02
1.565044309748144569e+00 5.115444456518524134e+02
1.565144331752985618e+00 5.115674363706331178e+02
1.565244353757826667e+00 5.115903069559818732e+02
1.565344375762667495e+00 5.116130566570285509e+02
1.565444397767508544e+00 5.116356847287848382e+02
1.565544419772349816e+00 5.116581904321668617e+02
1.565644441777190865e+00 5.116805730340146852e+02
1.565744463782031914e+00 5.117028318071162403e+02
1.565844485786873186e+00 5.117249660302227880e+02
1.565944507791714235e+00 5.117469749880735890e+02
1.566044529796555063e+00 5.117688579714143202e+02
1.566144551801396112e+00 5.117906142770152087e+02
1.566244573806237161e+00 5.118122432076932000e+02
1.566344595811078211e+00 5.118337440723295231e+02
1.566444617815919482e+00 5.118551161858898695e+02
1.566544639820760532e+00 5.118763588694426971e+02
1.566644661825601581e+00 5.118974714501773633e+02
1.566744683830442408e+00 5.119184532614231671e+02
1.566844705835283680e+00 5.119393036426676531e+02
1.566944727840124729e+00 5.119600219395727549e+02
1.567044749844965779e+00 5.119806075039962820e+02
1.567144771849806828e+00 5.120010596940049936e+02
1.567244793854647877e+00 5.120213778738949486e+02
1.567344815859489149e+00 5.120415614142051481e+02
1.567444837864329976e+00 5.120616096917390223e+02
1.567544859869171026e+00 5.120815220895766515e+02
1.567644881874012075e+00 5.121012979970922743e+02
1.567744903878853346e+00 5.121209368099722496e+02
1.567844925883694396e+00 5.121404379302272218e+02
1.567944947888535445e+00 5.121598007662100827e+02
1.568044969893376495e+00 5.121790247326315466e+02
1.568144991898217322e+00 5.121981092505736797e+02
1.568245013903058371e+00 5.122170537475051333e+02
1.568345035907899643e+00 5.122358576572969469e+02
1.568445057912740692e+00 5.122545204202343712e+02
1.568545079917581742e+00 5.122730414830334666e+02
1.568645101922423013e+00 5.122914202988534953e+02
1.568745123927264062e+00 5.123096563273107904e+02
1.568845145932104890e+00 5.123277490344926264e+02
1.568945167936945939e+00 5.123456978929685874e+02
1.569045189941786989e+00 5.123635023818065974e+02
1.569145211946628038e+00 5.123811619865814464e+02
1.569245233951469309e+00 5.123986761993910477e+02
1.569345255956310359e+00 5.124160445188655331e+02
1.569445277961151408e+00 5.124332664501810086e+02
1.569545299965992236e+00 5.124503415050700141e+02
1.569645321970833507e+00 5.124672692018341422e+02
1.569745343975674556e+00 5.124840490653533607e+02
1.569845365980515606e+00 5.125006806270988591e+02
1.569945387985356655e+00 5.125171634251421438e+02
1.570045409990197705e+00 5.125334970041662928e+02
1.570145431995038976e+00 5.125496809154753919e+02
1.570245453999879803e+00 5.125657147170054486e+02
1.570345476004720853e+00 5.125815979733328049e+02
1.570445498009561902e+00 5.125973302556835733e+02
1.570545520014403174e+00 5.126129111419456876e+02
1.570645542019244223e+00 5.126283402166718588e+02
1.570745564024085272e+00 5.126436170710946953e+02
1.570845586028926322e+00 5.126587413031305687e+02
1.570945608033767149e+00 5.126737125173900722e+02
1.571045630038608198e+00 5.126885303251840469e+02
1.571145652043449470e+00 5.127031943445334718e+02
1.571245674048290519e+00 5.127177042001753762e+02
1.571345696053131569e+00 5.127320595235695464e+02
1.571445718057972840e+00 5.127462599529063709e+02
1.571545740062813890e+00 5.127603051331147981e+02
1.571645762067654717e+00 5.127741947158646099e+02
1.571745784072495766e+00 5.127879283595769948e+02
1.571845806077336816e+00 5.128015057294269354e+02
1.571945828082177865e+00 5.128149264973517347e+02
1.572045850087019137e+00 5.128281903420539720e+02
1.572145872091860186e+00 5.128412969490093474e+02
1.572245894096701235e+00 5.128542460104677048e+02
1.572345916101542063e+00 5.128670372254614449e+02
1.572445938106383334e+00 5.128796702998073442e+02
1.572545960111224383e+00 5.128921449461121256e+02
1.572645982116065433e+00 5.129044608837759824e+02
1.572746004120906482e+00 5.129166178389955348e+02
1.572846026125747532e+00 5.129286155447671263e+02
1.572946048130588803e+00 5.129404537408919396e+02
1.573046070135429630e+00 5.129521321739763380e+02
1.573146092140270680e+00 5.129636505974356169e+02
1.573246114145111729e+00 5.129750087714959363e+02
1.573346136149953001e+00 5.129862064631978456e+02
1.573446158154794050e+00 5.129972434463957143e+02
1.573546180159635099e+00 5.130081195017619393e+02
1.573646202164476149e+00 5.130188344167848982e+02
1.573746224169316976e+00 5.130293879857738375e+02
1.573846246174158026e+00 5.130397800098580774e+02
1.573946268178999297e+00 5.130500102969871250e+02
1.574046290183840346e+00 5.130600786619293103e+02
1.574146312188681396e+00 5.130699849262780390e+02
1.574246334193522667e+00 5.130797289184440615e+02
1.574346356198363717e+00 5.130893104736604755e+02
1.574446378203204544e+00 5.130987294339787468e+02
1.574546400208045593e+00 5.131079856482704145e+02
1.574646422212886643e+00 5.131170789722240215e+02
1.574746444217727692e+00 5.131260092683446601e+02
1.574846466222568964e+00 5.131347764059509018e+02
1.574946488227410013e+00 5.131433802611755937e+02
1.575046510232251062e+00 5.131518207169613106e+02
1.575146532237091890e+00 5.131600976630581954e+02
1.575246554241933161e+00 5.131682109960230491e+02
1.575346576246774211e+00 5.131761606192137606e+02
1.575446598251615260e+00 5.131839464427882831e+02
1.575546620256456309e+00 5.131915683837008828e+02
1.575646642261297359e+00 5.131990263656971365e+02
1.575746664266138630e+00 5.132063203193115442e+02
1.575846686270979458e+00 5.132134501818627541e+02
1.575946708275820507e+00 5.132204158974486745e+02
1.576046730280661556e+00 5.132272174169431764e+02
1.576146752285502828e+00 5.132338546979897274e+02
1.576246774290343877e+00 5.132403277049975259e+02
1.576346796295184927e+00 5.132466364091344531e+02
1.576446818300025976e+00 5.132527807883230935e+02
1.576546840304866803e+00 5.132587608272345960e+02
1.576646862309707853e+00 5.132645765172812844e+02
1.576746884314549124e+00 5.132702278566115410e+02
1.576846906319390174e+00 5.132757148501032134e+02
1.576946928324231223e+00 5.132810375093550874e+02
1.577046950329072494e+00 5.132861958526829085e+02
1.577146972333913544e+00 5.132911899051090359e+02
1.577246994338754371e+00 5.132960196983545984e+02
1.577347016343595421e+00 5.133006852708365386e+02
1.577447038348436470e+00 5.133051866676526060e+02
1.577547060353277519e+00 5.133095239405781740e+02
1.577647082358118791e+00 5.133136971480558941e+02
1.577747104362959840e+00 5.133177063551862602e+02
1.577847126367800668e+00 5.133215516337202189e+02
1.577947148372641717e+00 5.133252330620470048e+02
1.578047170377482988e+00 5.133287507251902753e+02
1.578147192382324038e+00 5.133321047147898071e+02
1.578247214387165087e+00 5.133352951291007003e+02
1.578347236392006137e+00 5.133383220729753020e+02
1.578447258396847186e+00 5.133411856578586594e+02
1.578547280401688013e+00 5.133438860017735124e+02
1.578647302406529285e+00 5.133464232293130181e+02
1.578747324411370334e+00 5.133487974716257440e+02
1.578847346416211384e+00 5.133510088664077102e+02
1.578947368421052655e+00 5.133530575578881781e+02
1.579047390425893704e+00 5.133549436968194186e+02
1.579147412430734754e+00 5.133566674404636387e+02
1.579247434435575581e+00 5.133582289525810438e+02
1.579347456440416630e+00 5.133596284034172186e+02
1.579447478445257680e+00 5.133608659696903942e+02
1.579547500450098951e+00 5.133619418345782606e+02
1.579647522454940001e+00 5.133628561877040966e+02
1.579747544459781050e+00 5.133636092251232412e+02
1.579847566464622322e+00 5.133642011493125210e+02
1.579947588469463149e+00 5.133646321691506955e+02
1.580047610474304198e+00 5.133649024999087942e+02
1.580147632479145248e+00 5.133650123632337454e+02
1.580247654483986297e+00 5.133649619871343930e+02
1.580347676488827346e+00 5.133647516059659210e+02
1.580447698493668618e+00 5.133643814604148474e+02
1.580547720498509667e+00 5.133638517974845854e+02
1.580647742503350495e+00 5.133631628704791865e+02
1.580747764508191544e+00 5.133623149389866285e+02
1.580847786513032815e+00 5.133613082688656277e+02
1.580947808517873865e+00 5.133601431322255166e+02
1.581047830522714914e+00 5.133588198074133970e+02
1.581147852527555964e+00 5.133573385789950407e+02
1.581247874532397013e+00 5.133556997377394282e+02
1.581347896537237840e+00 5.133539035806008997e+02
1.581447918542079112e+00 5.133519504107006242e+02
1.581547940546920161e+00 5.133498405373134119e+02
1.581647962551761211e+00 5.133475742758444085e+02
1.581747984556602482e+00 5.133451519478138607e+02
1.581848006561443531e+00 5.133425738808401775e+02
1.581948028566284581e+00 5.133398404086187838e+02
1.582048050571125408e+00 5.133369518709051817e+02
1.582148072575966458e+00 5.133339086134952822e+02
1.582248094580807507e+00 5.133307109882071018e+02
1.582348116585648778e+00 5.133273593528609808e+02
1.582448138590489828e+00 5.133238540712602571e+02
1.582548160595330877e+00 5.133201955131711429e+02
1.582648182600172149e+00 5.133163840543051037e+02
1.582748204605012976e+00 5.133124200762938472e+02
1.582848226609854025e+00 5.133083039666743161e+02
1.582948248614695075e+00 5.133040361188654970e+02
1.583048270619536124e+00 5.132996169321475008e+02
1.583148292624377174e+00 5.132950468116412139e+02
1.583248314629218445e+00 5.132903261682882885e+02
1.583348336634059494e+00 5.132854554188272687e+02
1.583448358638900322e+00 5.132804349857744910e+02
1.583548380643741371e+00 5.132752652974014609e+02
1.583648402648582643e+00 5.132699467877106372e+02
1.583748424653423692e+00 5.132644798964182655e+02
1.583848446658264741e+00 5.132588650689275482e+02
1.583948468663105791e+00 5.132531027563080670e+02
1.584048490667946840e+00 5.132471934152733866e+02
1.584148512672787668e+00 5.132411375081558162e+02
1.584248534677628939e+00 5.132349355028866285e+02
1.584348556682469988e+00 5.132285878729702517e+02
1.584448578687311038e+00 5.132220950974613061e+02
1.584548600692152309e+00 5.132154576609417518e+02
1.584648622696993359e+00 5.132086760534963332e+02
1.584748644701834408e+00 5.132017507706866581e+02
1.584848666706675235e+00 5.131946823135326667e+02
1.584948688711516285e+00 5.131874711884802309e+02
1.585048710716357334e+00 5.131801179073829644e+02
1.585148732721198606e+00 5.131726229874744831e+02
1.585248754726039655e+00 5.131649869513435078e+02
1.585348776730880704e+00 5.131572103269093077e+02
1.585448798735721976e+00 5.131492936473955524e+02
1.585548820740562803e+00 5.131412374513063241e+02
1.585648842745403853e+00 5.131330422823982644e+02
1.585748864750244902e+00 5.131247086896556766e+02
1.585848886755085951e+00 5.131162372272650600e+02
1.585948908759927001e+00 5.131076284545877115e+02
1.586048930764768272e+00 5.130988829361335775e+02
1.586148952769609322e+00 5.130900012415347646e+02
1.586248974774450149e+00 5.130809839455190513e+02
1.586348996779291198e+00 5.130718316278828297e+02
1.586449018784132470e+00 5.130625448734622296e+02
1.586549040788973519e+00 5.130531242721084482e+02
1.586649062793814569e+00 5.130435704186589874e+02
1.586749084798655618e+00 5.130338839129095732e+02
1.586849106803496667e+00 5.130240653595868707e+02
1.586949128808337495e+00 5.130141153683205175e+02
1.587049150813178766e+00 5.130040345536149289e+02
1.587149172818019816e+00 5.129938235348203079e+02
1.587249194822860865e+00 5.129834829361053607e+02
1.587349216827702136e+00 5.129730133864270556e+02
1.587449238832543186e+00 5.129624155195044750e+02
1.587549260837384235e+00 5.129516899737859603e+02
1.587649282842225062e+00 5.129408373924236457e+02
1.587749304847066112e+00 5.129298584232415124e+02
1.587849326851907161e+00 5.129187537187077623e+02
1.587949348856748433e+00 5.129075239359042371e+02
1.588049370861589482e+00 5.128961697364976544e+02
1.588149392866430532e+00 5.128846917867074353e+02
1.588249414871271803e+00 5.128730907572780779e+02
1.588349436876112630e+00 5.128613673234481212e+02
1.588449458880953680e+00 5.128495221649194491e+02
1.588549480885794729e+00 5.128375559658272778e+02
1.588649502890635778e+00 5.128254694147090049e+02
1.588749524895476828e+00 5.128132632044730599e+02
1.588849546900318099e+00 5.128009380323700270e+02
1.588949568905159149e+00 5.127884945999581987e+02
1.589049590909999976e+00 5.127759336130756083e+02
1.589149612914841025e+00 5.127632557818076293e+02
1.589249634919682297e+00 5.127504618204532107e+02
1.589349656924523346e+00 5.127375524474964550e+02
1.589449678929364396e+00 5.127245283855736488e+02
1.589549700934205445e+00 5.127113903614405217e+02
1.589649722939046494e+00 5.126981391059412090e+02
1.589749744943887322e+00 5.126847753539758514e+02
1.589849766948728593e+00 5.126712998444672849e+02
1.589949788953569643e+00 5.126577133203310268e+02
1.590049810958410692e+00 5.126440165284390105e+02
1.590149832963251963e+00 5.126302102195915040e+02
1.590249854968093013e+00 5.126162951484793666e+02
1.590349876972934062e+00 5.126022720736548308e+02
1.590449898977774890e+00 5.125881417574972829e+02
1.590549920982615939e+00 5.125739049661784748e+02
1.590649942987456988e+00 5.125595624696320556e+02
1.590749964992298260e+00 5.125451150415176471e+02
1.590849986997139309e+00 5.125305634591894659e+02
1.590950009001980359e+00 5.125159085036596025e+02
1.591050031006821630e+00 5.125011509595677808e+02
1.591150053011662457e+00 5.124862916151450918e+02
1.591250075016503507e+00 5.124713312621803425e+02
1.591350097021344556e+00 5.124562706959869729e+02
1.591450119026185606e+00 5.124411107153673584e+02
1.591550141031026655e+00 5.124258521225791583e+02
1.591650163035867926e+00 5.124104957233012101e+02
1.591750185040708976e+00 5.123950423265982863e+02
1.591850207045549803e+00 5.123794927448875569e+02
1.591950229050390853e+00 5.123638477939008453e+02
1.592050251055232124e+00 5.123481082926546151e+02
1.592150273060073173e+00 5.123322750634104068e+02
1.592250295064914223e+00 5.123163489316416417e+02
1.592350317069755272e+00 5.123003307259992880e+02
1.592450339074596322e+00 5.122842212782750266e+02
1.592550361079437149e+00 5.122680214233666902e+02
1.592650383084278420e+00 5.122517319992425655e+02
1.592750405089119470e+00 5.122353538469062642e+02
1.592850427093960519e+00 5.122188878103610250e+02
1.592950449098801791e+00 5.122023347365718564e+02
1.593050471103642840e+00 5.121856954754337039e+02
1.593150493108483889e+00 5.121689708797321146e+02
1.593250515113324717e+00 5.121521618051082214e+02
1.593350537118165766e+00 5.121352691100248649e+02
1.593450559123006816e+00 5.121182936557255516e+02
1.593550581127848087e+00 5.121012363062030772e+02
1.593650603132689136e+00 5.120840979281606451e+02
1.593750625137530186e+00 5.120668793909767373e+02
1.593850647142371457e+00 5.120495815666662338e+02
1.593950669147212285e+00 5.120322053298473293e+02
1.594050691152053334e+00 5.120147515577023114e+02
1.594150713156894383e+00 5.119972211299407832e+02
1.594250735161735433e+00 5.119796149287659546e+02
1.594350757166576482e+00 5.119619338388332039e+02
1.594450779171417754e+00 5.119441787472171654e+02
1.594550801176258803e+00 5.119263505433721093e+02
1.594650823181099630e+00 5.119084501190969831e+02
1.594750845185940680e+00 5.118904783684947120e+02
1.594850867190781951e+00 5.118724361879407070e+02
1.594950889195623001e+00 5.118543244760401194e+02
1.595050911200464050e+00 5.118361441335941322e+02
1.595150933205305099e+00 5.118178960635602834e+02
1.595250955210145927e+00 5.117995811710162570e+02
1.595350977214986976e+00 5.117812003631227071e+02
1.595450999219828248e+00 5.117627545490846614e+02
1.595551021224669297e+00 5.117442446401145162e+02
1.595651043229510346e+00 5.117256715493944057e+02
1.595751065234351618e+00 5.117070361920385722e+02
1.595851087239192667e+00 5.116883394850551099e+02
1.595951109244033495e+00 5.116695823473093583e+02
1.596051131248874544e+00 5.116507656994851345e+02
1.596151153253715593e+00 5.116318904640454548e+02
1.596251175258556643e+00 5.116129575651985419e+02
1.596351197263397914e+00 5.115939679288557613e+02
1.596451219268238964e+00 5.115749224825966621e+02
1.596551241273080013e+00 5.115558221556287890e+02
1.596651263277920840e+00 5.115366678787504497e+02
1.596751285282762112e+00 5.115174605843129143e+02
1.596851307287603161e+00 5.114982012061825571e+02
1.596951329292444210e+00 5.114788906797001005e+02
1.597051351297285260e+00 5.114595299416475314e+02
1.597151373302126309e+00 5.114401199302039345e+02
1.597251395306967581e+00 5.114206615849111017e+02
1.597351417311808408e+00 5.114011558466346514e+02
1.597451439316649457e+00 5.113816036575245789e+02
1.597551461321490507e+00 5.113620059609774557e+02
1.597651483326331778e+00 5.113423637015991972e+02
1.597751505331172828e+00 5.113226778251645328e+02
1.597851527336013877e+00 5.113029492785798880e+02
1.597951549340854926e+00 5.112831790098455258e+02
1.598051571345695754e+00 5.112633679680159275e+02
1.598151593350536803e+00 5.112435171031618211e+02
1.598251615355378075e+00 5.112236273663311295e+02
1.598351637360219124e+00 5.112036997095121933e+02
1.598451659365060173e+00 5.111837350855935256e+02
1.598551681369901445e+00 5.111637344483254992e+02
1.598651703374742494e+00 5.111436987522832283e+02
1.598751725379583322e+00 5.111236289528263228e+02
1.598851747384424371e+00 5.111035260060615428e+02
1.598951769389265420e+00 5.110833908688033489e+02
1.599051791394106470e+00 5.110632244985367834e+02
1.599151813398947741e+00 5.110430278533769979e+02
1.599251835403788791e+00 5.110228018920325894e+02
1.599351857408629840e+00 5.110025475737662646e+02
1.599451879413470667e+00 5.109822658583556745e+02
1.599551901418311939e+00 5.109619577060563529e+02
1.599651923423152988e+00 5.109416240775617553e+02
1.599751945427994038e+00 5.109212659339663105e+02
1.599851967432835087e+00 5.109008842367251191e+02
1.599951989437676136e+00 5.108804799476164362e+02
1.600052011442517408e+00 5.108600540287040417e+02
1.600152033447358235e+00 5.108396074422974493e+02
1.600252055452199285e+00 5.108191411509139925e+02
1.600352077457040334e+00 5.107986561172402844e+02
1.600452099461881605e+00 5.107781533040937347e+02
1.600552121466722655e+00 5.107576336743842944e+02
1.600652143471563704e+00 5.107370981910772230e+02
1.600752165476404754e+00 5.107165478171529571e+02
1.600852187481245581e+00 5.106959835155687983e+02
1.600952209486086630e+00 5.106754062492222488e+02
1.601052231490927902e+00 5.106548169809113915e+02
1.601152253495768951e+00 5.106342166732977148e+02
1.601252275500610001e+00 5.106136062888674587e+02
1.601352297505451272e+00 5.105929867898918246e+02
1.601452319510292321e+00 5.105723591383924713e+02
1.601552341515133149e+00 5.105517242960993372e+02
1.601652363519974198e+00 5.105310832244159087e+02
1.601752385524815248e+00 5.105104368843784641e+02
1.601852407529656297e+00 5.104897862366215691e+02
1.601952429534497568e+00 5.104691322413356716e+02
1.602052451539338618e+00 5.104484758582326549e+02
1.602152473544179667e+00 5.104278180465067294e+02
1.602252495549020495e+00 5.104071597647971430e+02
1.602352517553861766e+00 5.103865019711483910e+02
1.602452539558702815e+00 5.103658456229765079e+02
1.602552561563543865e+00 5.103451916770264916e+02
1.602652583568384914e+00 5.103245410893384815e+02
1.602752605573225964e+00 5.103038948152091052e+02
1.602852627578067235e+00 5.102832538091533365e+02
1.602952649582908062e+00 5.102626190248666944e+02
1.603052671587749112e+00 5.102419914151888634e+02
1.603152693592590161e+00 5.102213719320673135e+02
1.603252715597431433e+00 5.102007615265165441e+02
1.603352737602272482e+00 5.101801611485842045e+02
1.603452759607113531e+00 5.101595717473128389e+02
1.603552781611954581e+00 5.101389942707022556e+02
1.603652803616795408e+00 5.101184296656726929e+02
1.603752825621636457e+00 5.100978788780281548e+02
1.603852847626477729e+00 5.100773428524182123e+02
1.603952869631318778e+00 5.100568225323054321e+02
1.604052891636159828e+00 5.100363188599215505e+02
1.604152913641001099e+00 5.100158327762371755e+02
1.604252935645842149e+00 5.099953652209215988e+02
1.604352957650682976e+00 5.099749171323074393e+02
1.604452979655524025e+00 5.099544894473540353e+02
1.604553001660365075e+00 5.099340831016112929e+02
1.604653023665206124e+00 5.099136990291813731e+02
1.604753045670047396e+00 5.098933381626858363e+02
1.604853067674888445e+00 5.098730014332272731e+02
1.604953089679729494e+00 5.098526897703532654e+02
1.605053111684570322e+00 5.098324041020208597e+02
1.605153133689411593e+00 5.098121453545603572e+02
1.605253155694252643e+00 5.097919144526398441e+02
1.605353177699093692e+00 5.097717123192290956e+02
1.605453199703934741e+00 5.097515398755641627e+02
1.605553221708775791e+00 5.097313980411109924e+02
1.605653243713617062e+00 5.097112877335314920e+02
1.605753265718457889e+00 5.096912098686473769e+02
1.605853287723298939e+00 5.096711653604036201e+02
1.605953309728139988e+00 5.096511551208344599e+02
1.606053331732981260e+00 5.096311800600293509e+02
1.606153353737822309e+00 5.096112410860957311e+02
1.606253375742663358e+00 5.095913391051260533e+02
1.606353397747504408e+00 5.095714750211608361e+02
1.606453419752345235e+00 5.095516497361554116e+02
1.606553441757186285e+00 5.095318641499466139e+02
1.606653463762027556e+00 5.095121191602148656e+02
1.606753485766868605e+00 5.094924156624524585e+02
1.606853507771709655e+00 5.094727545499290500e+02
1.606953529776550926e+00 5.094531367136550557e+02
1.607053551781391976e+00 5.094335630423510679e+02
1.607153573786232803e+00 5.094140344224117598e+02
1.607253595791073852e+00 5.093945517378724048e+02
1.607353617795914902e+00 5.093751158703745432e+02
1.607453639800755951e+00 5.093557276991341496e+02
1.607553661805597223e+00 5.093363881009062197e+02
1.607653683810438272e+00 5.093170979499519149e+02
1.607753705815279321e+00 5.092978581180062179e+02
1.607853727820120149e+00 5.092786694742431450e+02
1.607953749824961420e+00 5.092595328852441980e+02
1.608053771829802470e+00 5.092404492149651674e+02
1.608153793834643519e+00 5.092214193247014009e+02
1.608253815839484568e+00 5.092024440730589276e+02
1.608353837844325618e+00 5.091835243159175093e+02
1.608453859849166889e+00 5.091646609064014797e+02
1.608553881854007717e+00 5.091458546948466619e+02
1.608653903858848766e+00 5.091271065287670581e+02
1.608753925863689815e+00 5.091084172528237559e+02
1.608853947868531087e+00 5.090897877087932670e+02
1.608953969873372136e+00 5.090712187355354672e+02
1.609053991878213186e+00 5.090527111689611957e+02
1.609154013883054235e+00 5.090342658420017870e+02
1.609254035887895062e+00 5.090158835845765566e+02
1.609354057892736112e+00 5.089975652235640382e+02
1.609454079897577383e+00 5.089793115827670817e+02
1.609554101902418433e+00 5.089611234828854549e+02
1.609654123907259482e+00 5.089430017414822487e+02
1.609754145912100753e+00 5.089249471729556262e+02
1.609854167916941803e+00 5.089069605885056262e+02
1.609954189921782630e+00 5.088890427961069349e+02
1.610054211926623680e+00 5.088711946004756328e+02
1.610154233931464729e+00 5.088534168030401474e+02
1.610254255936305778e+00 5.088357102019134004e+02
1.610354277941147050e+00 5.088180755918581895e+02
1.610454299945988099e+00 5.088005137642627460e+02
1.610554321950829149e+00 5.087830255071077090e+02
1.610654343955669976e+00 5.087656116049384991e+02
1.610754365960511247e+00 5.087482728388350210e+02
1.610854387965352297e+00 5.087310099863832988e+02
1.610954409970193346e+00 5.087138238216462014e+02
1.611054431975034396e+00 5.086967151151350208e+02
1.611154453979875445e+00 5.086796846337804254e+02
1.611254475984716716e+00 5.086627331409043222e+02
1.611354497989557544e+00 5.086458613961916626e+02
1.611454519994398593e+00 5.086290701556619069e+02
1.611554541999239643e+00 5.086123601716418534e+02
1.611654564004080914e+00 5.085957321927359658e+02
1.611754586008921963e+00 5.085791869638011349e+02
1.611854608013763013e+00 5.085627252259184843e+02
1.611954630018604062e+00 5.085463477163644370e+02
1.612054652023444890e+00 5.085300551685845107e+02
1.612154674028285939e+00 5.085138483121689887e+02
1.612254696033127210e+00 5.084977278728204624e+02
1.612354718037968260e+00 5.084816945723321737e+02
1.612454740042809309e+00 5.084657491285603328e+02
1.612554762047650581e+00 5.084498922553951274e+02
1.612654784052491408e+00 5.084341246627388387e+02
1.612754806057332457e+00 5.084184470564763956e+02
1.612854828062173507e+00 5.084028601384506487e+02
1.612954850067014556e+00 5.083873646064381546e+02
1.613054872071855605e+00 5.083719611541208110e+02
1.613154894076696877e+00 5.083566504710635172e+02
1.613254916081537926e+00 5.083414332426874580e+02
1.613354938086378754e+00 5.083263101502452628e+02
1.613454960091219803e+00 5.083112818707971883e+02
1.613554982096061075e+00 5.082963490771843453e+02
1.613655004100902124e+00 5.082815124380069847e+02
1.613755026105743173e+00 5.082667726175989173e+02
1.613855048110584223e+00 5.082521302760040953e+02
1.613955070115425272e+00 5.082375860689510887e+02
1.614055092120266099e+00 5.082231406478308031e+02
1.614155114125107371e+00 5.082087946596742540e+02
1.614255136129948420e+00 5.081945487471259639e+02
1.614355158134789470e+00 5.081804035484238966e+02
1.614455180139630741e+00 5.081663596973749577e+02
1.614555202144471791e+00 5.081524178233325983e+02
1.614655224149312840e+00 5.081385785511740210e+02
1.614755246154153667e+00 5.081248425012781809e+02
1.614855268158994717e+00 5.081112102895037879e+02
1.614955290163835766e+00 5.080976825271661141e+02
1.615055312168677037e+00 5.080842598210175538e+02
1.615155334173518087e+00 5.080709427732223276e+02
1.615255356178359136e+00 5.080577319813392592e+02
1.615355378183200408e+00 5.080446280382979012e+02
1.615455400188041235e+00 5.080316315323772756e+02
1.615555422192882284e+00 5.080187430471868311e+02
1.615655444197723334e+00 5.080059631616448996e+02
1.615755466202564383e+00 5.079932924499569253e+02
1.615855488207405433e+00 5.079807314815984682e+02
1.615955510212246704e+00 5.079682808212911596e+02
1.616055532217087753e+00 5.079559410289859329e+02
1.616155554221928581e+00 5.079437126598422765e+02
1.616255576226769630e+00 5.079315962642078830e+02
1.616355598231610902e+00 5.079195923876011989e+02
1.616455620236451951e+00 5.079077015706907332e+02
1.616555642241293000e+00 5.078959243492773226e+02
1.616655664246134050e+00 5.078842612542750317e+02
1.616755686250975099e+00 5.078727128116919971e+02
1.616855708255815927e+00 5.078612795426133744e+02
1.616955730260657198e+00 5.078499619631825226e+02
1.617055752265498247e+00 5.078387605845838380e+02
1.617155774270339297e+00 5.078276759130234268e+02
1.617255796275180568e+00 5.078167084497147243e+02
1.617355818280021618e+00 5.078058586908577468e+02
1.617455840284862667e+00 5.077951271276243119e+02
1.617555862289703494e+00 5.077845142461411569e+02
1.617655884294544544e+00 5.077740205274718051e+02
1.617755906299385593e+00 5.077636464476017863e+02
1.617855928304226865e+00 5.077533924774212437e+02
1.617955950309067914e+00 5.077432590827102104e+02
1.618055972313908963e+00 5.077332467241221821e+02
1.618155994318750235e+00 5.077233558571669505e+02
1.618256016323591062e+00 5.077135869321986661e+02
1.618356038328432112e+00 5.077039403943974776e+02
1.618456060333273161e+00 5.076944166837563444e+02
1.618556082338114210e+00 5.076850162350659161e+02
1.618656104342955260e+00 5.076757394778999242e+02
1.618756126347796531e+00 5.076665868366001746e+02
1.618856148352637581e+00 5.076575587302646113e+02
1.618956170357478408e+00 5.076486555727307177e+02
1.619056192362319457e+00 5.076398777725642049e+02
1.619156214367160729e+00 5.076312257330430384e+02
1.619256236372001778e+00 5.076226998521474911e+02
1.619356258376842828e+00 5.076143005225431466e+02
1.619456280381683877e+00 5.076060281315729981e+02
1.619556302386524926e+00 5.075978830612391448e+02
1.619656324391365754e+00 5.075898656881959710e+02
1.619756346396207025e+00 5.075819763837331493e+02
1.619856368401048075e+00 5.075742155137681948e+02
1.619956390405889124e+00 5.075665834388304916e+02
1.620056412410730395e+00 5.075590805140532211e+02
1.620156434415571445e+00 5.075517070891598905e+02
1.620256456420412494e+00 5.075444635084543847e+02
1.620356478425253322e+00 5.075373501108096548e+02
1.620456500430094371e+00 5.075303672296575996e+02
1.620556522434935420e+00 5.075235151929776407e+02
1.620656544439776692e+00 5.075167943232881953e+02
1.620756566444617741e+00 5.075102049376337163e+02
1.620856588449458791e+00 5.075037473475793490e+02
1.620956610454300062e+00 5.074974218591975159e+02
1.621056632459140889e+00 5.074912287730602998e+02
1.621156654463981939e+00 5.074851683842302918e+02
1.621256676468822988e+00 5.074792409822516106e+02
1.621356698473664038e+00 5.074734468511409773e+02
1.621456720478505087e+00 5.074677862693797579e+02
1.621556742483346358e+00 5.074622595099052091e+02
1.621656764488187408e+00 5.074568668401036575e+02
1.621756786493028235e+00 5.074516085218011767e+02
1.621856808497869284e+00 5.074464848112563118e+02
1.621956830502710556e+00 5.074414959591547358e+02
1.622056852507551605e+00 5.074366422106000982e+02
1.622156874512392655e+00 5.074319238051067487e+02
1.622256896517233704e+00 5.074273409765965539e+02
1.622356918522074753e+00 5.074228939533865059e+02
1.622456940526915581e+00 5.074185829581892904e+02
1.622556962531756852e+00 5.074144082081025999e+02
1.622656984536597902e+00 5.074103699146054396e+02
1.622757006541438951e+00 5.074064682835513054e+02
1.622857028546280223e+00 5.074027035151644895e+02
1.622957050551121272e+00 5.073990758040342826e+02
1.623057072555962321e+00 5.073955853391088340e+02
1.623157094560803149e+00 5.073922323036928219e+02
1.623257116565644198e+00 5.073890168754415413e+02
1.623357138570485247e+00 5.073859392263572659e+02
1.623457160575326519e+00 5.073829995227853260e+02
1.623557182580167568e+00 5.073801979254093339e+02
1.623657204585008618e+00 5.073775345892502173e+02
1.623757226589849889e+00 5.073750096636599665e+02
1.623857248594690716e+00 5.073726232923203838e+02
1.623957270599531766e+00 5.073703756132397302e+02
1.624057292604372815e+00 5.073682667587505080e+02
1.624157314609213865e+00 5.073662968555067891e+02
1.624257336614054914e+00 5.073644660244814872e+02
1.624357358618896185e+00 5.073627743809653907e+02
1.624457380623737235e+00 5.073612220345652872e+02
1.624557402628578062e+00 5.073598090892020878e+02
1.624657424633419112e+00 5.073585356431094624e+02
1.624757446638260383e+00 5.073574017888340109e+02
1.624857468643101432e+00 5.073564076132323066e+02
1.624957490647942482e+00 5.073555531974730002e+02
1.625057512652783531e+00 5.073548386170334652e+02
1.625157534657624581e+00 5.073542639417030955e+02
1.625257556662465408e+00 5.073538292355802923e+02
1.625357578667306679e+00 5.073535345570739992e+02
1.625457600672147729e+00 5.073533799589054638e+02
1.625557622676988778e+00 5.073533654881063057e+02
1.625657644681830050e+00 5.073534911860221541e+02
1.625757666686671099e+00 5.073537570883124204e+02
1.625857688691512148e+00 5.073541632249520603e+02
1.625957710696352976e+00 5.073547096202332227e+02
1.626057732701194025e+00 5.073553962927668977e+02
1.626157754706035075e+00 5.073562232554862703e+02
1.626257776710876346e+00 5.073571905156467778e+02
1.626357798715717395e+00 5.073582980748302589e+02
1.626457820720558445e+00 5.073595459289478526e+02
1.626557842725399716e+00 5.073609340682426136e+02
1.626657864730240544e+00 5.073624624772927518e+02
1.626757886735081593e+00 5.073641311350142473e+02
1.626857908739922642e+00 5.073659400146654548e+02
1.626957930744763692e+00 5.073678890838515372e+02
1.627057952749604741e+00 5.073699783045268532e+02
1.627157974754446013e+00 5.073722076330004711e+02
1.627257996759287062e+00 5.073745770199410003e+02
1.627358018764127889e+00 5.073770864103805707e+02
1.627458040768968939e+00 5.073797357437197775e+02
1.627558062773810210e+00 5.073825249537339914e+02
1.627658084778651260e+00 5.073854539685767691e+02
1.627758106783492309e+00 5.073885227107878677e+02
1.627858128788333358e+00 5.073917310972972814e+02
1.627958150793174408e+00 5.073950790394316073e+02
1.628058172798015235e+00 5.073985664429220606e+02
1.628158194802856507e+00 5.074021932079086810e+02
1.628258216807697556e+00 5.074059592289476086e+02
1.628358238812538605e+00 5.074098643950203495e+02
1.628458260817379877e+00 5.074139085895359358e+02
1.628558282822220926e+00 5.074180916903442267e+02
1.628658304827061976e+00 5.074224135697393194e+02
1.628758326831902803e+00 5.074268740944690990e+02
1.628858348836743852e+00 5.074314731257428548e+02
1.628958370841584902e+00 5.074362105192396939e+02
1.629058392846426173e+00 5.074410861251162714e+02
1.629158414851267223e+00 5.074460997880167952e+02
1.629258436856108272e+00 5.074512513470806425e+02
1.629358458860949543e+00 5.074565406359519102e+02
1.629458480865790371e+00 5.074619674827895892e+02
1.629558502870631420e+00 5.074675317102750682e+02
1.629658524875472470e+00 5.074732331356236728e+02
1.629758546880313519e+00 5.074790715705944990e+02
1.629858568885154568e+00 5.074850468214991110e+02
1.629958590889995840e+00 5.074911586892133641e+02
1.630058612894836667e+00 5.074974069691872387e+02
1.630158634899677716e+00 5.075037914514564363e+02
1.630258656904518766e+00 5.075103119206516453e+02
1.630358678909360037e+00 5.075169681560122399e+02
1.630458700914201087e+00 5.075237599313949204e+02
1.630558722919042136e+00 5.075306870152878105e+02
1.630658744923883186e+00 5.075377491708202342e+02
1.630758766928724013e+00 5.075449461557768700e+02
1.630858788933565062e+00 5.075522777226076414e+02
1.630958810938406334e+00 5.075597436184419848e+02
1.631058832943247383e+00 5.075673435850996498e+02
1.631158854948088432e+00 5.075750773591062170e+02
1.631258876952929704e+00 5.075829446717041264e+02
1.631358898957770753e+00 5.075909452488660349e+02
1.631458920962611581e+00 5.075990788113079475e+02
1.631558942967452630e+00 5.076073450745048490e+02
1.631658964972293679e+00 5.076157437487030393e+02
1.631758986977134729e+00 5.076242745389337188e+02
1.631859008981976000e+00 5.076329371450281087e+02
1.631959030986817050e+00 5.076417312616318895e+02
1.632059052991658099e+00 5.076506565782197526e+02
1.632159074996498926e+00 5.076597127791088155e+02
1.632259097001340198e+00 5.076688995434769822e+02
1.632359119006181247e+00 5.076782165453746529e+02
1.632459141011022297e+00 5.076876634537424025e+02
1.632559163015863346e+00 5.076972399324255321e+02
1.632659185020704395e+00 5.077069456401899288e+02
1.632759207025545667e+00 5.077167802307391185e+02
1.632859229030386494e+00 5.077267433527285903e+02
1.632959251035227544e+00 5.077368346497836455e+02
1.633059273040068593e+00 5.077470537605169625e+02
1.633159295044909864e+00 5.077574003185419542e+02
1.633259317049750914e+00 5.077678739524931757e+02
1.633359339054591963e+00 5.077784742860414440e+02
1.633459361059433013e+00 5.077892009379123692e+02
1.633559383064273840e+00 5.078000535219025551e+02
1.633659405069114889e+00 5.078110316468988685e+02
1.633759427073956161e+00 5.078221349168948109e+02
1.633859449078797210e+00 5.078333629310102992e+02
1.633959471083638260e+00 5.078447152835082079e+02
1.634059493088479531e+00 5.078561915638140363e+02
1.634159515093320580e+00 5.078677913565337008e+02
1.634259537098161408e+00 5.078795142414729753e+02
1.634359559103002457e+00 5.078913597936564202e+02
1.634459581107843507e+00 5.079033275833460266e+02
1.634559603112684556e+00 5.079154171760615668e+02
1.634659625117525827e+00 5.079276281325991818e+02
1.634759647122366877e+00 5.079399600090507647e+02
1.634859669127207926e+00 5.079524123568248797e+02
1.634959691132048754e+00 5.079649847226673955e+02
1.635059713136890025e+00 5.079776766486796760e+02
1.635159735141731074e+00 5.079904876723406346e+02
1.635259757146572124e+00 5.080034173265258914e+02
1.635359779151413173e+00 5.080164651395301689e+02
1.635459801156254223e+00 5.080296306350884947e+02
1.635559823161095494e+00 5.080429133323940505e+02
1.635659845165936321e+00 5.080563127461228419e+02
1.635759867170777371e+00 5.080698283864539917e+02
1.635859889175618420e+00 5.080834597590913404e+02
1.635959911180459692e+00 5.080972063652845918e+02
1.636059933185300741e+00 5.081110677018528463e+02
1.636159955190141790e+00 5.081250432612048940e+02
1.636259977194982840e+00 5.081391325313621792e+02
1.636359999199823667e+00 5.081533349959820498e+02
1.636460021204664717e+00 5.081676501343795280e+02
1.636560043209505988e+00 5.081820774215495362e+02
1.636660065214347037e+00 5.081966163281907711e+02
1.636760087219188087e+00 5.082112663207295213e+02
1.636860109224029358e+00 5.082260268613399603e+02
1.636960131228870408e+00 5.082408974079708059e+02
1.637060153233711235e+00 5.082558774143665801e+02
1.637160175238552284e+00 5.082709663300936427e+02
1.637260197243393334e+00 5.082861636005608830e+02
1.637360219248234383e+00 5.083014686670467199e+02
1.637460241253075655e+00 5.083168809667215555e+02
1.637560263257916704e+00 5.083323999326723879e+02
1.637660285262757753e+00 5.083480249939274813e+02
1.637760307267598581e+00 5.083637555754825144e+02
1.637860329272439852e+00 5.083795910983200201e+02
1.637960351277280902e+00 5.083955309794421282e+02
1.638060373282121951e+00 5.084115746318900051e+02
1.638160395286963000e+00 5.084277214647692631e+02
1.638260417291804050e+00 5.084439708832786664e+02
1.638360439296645321e+00 5.084603222887319021e+02
1.638460461301486148e+00 5.084767750785871954e+02
1.638560483306327198e+00 5.084933286464676030e+02
1.638660505311168247e+00 5.085099823821929022e+02
1.638760527316009519e+00 5.085267356718019300e+02
1.638860549320850568e+00 5.085435878975787887e+02
1.638960571325691618e+00 5.085605384380818350e+02
1.639060593330532667e+00 5.085775866681664752e+02
1.639160615335373494e+00 5.085947319590153484e+02
1.639260637340214544e+00 5.086119736781623715e+02
1.639360659345055815e+00 5.086293111895211041e+02
1.639460681349896864e+00 5.086467438534114649e+02
1.639560703354737914e+00 5.086642710265857659e+02
1.639660725359579185e+00 5.086818920622579299e+02
1.639760747364420235e+00 5.086996063101285586e+02
1.639860769369261062e+00 5.087174131164152868e+02
1.639960791374102111e+00 5.087353118238769412e+02
