1.400036008642074004e+00 5.254147232568298023e+02
1.400136032647835371e+00 5.254696439057681800e+02
1.400236056653596739e+00 5.255200005379446111e+02
1.400336080659358107e+00 5.255657665232303088e+02
1.400436104665119474e+00 5.256069181593715030e+02
1.400536128670880842e+00 5.256434346791567123e+02
1.400636152676642210e+00 5.256752982557525229e+02
1.400736176682403578e+00 5.257024940062054839e+02
1.400836200688164945e+00 5.257250099931173963e+02
1.400936224693926313e+00 5.257428372244906996e+02
1.401036248699687681e+00 5.257559696517542989e+02
1.401136272705449493e+00 5.257644041659666527e+02
1.401236296711210638e+00 5.257681405922173781e+02
1.401336320716972228e+00 5.257671816822165738e+02
1.401436344722733374e+00 5.257615331050939176e+02
1.401536368728494963e+00 5.257512034364140163e+02
1.401636392734256109e+00 5.257362041454152859e+02
1.401736416740017699e+00 5.257165495804879356e+02
1.401836440745778845e+00 5.256922569529034490e+02
1.401936464751540434e+00 5.256633463188102269e+02
1.402036488757301580e+00 5.256298405595039185e+02
1.402136512763063170e+00 5.255917653600042740e+02
1.402236536768824315e+00 5.255491491859327198e+02
1.402336560774585905e+00 5.255020232587347664e+02
1.402436584780347051e+00 5.254504215292425897e+02
1.402536608786108641e+00 5.253943806496139359e+02
1.402636632791869786e+00 5.253339399436632675e+02
1.402736656797631376e+00 5.252691413756054999e+02
1.402836680803392522e+00 5.252000295172354072e+02
1.402936704809154111e+00 5.251266515135740747e+02
1.403036728814915701e+00 5.250490570469939939e+02
1.403136752820677069e+00 5.249672982998617954e+02
1.403236776826438437e+00 5.248814299157156711e+02
1.403336800832199804e+00 5.247915089590103435e+02
1.403436824837961172e+00 5.246975948734574331e+02
1.403536848843722540e+00 5.245997494389843041e+02
1.403636872849483908e+00 5.244980367273517459e+02
1.403736896855245275e+00 5.243925230564527737e+02
1.403836920861006643e+00 5.242832769433259728e+02
1.403936944866768011e+00 5.241703690559169218e+02
1.404036968872529378e+00 5.240538721636226001e+02
1.404136992878290746e+00 5.239338610866444697e+02
1.404237016884052114e+00 5.238104126441967310e+02
1.404337040889813482e+00 5.236836056015885106e+02
1.404437064895574849e+00 5.235535206162337545e+02
1.404537088901336217e+00 5.234202401826115647e+02
1.404637112907097585e+00 5.232838485762160872e+02
1.404737136912858952e+00 5.231444317965404025e+02
1.404837160918620542e+00 5.230020775091206815e+02
1.404937184924381910e+00 5.228568749866898315e+02
1.405037208930143278e+00 5.227089150494736032e+02
1.405137232935904645e+00 5.225582900046667874e+02
1.405237256941666013e+00 5.224050935851358872e+02
1.405337280947427381e+00 5.222494208873802108e+02
1.405437304953188749e+00 5.220913683087986783e+02
1.405537328958950116e+00 5.219310334842986094e+02
1.405637352964711484e+00 5.217685152222899205e+02
1.405737376970472852e+00 5.216039134401050887e+02
1.405837400976234219e+00 5.214373290988864937e+02
1.405937424981995587e+00 5.212688641379845649e+02
1.406037448987756955e+00 5.210986214089067516e+02
1.406137472993518323e+00 5.209267046088599500e+02
1.406237496999279690e+00 5.207532182139317456e+02
1.406337521005041058e+00 5.205782674119481044e+02
1.406437545010802426e+00 5.204019580350555998e+02
1.406537569016563793e+00 5.202243964920663757e+02
1.406637593022325161e+00 5.200456897006125700e+02
1.406737617028086751e+00 5.198659450191487394e+02
1.406837641033848119e+00 5.196852701788504874e+02
1.406937665039609486e+00 5.195037732154482910e+02
1.407037689045370854e+00 5.193215624010401825e+02
1.407137713051132222e+00 5.191387461759276221e+02
1.407237737056893589e+00 5.189554330805120799e+02
1.407337761062654957e+00 5.187717316873071240e+02
1.407437785068416325e+00 5.185877505330893200e+02
1.407537809074177693e+00 5.184035980512510378e+02
1.407637833079939060e+00 5.182193825043765401e+02
1.407737857085700428e+00 5.180352119171053573e+02
1.407837881091461796e+00 5.178511940093013663e+02
1.407937905097223164e+00 5.176674361295879407e+02
1.408037929102984531e+00 5.174840451892775945e+02
1.408137953108745899e+00 5.173011275967442089e+02
1.408237977114507267e+00 5.171187891922708104e+02
1.408338001120268634e+00 5.169371351834225834e+02
1.408438025126030002e+00 5.167562700809742182e+02
1.408538049131791592e+00 5.165762976354375269e+02
1.408638073137553182e+00 5.163973207742238856e+02
1.408738097143314327e+00 5.162194415394822045e+02
1.408838121149075917e+00 5.160427610266485772e+02
1.408938145154837063e+00 5.158673793237463769e+02
1.409038169160598652e+00 5.156933954514664720e+02
1.409138193166359798e+00 5.155209073040753083e+02
1.409238217172121388e+00 5.153500115911771218e+02
1.409338241177882534e+00 5.151808037803633624e+02
1.409438265183644123e+00 5.150133780407938957e+02
1.409538289189405269e+00 5.148478271877318093e+02
1.409638313195166859e+00 5.146842426280717291e+02
1.409738337200928004e+00 5.145227143068907480e+02
1.409838361206689594e+00 5.143633306550543693e+02
1.409938385212450740e+00 5.142061785379073626e+02
1.410038409218212330e+00 5.140513432050789788e+02
1.410138433223973475e+00 5.138989082414324230e+02
1.410238457229735065e+00 5.137489555191878026e+02
1.410338481235496211e+00 5.136015651512439035e+02
1.410438505241258023e+00 5.134568154457253968e+02
1.410538529247019390e+00 5.133147828617829873e+02
1.410638553252780758e+00 5.131755419666717444e+02
1.410738577258542126e+00 5.130391653941301229e+02
1.410838601264303493e+00 5.129057238040828679e+02
1.410938625270064861e+00 5.127752858436899714e+02
1.411038649275826229e+00 5.126479181097678293e+02
1.411138673281587597e+00 5.125236851125955582e+02
1.411238697287348964e+00 5.124026492411308027e+02
1.411338721293110332e+00 5.122848707296529938e+02
1.411438745298871700e+00 5.121704076258542955e+02
1.411538769304633067e+00 5.120593157603861982e+02
1.411638793310394435e+00 5.119516487178906345e+02
1.411738817316155803e+00 5.118474578095176639e+02
1.411838841321917171e+00 5.117467920469568980e+02
1.411938865327678538e+00 5.116496981179778913e+02
1.412038889333439906e+00 5.115562203635142851e+02
1.412138913339201274e+00 5.114664007562788015e+02
1.412238937344962864e+00 5.113802788809391586e+02
1.412338961350724231e+00 5.112978919158488225e+02
1.412438985356485599e+00 5.112192746163519246e+02
1.412539009362246967e+00 5.111444592996596157e+02
1.412639033368008334e+00 5.110734758313127486e+02
1.412739057373769702e+00 5.110063516132272525e+02
1.412839081379531070e+00 5.109431115733332263e+02
1.412939105385292438e+00 5.108837781568065566e+02
1.413039129391053805e+00 5.108283713188950514e+02
1.413139153396815173e+00 5.107769085193422143e+02
1.413239177402576541e+00 5.107294047184051919e+02
1.413339201408337908e+00 5.106858723744714439e+02
1.413439225414099276e+00 5.106463214432621953e+02
1.413539249419860644e+00 5.106107593786305188e+02
1.413639273425622012e+00 5.105791911349419934e+02
1.413739297431383379e+00 5.105516191710343037e+02
1.413839321437144747e+00 5.105280434557547551e+02
1.413939345442906115e+00 5.105084614750603578e+02
1.414039369448667482e+00 5.104928682406771827e+02
1.414139393454429072e+00 5.104812563003111450e+02
1.414239417460190440e+00 5.104736157493923656e+02
1.414339441465951808e+00 5.104699342443580008e+02
1.414439465471713175e+00 5.104701970174377834e+02
1.414539489477474543e+00 5.104743868929540440e+02
1.414639513483235911e+00 5.104824843051035259e+02
1.414739537488997279e+00 5.104944673172190051e+02
1.414839561494758646e+00 5.105103116424834298e+02
1.414939585500520014e+00 5.105299906660934539e+02
1.415039609506281382e+00 5.105534754688409294e+02
1.415139633512042749e+00 5.105807348521058771e+02
1.415239657517804117e+00 5.106117353642307535e+02
1.415339681523565485e+00 5.106464413282685655e+02
1.415439705529326853e+00 5.106848148710711257e+02
1.415539729535088220e+00 5.107268159537047723e+02
1.415639753540849588e+00 5.107724024031666659e+02
1.415739777546610956e+00 5.108215299453808029e+02
1.415839801552372323e+00 5.108741522394468575e+02
1.415939825558134135e+00 5.109302209131215022e+02
1.416039849563895281e+00 5.109896855994995803e+02
1.416139873569656871e+00 5.110524939748781890e+02
1.416239897575418016e+00 5.111185917977678059e+02
1.416339921581179606e+00 5.111879229490285752e+02
1.416439945586940752e+00 5.112604294731022492e+02
1.416539969592702342e+00 5.113360516203078987e+02
1.416639993598463487e+00 5.114147278901779146e+02
1.416740017604225077e+00 5.114963950757955899e+02
1.416840041609986223e+00 5.115809883091138772e+02
1.416940065615747812e+00 5.116684411072143348e+02
1.417040089621508958e+00 5.117586854194804573e+02
1.417140113627270548e+00 5.118516516756513397e+02
1.417240137633031694e+00 5.119472688347240705e+02
1.417340161638793283e+00 5.120454644346657460e+02
1.417440185644554429e+00 5.121461646429124812e+02
1.417540209650316019e+00 5.122492943076089205e+02
1.417640233656077164e+00 5.123547770095617579e+02
1.417740257661838754e+00 5.124625351148711161e+02
1.417840281667600344e+00 5.125724898282016966e+02
1.417940305673361712e+00 5.126845612466570401e+02
1.418040329679123079e+00 5.127986684142315426e+02
1.418140353684884447e+00 5.129147293767849760e+02
1.418240377690645815e+00 5.130326612375229161e+02
1.418340401696407183e+00 5.131523802129331671e+02
1.418440425702168550e+00 5.132738016891436246e+02
1.418540449707929918e+00 5.133968402786709930e+02
1.418640473713691286e+00 5.135214098775142020e+02
1.418740497719452653e+00 5.136474237225584147e+02
1.418840521725214021e+00 5.137747944492545003e+02
1.418940545730975389e+00 5.139034341495344052e+02
1.419040569736736757e+00 5.140332544299212714e+02
1.419140593742498124e+00 5.141641664698029217e+02
1.419240617748259492e+00 5.142960810798243756e+02
1.419340641754020860e+00 5.144289087603671078e+02
1.419440665759782227e+00 5.145625597600741230e+02
1.419540689765543595e+00 5.146969441343803737e+02
1.419640713771305185e+00 5.148319718040204407e+02
1.419740737777066553e+00 5.149675526134614074e+02
1.419840761782827920e+00 5.151035963892380778e+02
1.419940785788589288e+00 5.152400129981435839e+02
1.420040809794350656e+00 5.153767124052405961e+02
1.420140833800112024e+00 5.155136047316567556e+02
1.420240857805873391e+00 5.156506003121298818e+02
1.420340881811634759e+00 5.157876097522590726e+02
1.420440905817396127e+00 5.159245439854360029e+02
1.420540929823157494e+00 5.160613143294085603e+02
1.420640953828918862e+00 5.161978325424533978e+02
1.420740977834680230e+00 5.163340108791094281e+02
1.420841001840441598e+00 5.164697621454496357e+02
1.420941025846202965e+00 5.166049997538447087e+02
1.421041049851964333e+00 5.167396377771963216e+02
1.421141073857725701e+00 5.168735910025947078e+02
1.421241097863487068e+00 5.170067749843725551e+02
1.421341121869248436e+00 5.171391060965291899e+02
1.421441145875009804e+00 5.172705015844742320e+02
1.421541169880771394e+00 5.174008796160799193e+02
1.421641193886532761e+00 5.175301593319948097e+02
1.421741217892294129e+00 5.176582608951969178e+02
1.421841241898055497e+00 5.177851055397507025e+02
1.421941265903816864e+00 5.179106156187440320e+02
1.422041289909578232e+00 5.180347146513645384e+02
1.422141313915339600e+00 5.181573273691064969e+02
1.422241337921100968e+00 5.182783797610550209e+02
1.422341361926862335e+00 5.183977991182433698e+02
1.422441385932623703e+00 5.185155140770430080e+02
1.422541409938385071e+00 5.186314546615622021e+02
1.422641433944146439e+00 5.187455523250362148e+02
1.422741457949907806e+00 5.188577399901711260e+02
1.422841481955669174e+00 5.189679520884294561e+02
1.422941505961430542e+00 5.190761245982274659e+02
1.423041529967191909e+00 5.191821950820249185e+02
1.423141553972953277e+00 5.192861027222850225e+02
1.423241577978714645e+00 5.193877883562802253e+02
1.423341601984476235e+00 5.194871945097326034e+02
1.423441625990237824e+00 5.195842654292592897e+02
1.423541649995998970e+00 5.196789471136108887e+02
1.423641674001760560e+00 5.197711873436849146e+02
1.423741698007521705e+00 5.198609357112925409e+02
1.423841722013283295e+00 5.199481436466718378e+02
1.423941746019044441e+00 5.200327644447224884e+02
1.424041770024806031e+00 5.201147532899534554e+02
1.424141794030567176e+00 5.201940672801297296e+02
1.424241818036328766e+00 5.202706654486049729e+02
1.424341842042089912e+00 5.203445087853256155e+02
1.424441866047851502e+00 5.204155602565052732e+02
1.424541890053612647e+00 5.204837848229433348e+02
1.424641914059374237e+00 5.205491494569973838e+02
1.424741938065135383e+00 5.206116231581852389e+02
1.424841962070896972e+00 5.206711769674216157e+02
1.424941986076658118e+00 5.207277839798746299e+02
1.425042010082419708e+00 5.207814193564419156e+02
1.425142034088180854e+00 5.208320603338406727e+02
1.425242058093942665e+00 5.208796862333053923e+02
1.425342082099704033e+00 5.209242784678963289e+02
1.425442106105465401e+00 5.209658205484099653e+02
1.425542130111226768e+00 5.210042980878984054e+02
1.425642154116988136e+00 5.210396988047900777e+02
1.425742178122749504e+00 5.210720125246176622e+02
1.425842202128510872e+00 5.211012311803563080e+02
1.425942226134272239e+00 5.211273488113695294e+02
1.426042250140033607e+00 5.211503615609715325e+02
1.426142274145794975e+00 5.211702676726081336e+02
1.426242298151556342e+00 5.211870674846611564e+02
1.426342322157317710e+00 5.212007634238873379e+02
1.426442346163079078e+00 5.212113599974925364e+02
1.426542370168840446e+00 5.212188637838542036e+02
1.426642394174601813e+00 5.212232834218979178e+02
1.426742418180363181e+00 5.212246295991413945e+02
1.426842442186124549e+00 5.212229150384140439e+02
1.426942466191885917e+00 5.212181544832619693e+02
1.427042490197647506e+00 5.212103646820585254e+02
1.427142514203408874e+00 5.211995643708239641e+02
1.427242538209170242e+00 5.211857742547718999e+02
1.427342562214931609e+00 5.211690169886043122e+02
1.427442586220692977e+00 5.211493171555571280e+02
1.427542610226454345e+00 5.211267012452250356e+02
1.427642634232215713e+00 5.211011976301775803e+02
1.427742658237977080e+00 5.210728365413823440e+02
1.427842682243738448e+00 5.210416500424602191e+02
1.427942706249499816e+00 5.210076720027840338e+02
1.428042730255261183e+00 5.209709380694513357e+02
1.428142754261022551e+00 5.209314856381394065e+02
1.428242778266783919e+00 5.208893538228739999e+02
1.428342802272545287e+00 5.208445834247320363e+02
1.428442826278306654e+00 5.207972168994959929e+02
1.428542850284068022e+00 5.207472983242910232e+02
1.428642874289829390e+00 5.206948733632224275e+02
1.428742898295590757e+00 5.206399892320418985e+02
1.428842922301352125e+00 5.205826946618683451e+02
1.428942946307113715e+00 5.205230398619847847e+02
1.429042970312875083e+00 5.204610764817444988e+02
1.429142994318636450e+00 5.203968575716062333e+02
1.429243018324397818e+00 5.203304375433323230e+02
1.429343042330159186e+00 5.202618721293717954e+02
1.429443066335920554e+00 5.201912183414648325e+02
1.429543090341681921e+00 5.201185344284868961e+02
1.429643114347443289e+00 5.200438798335718502e+02
1.429743138353204657e+00 5.199673151505402302e+02
1.429843162358966024e+00 5.198889020796578961e+02
1.429943186364727392e+00 5.198087033827673622e+02
1.430043210370488760e+00 5.197267828378086278e+02
1.430143234376250128e+00 5.196432051927700968e+02
1.430243258382011495e+00 5.195580361191050542e+02
1.430343282387772863e+00 5.194713421646276856e+02
1.430443306393534231e+00 5.193831907059452533e+02
1.430543330399295598e+00 5.192936499004350708e+02
1.430643354405056966e+00 5.192027886378201629e+02
1.430743378410818778e+00 5.191106764913580491e+02
1.430843402416579924e+00 5.190173836686908544e+02
1.430943426422341513e+00 5.189229809623788015e+02
1.431043450428102659e+00 5.188275397001584679e+02
1.431143474433864249e+00 5.187311316949513866e+02
1.431243498439625395e+00 5.186338291946661911e+02
1.431343522445386984e+00 5.185357048318210218e+02
1.431443546451148130e+00 5.184368315730208678e+02
1.431543570456909720e+00 5.183372826683230414e+02
1.431643594462670865e+00 5.182371316005321660e+02
1.431743618468432455e+00 5.181364520344473021e+02
1.431843642474193601e+00 5.180353177661003201e+02
1.431943666479955191e+00 5.179338026720215566e+02
1.432043690485716336e+00 5.178319806585627703e+02
1.432143714491477926e+00 5.177299256113111596e+02
1.432243738497239072e+00 5.176277113446305975e+02
1.432343762503000661e+00 5.175254115513590705e+02
1.432443786508761807e+00 5.174230997526997271e+02
1.432543810514523397e+00 5.173208492483375949e+02
1.432643834520284987e+00 5.172187330668094774e+02
1.432743858526046354e+00 5.171168239161681868e+02
1.432843882531807722e+00 5.170151941349682829e+02
1.432943906537569090e+00 5.169139156436012854e+02
1.433043930543330458e+00 5.168130598960244697e+02
1.433143954549091825e+00 5.167126978318992769e+02
1.433243978554853193e+00 5.166128998291840162e+02
1.433344002560614561e+00 5.165137356572008684e+02
1.433444026566375928e+00 5.164152744302149358e+02
1.433544050572137296e+00 5.163175845615528488e+02
1.433644074577898664e+00 5.162207337182867377e+02
1.433744098583660032e+00 5.161247887765205178e+02
1.433844122589421399e+00 5.160298157772997456e+02
1.433944146595182767e+00 5.159358798831774493e+02
1.434044170600944135e+00 5.158430453354617384e+02
1.434144194606705502e+00 5.157513754121739566e+02
1.434244218612466870e+00 5.156609323867437524e+02
1.434344242618228238e+00 5.155717774874631232e+02
1.434444266623989828e+00 5.154839708577349029e+02
1.434544290629751195e+00 5.153975715171294496e+02
1.434644314635512563e+00 5.153126373232811375e+02
1.434744338641273931e+00 5.152292249346453445e+02
1.434844362647035299e+00 5.151473897741448127e+02
1.434944386652796666e+00 5.150671859937157251e+02
1.435044410658558034e+00 5.149886664397921550e+02
1.435144434664319402e+00 5.149118826197352519e+02
1.435244458670080769e+00 5.148368846692375200e+02
1.435344482675842137e+00 5.147637213207178775e+02
1.435444506681603505e+00 5.146924398727262542e+02
1.435544530687364873e+00 5.146230861603836502e+02
1.435644554693126240e+00 5.145557045268612910e+02
1.435744578698887608e+00 5.144903377959337831e+02
1.435844602704648976e+00 5.144270272456061548e+02
1.435944626710410343e+00 5.143658125828440006e+02
1.436044650716171711e+00 5.143067319194083211e+02
1.436144674721933079e+00 5.142498217488289356e+02
1.436244698727694447e+00 5.141951169245030542e+02
1.436344722733456036e+00 5.141426506389589122e+02
1.436444746739217404e+00 5.140924544042736670e+02
1.436544770744978772e+00 5.140445580336754574e+02
1.436644794750740139e+00 5.139989896243261001e+02
1.436744818756501507e+00 5.139557755412986353e+02
1.436844842762262875e+00 5.139149404027623405e+02
1.436944866768024243e+00 5.138765070663764618e+02
1.437044890773785610e+00 5.138404966169060799e+02
1.437144914779546978e+00 5.138069283550576074e+02
1.437244938785308346e+00 5.137758197875519954e+02
1.437344962791069714e+00 5.137471866184266673e+02
1.437444986796831081e+00 5.137210427415802769e+02
1.437545010802592449e+00 5.136974002345585859e+02
1.437645034808353817e+00 5.136762693535833932e+02
1.437745058814115184e+00 5.136576585298257669e+02
1.437845082819876552e+00 5.136415743669297171e+02
1.437945106825637920e+00 5.136280216397740332e+02
1.438045130831399288e+00 5.136170032944836521e+02
1.438145154837160877e+00 5.136085204496831693e+02
1.438245178842922467e+00 5.136025723989845346e+02
1.438345202848683613e+00 5.135991566147159801e+02
1.438445226854445202e+00 5.135982687528779707e+02
1.438545250860206348e+00 5.135999026593267445e+02
1.438645274865967938e+00 5.136040503771813519e+02
1.438745298871729084e+00 5.136107021554302037e+02
1.438845322877490673e+00 5.136198464587608896e+02
1.438945346883251819e+00 5.136314699785727953e+02
1.439045370889013409e+00 5.136455576451822935e+02
1.439145394894774554e+00 5.136620926412042536e+02
1.439245418900536144e+00 5.136810564161003185e+02
1.439345442906297290e+00 5.137024287018803079e+02
1.439445466912058880e+00 5.137261875299506073e+02
1.439545490917820025e+00 5.137523092490839645e+02
1.439645514923581615e+00 5.137807685445128527e+02
1.439745538929342761e+00 5.138115384581199123e+02
1.439845562935104351e+00 5.138445904097126231e+02
1.439945586940865496e+00 5.138798942193723178e+02
1.440045610946627308e+00 5.139174181308522975e+02
1.440145634952388676e+00 5.139571288360123162e+02
1.440245658958150043e+00 5.139989915002749967e+02
1.440345682963911411e+00 5.140429697890740499e+02
1.440445706969672779e+00 5.140890258952898648e+02
1.440545730975434147e+00 5.141371205676397267e+02
1.440645754981195514e+00 5.141872131400104990e+02
1.440745778986956882e+00 5.142392615617085312e+02
1.440845802992718250e+00 5.142932224286059864e+02
1.440945826998479617e+00 5.143490510151635817e+02
1.441045851004240985e+00 5.144067013072998407e+02
1.441145875010002353e+00 5.144661260360961705e+02
1.441245899015763721e+00 5.145272767122982032e+02
1.441345923021525088e+00 5.145901036616046440e+02
1.441445947027286456e+00 5.146545560607041807e+02
1.441545971033047824e+00 5.147205819740478319e+02
1.441645995038809192e+00 5.147881283913213792e+02
1.441746019044570559e+00 5.148571412655976474e+02
1.441846043050332149e+00 5.149275655521395265e+02
1.441946067056093517e+00 5.149993452478241807e+02
1.442046091061854884e+00 5.150724234311716145e+02
1.442146115067616252e+00 5.151467423029303063e+02
1.442246139073377620e+00 5.152222432272144488e+02
1.442346163079138988e+00 5.152988667731458463e+02
1.442446187084900355e+00 5.153765527569862570e+02
1.442546211090661723e+00 5.154552402847143640e+02
1.442646235096423091e+00 5.155348677950394176e+02
1.442746259102184458e+00 5.156153731027994809e+02
1.442846283107945826e+00 5.156966934427337037e+02
1.442946307113707194e+00 5.157787655135865634e+02
1.443046331119468562e+00 5.158615255225158762e+02
1.443146355125229929e+00 5.159449092297808193e+02
1.443246379130991297e+00 5.160288519936705143e+02
1.443346403136752665e+00 5.161132888156487297e+02
1.443446427142514032e+00 5.161981543856804819e+02
1.443546451148275400e+00 5.162833831277141599e+02
1.443646475154036768e+00 5.163689092452805198e+02
1.443746499159798358e+00 5.164546667671863815e+02
1.443846523165559725e+00 5.165405895932674412e+02
1.443946547171321093e+00 5.166266115401679144e+02
1.444046571177082461e+00 5.167126663871205210e+02
1.444146595182843829e+00 5.167986879216915668e+02
1.444246619188605196e+00 5.168846099854646354e+02
1.444346643194366564e+00 5.169703665196263955e+02
1.444446667200127932e+00 5.170558916104300806e+02
1.444546691205889299e+00 5.171411195345031047e+02
1.444646715211650667e+00 5.172259848039652752e+02
1.444746739217412035e+00 5.173104222113354353e+02
1.444846763223173403e+00 5.173943668741881083e+02
1.444946787228934770e+00 5.174777542795357022e+02
1.445046811234696138e+00 5.175605203279037596e+02
1.445146835240457506e+00 5.176426013770723102e+02
1.445246859246218873e+00 5.177239342854512643e+02
1.445346883251980241e+00 5.178044564550635869e+02
1.445446907257741609e+00 5.178841058741060124e+02
1.445546931263503421e+00 5.179628211590612636e+02
1.445646955269264566e+00 5.180405415963293763e+02
1.445746979275026156e+00 5.181172071833568680e+02
1.445847003280787302e+00 5.181927586692302157e+02
1.445947027286548892e+00 5.182671375947115848e+02
1.446047051292310037e+00 5.183402863316881621e+02
1.446147075298071627e+00 5.184121481220101941e+02
1.446247099303832773e+00 5.184826671156888551e+02
1.446347123309594362e+00 5.185517884084356410e+02
1.446447147315355508e+00 5.186194580785127073e+02
1.446547171321117098e+00 5.186856232228697081e+02
1.446647195326878244e+00 5.187502319925489473e+02
1.446747219332639833e+00 5.188132336273321243e+02
1.446847243338400979e+00 5.188745784896043460e+02
1.446947267344162569e+00 5.189342180974172152e+02
1.447047291349923714e+00 5.189921051567271206e+02
1.447147315355685304e+00 5.190481935927878112e+02
1.447247339361446450e+00 5.191024385806813370e+02
1.447347363367208040e+00 5.191547965749574587e+02
1.447447387372969629e+00 5.192052253383756124e+02
1.447547411378730997e+00 5.192536839697191908e+02
1.447647435384492365e+00 5.193001329306715661e+02
1.447747459390253733e+00 5.193445340717357794e+02
1.447847483396015100e+00 5.193868506571758417e+02
1.447947507401776468e+00 5.194270473889737332e+02
1.448047531407537836e+00 5.194650904297755005e+02
1.448147555413299203e+00 5.195009474248223569e+02
1.448247579419060571e+00 5.195345875228447312e+02
1.448347603424821939e+00 5.195659813959113080e+02
1.448447627430583307e+00 5.195951012582205522e+02
1.448547651436344674e+00 5.196219208838182340e+02
1.448647675442106042e+00 5.196464156232357254e+02
1.448747699447867410e+00 5.196685624190373574e+02
1.448847723453628777e+00 5.196883398202636499e+02
1.448947747459390145e+00 5.197057279957671199e+02
1.449047771465151513e+00 5.197207087464296364e+02
1.449147795470912881e+00 5.197332655162551873e+02
1.449247819476674470e+00 5.197433834023283907e+02
1.449347843482435838e+00 5.197510491636422785e+02
1.449447867488197206e+00 5.197562512287760228e+02
1.449547891493958574e+00 5.197589797024321570e+02
1.449647915499719941e+00 5.197592263708235123e+02
1.449747939505481309e+00 5.197569847059055519e+02
1.449847963511242677e+00 5.197522498684581933e+02
1.449947987517004044e+00 5.197450187100093899e+02
1.450048011522765412e+00 5.197352897736067234e+02
1.450148035528526780e+00 5.197230632934320056e+02
1.450248059534288148e+00 5.197083411932641184e+02
1.450348083540049515e+00 5.196911270837886150e+02
1.450448107545810883e+00 5.196714262587618123e+02
1.450548131551572251e+00 5.196492456900256229e+02
1.450648155557333618e+00 5.196245940213882477e+02
1.450748179563094986e+00 5.195974815613634519e+02
1.450848203568856354e+00 5.195679202747822956e+02
1.450948227574617722e+00 5.195359237732839119e+02
1.451048251580379089e+00 5.195015073046896532e+02
1.451148275586140679e+00 5.194646877412669710e+02
1.451248299591902047e+00 5.194254835669023578e+02
1.451348323597663414e+00 5.193839148631747094e+02
1.451448347603424782e+00 5.193400032943616225e+02
1.451548371609186150e+00 5.192937720913678277e+02
1.451648395614947518e+00 5.192452460346065664e+02
1.451748419620708885e+00 5.191944514358300466e+02
1.451848443626470253e+00 5.191414161189364904e+02
1.451948467632231621e+00 5.190861693997538850e+02
1.452048491637992989e+00 5.190287420648292027e+02
1.452148515643754356e+00 5.189691663492239968e+02
1.452248539649515724e+00 5.189074759133432053e+02
1.452348563655277092e+00 5.188437058188073934e+02
1.452448587661038459e+00 5.187778925033894666e+02
1.452548611666799827e+00 5.187100737550293843e+02
1.452648635672561195e+00 5.186402886849461993e+02
1.452748659678322563e+00 5.185685776998730034e+02
1.452848683684083930e+00 5.184949824734211461e+02
1.452948707689845520e+00 5.184195459166076034e+02
1.453048731695607110e+00 5.183423121475547077e+02
1.453148755701368255e+00 5.182633264603907719e+02
1.453248779707129845e+00 5.181826352933717317e+02
1.453348803712890991e+00 5.181002861962417683e+02
1.453448827718652581e+00 5.180163277968600823e+02
1.453548851724413726e+00 5.179308097671175801e+02
1.453648875730175316e+00 5.178437827881608655e+02
1.453748899735936462e+00 5.177552985149552569e+02
1.453848923741698052e+00 5.176654095402062694e+02
1.453948947747459197e+00 5.175741693576646867e+02
1.454048971753220787e+00 5.174816323248425078e+02
1.454148995758981933e+00 5.173878536251653486e+02
1.454249019764743522e+00 5.172928892295844889e+02
1.454349043770504668e+00 5.171967958576792626e+02
1.454449067776266258e+00 5.170996309382688878e+02
1.454549091782027403e+00 5.170014525695740986e+02
1.454649115787788993e+00 5.169023194789376703e+02
1.454749139793550139e+00 5.168022909821495432e+02
1.454849163799311951e+00 5.167014269423920041e+02
1.454949187805073318e+00 5.165997877288332347e+02
1.455049211810834686e+00 5.164974341749114046e+02
1.455149235816596054e+00 5.163944275363170391e+02
1.455249259822357422e+00 5.162908294487182275e+02
1.455349283828118789e+00 5.161867018852494766e+02
1.455449307833880157e+00 5.160821071137980880e+02
1.455549331839641525e+00 5.159771076541097727e+02
1.455649355845402892e+00 5.158717662347550004e+02
1.455749379851164260e+00 5.157661457499673361e+02
1.455849403856925628e+00 5.156603092164033342e+02
1.455949427862686996e+00 5.155543197298375162e+02
1.456049451868448363e+00 5.154482404218290412e+02
1.456149475874209731e+00 5.153421344163857611e+02
1.456249499879971099e+00 5.152360647866624959e+02
1.456349523885732467e+00 5.151300945117111496e+02
1.456449547891493834e+00 5.150242864333225725e+02
1.456549571897255202e+00 5.149187032129838144e+02
1.456649595903016792e+00 5.148134072889779418e+02
1.456749619908778159e+00 5.147084608336634801e+02
1.456849643914539527e+00 5.146039257109543996e+02
1.456949667920300895e+00 5.144998634340305443e+02
1.457049691926062263e+00 5.143963351233118146e+02
1.457149715931823630e+00 5.142934014647203185e+02
1.457249739937584998e+00 5.141911226682565257e+02
1.457349763943346366e+00 5.140895584269250094e+02
1.457449787949107733e+00 5.139887678760281915e+02
1.457549811954869101e+00 5.138888095528614031e+02
1.457649835960630469e+00 5.137897413568371121e+02
1.457749859966391837e+00 5.136916205100600337e+02
1.457849883972153204e+00 5.135945035183814298e+02
1.457949907977914572e+00 5.134984461329632950e+02
1.458049931983675940e+00 5.134035033123719813e+02
1.458149955989437307e+00 5.133097291852290027e+02
1.458249979995198675e+00 5.132171770134468716e+02
1.458350004000960043e+00 5.131258991560692948e+02
1.458450028006721411e+00 5.130359470337436960e+02
1.458550052012483000e+00 5.129473710938492559e+02
1.458650076018244368e+00 5.128602207763041179e+02
1.458750100024005736e+00 5.127745444800700625e+02
1.458850124029767104e+00 5.126903895303879608e+02
1.458950148035528471e+00 5.126078021467501458e+02
1.459050172041289839e+00 5.125268274116472185e+02
1.459150196047051207e+00 5.124475092400987251e+02
1.459250220052812574e+00 5.123698903499932840e+02
1.459350244058573942e+00 5.122940122332560122e+02
1.459450268064335310e+00 5.122199151278643967e+02
1.459550292070096678e+00 5.121476379907280716e+02
1.459650316075858045e+00 5.120772184714546711e+02
1.459750340081619413e+00 5.120086928870163092e+02
1.459850364087380781e+00 5.119420961973315798e+02
1.459950388093142148e+00 5.118774619817881444e+02
1.460050412098903516e+00 5.118148224167093758e+02
1.460150436104664884e+00 5.117542082537879651e+02
1.460250460110426252e+00 5.116956487995016687e+02
1.460350484116188063e+00 5.116391718955173360e+02
1.460450508121949209e+00 5.115848039001038501e+02
1.460550532127710799e+00 5.115325696705644987e+02
1.460650556133471945e+00 5.114824925466945729e+02
1.460750580139233534e+00 5.114345943352855670e+02
1.460850604144994680e+00 5.113888952956765479e+02
1.460950628150756270e+00 5.113454141263666770e+02
1.461050652156517415e+00 5.113041679526990606e+02
1.461150676162279005e+00 5.112651723156204753e+02
1.461250700168040151e+00 5.112284411615261774e+02
1.461350724173801741e+00 5.111939868331958792e+02
1.461450748179562886e+00 5.111618200618296441e+02
1.461550772185324476e+00 5.111319499601830785e+02
1.461650796191085622e+00 5.111043840168121619e+02
1.461750820196847211e+00 5.110791280914269237e+02
1.461850844202608357e+00 5.110561864113607271e+02
1.461950868208369947e+00 5.110355615691545950e+02
1.462050892214131093e+00 5.110172545212594173e+02
1.462150916219892682e+00 5.110012645878559852e+02
1.462250940225654272e+00 5.109875894537931345e+02
1.462350964231415640e+00 5.109762251706438292e+02
1.462450988237177008e+00 5.109671661598763421e+02
1.462551012242938375e+00 5.109604052171413286e+02
1.462651036248699743e+00 5.109559335176667787e+02
1.462751060254461111e+00 5.109537406227605061e+02
1.462851084260222478e+00 5.109538144874168211e+02
1.462951108265983846e+00 5.109561414690188599e+02
1.463051132271745214e+00 5.109607063371329332e+02
1.463151156277506582e+00 5.109674922843871627e+02
1.463251180283267949e+00 5.109764809384267323e+02
1.463351204289029317e+00 5.109876523749417743e+02
1.463451228294790685e+00 5.110009851317499852e+02
1.463551252300552052e+00 5.110164562239347106e+02
1.463651276306313420e+00 5.110340411600223547e+02
1.463751300312074788e+00 5.110537139591881441e+02
1.463851324317836156e+00 5.110754471694821746e+02
1.463951348323597523e+00 5.110992118870588570e+02
1.464051372329359113e+00 5.111249777764035116e+02
1.464151396335120481e+00 5.111527130915327461e+02
1.464251420340881849e+00 5.111823846981646966e+02
1.464351444346643216e+00 5.112139580968354267e+02
1.464451468352404584e+00 5.112473974469542100e+02
1.464551492358165952e+00 5.112826655917750713e+02
1.464651516363927319e+00 5.113197240842702627e+02
1.464751540369688687e+00 5.113585332138866875e+02
1.464851564375450055e+00 5.113990520341740194e+02
1.464951588381211423e+00 5.114412383912545579e+02
1.465051612386972790e+00 5.114850489531263520e+02
1.465151636392734158e+00 5.115304392397742390e+02
1.465251660398495526e+00 5.115773636540714620e+02
1.465351684404256893e+00 5.116257755134457170e+02
1.465451708410018261e+00 5.116756270822994566e+02
1.465551732415779629e+00 5.117268696051492043e+02
1.465651756421540997e+00 5.117794533404730828e+02
1.465751780427302364e+00 5.118333275952367671e+02
1.465851804433063954e+00 5.118884407600784812e+02
1.465951828438825322e+00 5.119447403451284799e+02
1.466051852444586689e+00 5.120021730164378368e+02
1.466151876450348057e+00 5.120606846329956170e+02
1.466251900456109425e+00 5.121202202843045370e+02
1.466351924461870793e+00 5.121807243284956712e+02
1.466451948467632160e+00 5.122421404309519630e+02
1.466551972473393528e+00 5.123044116034207036e+02
1.466651996479154896e+00 5.123674802435770061e+02
1.466752020484916263e+00 5.124312881750311135e+02
1.466852044490677631e+00 5.124957766877321319e+02
1.466952068496438999e+00 5.125608865787563673e+02
1.467052092502200367e+00 5.126265581934442253e+02
1.467152116507961734e+00 5.126927314668633926e+02
1.467252140513723102e+00 5.127593459655702191e+02
1.467352164519484470e+00 5.128263409296343980e+02
1.467452188525245838e+00 5.128936553149105748e+02
1.467552212531007205e+00 5.129612278355217541e+02
1.467652236536768573e+00 5.130289970065231273e+02
1.467752260542530163e+00 5.130969011867251766e+02
1.467852284548291752e+00 5.131648786216444478e+02
1.467952308554052898e+00 5.132328674865503899e+02
1.468052332559814488e+00 5.133008059295879093e+02
1.468152356565575634e+00 5.133686321149311880e+02
1.468252380571337223e+00 5.134362842659627404e+02
1.468352404577098369e+00 5.135037007084257539e+02
1.468452428582859959e+00 5.135708199135381165e+02
1.468552452588621104e+00 5.136375805410289104e+02
1.468652476594382694e+00 5.137039214820748612e+02
1.468752500600143840e+00 5.137697819021038868e+02
1.468852524605905430e+00 5.138351012834416451e+02
1.468952548611666575e+00 5.138998194677679976e+02
1.469052572617428165e+00 5.139638766983587175e+02
1.469152596623189311e+00 5.140272136620801575e+02
1.469252620628950901e+00 5.140897715311165257e+02
1.469352644634712046e+00 5.141514920043915708e+02
1.469452668640473636e+00 5.142123173486656924e+02
1.469552692646235226e+00 5.142721904392772103e+02
1.469652716651996593e+00 5.143310548005010787e+02
1.469752740657757961e+00 5.143888546454968491e+02
1.469852764663519329e+00 5.144455349158240551e+02
1.469952788669280697e+00 5.145010413204909128e+02
1.470052812675042064e+00 5.145553203745204200e+02
1.470152836680803432e+00 5.146083194369952025e+02
1.470252860686564800e+00 5.146599867485674622e+02
1.470352884692326167e+00 5.147102714684048124e+02
1.470452908698087535e+00 5.147591237105442588e+02
1.470552932703848903e+00 5.148064945796326128e+02
1.470652956709610271e+00 5.148523362060325326e+02
1.470752980715371638e+00 5.148966017802642909e+02
1.470853004721133006e+00 5.149392455867650824e+02
1.470953028726894374e+00 5.149802230369422205e+02
1.471053052732655742e+00 5.150194907014960108e+02
1.471153076738417109e+00 5.150570063419943381e+02
1.471253100744178477e+00 5.150927289416732719e+02
1.471353124749939845e+00 5.151266187354484600e+02
1.471453148755701434e+00 5.151586372391117266e+02
1.471553172761462802e+00 5.151887472776976438e+02
1.471653196767224170e+00 5.152169130129971109e+02
1.471753220772985538e+00 5.152430999702036161e+02
1.471853244778746905e+00 5.152672750636718320e+02
1.471953268784508273e+00 5.152894066217683076e+02
1.472053292790269641e+00 5.153094644108073226e+02
1.472153316796031008e+00 5.153274196580416628e+02
1.472253340801792376e+00 5.153432450737052477e+02
1.472353364807553744e+00 5.153569148720862358e+02
1.472453388813315112e+00 5.153684047916169675e+02
1.472553412819076479e+00 5.153776921139699425e+02
1.472653436824837847e+00 5.153847556821425542e+02
1.472753460830599215e+00 5.153895759175208013e+02
1.472853484836360582e+00 5.153921348359147032e+02
1.472953508842121950e+00 5.153924160625408604e+02
1.473053532847883318e+00 5.153904048459594378e+02
1.473153556853644686e+00 5.153860880709426056e+02
1.473253580859406275e+00 5.153794542702721628e+02
1.473353604865167643e+00 5.153704936354542951e+02
1.473453628870929011e+00 5.153591980263483947e+02
1.473553652876690379e+00 5.153455609796984618e+02
1.473653676882451746e+00 5.153295777165656091e+02
1.473753700888213114e+00 5.153112451486508689e+02
1.473853724893974482e+00 5.152905618835077348e+02
1.473953748899735849e+00 5.152675282286429592e+02
1.474053772905497217e+00 5.152421461944933299e+02
1.474153796911258585e+00 5.152144194962849042e+02
1.474253820917019953e+00 5.151843535547706097e+02
1.474353844922781320e+00 5.151519554958398430e+02
1.474453868928542688e+00 5.151172341490104145e+02
1.474553892934304056e+00 5.150802000447924911e+02
1.474653916940065423e+00 5.150408654109319286e+02
1.474753940945826791e+00 5.149992441675343571e+02
1.474853964951588159e+00 5.149553519210701324e+02
1.474953988957349527e+00 5.149092059572665221e+02
1.475054012963110894e+00 5.148608252328903063e+02
1.475154036968872706e+00 5.148102303664231840e+02
1.475254060974633852e+00 5.147574436276407823e+02
1.475354084980395442e+00 5.147024889260951568e+02
1.475454108986156587e+00 5.146453917985155613e+02
1.475554132991918177e+00 5.145861793951248728e+02
1.475654156997679323e+00 5.145248804648913392e+02
1.475754181003440912e+00 5.144615253397163315e+02
1.475854205009202058e+00 5.143961459175732216e+02
1.475954229014963648e+00 5.143287756446038657e+02
1.476054253020724794e+00 5.142594494961861074e+02
1.476154277026486383e+00 5.141882039569834433e+02
1.476254301032247529e+00 5.141150769999907197e+02
1.476354325038009119e+00 5.140401080645883667e+02
1.476454349043770264e+00 5.139633380336157416e+02
1.476554373049531854e+00 5.138848092094837057e+02
1.476654397055293000e+00 5.138045652893363240e+02
1.476754421061054590e+00 5.137226513392824927e+02
1.476854445066815735e+00 5.136391137677087499e+02
1.476954469072577547e+00 5.135540002976915730e+02
1.477054493078338915e+00 5.134673599385328089e+02
1.477154517084100283e+00 5.133792429564215354e+02
1.477254541089861650e+00 5.132897008442616880e+02
1.477354565095623018e+00 5.131987862906628379e+02
1.477454589101384386e+00 5.131065531481315247e+02
1.477554613107145753e+00 5.130130564004737153e+02
1.477654637112907121e+00 5.129183521294299908e+02
1.477754661118668489e+00 5.128224974805686998e+02
1.477854685124429857e+00 5.127255506284557214e+02
1.477954709130191224e+00 5.126275707411224403e+02
1.478054733135952592e+00 5.125286179438571708e+02
1.478154757141713960e+00 5.124287532823410629e+02
1.478254781147475327e+00 5.123280386851532739e+02
1.478354805153236695e+00 5.122265369256681424e+02
1.478454829158998063e+00 5.121243115833691490e+02
1.478554853164759431e+00 5.120214270046056981e+02
1.478654877170520798e+00 5.119179482628138658e+02
1.478754901176282166e+00 5.118139411182327763e+02
1.478854925182043756e+00 5.117094719771367863e+02
1.478954949187805124e+00 5.116046078506105914e+02
1.479054973193566491e+00 5.114994163128967557e+02
1.479154997199327859e+00 5.113939654593377782e+02
1.479255021205089227e+00 5.112883238639435604e+02
1.479355045210850594e+00 5.111825605366097420e+02
1.479455069216611962e+00 5.110767448800114039e+02
1.479555093222373330e+00 5.109709466462057321e+02
1.479655117228134698e+00 5.108652358929672346e+02
1.479755141233896065e+00 5.107596829398839304e+02
1.479855165239657433e+00 5.106543583242413433e+02
1.479955189245418801e+00 5.105493327567273241e+02
1.480055213251180168e+00 5.104446770769818613e+02
1.480155237256941536e+00 5.103404622090181419e+02
1.480255261262702904e+00 5.102367591165519798e+02
1.480355285268464272e+00 5.101336387582574616e+02
1.480455309274225639e+00 5.100311720429863271e+02
1.480555333279987007e+00 5.099294297849754685e+02
1.480655357285748597e+00 5.098284826590686407e+02
1.480755381291509964e+00 5.097284011559888768e+02
1.480855405297271332e+00 5.096292555376826385e+02
1.480955429303032700e+00 5.095311157927673662e+02
1.481055453308794068e+00 5.094340515921119845e+02
1.481155477314555435e+00 5.093381322445745809e+02
1.481255501320316803e+00 5.092434266529334650e+02
1.481355525326078171e+00 5.091500032700284351e+02
1.481455549331839538e+00 5.090579300551531219e+02
1.481555573337600906e+00 5.089672744307127914e+02
1.481655597343362274e+00 5.088781032391902954e+02
1.481755621349123642e+00 5.087904827004318804e+02
1.481855645354885009e+00 5.087044783692924739e+02
1.481955669360646377e+00 5.086201550936627314e+02
1.482055693366407745e+00 5.085375769729042759e+02
1.482155717372169113e+00 5.084568073167170041e+02
1.482255741377930480e+00 5.083779086044752944e+02
1.482355765383691848e+00 5.083009424450451661e+02
1.482455789389453216e+00 5.082259695371179191e+02
1.482555813395214805e+00 5.081530496300803179e+02
1.482655837400976395e+00 5.080822414854508224e+02
1.482755861406737541e+00 5.080136028389039211e+02
1.482855885412499131e+00 5.079471903629014378e+02
1.482955909418260276e+00 5.078830596299678746e+02
1.483055933424021866e+00 5.078212650766211027e+02
1.483155957429783012e+00 5.077618599679840941e+02
1.483255981435544602e+00 5.077048963631075367e+02
1.483356005441305747e+00 5.076504250810124859e+02
1.483456029447067337e+00 5.075984956674875548e+02
1.483556053452828483e+00 5.075491563626542870e+02
1.483656077458590072e+00 5.075024540693215158e+02
1.483756101464351218e+00 5.074584343221544032e+02
1.483856125470112808e+00 5.074171412576691864e+02
1.483956149475873953e+00 5.073786175850821110e+02
1.484056173481635543e+00 5.073429045580218144e+02
1.484156197487396689e+00 5.073100419471319356e+02
1.484256221493158279e+00 5.072800680135745779e+02
1.484356245498919868e+00 5.072530194834545227e+02
1.484456269504681236e+00 5.072289315231797104e+02
1.484556293510442604e+00 5.072078377157757814e+02
1.484656317516203972e+00 5.071897700381637151e+02
1.484756341521965339e+00 5.071747588394239301e+02
1.484856365527726707e+00 5.071628328200494025e+02
1.484956389533488075e+00 5.071540190122152580e+02
1.485056413539249442e+00 5.071483427610604622e+02
1.485156437545010810e+00 5.071458277070087775e+02
1.485256461550772178e+00 5.071464957691310929e+02
1.485356485556533546e+00 5.071503671295586742e+02
1.485456509562294913e+00 5.071574602189695611e+02
1.485556533568056281e+00 5.071677917031357197e+02
1.485656557573817649e+00 5.071813764705636345e+02
1.485756581579579017e+00 5.071982276212164038e+02
1.485856605585340384e+00 5.072183564563335949e+02
1.485956629591101752e+00 5.072417724693580681e+02
1.486056653596863120e+00 5.072684833379661882e+02
1.486156677602624487e+00 5.072984949172118831e+02
1.486256701608386077e+00 5.073318112337913135e+02
1.486356725614147445e+00 5.073684344814257656e+02
1.486456749619908813e+00 5.074083650173673732e+02
1.486556773625670180e+00 5.074516013600350561e+02
1.486656797631431548e+00 5.074981401877711278e+02
1.486756821637192916e+00 5.075479763387317007e+02
1.486856845642954283e+00 5.076011028118993522e+02
1.486956869648715651e+00 5.076575107692277129e+02
1.487056893654477019e+00 5.077171895389054157e+02
1.487156917660238387e+00 5.077801266197494670e+02
1.487256941665999754e+00 5.078463076867119526e+02
1.487356965671761122e+00 5.079157165975077532e+02
1.487456989677522490e+00 5.079883354003525255e+02
1.487557013683283857e+00 5.080641443428049797e+02
1.487657037689045225e+00 5.081431218817155013e+02
1.487757061694806593e+00 5.082252446942632105e+02
1.487857085700567961e+00 5.083104876900827094e+02
1.487957109706329328e+00 5.083988240244703434e+02
1.488057133712090918e+00 5.084902251126617898e+02
1.488157157717852286e+00 5.085846606451673324e+02
1.488257181723613654e+00 5.086820986041624337e+02
1.488357205729375021e+00 5.087825052809170074e+02
1.488457229735136389e+00 5.088858452942534996e+02
1.488557253740897757e+00 5.089920816100249112e+02
1.488657277746659124e+00 5.091011755615950278e+02
1.488757301752420492e+00 5.092130868713117025e+02
1.488857325758181860e+00 5.093277736729586422e+02
1.488957349763943228e+00 5.094451925351673367e+02
1.489057373769704595e+00 5.095652984857835008e+02
1.489157397775465963e+00 5.096880450371580764e+02
1.489257421781227331e+00 5.098133842123621662e+02
1.489357445786988698e+00 5.099412665722973088e+02
1.489457469792750066e+00 5.100716412436870542e+02
1.489557493798511434e+00 5.102044559479360260e+02
1.489657517804272802e+00 5.103396570308359514e+02
1.489757541810034169e+00 5.104771894930897247e+02
1.489857565815795537e+00 5.106169970216537308e+02
1.489957589821557349e+00 5.107590220218605737e+02
1.490057613827318495e+00 5.109032056503083936e+02
1.490157637833080084e+00 5.110494878485001209e+02
1.490257661838841230e+00 5.111978073772033326e+02
1.490357685844602820e+00 5.113481018515113306e+02
1.490457709850363965e+00 5.115003077765881585e+02
1.490557733856125555e+00 5.116543605840658415e+02
1.490657757861886701e+00 5.118101946690812838e+02
1.490757781867648291e+00 5.119677434279174122e+02
1.490857805873409436e+00 5.121269392962340135e+02
1.490957829879171026e+00 5.122877137878596159e+02
1.491057853884932172e+00 5.124499975341233267e+02
1.491157877890693761e+00 5.126137203236926325e+02
1.491257901896454907e+00 5.127788111429072160e+02
1.491357925902216497e+00 5.129451982165650179e+02
1.491457949907977643e+00 5.131128090491528155e+02
1.491557973913739232e+00 5.132815704664772056e+02
1.491657997919500378e+00 5.134514086576879208e+02
1.491758021925262190e+00 5.136222492176501646e+02
1.491858045931023558e+00 5.137940171896512993e+02
1.491958069936784925e+00 5.139666371084085768e+02
1.492058093942546293e+00 5.141400330433526733e+02
1.492158117948307661e+00 5.143141286421582663e+02
1.492258141954069028e+00 5.144888471744981189e+02
1.492358165959830396e+00 5.146641115759895229e+02
1.492458189965591764e+00 5.148398444923019497e+02
1.492558213971353132e+00 5.150159683234112435e+02
1.492658237977114499e+00 5.151924052679545412e+02
1.492758261982875867e+00 5.153690773676736399e+02
1.492858285988637235e+00 5.155459065519082742e+02
1.492958309994398602e+00 5.157228146821192922e+02
1.493058334000159970e+00 5.158997235964075116e+02
1.493158358005921338e+00 5.160765551540018805e+02
1.493258382011682706e+00 5.162532312796961378e+02
1.493358406017444073e+00 5.164296740081915686e+02
1.493458430023205441e+00 5.166058055283333488e+02
1.493558454028966809e+00 5.167815482272038707e+02
1.493658478034728398e+00 5.169568247340473590e+02
1.493758502040489766e+00 5.171315579640004216e+02
1.493858526046251134e+00 5.173056711615984113e+02
1.493958550052012502e+00 5.174790879440333811e+02
1.494058574057773869e+00 5.176517323441338476e+02
1.494158598063535237e+00 5.178235288530415801e+02
1.494258622069296605e+00 5.179944024625604015e+02
1.494358646075057973e+00 5.181642787071453995e+02
1.494458670080819340e+00 5.183330837055132179e+02
1.494558694086580708e+00 5.185007442018430766e+02
1.494658718092342076e+00 5.186671876065460083e+02
1.494758742098103443e+00 5.188323420365720722e+02
1.494858766103864811e+00 5.189961363552401963e+02
1.494958790109626179e+00 5.191585002115554062e+02
1.495058814115387547e+00 5.193193640789975234e+02
1.495158838121148914e+00 5.194786592937533669e+02
1.495258862126910282e+00 5.196363180923691516e+02
1.495358886132671650e+00 5.197922736488029614e+02
1.495458910138433239e+00 5.199464601108534225e+02
1.495558934144194607e+00 5.200988126359372927e+02
1.495658958149955975e+00 5.202492674262055061e+02
1.495758982155717343e+00 5.203977617629640235e+02
1.495859006161478710e+00 5.205442340403890285e+02
1.495959030167240078e+00 5.206886237985082744e+02
1.496059054173001446e+00 5.208308717554339182e+02
1.496159078178762813e+00 5.209709198388244431e+02
1.496259102184524181e+00 5.211087112165598683e+02
1.496359126190285549e+00 5.212441903266087593e+02
1.496459150196046917e+00 5.213773029060714634e+02
1.496559174201808284e+00 5.215079960193810393e+02
1.496659198207569652e+00 5.216362180856485793e+02
1.496759222213331020e+00 5.217619189051284820e+02
1.496859246219092388e+00 5.218850496848016292e+02
1.496959270224853755e+00 5.220055630630475889e+02
1.497059294230615123e+00 5.221234131334008453e+02
1.497159318236376491e+00 5.222385554673751358e+02
1.497259342242137858e+00 5.223509471363399825e+02
1.497359366247899448e+00 5.224605467324392976e+02
1.497459390253661038e+00 5.225673143885437639e+02
1.497559414259422184e+00 5.226712117972182341e+02
1.497659438265183773e+00 5.227722022286983474e+02
1.497759462270944919e+00 5.228702505478678404e+02
1.497859486276706509e+00 5.229653232302240440e+02
1.497959510282467654e+00 5.230573883768240648e+02
1.498059534288229244e+00 5.231464157282047154e+02
1.498159558293990390e+00 5.232323766772678937e+02
1.498259582299751980e+00 5.233152442811261835e+02
1.498359606305513125e+00 5.233949932719013987e+02
1.498459630311274715e+00 5.234716000664718649e+02
1.498559654317035861e+00 5.235450427751637790e+02
1.498659678322797451e+00 5.236153012093826646e+02
1.498759702328558596e+00 5.236823568881825395e+02
1.498859726334320186e+00 5.237461930437699493e+02
1.498959750340081332e+00 5.238067946259401424e+02
1.499059774345842921e+00 5.238641483054466335e+02
1.499159798351604511e+00 5.239182424763026802e+02
1.499259822357365879e+00 5.239690672570141032e+02
1.499359846363127247e+00 5.240166144907461785e+02
1.499459870368888614e+00 5.240608777444260795e+02
1.499559894374649982e+00 5.241018523067835986e+02
1.499659918380411350e+00 5.241395351853293505e+02
1.499759942386172717e+00 5.241739251022834196e+02
1.499859966391934085e+00 5.242050224894481971e+02
1.499959990397695453e+00 5.242328294820380279e+02
1.500060014403456821e+00 5.029304211429886209e+02
1.500160038409218188e+00 5.024440166937692425e+02
1.500260062414979556e+00 5.019535423677361905e+02
1.500360086420740924e+00 5.014591563529968425e+02
1.500460110426502292e+00 5.009610190838922676e+02
1.500560134432263659e+00 5.004592931637269544e+02
1.500660158438025027e+00 4.999541432862776560e+02
1.500760182443786395e+00 4.994457361561262019e+02
1.500860206449547762e+00 4.989342404078649338e+02
1.500960230455309130e+00 4.984198265242140451e+02
1.501060254461070720e+00 4.979026667530919212e+02
1.501160278466832088e+00 4.973829350236939604e+02
1.501260302472593455e+00 4.968608068616148898e+02
1.501360326478354823e+00 4.963364593030656238e+02
1.501460350484116191e+00 4.958100708082342862e+02
1.501560374489877558e+00 4.952818211738303944e+02
1.501660398495638926e+00 4.947518914448692726e+02
1.501760422501400294e+00 4.942204638257348961e+02
1.501860446507161662e+00 4.936877215905807930e+02
1.501960470512923029e+00 4.931538489931062941e+02
1.502060494518684397e+00 4.926190311757654285e+02
1.502160518524445765e+00 4.920834540784541105e+02
1.502260542530207132e+00 4.915473043467294474e+02
1.502360566535968500e+00 4.910107692396009043e+02
1.502460590541729868e+00 4.904740365369594315e+02
1.502560614547491236e+00 4.899372944466788908e+02
1.502660638553252603e+00 4.894007315114516246e+02
1.502760662559013971e+00 4.888645365154041542e+02
1.502860686564775561e+00 4.883288983905435430e+02
1.502960710570536929e+00 4.877940061230854099e+02
1.503060734576298296e+00 4.872600486597186205e+02
1.503160758582059664e+00 4.867272148138508214e+02
1.503260782587821032e+00 4.861956931718901842e+02
1.503360806593582399e+00 4.856656719996166203e+02
1.503460830599343767e+00 4.851373391486828837e+02
1.503560854605105135e+00 4.846108819633117264e+02
1.503660878610866503e+00 4.840864871872245203e+02
1.503760902616627870e+00 4.835643408708646120e+02
1.503860926622389238e+00 4.830446282789541215e+02
1.503960950628150606e+00 4.825275337984464841e+02
1.504060974633911973e+00 4.820132408469110032e+02
1.504160998639673341e+00 4.815019317814141004e+02
1.504261022645434709e+00 4.809937878079308007e+02
1.504361046651196077e+00 4.804889888913510276e+02
1.504461070656957444e+00 4.799877136661144164e+02
1.504561094662718812e+00 4.794901393475366831e+02
1.504661118668480180e+00 4.789964416438600665e+02
1.504761142674241992e+00 4.785067946690904819e+02
1.504861166680003137e+00 4.780213708566570290e+02
1.504961190685764727e+00 4.775403408739456381e+02
1.505061214691525873e+00 4.770638735377506237e+02
1.505161238697287462e+00 4.765921357306948494e+02
1.505261262703048608e+00 4.761252923186525550e+02
1.505361286708810198e+00 4.756635060692335628e+02
1.505461310714571344e+00 4.752069375713595036e+02
1.505561334720332933e+00 4.747557451559837318e+02
1.505661358726094079e+00 4.743100848179939817e+02
1.505761382731855669e+00 4.738701101393386352e+02
1.505861406737616814e+00 4.734359722134230424e+02
1.505961430743378404e+00 4.730078195708058502e+02
1.506061454749139550e+00 4.725857981062496265e+02
1.506161478754901140e+00 4.721700510071500503e+02
1.506261502760662285e+00 4.717607186833910191e+02
1.506361526766423875e+00 4.713579386986605186e+02
1.506461550772185021e+00 4.709618457032629522e+02
1.506561574777946833e+00 4.705725713684624338e+02
1.506661598783708200e+00 4.701902443223972341e+02
1.506761622789469568e+00 4.698149900875893650e+02
1.506861646795230936e+00 4.694469310200963150e+02
1.506961670800992303e+00 4.690861862503195994e+02
1.507061694806753671e+00 4.687328716255184986e+02
1.507161718812515039e+00 4.683870996540455849e+02
1.507261742818276407e+00 4.680489794513430866e+02
1.507361766824037774e+00 4.677186166877180540e+02
1.507461790829799142e+00 4.673961135379367420e+02
1.507561814835560510e+00 4.670815686326490663e+02
1.507661838841321877e+00 4.667750770116834929e+02
1.507761862847083245e+00 4.664767300792227047e+02
1.507861886852844613e+00 4.661866155608918234e+02
1.507961910858605981e+00 4.659048174627813523e+02
1.508061934864367348e+00 4.656314160324178602e+02
1.508161958870128716e+00 4.653664877217104276e+02
1.508261982875890084e+00 4.651101051518876943e+02
1.508362006881651451e+00 4.648623370804440356e+02
1.508462030887413041e+00 4.646232483701101046e+02
1.508562054893174409e+00 4.643928999598647351e+02
1.508662078898935777e+00 4.641713488379995169e+02
1.508762102904697144e+00 4.639586480172554275e+02
1.508862126910458512e+00 4.637548465120340779e+02
1.508962150916219880e+00 4.635599893177020476e+02
1.509062174921981248e+00 4.633741173919942185e+02
1.509162198927742615e+00 4.631972676385250338e+02
1.509262222933503983e+00 4.630294728924162655e+02
1.509362246939265351e+00 4.628707619080444147e+02
1.509462270945026718e+00 4.627211593489174675e+02
1.509562294950788086e+00 4.625806857796753775e+02
1.509662318956549454e+00 4.624493576602321809e+02
1.509762342962310822e+00 4.623271873420441693e+02
1.509862366968072189e+00 4.622141830665152611e+02
1.509962390973833557e+00 4.621103489655355929e+02
1.510062414979594925e+00 4.620156850641492952e+02
1.510162438985356292e+00 4.619301872853522468e+02
1.510262462991117882e+00 4.618538474570107724e+02
1.510362486996879250e+00 4.617866533208971873e+02
1.510462511002640618e+00 4.617285885438379864e+02
1.510562535008401985e+00 4.616796327309617709e+02
1.510662559014163353e+00 4.616397614410427650e+02
1.510762583019924721e+00 4.616089462039254272e+02
1.510862607025686088e+00 4.615871545400216291e+02
1.510962631031447456e+00 4.615743499818669875e+02
1.511062655037208824e+00 4.615704920977204893e+02
1.511162679042970192e+00 4.615755365171981452e+02
1.511262703048731559e+00 4.615894349589167973e+02
1.511362727054492927e+00 4.616121352601391550e+02
1.511462751060254295e+00 4.616435814083978926e+02
1.511562775066015663e+00 4.616837135750770358e+02
1.511662799071777030e+00 4.617324681509369384e+02
1.511762823077538398e+00 4.617897777835572697e+02
1.511862847083299766e+00 4.618555714166768666e+02
1.511962871089061133e+00 4.619297743314051559e+02
1.512062895094822501e+00 4.620123081892853065e+02
1.512162919100584091e+00 4.621030910771785898e+02
1.512262943106345681e+00 4.622020375539499355e+02
1.512362967112106826e+00 4.623090586989194435e+02
1.512462991117868416e+00 4.624240621620594425e+02
1.512563015123629562e+00 4.625469522159029339e+02
1.512663039129391152e+00 4.626776298091360218e+02
1.512763063135152297e+00 4.628159926218420424e+02
1.512863087140913887e+00 4.629619351223655030e+02
1.512963111146675033e+00 4.631153486257665577e+02
1.513063135152436622e+00 4.632761213538261700e+02
1.513163159158197768e+00 4.634441384965746238e+02
1.513263183163959358e+00 4.636192822753032488e+02
1.513363207169720503e+00 4.638014320070270742e+02
1.513463231175482093e+00 4.639904641703577681e+02
1.513563255181243239e+00 4.641862524727542336e+02
1.513663279187004829e+00 4.643886679191112989e+02
1.513763303192765974e+00 4.645975788816435283e+02
1.513863327198527564e+00 4.648128511710324915e+02
1.513963351204289154e+00 4.650343481087888904e+02
1.514063375210050522e+00 4.652619306008017475e+02
1.514163399215811889e+00 4.654954572120121270e+02
1.514263423221573257e+00 4.657347842421968949e+02
1.514363447227334625e+00 4.659797658027935654e+02
1.514463471233095992e+00 4.662302538947453741e+02
1.514563495238857360e+00 4.664860984873070038e+02
1.514663519244618728e+00 4.667471475977778255e+02
1.514763543250380096e+00 4.670132473721097313e+02
1.514863567256141463e+00 4.672842421663568757e+02
1.514963591261902831e+00 4.675599746289053655e+02
1.515063615267664199e+00 4.678402857834553856e+02
1.515163639273425567e+00 4.681250151126955643e+02
1.515263663279186934e+00 4.684140006426325726e+02
1.515363687284948302e+00 4.687070790275249692e+02
1.515463711290709670e+00 4.690040856353760432e+02
1.515563735296471037e+00 4.693048546339393852e+02
1.515663759302232405e+00 4.696092190771880155e+02
1.515763783307993773e+00 4.699170109922022220e+02
1.515863807313755363e+00 4.702280614664268228e+02
1.515963831319516730e+00 4.705422007352522087e+02
1.516063855325278098e+00 4.708592582698665296e+02
1.516163879331039466e+00 4.711790628653405975e+02
1.516263903336800833e+00 4.715014427288854222e+02
1.516363927342562201e+00 4.718262255682464001e+02
1.516463951348323569e+00 4.721532386801789585e+02
1.516563975354084937e+00 4.724823090389571121e+02
1.516663999359846304e+00 4.728132633848759951e+02
1.516764023365607672e+00 4.731459283126852711e+02
1.516864047371369040e+00 4.734801303599268749e+02
1.516964071377130407e+00 4.738156960951055794e+02
1.517064095382891775e+00 4.741524522056670321e+02
1.517164119388653143e+00 4.744902255857195428e+02
1.517264143394414511e+00 4.748288434234658553e+02
1.517364167400175878e+00 4.751681332882841957e+02
1.517464191405937246e+00 4.755079232174290951e+02
1.517564215411698614e+00 4.758480418022887761e+02
1.517664239417460204e+00 4.761883182741655673e+02
1.517764263423221571e+00 4.765285825895307426e+02
1.517864287428982939e+00 4.768686655147024567e+02
1.517964311434744307e+00 4.772083987099142632e+02
1.518064335440505674e+00 4.775476148127177112e+02
1.518164359446267042e+00 4.778861475206804812e+02
1.518264383452028410e+00 4.782238316733416355e+02
1.518364407457789778e+00 4.785605033333716847e+02
1.518464431463551145e+00 4.788959998668994444e+02
1.518564455469312513e+00 4.792301600229667429e+02
1.518664479475073881e+00 4.795628240120664714e+02
1.518764503480835248e+00 4.798938335837203226e+02
1.518864527486596616e+00 4.802230321030647247e+02
1.518964551492357984e+00 4.805502646263961992e+02
1.519064575498119352e+00 4.808753779756439144e+02
1.519164599503880719e+00 4.811982208117265145e+02
1.519264623509642087e+00 4.815186437067612815e+02
1.519364647515403455e+00 4.818364992150806074e+02
1.519464671521164822e+00 4.821516419430326437e+02
1.519564695526926634e+00 4.824639286175112147e+02
1.519664719532687780e+00 4.827732181532047662e+02
1.519764743538449370e+00 4.830793717185077867e+02
1.519864767544210515e+00 4.833822528000775947e+02
1.519964791549972105e+00 4.836817272659945388e+02
1.520064815555733251e+00 4.839776634275046945e+02
1.520164839561494841e+00 4.842699320992971366e+02
1.520264863567255986e+00 4.845584066583102185e+02
1.520364887573017576e+00 4.848429631010126286e+02
1.520464911578778722e+00 4.851234800991521183e+02
1.520564935584540311e+00 4.853998390539342154e+02
1.520664959590301457e+00 4.856719241486032956e+02
1.520764983596063047e+00 4.859396223994118031e+02
1.520865007601824193e+00 4.862028237049399877e+02
1.520965031607585782e+00 4.864614208937520061e+02
1.521065055613346928e+00 4.867153097703630351e+02
1.521165079619108518e+00 4.869643891594984098e+02
1.521265103624869663e+00 4.872085609486176168e+02
1.521365127630631475e+00 4.874477301286946158e+02
1.521465151636392843e+00 4.876818048332253284e+02
1.521565175642154211e+00 4.879106963754552453e+02
1.521665199647915578e+00 4.881343192837996980e+02
1.521765223653676946e+00 4.883525913354521322e+02
1.521865247659438314e+00 4.885654335881615111e+02
1.521965271665199682e+00 4.887727704101616268e+02
1.522065295670961049e+00 4.889745295082498728e+02
1.522165319676722417e+00 4.891706419539938224e+02
1.522265343682483785e+00 4.893610422080669196e+02
1.522365367688245152e+00 4.895456681426900332e+02
1.522465391694006520e+00 4.897244610621875154e+02
1.522565415699767888e+00 4.898973657216365609e+02
1.522665439705529256e+00 4.900643303436128235e+02
1.522765463711290623e+00 4.902253066330252409e+02
1.522865487717051991e+00 4.903802497900328490e+02
1.522965511722813359e+00 4.905291185210495541e+02
1.523065535728574726e+00 4.906718750478277116e+02
1.523165559734336094e+00 4.908084851146185201e+02
1.523265583740097684e+00 4.909389179934228764e+02
1.523365607745859052e+00 4.910631464873166578e+02
1.523465631751620419e+00 4.911811469318673176e+02
1.523565655757381787e+00 4.912928991946384940e+02
1.523665679763143155e+00 4.913983866727912755e+02
1.523765703768904523e+00 4.914975962887816081e+02
1.523865727774665890e+00 4.915905184841720938e+02
1.523965751780427258e+00 4.916771472115527786e+02
1.524065775786188626e+00 4.917574799245917347e+02
1.524165799791949993e+00 4.918315175662165757e+02
1.524265823797711361e+00 4.918992645549463418e+02
1.524365847803472729e+00 4.919607287693763737e+02
1.524465871809234097e+00 4.920159215308376019e+02
1.524565895814995464e+00 4.920648575842386094e+02
1.524665919820756832e+00 4.921075550771108169e+02
1.524765943826518200e+00 4.921440355368658857e+02
1.524865967832279567e+00 4.921743238462900081e+02
1.524965991838040935e+00 4.921984482172856588e+02
1.525066015843802525e+00 4.922164401628851920e+02
1.525166039849563893e+00 4.922283344675546459e+02
1.525266063855325260e+00 4.922341691558058301e+02
1.525366087861086628e+00 4.922339854591392623e+02
1.525466111866847996e+00 4.922278277813464342e+02
1.525566135872609363e+00 4.922157436621824900e+02
1.525666159878370731e+00 4.921977837394460948e+02
1.525766183884132099e+00 4.921740017094822406e+02
1.525866207889893467e+00 4.921444542861398759e+02
1.525966231895654834e+00 4.921092011582072132e+02
1.526066255901416202e+00 4.920683049453527360e+02
1.526166279907177570e+00 4.920218311526019761e+02
1.526266303912938938e+00 4.919698481233767779e+02
1.526366327918700305e+00 4.919124269911272336e+02
1.526466351924461673e+00 4.918496416295889730e+02
1.526566375930223041e+00 4.917815686016907080e+02
1.526666399935984408e+00 4.917082871071521026e+02
1.526766423941745776e+00 4.916298789287974387e+02
1.526866447947507144e+00 4.915464283776200318e+02
1.526966471953268734e+00 4.914580222366354292e+02
1.527066495959030323e+00 4.913647497035483411e+02
1.527166519964791469e+00 4.912667023322800333e+02
1.527266543970553059e+00 4.911639739733761871e+02
1.527366567976314204e+00 4.910566607133508796e+02
1.527466591982075794e+00 4.909448608129827107e+02
1.527566615987836940e+00 4.908286746446136135e+02
1.527666639993598530e+00 4.907082046284848502e+02
1.527766663999359675e+00 4.905835551681426523e+02
1.527866688005121265e+00 4.904548325849581261e+02
1.527966712010882411e+00 4.903221450517985431e+02
1.528066736016644001e+00 4.901856025258862246e+02
1.528166760022405146e+00 4.900453166808848096e+02
1.528266784028166736e+00 4.899014008382599172e+02
1.528366808033927882e+00 4.897539698979398395e+02
1.528466832039689471e+00 4.896031402683332772e+02
1.528566856045450617e+00 4.894490297957309508e+02
1.528666880051212207e+00 4.892917576931390613e+02
1.528766904056973797e+00 4.891314444685838225e+02
1.528866928062735164e+00 4.889682118529283912e+02
1.528966952068496532e+00 4.888021827272445421e+02
1.529066976074257900e+00 4.886334810497762646e+02
1.529167000080019267e+00 4.884622317825447340e+02
1.529267024085780635e+00 4.882885608176275127e+02
1.529367048091542003e+00 4.881125949031610389e+02
1.529467072097303371e+00 4.879344615691044282e+02
1.529567096103064738e+00 4.877542890528063140e+02
1.529667120108826106e+00 4.875722062244207109e+02
1.529767144114587474e+00 4.873883425122068047e+02
1.529867168120348841e+00 4.872028278277614390e+02
1.529967192126110209e+00 4.870157924912210206e+02
1.530067216131871577e+00 4.868273671564776350e+02
1.530167240137632945e+00 4.866376827364507562e+02
1.530267264143394312e+00 4.864468703284522917e+02
1.530367288149155680e+00 4.862550611396911791e+02
1.530467312154917048e+00 4.860623864129548792e+02
1.530567336160678416e+00 4.858689773525118767e+02
1.530667360166440005e+00 4.856749650502712257e+02
1.530767384172201373e+00 4.854804804122450719e+02
1.530867408177962741e+00 4.852856540853496767e+02
1.530967432183724108e+00 4.850906163845875767e+02
1.531067456189485476e+00 4.848954972206477692e+02
1.531167480195246844e+00 4.847004260279662731e+02
1.531267504201008212e+00 4.845055316932850928e+02
1.531367528206769579e+00 4.843109424847420996e+02
1.531467552212530947e+00 4.841167859815400334e+02
1.531567576218292315e+00 4.839231890042270265e+02
1.531667600224053682e+00 4.837302775456198560e+02
1.531767624229815050e+00 4.835381767024197188e+02
1.531867648235576418e+00 4.833470106075438366e+02
1.531967672241337786e+00 4.831569023632177959e+02
1.532067696247099153e+00 4.829679739748592056e+02
1.532167720252860521e+00 4.827803462857859245e+02
1.532267744258621889e+00 4.825941389127893899e+02
1.532367768264383256e+00 4.824094701825991933e+02
1.532467792270144846e+00 4.822264570692761367e+02
1.532567816275906214e+00 4.820452151325646923e+02
1.532667840281667582e+00 4.818658584572382324e+02
1.532767864287428949e+00 4.816884995934631775e+02
1.532867888293190317e+00 4.815132494982191247e+02
1.532967912298951685e+00 4.813402174778006497e+02
1.533067936304713053e+00 4.811695111314285782e+02
1.533167960310474420e+00 4.810012362960036967e+02
1.533267984316235788e+00 4.808354969920249573e+02
1.533368008321997156e+00 4.806723953707028159e+02
1.533468032327758523e+00 4.805120316622953283e+02
1.533568056333519891e+00 4.803545041256830928e+02
1.533668080339281259e+00 4.801999089992225436e+02
1.533768104345042627e+00 4.800483404528845881e+02
1.533868128350803994e+00 4.798998905417194010e+02
1.533968152356565362e+00 4.797546491606495920e+02
1.534068176362326730e+00 4.796127040006336415e+02
1.534168200368088097e+00 4.794741405062021613e+02
1.534268224373849465e+00 4.793390418344006321e+02
1.534368248379611277e+00 4.792074888151479968e+02
1.534468272385372423e+00 4.790795599130344158e+02
1.534568296391134012e+00 4.789553311905723945e+02
1.534668320396895158e+00 4.788348762729191890e+02
1.534768344402656748e+00 4.787182663140872592e+02
1.534868368408417894e+00 4.786055699646513517e+02
1.534968392414179483e+00 4.784968533409739848e+02
1.535068416419940629e+00 4.783921799959575765e+02
1.535168440425702219e+00 4.782916108913312314e+02
1.535268464431463364e+00 4.781952043714935030e+02
1.535368488437224954e+00 4.781030161389116415e+02
1.535468512442986100e+00 4.780150992310918809e+02
1.535568536448747690e+00 4.779315039991213325e+02
1.535668560454508835e+00 4.778522780878048479e+02
1.535768584460270425e+00 4.777774664173829819e+02
1.535868608466031571e+00 4.777071111668520871e+02
1.535968632471793160e+00 4.776412517588831861e+02
1.536068656477554306e+00 4.775799248463459890e+02
1.536168680483316118e+00 4.775231643004411239e+02
1.536268704489077486e+00 4.774710012004402415e+02
1.536368728494838853e+00 4.774234638250367766e+02
1.536468752500600221e+00 4.773805776453078806e+02
1.536568776506361589e+00 4.773423653192828624e+02
1.536668800512122957e+00 4.773088466881219460e+02
1.536768824517884324e+00 4.772800387738969903e+02
1.536868848523645692e+00 4.772559557789753626e+02
1.536968872529407060e+00 4.772366090869991808e+02
1.537068896535168427e+00 4.772220072654541241e+02
1.537168920540929795e+00 4.772121560698266762e+02
1.537268944546691163e+00 4.772070584493350225e+02
1.537368968552452531e+00 4.772067145542310982e+02
1.537468992558213898e+00 4.772111217446641263e+02
1.537569016563975266e+00 4.772202746010926262e+02
1.537669040569736634e+00 4.772341649362381304e+02
1.537769064575498001e+00 4.772527818085687841e+02
1.537869088581259369e+00 4.772761115372956624e+02
1.537969112587020737e+00 4.773041377188764613e+02
1.538069136592782327e+00 4.773368412450051892e+02
1.538169160598543694e+00 4.773742003220801848e+02
1.538269184604305062e+00 4.774161904921265887e+02
1.538369208610066430e+00 4.774627846551666153e+02
1.538469232615827798e+00 4.775139530930122760e+02
1.538569256621589165e+00 4.775696634944666812e+02
1.538669280627350533e+00 4.776298809819156759e+02
1.538769304633111901e+00 4.776945681392896290e+02
1.538869328638873268e+00 4.777636850413732645e+02
1.538969352644634636e+00 4.778371892844489821e+02
1.539069376650396004e+00 4.779150360182420627e+02
1.539169400656157372e+00 4.779971779791593463e+02
1.539269424661918739e+00 4.780835655247831255e+02
1.539369448667680107e+00 4.781741466696119573e+02
1.539469472673441475e+00 4.782688671220124093e+02
1.539569496679202842e+00 4.783676703223635513e+02
1.539669520684964210e+00 4.784704974823683870e+02
1.539769544690725578e+00 4.785772876255027199e+02
1.539869568696487168e+00 4.786879776285803700e+02
1.539969592702248535e+00 4.788025022644042679e+02
1.540069616708009903e+00 4.789207942454751787e+02
1.540169640713771271e+00 4.790427842687327598e+02
1.540269664719532638e+00 4.791684010613024043e+02
1.540369688725294006e+00 4.792975714272101868e+02
1.540469712731055374e+00 4.794302202950452738e+02
1.540569736736816742e+00 4.795662707665376274e+02
1.540669760742578109e+00 4.797056441660189421e+02
1.540769784748339477e+00 4.798482600907352662e+02
1.540869808754100845e+00 4.799940364619842512e+02
1.540969832759862213e+00 4.801428895770435474e+02
1.541069856765623580e+00 4.802947341618552173e+02
1.541169880771384948e+00 4.804494834244403592e+02
1.541269904777146316e+00 4.806070491090058567e+02
1.541369928782907683e+00 4.807673415507142636e+02
1.541469952788669051e+00 4.809302697310798180e+02
1.541569976794430419e+00 4.810957413339641562e+02
1.541670000800191787e+00 4.812636628021278966e+02
1.541770024805953376e+00 4.814339393943153027e+02
1.541870048811714966e+00 4.816064752428302995e+02
1.541970072817476112e+00 4.817811734115724676e+02
1.542070096823237701e+00 4.819579359545002717e+02
1.542170120828998847e+00 4.821366639744834970e+02
1.542270144834760437e+00 4.823172576825133433e+02
1.542370168840521583e+00 4.824996164572354473e+02
1.542470192846283172e+00 4.826836389047683156e+02
1.542570216852044318e+00 4.828692229187762450e+02
1.542670240857805908e+00 4.830562657407596134e+02
1.542770264863567053e+00 4.832446640205263293e+02
1.542870288869328643e+00 4.834343138768156223e+02
1.542970312875089789e+00 4.836251109580308594e+02
1.543070336880851379e+00 4.838169505030540449e+02
1.543170360886612524e+00 4.840097274021042040e+02
1.543270384892374114e+00 4.842033362576042350e+02
1.543370408898135260e+00 4.843976714450217855e+02
1.543470432903896850e+00 4.845926271736556146e+02
1.543570456909658439e+00 4.847880975473235594e+02
1.543670480915419807e+00 4.849839766249240824e+02
1.543770504921181175e+00 4.851801584808382586e+02
1.543870528926942542e+00 4.853765372651361076e+02
1.543970552932703910e+00 4.855730072635531087e+02
1.544070576938465278e+00 4.857694629572063150e+02
1.544170600944226646e+00 4.859657990820151667e+02
1.544270624949988013e+00 4.861619106877961940e+02
1.544370648955749381e+00 4.863576931969969337e+02
1.544470672961510749e+00 4.865530424630374000e+02
1.544570696967272116e+00 4.867478548282314250e+02
1.544670720973033484e+00 4.869420271812477949e+02
1.544770744978794852e+00 4.871354570140900933e+02
1.544870768984556220e+00 4.873280424785582454e+02
1.544970792990317587e+00 4.875196824421612973e+02
1.545070816996078955e+00 4.877102765434570415e+02
1.545170841001840323e+00 4.878997252467828503e+02
1.545270865007601691e+00 4.880879298963501469e+02
1.545370889013363058e+00 4.882747927696790384e+02
1.545470913019124648e+00 4.884602171303382647e+02
1.545570937024886016e+00 4.886441072799627250e+02
1.545670961030647383e+00 4.888263686095334037e+02
1.545770985036408751e+00 4.890069076498740515e+02
1.545871009042170119e+00 4.891856321213530805e+02
1.545971033047931487e+00 4.893624509827631073e+02
1.546071057053692854e+00 4.895372744793457969e+02
1.546171081059454222e+00 4.897100141899450705e+02
1.546271105065215590e+00 4.898805830732619597e+02
1.546371129070976957e+00 4.900488955131890521e+02
1.546471153076738325e+00 4.902148673631998008e+02
1.546571177082499693e+00 4.903784159897708150e+02
1.546671201088261061e+00 4.905394603148214401e+02
1.546771225094022428e+00 4.906979208571368645e+02
1.546871249099783796e+00 4.908537197727741841e+02
1.546971273105545164e+00 4.910067808944090757e+02
1.547071297111306531e+00 4.911570297696242733e+02
1.547171321117067899e+00 4.913043936981104594e+02
1.547271345122829489e+00 4.914488017677626317e+02
1.547371369128590857e+00 4.915901848896618276e+02
1.547471393134352224e+00 4.917284758319181037e+02
1.547571417140113592e+00 4.918636092523643129e+02
1.547671441145874960e+00 4.919955217300849881e+02
1.547771465151636328e+00 4.921241517957658402e+02
1.547871489157397695e+00 4.922494399608489175e+02
1.547971513163159063e+00 4.923713287454860392e+02
1.548071537168920431e+00 4.924897627052728240e+02
1.548171561174681798e+00 4.926046884567537631e+02
1.548271585180443166e+00 4.927160547016932242e+02
1.548371609186204534e+00 4.928238122500926011e+02
1.548471633191965902e+00 4.929279140419575924e+02
1.548571657197727269e+00 4.930283151677916749e+02
1.548671681203488637e+00 4.931249728878271981e+02
1.548771705209250005e+00 4.932178466499685783e+02
1.548871729215011372e+00 4.933068981064553782e+02
1.548971753220772740e+00 4.933920911292342453e+02
1.549071777226534108e+00 4.934733918240377761e+02
1.549171801232295920e+00 4.935507685431617801e+02
1.549271825238057065e+00 4.936241918969433300e+02
1.549371849243818655e+00 4.936936347639383484e+02
1.549471873249579801e+00 4.937590722997904322e+02
1.549571897255341391e+00 4.938204819447971659e+02
1.549671921261102536e+00 4.938778434301691505e+02
1.549771945266864126e+00 4.939311387829872615e+02
1.549871969272625272e+00 4.939803523298567711e+02
1.549971993278386861e+00 4.940254706992578235e+02
1.550072017284148007e+00 4.940664828226037457e+02
1.550172041289909597e+00 4.941033799340019641e+02
1.550272065295670743e+00 4.941361555687263376e+02
1.550372089301432332e+00 4.941648055604084675e+02
1.550472113307193478e+00 4.941893280369458807e+02
1.550572137312955068e+00 4.942097234151447651e+02
1.550672161318716213e+00 4.942259943940943003e+02
1.550772185324477803e+00 4.942381459472857728e+02
1.550872209330238949e+00 4.942461853134871035e+02
1.550972233336000761e+00 4.942501219863754045e+02
1.551072257341762128e+00 4.942499677029447867e+02
1.551172281347523496e+00 4.942457364306947056e+02
1.551272305353284864e+00 4.942374443536151603e+02
1.551372329359046232e+00 4.942251098569746546e+02
1.551472353364807599e+00 4.942087535109309897e+02
1.551572377370568967e+00 4.941883980529696601e+02
1.551672401376330335e+00 4.941640683691925915e+02
1.551772425382091702e+00 4.941357914744623372e+02
1.551872449387853070e+00 4.941035964914298120e+02
1.551972473393614438e+00 4.940675146284428365e+02
1.552072497399375806e+00 4.940275791563706207e+02
1.552172521405137173e+00 4.939838253843495295e+02
1.552272545410898541e+00 4.939362906344676958e+02
1.552372569416659909e+00 4.938850142154162768e+02
1.552472593422421276e+00 4.938300373951096276e+02
1.552572617428182644e+00 4.937714033723104308e+02
1.552672641433944012e+00 4.937091572472663756e+02
1.552772665439705380e+00 4.936433459913845354e+02
1.552872689445466969e+00 4.935740184159625414e+02
1.552972713451228337e+00 4.935012251399972456e+02
1.553072737456989705e+00 4.934250185570914482e+02
1.553172761462751073e+00 4.933454528014838729e+02
1.553272785468512440e+00 4.932625837132169409e+02
1.553372809474273808e+00 4.931764688024761654e+02
1.553472833480035176e+00 4.930871672131119681e+02
1.553572857485796543e+00 4.929947396853780788e+02
1.553672881491557911e+00 4.928992485179010714e+02
1.553772905497319279e+00 4.928007575289130955e+02
1.553872929503080647e+00 4.926993320167644583e+02
1.553972953508842014e+00 4.925950387197512441e+02
1.554072977514603382e+00 4.924879457752662120e+02
1.554173001520364750e+00 4.923781226783193006e+02
1.554273025526126117e+00 4.922656402394367205e+02
1.554373049531887485e+00 4.921505705419693300e+02
1.554473073537648853e+00 4.920329868988411590e+02
1.554573097543410221e+00 4.919129638087588319e+02
1.554673121549171810e+00 4.917905769119080901e+02
1.554773145554933178e+00 4.916659029451689094e+02
1.554873169560694546e+00 4.915390196968727992e+02
1.554973193566455913e+00 4.914100059611263305e+02
1.555073217572217281e+00 4.912789414917381237e+02
1.555173241577978649e+00 4.911459069557618022e+02
1.555273265583740017e+00 4.910109838866974883e+02
1.555373289589501384e+00 4.908742546373683808e+02
1.555473313595262752e+00 4.907358023325036243e+02
1.555573337601024120e+00 4.905957108210589013e+02
1.555673361606785488e+00 4.904540646282939065e+02
1.555773385612546855e+00 4.903109489076450132e+02
1.555873409618308223e+00 4.901664493924095041e+02
1.555973433624069591e+00 4.900206523472796221e+02
1.556073457629830958e+00 4.898736445197463922e+02
1.556173481635592326e+00 4.897255130914057872e+02
1.556273505641353694e+00 4.895763456291915645e+02
1.556373529647115062e+00 4.894262300365646183e+02
1.556473553652876429e+00 4.892752545046859609e+02
1.556573577658638019e+00 4.891235074635973206e+02
1.556673601664399609e+00 4.889710775334459072e+02
1.556773625670160754e+00 4.888180534757656233e+02
1.556873649675922344e+00 4.886645241448576940e+02
1.556973673681683490e+00 4.885105784392864052e+02
1.557073697687445080e+00 4.883563052535211568e+02
1.557173721693206225e+00 4.882017934297514898e+02
1.557273745698967815e+00 4.880471317098991335e+02
1.557373769704728961e+00 4.878924086878550952e+02
1.557473793710490551e+00 4.877377127619678276e+02
1.557573817716251696e+00 4.875831320878070869e+02
1.557673841722013286e+00 4.874287545312273551e+02
1.557773865727774432e+00 4.872746676217622621e+02
1.557873889733536021e+00 4.871209585063633654e+02
1.557973913739297167e+00 4.869677139035226787e+02
1.558073937745058757e+00 4.868150200577889564e+02
1.558173961750819903e+00 4.866629626947099041e+02
1.558273985756581492e+00 4.865116269762245906e+02
1.558374009762343082e+00 4.863610974565220317e+02
1.558474033768104450e+00 4.862114580383973816e+02
1.558574057773865817e+00 4.860627919301192037e+02
1.558674081779627185e+00 4.859151816028437452e+02
1.558774105785388553e+00 4.857687087485771826e+02
1.558874129791149921e+00 4.856234542387297779e+02
1.558974153796911288e+00 4.854794980832663782e+02
1.559074177802672656e+00 4.853369193904804888e+02
1.559174201808434024e+00 4.851957963274118129e+02
1.559274225814195391e+00 4.850562060809268132e+02
1.559374249819956759e+00 4.849182248194777003e+02
1.559474273825718127e+00 4.847819276555642318e+02
1.559574297831479495e+00 4.846473886089135021e+02
1.559674321837240862e+00 4.845146805703953419e+02
1.559774345843002230e+00 4.843838752666896426e+02
1.559874369848763598e+00 4.842550432257277180e+02
1.559974393854524966e+00 4.841282537429136710e+02
1.560074417860286333e+00 4.840035748481554378e+02
1.560174441866047701e+00 4.838810732737075568e+02
1.560274465871809291e+00 4.837608144228477727e+02
1.560374489877570658e+00 4.836428623393994712e+02
1.560474513883332026e+00 4.835272796781147235e+02
1.560574537889093394e+00 4.834141276759316952e+02
1.560674561894854762e+00 4.833034661241123899e+02
1.560774585900616129e+00 4.831953533412832371e+02
1.560874609906377497e+00 4.830898461473828434e+02
1.560974633912138865e+00 4.829869998385277086e+02
1.561074657917900232e+00 4.828868681628118225e+02
1.561174681923661600e+00 4.827895032970435523e+02
1.561274705929422968e+00 4.826949558244313607e+02
1.561374729935184336e+00 4.826032747132283021e+02
1.561474753940945703e+00 4.825145072963446182e+02
1.561574777946707071e+00 4.824286992519268438e+02
1.561674801952468439e+00 4.823458945849241104e+02
1.561774825958229806e+00 4.822661356096377858e+02
1.561874849963991174e+00 4.821894629332618365e+02
1.561974873969752542e+00 4.821159154404242599e+02
1.562074897975514132e+00 4.820455302787252094e+02
1.562174921981275499e+00 4.819783428452867611e+02
1.562274945987036867e+00 4.819143867743057967e+02
1.562374969992798235e+00 4.818536939256239293e+02
1.562474993998559603e+00 4.817962943743086157e+02
1.562575018004320970e+00 4.817422164012494932e+02
1.562675042010082338e+00 4.816914864847760782e+02
1.562775066015843706e+00 4.816441292932855731e+02
1.562875090021605073e+00 4.816001676788944224e+02
1.562975114027366441e+00 4.815596226721029893e+02
1.563075138033127809e+00 4.815225134774773892e+02
1.563175162038889177e+00 4.814888574703403492e+02
1.563275186044650544e+00 4.814586701944814422e+02
1.563375210050411912e+00 4.814319653608665703e+02
1.563475234056173280e+00 4.814087548473573861e+02
1.563575258061934647e+00 4.813890486994313278e+02
1.563675282067696015e+00 4.813728551318942550e+02
1.563775306073457383e+00 4.813601805315880711e+02
1.563875330079218751e+00 4.813510294610809979e+02
1.563975354084980562e+00 4.813454046633376038e+02
1.564075378090741708e+00 4.813433070673610246e+02
1.564175402096503298e+00 4.813447357948023750e+02
1.564275426102264444e+00 4.813496881675223449e+02
1.564375450108026033e+00 4.813581597161091850e+02
1.564475474113787179e+00 4.813701441893300057e+02
1.564575498119548769e+00 4.813856335645186846e+02
1.564675522125309914e+00 4.814046180588814536e+02
1.564775546131071504e+00 4.814270861417157903e+02
1.564875570136832650e+00 4.814530245475284573e+02
1.564975594142594240e+00 4.814824182900453593e+02
1.565075618148355385e+00 4.815152506770954233e+02
1.565175642154116975e+00 4.815515033263646956e+02
1.565275666159878121e+00 4.815911561819998497e+02
1.565375690165639710e+00 4.816341875320543977e+02
1.565475714171400856e+00 4.816805740267616329e+02
1.565575738177162446e+00 4.817302906976225358e+02
1.565675762182923592e+00 4.817833109772873854e+02
1.565775786188685403e+00 4.818396067202322683e+02
1.565875810194446771e+00 4.818991482241946187e+02
1.565975834200208139e+00 4.819619042523724488e+02
1.566075858205969507e+00 4.820278420563570307e+02
1.566175882211730874e+00 4.820969273997915820e+02
1.566275906217492242e+00 4.821691245827374814e+02
1.566375930223253610e+00 4.822443964667280625e+02
1.566475954229014977e+00 4.823227045004999809e+02
1.566575978234776345e+00 4.824040087463777127e+02
1.566676002240537713e+00 4.824882679072978817e+02
1.566776026246299081e+00 4.825754393544555683e+02
1.566876050252060448e+00 4.826654791555525321e+02
1.566976074257821816e+00 4.827583421036320601e+02
1.567076098263583184e+00 4.828539817464762791e+02
1.567176122269344551e+00 4.829523504165567829e+02
1.567276146275105919e+00 4.830533992615076500e+02
1.567376170280867287e+00 4.831570782751107345e+02
1.567476194286628655e+00 4.832633363287735619e+02
1.567576218292390022e+00 4.833721212034707833e+02
1.567676242298151612e+00 4.834833796221420812e+02
1.567776266303912980e+00 4.835970572825198701e+02
1.567876290309674348e+00 4.837130988903636535e+02
1.567976314315435715e+00 4.838314481930888178e+02
1.568076338321197083e+00 4.839520480137649656e+02
1.568176362326958451e+00 4.840748402854620167e+02
1.568276386332719818e+00 4.841997660859265125e+02
1.568376410338481186e+00 4.843267656725672623e+02
1.568476434344242554e+00 4.844557785177255482e+02
1.568576458350003922e+00 4.845867433442168704e+02
1.568676482355765289e+00 4.847195981611156412e+02
1.568776506361526657e+00 4.848542802997647527e+02
1.568876530367288025e+00 4.849907264499923940e+02
1.568976554373049392e+00 4.851288726965092337e+02
1.569076578378810760e+00 4.852686545554715849e+02
1.569176602384572128e+00 4.854100070111820173e+02
1.569276626390333496e+00 4.855528645529148548e+02
1.569376650396094863e+00 4.856971612118383064e+02
1.569476674401856453e+00 4.858428305980183950e+02
1.569576698407617821e+00 4.859898059374801846e+02
1.569676722413379188e+00 4.861380201093054438e+02
1.569776746419140556e+00 4.862874056827506593e+02
1.569876770424901924e+00 4.864378949543570343e+02
1.569976794430663292e+00 4.865894199850416726e+02
1.570076818436424659e+00 4.867419126371405582e+02
1.570176842442186027e+00 4.868953046113900882e+02
1.570276866447947395e+00 4.870495274838226010e+02
1.570376890453708763e+00 4.872045127425567443e+02
1.570476914459470130e+00 4.873601918244679609e+02
1.570576938465231498e+00 4.875164961517110100e+02
1.570676962470992866e+00 4.876733571680800878e+02
1.570776986476754233e+00 4.878307063751899477e+02
1.570877010482515601e+00 4.879884753684515886e+02
1.570977034488276969e+00 4.881465958728317673e+02
1.571077058494038337e+00 4.883049997783706431e+02
1.571177082499799704e+00 4.884636191754428864e+02
1.571277106505561072e+00 4.886223863897475894e+02
1.571377130511322662e+00 4.887812340169982690e+02
1.571477154517084251e+00 4.889400949573064281e+02
1.571577178522845397e+00 4.890989024492401995e+02
1.571677202528606987e+00 4.892575901035264110e+02
1.571777226534368133e+00 4.894160919364056213e+02
1.571877250540129722e+00 4.895743424025947661e+02
1.571977274545890868e+00 4.897322764278648037e+02
1.572077298551652458e+00 4.898898294412007317e+02
1.572177322557413603e+00 4.900469374065400530e+02
1.572277346563175193e+00 4.902035368540660443e+02
1.572377370568936339e+00 4.903595649110447425e+02
1.572477394574697929e+00 4.905149593321910970e+02
1.572577418580459074e+00 4.906696585295491673e+02
1.572677442586220664e+00 4.908236016018720420e+02
1.572777466591981810e+00 4.909767283634869273e+02
1.572877490597743400e+00 4.911289793726351718e+02
1.572977514603504545e+00 4.912802959592726211e+02
1.573077538609266135e+00 4.914306202523140428e+02
1.573177562615027725e+00 4.915798952063177012e+02
1.573277586620789092e+00 4.917280646275906975e+02
1.573377610626550460e+00 4.918750731997050138e+02
1.573477634632311828e+00 4.920208665084182940e+02
1.573577658638073196e+00 4.921653910659824760e+02
1.573677682643834563e+00 4.923085943348306159e+02
1.573777706649595931e+00 4.924504247506399679e+02
1.573877730655357299e+00 4.925908317447482432e+02
1.573977754661118666e+00 4.927297657659266861e+02
1.574077778666880034e+00 4.928671783014936523e+02
1.574177802672641402e+00 4.930030218977643699e+02
1.574277826678402770e+00 4.931372501798244912e+02
1.574377850684164137e+00 4.932698178706268095e+02
1.574477874689925505e+00 4.934006808093972722e+02
1.574577898695686873e+00 4.935297959693491521e+02
1.574677922701448241e+00 4.936571214746930423e+02
1.574777946707209608e+00 4.937826166169445514e+02
1.574877970712970976e+00 4.939062418705174196e+02
1.574977994718732344e+00 4.940279589076024536e+02
1.575078018724493933e+00 4.941477306123224480e+02
1.575178042730255301e+00 4.942655210941658197e+02
1.575278066736016669e+00 4.943812957006873603e+02
1.575378090741778037e+00 4.944950210294789485e+02
1.575478114747539404e+00 4.946066649394059596e+02
1.575578138753300772e+00 4.947161965611056189e+02
1.575678162759062140e+00 4.948235863067449714e+02
1.575778186764823507e+00 4.949288058790405671e+02
1.575878210770584875e+00 4.950318282795337836e+02
1.575978234776346243e+00 4.951326278161244545e+02
1.576078258782107611e+00 4.952311801098626916e+02
1.576178282787868978e+00 4.953274621009948646e+02
1.576278306793630346e+00 4.954214520542709579e+02
1.576378330799391714e+00 4.955131295635064816e+02
1.576478354805153081e+00 4.956024755554070680e+02
1.576578378810914449e+00 4.956894722926548411e+02
1.576678402816675817e+00 4.957741033762553684e+02
1.576778426822437185e+00 4.958563537471544578e+02
1.576878450828198774e+00 4.959362096871218455e+02
1.576978474833960142e+00 4.960136588189074018e+02
1.577078498839721510e+00 4.960886901056758234e+02
1.577178522845482878e+00 4.961612938497161736e+02
1.577278546851244245e+00 4.962314616904420745e+02
1.577378570857005613e+00 4.962991866016786275e+02
1.577478594862766981e+00 4.963644628882400411e+02
1.577578618868528348e+00 4.964272861818152478e+02
1.577678642874289716e+00 4.964876534361519589e+02
1.577778666880051084e+00 4.965455629215572344e+02
1.577878690885812452e+00 4.966010142187143401e+02
1.577978714891573819e+00 4.966540082118254986e+02
1.578078738897335187e+00 4.967045470810920733e+02
1.578178762903096555e+00 4.967526342945229203e+02
1.578278786908857922e+00 4.967982745991082538e+02
1.578378810914619290e+00 4.968414740113324797e+02
1.578478834920380658e+00 4.968822398070661279e+02
1.578578858926142026e+00 4.969205805108216509e+02
1.578678882931903393e+00 4.969565058843979273e+02
1.578778906937665205e+00 4.969900269149121641e+02
1.578878930943426351e+00 4.970211558022392637e+02
1.578978954949187941e+00 4.970499059458577449e+02
1.579078978954949086e+00 4.970762919311194992e+02
1.579179002960710676e+00 4.971003295149536143e+02
1.579279026966471822e+00 4.971220356110105172e+02
1.579379050972233411e+00 4.971414282742617843e+02
1.579479074977994557e+00 4.971585266850646576e+02
1.579579098983756147e+00 4.971733511327043971e+02
1.579679122989517293e+00 4.971859229984216881e+02
1.579779146995278882e+00 4.971962647379432951e+02
1.579879171001040028e+00 4.972043998635264188e+02
1.579979195006801618e+00 4.972103529255205103e+02
1.580079219012562763e+00 4.972141494934738830e+02
1.580179243018324353e+00 4.972158161367847242e+02
1.580279267024085499e+00 4.972153804049174255e+02
1.580379291029847089e+00 4.972128708071905407e+02
1.580479315035608234e+00 4.972083167921574614e+02
1.580579339041370046e+00 4.972017487265856062e+02
1.580679363047131414e+00 4.971931978740523732e+02
1.580779387052892782e+00 4.971826963731667206e+02
1.580879411058654149e+00 4.971702772154384320e+02
1.580979435064415517e+00 4.971559742227972265e+02
1.581079459070176885e+00 4.971398220247868380e+02
1.581179483075938252e+00 4.971218560354384977e+02
1.581279507081699620e+00 4.971021124298465566e+02
1.581379531087460988e+00 4.970806281204539232e+02
1.581479555093222356e+00 4.970574407330610711e+02
1.581579579098983723e+00 4.970325885825852765e+02
1.581679603104745091e+00 4.970061106485622986e+02
1.581779627110506459e+00 4.969780465504246649e+02
1.581879651116267826e+00 4.969484365225655438e+02
1.581979675122029194e+00 4.969173213891941714e+02
1.582079699127790562e+00 4.968847425390097783e+02
1.582179723133551930e+00 4.968507418997001537e+02
1.582279747139313297e+00 4.968153619122837767e+02
1.582379771145074887e+00 4.967786455053049508e+02
1.582479795150836255e+00 4.967406360689051326e+02
1.582579819156597623e+00 4.967013774287732986e+02
1.582679843162358990e+00 4.966609138200025200e+02
1.582779867168120358e+00 4.966192898608554742e+02
1.582879891173881726e+00 4.965765505264616309e+02
1.582979915179643093e+00 4.965327411224575940e+02
1.583079939185404461e+00 4.964879072585829363e+02
1.583179963191165829e+00 4.964420948222486913e+02
1.583279987196927197e+00 4.963953499520927153e+02
1.583380011202688564e+00 4.963477190115333997e+02
1.583480035208449932e+00 4.962992485623368566e+02
1.583580059214211300e+00 4.962499853382147421e+02
1.583680083219972667e+00 4.961999762184606766e+02
1.583780107225734035e+00 4.961492682016429399e+02
1.583880131231495403e+00 4.960979083793681639e+02
1.583980155237256771e+00 4.960459439101244925e+02
1.584080179243018138e+00 4.959934219932231940e+02
1.584180203248779506e+00 4.959403898428469688e+02
1.584280227254541096e+00 4.958868946622228577e+02
1.584380251260302463e+00 4.958329836179306085e+02
1.584480275266063831e+00 4.957787038143540599e+02
1.584580299271825199e+00 4.957241022683019196e+02
1.584680323277586567e+00 4.956692258837922509e+02
1.584780347283347934e+00 4.956141214270306250e+02
1.584880371289109302e+00 4.955588355015811999e+02
1.584980395294870670e+00 4.955034145237473240e+02
1.585080419300632038e+00 4.954479046981777515e+02
1.585180443306393405e+00 4.953923519937014817e+02
1.585280467312154773e+00 4.953368021194091853e+02
1.585380491317916141e+00 4.952813005009910512e+02
1.585480515323677508e+00 4.952258922573390123e+02
1.585580539329438876e+00 4.951706221774300047e+02
1.585680563335200244e+00 4.951155346974944678e+02
1.585780587340961612e+00 4.950606738784840672e+02
1.585880611346722979e+00 4.950060833838496137e+02
1.585980635352484347e+00 4.949518064576381562e+02
1.586080659358246159e+00 4.948978859029135720e+02
1.586180683364007304e+00 4.948443640605230485e+02
1.586280707369768894e+00 4.947912827882031479e+02
1.586380731375530040e+00 4.947386834400483622e+02
1.586480755381291630e+00 4.946866068463400552e+02
1.586580779387052775e+00 4.946350932937511971e+02
1.586680803392814365e+00 4.945841825059342796e+02
1.586780827398575511e+00 4.945339136244949145e+02
1.586880851404337101e+00 4.944843251903695318e+02
1.586980875410098246e+00 4.944354551255996739e+02
1.587080899415859836e+00 4.943873407155294331e+02
1.587180923421620982e+00 4.943400185914140366e+02
1.587280947427382571e+00 4.942935247134561223e+02
1.587380971433143717e+00 4.942478943542812431e+02
1.587480995438905307e+00 4.942031620828446989e+02
1.587581019444666453e+00 4.941593617487861820e+02
1.587681043450428042e+00 4.941165264672382591e+02
1.587781067456189188e+00 4.940746886040861909e+02
1.587881091461950778e+00 4.940338797616940951e+02
1.587981115467712367e+00 4.939941307650937574e+02
1.588081139473473735e+00 4.939554716486460961e+02
1.588181163479235103e+00 4.939179316431789744e+02
1.588281187484996471e+00 4.938815391636011896e+02
1.588381211490757838e+00 4.938463217970065671e+02
1.588481235496519206e+00 4.938123062912560499e+02
1.588581259502280574e+00 4.937795185440584191e+02
1.588681283508041941e+00 4.937479835925394127e+02
1.588781307513803309e+00 4.937177256033065191e+02
1.588881331519564677e+00 4.936887678630180289e+02
1.588981355525326045e+00 4.936611327694461124e+02
1.589081379531087412e+00 4.936348418230469406e+02
1.589181403536848780e+00 4.936099156190338135e+02
1.589281427542610148e+00 4.935863738399551721e+02
1.589381451548371516e+00 4.935642352487839162e+02
1.589481475554132883e+00 4.935435176825094459e+02
1.589581499559894251e+00 4.935242380462416349e+02
1.589681523565655619e+00 4.935064123078233251e+02
1.589781547571417208e+00 4.934900554929512850e+02
1.589881571577178576e+00 4.934751816808068270e+02
1.589981595582939944e+00 4.934618040001961958e+02
1.590081619588701312e+00 4.934499346261958976e+02
1.590181643594462679e+00 4.934395847773096762e+02
1.590281667600224047e+00 4.934307647131284966e+02
1.590381691605985415e+00 4.934234837324936507e+02
1.590481715611746782e+00 4.934177501721699173e+02
1.590581739617508150e+00 4.934135714060119540e+02
1.590681763623269518e+00 4.934109538446355145e+02
1.590781787629030886e+00 4.934099029355819539e+02
1.590881811634792253e+00 4.934104231639814770e+02
1.590981835640553621e+00 4.934125180537017172e+02
1.591081859646314989e+00 4.934161901689921024e+02
1.591181883652076356e+00 4.934214411166069567e+02
1.591281907657837724e+00 4.934282715484178539e+02
1.591381931663599092e+00 4.934366811644962922e+02
1.591481955669360460e+00 4.934466687166764132e+02
1.591581979675121827e+00 4.934582320125873593e+02
1.591682003680883417e+00 4.934713679201499872e+02
1.591782027686644785e+00 4.934860723725367961e+02
1.591882051692406153e+00 4.935023403735896750e+02
1.591982075698167520e+00 4.935201660036861995e+02
1.592082099703928888e+00 4.935395424260589152e+02
1.592182123709690256e+00 4.935604618935510075e+02
1.592282147715451623e+00 4.935829157558108022e+02
1.592382171721212991e+00 4.936068944669209486e+02
1.592482195726974359e+00 4.936323875934441503e+02
1.592582219732735727e+00 4.936593838228974960e+02
1.592682243738497094e+00 4.936878709726336751e+02
1.592782267744258462e+00 4.937178359991340812e+02
1.592882291750019830e+00 4.937492650076960672e+02
1.592982315755781197e+00 4.937821432625227089e+02
1.593082339761542565e+00 4.938164551971920559e+02
1.593182363767303933e+00 4.938521844255127462e+02
1.593282387773065301e+00 4.938893137527489898e+02
1.593382411778826668e+00 4.939278251872166834e+02
1.593482435784588258e+00 4.939676999522337724e+02
1.593582459790349848e+00 4.940089184984248050e+02
1.593682483796110994e+00 4.940514605163733677e+02
1.593782507801872583e+00 4.940953049496047811e+02
1.593882531807633729e+00 4.941404300079022391e+02
1.593982555813395319e+00 4.941868131809450801e+02
1.594082579819156464e+00 4.942344312522564564e+02
1.594182603824918054e+00 4.942832603134611418e+02
1.594282627830679200e+00 4.943332757788379581e+02
1.594382651836440790e+00 4.943844524001610807e+02
1.594482675842201935e+00 4.944367642818249351e+02
1.594582699847963525e+00 4.944901848962385316e+02
1.594682723853724671e+00 4.945446870994871915e+02
1.594782747859486260e+00 4.946002431472457488e+02
1.594882771865247406e+00 4.946568247109461822e+02
1.594982795871008996e+00 4.947144028941727925e+02
1.595082819876770142e+00 4.947729482492997022e+02
1.595182843882531731e+00 4.948324307943387339e+02
1.595282867888292877e+00 4.948928200300076696e+02
1.595382891894054689e+00 4.949540849569979741e+02
1.595482915899816057e+00 4.950161940934361837e+02
1.595582939905577424e+00 4.950791154925364594e+02
1.595682963911338792e+00 4.951428167604231021e+02
1.595782987917100160e+00 4.952072650741288271e+02
1.595883011922861527e+00 4.952724271997449250e+02
1.595983035928622895e+00 4.953382695107238760e+02
1.596083059934384263e+00 4.954047580063282794e+02
1.596183083940145631e+00 4.954718583302009165e+02
1.596283107945906998e+00 4.955395357890706123e+02
1.596383131951668366e+00 4.956077553715608133e+02
1.596483155957429734e+00 4.956764817671120795e+02
1.596583179963191101e+00 4.957456793849931955e+02
1.596683203968952469e+00 4.958153123734055612e+02
1.596783227974713837e+00 4.958853446386617634e+02
1.596883251980475205e+00 4.959557398644358841e+02
1.596983275986236572e+00 4.960264615310699128e+02
1.597083299991997940e+00 4.960974729349379686e+02
1.597183323997759530e+00 4.961687372078460498e+02
1.597283348003520898e+00 4.962402173364690725e+02
1.597383372009282265e+00 4.963118761818140001e+02
1.597483396015043633e+00 4.963836764986934327e+02
1.597583420020805001e+00 4.964555809552129517e+02
1.597683444026566368e+00 4.965275521522527242e+02
1.597783468032327736e+00 4.965995526429393863e+02
1.597883492038089104e+00 4.966715449521013284e+02
1.597983516043850472e+00 4.967434915956956729e+02
1.598083540049611839e+00 4.968153551001972232e+02
1.598183564055373207e+00 4.968870980219481339e+02
1.598283588061134575e+00 4.969586829664496577e+02
1.598383612066895942e+00 4.970300726075989246e+02
1.598483636072657310e+00 4.971012297068506314e+02
1.598583660078418678e+00 4.971721171323053454e+02
1.598683684084180046e+00 4.972426978777140789e+02
1.598783708089941413e+00 4.973129350813856036e+02
1.598883732095702781e+00 4.973827920449940621e+02
1.598983756101464149e+00 4.974522322522798845e+02
1.599083780107225738e+00 4.975212193876316178e+02
1.599183804112987106e+00 4.975897173545432111e+02
1.599283828118748474e+00 4.976576902939430624e+02
1.599383852124509842e+00 4.977251026023773193e+02
1.599483876130271209e+00 4.977919189500542529e+02
1.599583900136032577e+00 4.978581042987263459e+02
1.599683924141793945e+00 4.979236239194199243e+02
1.599783948147555313e+00 4.979884434099877808e+02
1.599883972153316680e+00 4.980525287124925171e+02
1.599983996159078048e+00 4.981158461304055436e+02
1.600084020164839416e+00 4.981783623456183250e+02
1.600184044170600783e+00 4.982400444352547311e+02
1.600284068176362151e+00 4.983008598882863680e+02
1.600384092182123519e+00 4.983607766219340647e+02
1.600484116187884887e+00 4.984197629978568216e+02
1.600584140193646254e+00 4.984777878381208325e+02
1.600684164199407622e+00 4.985348204409394270e+02
1.600784188205168990e+00 4.985908305961771134e+02
1.600884212210930801e+00 4.986457886006210174e+02
1.600984236216691947e+00 4.986996652729998232e+02
1.601084260222453537e+00 4.987524319687580601e+02
1.601184284228214683e+00 4.988040605945706716e+02
1.601284308233976272e+00 4.988545236225970143e+02
1.601384332239737418e+00 4.989037941044661011e+02
1.601484356245499008e+00 4.989518456849950780e+02
1.601584380251260153e+00 4.989986526156228024e+02
1.601684404257021743e+00 4.990441897675680138e+02
1.601784428262782889e+00 4.990884326446969794e+02
1.601884452268544479e+00 4.991313573961008387e+02
1.601984476274305624e+00 4.991729408283755447e+02
1.602084500280067214e+00 4.992131604176043425e+02
1.602184524285828360e+00 4.992519943210307929e+02
1.602284548291589950e+00 4.992894213884273427e+02
1.602384572297351095e+00 4.993254211731467649e+02
1.602484596303112685e+00 4.993599739428609610e+02
1.602584620308873831e+00 4.993930606899733675e+02
1.602684644314635420e+00 4.994246631417141771e+02
1.602784668320397010e+00 4.994547637699004099e+02
1.602884692326158378e+00 4.994833458003691931e+02
1.602984716331919746e+00 4.995103932220746970e+02
1.603084740337681113e+00 4.995358907958474788e+02
1.603184764343442481e+00 4.995598240628141866e+02
1.603284788349203849e+00 4.995821793524709165e+02
1.603384812354965216e+00 4.996029437904139172e+02
1.603484836360726584e+00 4.996221053057161612e+02
1.603584860366487952e+00 4.996396526379589318e+02
1.603684884372249320e+00 4.996555753439032515e+02
1.603784908378010687e+00 4.996698638038087665e+02
1.603884932383772055e+00 4.996825092273925293e+02
1.603984956389533423e+00 4.996935036594309167e+02
1.604084980395294791e+00 4.997028399849942844e+02
1.604185004401056158e+00 4.997105119343208344e+02
1.604285028406817526e+00 4.997165140873268001e+02
1.604385052412578894e+00 4.997208418777451016e+02
1.604485076418340261e+00 4.997234915969006011e+02
1.604585100424101851e+00 4.997244603971124661e+02
1.604685124429863219e+00 4.997237462947265385e+02
1.604785148435624587e+00 4.997213481727795852e+02
1.604885172441385954e+00 4.997172657832863933e+02
1.604985196447147322e+00 4.997114997491571557e+02
1.605085220452908690e+00 4.997040515657397464e+02
1.605185244458670057e+00 4.996949236019894443e+02
1.605285268464431425e+00 4.996841191012626950e+02
1.605385292470192793e+00 4.996716421817370701e+02
1.605485316475954161e+00 4.996574978364574804e+02
1.605585340481715528e+00 4.996416919330044379e+02
1.605685364487476896e+00 4.996242312127942000e+02
1.605785388493238264e+00 4.996051232899971524e+02
1.605885412498999631e+00 4.995843766500888705e+02
1.605985436504760999e+00 4.995620006480230018e+02
1.606085460510522367e+00 4.995380055060363702e+02
1.606185484516283735e+00 4.995124023110784037e+02
1.606285508522045102e+00 4.994852030118719881e+02
1.606385532527806470e+00 4.994564204156031337e+02
1.606485556533568060e+00 4.994260681842417853e+02
1.606585580539329428e+00 4.993941608304972419e+02
1.606685604545090795e+00 4.993607137134054028e+02
1.606785628550852163e+00 4.993257430335513618e+02
1.606885652556613531e+00 4.992892658279311604e+02
1.606985676562374898e+00 4.992512999644477532e+02
1.607085700568136266e+00 4.992118641360533502e+02
1.607185724573897634e+00 4.991709778545302925e+02
1.607285748579659002e+00 4.991286614439156324e+02
1.607385772585420369e+00 4.990849360335763549e+02
1.607485796591181737e+00 4.990398235509309188e+02
1.607585820596943105e+00 4.989933467138199603e+02
1.607685844602704472e+00 4.989455290225362205e+02
1.607785868608465840e+00 4.988963947515081827e+02
1.607885892614227208e+00 4.988459689406397501e+02
1.607985916619988576e+00 4.987942773863186403e+02
1.608085940625749943e+00 4.987413466320833777e+02
1.608185964631511311e+00 4.986872039589618453e+02
1.608285988637272901e+00 4.986318773754812241e+02
1.608386012643034491e+00 4.985753956073486393e+02
1.608486036648795636e+00 4.985177880868154716e+02
1.608586060654557226e+00 4.984590849417179470e+02
1.608686084660318372e+00 4.983993169842044040e+02
1.608786108666079961e+00 4.983385156991502640e+02
1.608886132671841107e+00 4.982767132322690031e+02
1.608986156677602697e+00 4.982139423779132130e+02
1.609086180683363843e+00 4.981502365665809862e+02
1.609186204689125432e+00 4.980856298521239864e+02
1.609286228694886578e+00 4.980201568986648226e+02
1.609386252700648168e+00 4.979538529672275331e+02
1.609486276706409313e+00 4.978867539020838535e+02
1.609586300712170903e+00 4.978188961168233391e+02
1.609686324717932049e+00 4.977503165801469436e+02
1.609786348723693639e+00 4.976810528013951966e+02
1.609886372729454784e+00 4.976111428158062608e+02
1.609986396735216374e+00 4.975406251695233095e+02
1.610086420740977520e+00 4.974695389043364457e+02
1.610186444746739332e+00 4.973979235421858220e+02
1.610286468752500699e+00 4.973258190694138534e+02
1.610386492758262067e+00 4.972532659207788583e+02
1.610486516764023435e+00 4.971803049632390525e+02
1.610586540769784802e+00 4.971069774795041667e+02
1.610686564775546170e+00 4.970333251513648065e+02
1.610786588781307538e+00 4.969593900428074562e+02
1.610886612787068906e+00 4.968852145829151254e+02
1.610986636792830273e+00 4.968108415485624505e+02
1.611086660798591641e+00 4.967363140469132077e+02
1.611186684804353009e+00 4.966616754977214327e+02
1.611286708810114376e+00 4.965869696154460371e+02
1.611386732815875744e+00 4.965122403911825018e+02
1.611486756821637112e+00 4.964375320744196642e+02
1.611586780827398480e+00 4.963628891546288173e+02
1.611686804833159847e+00 4.962883563426851197e+02
1.611786828838921215e+00 4.962139785521374620e+02
1.611886852844682583e+00 4.961398008803264474e+02
1.611986876850444173e+00 4.960658685893565121e+02
1.612086900856205540e+00 4.959922270869339513e+02
1.612186924861966908e+00 4.959189219070759691e+02
1.612286948867728276e+00 4.958459986906908625e+02
1.612386972873489643e+00 4.957735031660480445e+02
1.612486996879251011e+00 4.957014811291347769e+02
1.612587020885012379e+00 4.956299784239100745e+02
1.612687044890773747e+00 4.955590409224656696e+02
1.612787068896535114e+00 4.954887145050960839e+02
1.612887092902296482e+00 4.954190450402882675e+02
1.612987116908057850e+00 4.953500783646387617e+02
1.613087140913819217e+00 4.952818602627010591e+02
1.613187164919580585e+00 4.952144364467765172e+02
1.613287188925341953e+00 4.951478525366528061e+02
1.613387212931103321e+00 4.950821540392951192e+02
1.613487236936864688e+00 4.950173863285062907e+02
1.613587260942626056e+00 4.949535946245507603e+02
1.613687284948387424e+00 4.948908239737637587e+02
1.613787308954148791e+00 4.948291192281403710e+02
1.613887332959910381e+00 4.947685250249222122e+02
1.613987356965671749e+00 4.947090857661848418e+02
1.614087380971433117e+00 4.946508455984342163e+02
1.614187404977194484e+00 4.945938483922199680e+02
1.614287428982955852e+00 4.945381377217740351e+02
1.614387452988717220e+00 4.944837568446840805e+02
1.614487476994478587e+00 4.944307486816045412e+02
1.614587501000239955e+00 4.943791557960202567e+02
1.614687525006001323e+00 4.943290203740633615e+02
1.614787549011762691e+00 4.942803842043996951e+02
1.614887573017524058e+00 4.942332886581843923e+02
1.614987597023285426e+00 4.941877746691015432e+02
1.615087621029046794e+00 4.941438827134908252e+02
1.615187645034808162e+00 4.941016527905745193e+02
1.615287669040569529e+00 4.940611244027878115e+02
1.615387693046330897e+00 4.940223365362251116e+02
1.615487717052092265e+00 4.939853276412048899e+02
1.615587741057853632e+00 4.939501356129701435e+02
1.615687765063615444e+00 4.939167977725236369e+02
1.615787789069376590e+00 4.938853508476075831e+02
1.615887813075138180e+00 4.938558309538467483e+02
1.615987837080899325e+00 4.938282735760439550e+02
1.616087861086660915e+00 4.938027135496553228e+02
1.616187885092422061e+00 4.937791850424407585e+02
1.616287909098183651e+00 4.937577215363027108e+02
1.616387933103944796e+00 4.937383558093216038e+02
1.616487957109706386e+00 4.937211199179958498e+02
1.616587981115467532e+00 4.937060451796896814e+02
1.616688005121229121e+00 4.936931621553088689e+02
1.616788029126990267e+00 4.936825006321967066e+02
1.616888053132751857e+00 4.936740896072715259e+02
1.616988077138513002e+00 4.936679572704062480e+02
1.617088101144274592e+00 4.936641309880626522e+02
1.617188125150035738e+00 4.936626372871824628e+02
1.617288149155797328e+00 4.936635018393495216e+02
1.617388173161558473e+00 4.936667494452267988e+02
1.617488197167320063e+00 4.936724040192768825e+02
1.617588221173081653e+00 4.936804885747764047e+02
1.617688245178843021e+00 4.936910252091258258e+02
1.617788269184604388e+00 4.937040350894706080e+02
1.617888293190365756e+00 4.937195384386336627e+02
1.617988317196127124e+00 4.937375545213707824e+02
1.618088341201888491e+00 4.937581016309578672e+02
1.618188365207649859e+00 4.937811970761106295e+02
1.618288389213411227e+00 4.938068571682521224e+02
1.618388413219172595e+00 4.938350972091308222e+02
1.618488437224933962e+00 4.938659314787973926e+02
1.618588461230695330e+00 4.938993732239451901e+02
1.618688485236456698e+00 4.939354346466266747e+02
1.618788509242218066e+00 4.939741268933458400e+02
1.618888533247979433e+00 4.940154600445407596e+02
1.618988557253740801e+00 4.940594431044542603e+02
1.619088581259502169e+00 4.941060839914084681e+02
1.619188605265263536e+00 4.941553895284826012e+02
1.619288629271024904e+00 4.942073654346038438e+02
1.619388653276786494e+00 4.942620163160564744e+02
1.619488677282547862e+00 4.943193456584172623e+02
1.619588701288309229e+00 4.943793558189175315e+02
1.619688725294070597e+00 4.944420480192458172e+02
1.619788749299831965e+00 4.945074223387897518e+02
1.619888773305593332e+00 4.945754777083279805e+02
1.619988797311354700e+00 4.946462119041733558e+02
1.620088821317116068e+00 4.947196215427746324e+02
1.620188845322877436e+00 4.947957020757839359e+02
1.620288869328638803e+00 4.948744477855905757e+02
1.620388893334400171e+00 4.949558517813297271e+02
1.620488917340161539e+00 4.950399059953674623e+02
1.620588941345922906e+00 4.951266011802720755e+02
1.620688965351684274e+00 4.952159269062688054e+02
1.620788989357445642e+00 4.953078715591875039e+02
1.620889013363207010e+00 4.954024223389071722e+02
1.620989037368968377e+00 4.954995652582957746e+02
1.621089061374729745e+00 4.955992851426588004e+02
1.621189085380491113e+00 4.957015656296862858e+02
1.621289109386252703e+00 4.958063891699191004e+02
1.621389133392014070e+00 4.959137370277200603e+02
1.621489157397775438e+00 4.960235892827653856e+02
1.621589181403536806e+00 4.961359248320534334e+02
1.621689205409298173e+00 4.962507213924341158e+02
1.621789229415059541e+00 4.963679555036621878e+02
1.621889253420820909e+00 4.964876025319771315e+02
1.621989277426582277e+00 4.966096366742096961e+02
1.622089301432343644e+00 4.967340309624173642e+02
1.622189325438105012e+00 4.968607572690503957e+02
1.622289349443866380e+00 4.969897863126531092e+02
1.622389373449627747e+00 4.971210876640931247e+02
1.622489397455389115e+00 4.972546297533299366e+02
1.622589421461150483e+00 4.973903798767144053e+02
1.622689445466911851e+00 4.975283042048268953e+02
1.622789469472673218e+00 4.976683677908451955e+02
1.622889493478434586e+00 4.978105345794546110e+02
1.622989517484195954e+00 4.979547674162877797e+02
1.623089541489957544e+00 4.981010280579024538e+02
1.623189565495719133e+00 4.982492771822895179e+02
1.623289589501480279e+00 4.983994743999169827e+02
1.623389613507241869e+00 4.985515782653041015e+02
1.623489637513003014e+00 4.987055462891262323e+02
1.623589661518764604e+00 4.988613349508456167e+02
1.623689685524525750e+00 4.990188997118732459e+02
1.623789709530287340e+00 4.991781950292486840e+02
1.623889733536048485e+00 4.993391743698490473e+02
1.623989757541810075e+00 4.995017902251084365e+02
1.624089781547571221e+00 4.996659941262613529e+02
1.624189805553332810e+00 4.998317366600941796e+02
1.624289829559093956e+00 4.999989674852066059e+02
1.624389853564855546e+00 5.001676353487804363e+02
1.624489877570616692e+00 5.003376881038485067e+02
1.624589901576378281e+00 5.005090727270612661e+02
1.624689925582139427e+00 5.006817353369459056e+02
1.624789949587901017e+00 5.008556212126551941e+02
1.624889973593662162e+00 5.010306748131985159e+02
1.624989997599423974e+00 5.012068397971486320e+02
1.625090021605185342e+00 5.013840590428255837e+02
1.625190045610946710e+00 5.015622746689425639e+02
1.625290069616708077e+00 5.017414280557148345e+02
1.625390093622469445e+00 5.019214598664216282e+02
1.625490117628230813e+00 5.021023100694179675e+02
1.625590141633992181e+00 5.022839179605829258e+02
1.625690165639753548e+00 5.024662221862080855e+02
1.625790189645514916e+00 5.026491607663061814e+02
1.625890213651276284e+00 5.028326711183422049e+02
1.625990237657037651e+00 5.030166900813766802e+02
1.626090261662799019e+00 5.032011539406071279e+02
1.626190285668560387e+00 5.033859984523101616e+02
1.626290309674321755e+00 5.035711588691659131e+02
1.626390333680083122e+00 5.037565699659600682e+02
1.626490357685844490e+00 5.039421660656577160e+02
1.626590381691605858e+00 5.041278810658305929e+02
1.626690405697367225e+00 5.043136484654397691e+02
1.626790429703128815e+00 5.044994013919531426e+02
1.626890453708890183e+00 5.046850726287950692e+02
1.626990477714651551e+00 5.048705946431167604e+02
1.627090501720412918e+00 5.050558996138720431e+02
1.627190525726174286e+00 5.052409194601958689e+02
1.627290549731935654e+00 5.054255858700661861e+02
1.627390573737697022e+00 5.056098303292460514e+02
1.627490597743458389e+00 5.057935841504868222e+02
1.627590621749219757e+00 5.059767785029888501e+02
1.627690645754981125e+00 5.061593444420993819e+02
1.627790669760742492e+00 5.063412129392448833e+02
1.627890693766503860e+00 5.065223149120784001e+02
1.627990717772265228e+00 5.067025812548317845e+02
1.628090741778026596e+00 5.068819428688622111e+02
1.628190765783787963e+00 5.070603306933767271e+02
1.628290789789549331e+00 5.072376757363260822e+02
1.628390813795310699e+00 5.074139091054503865e+02
1.628490837801072066e+00 5.075889620394669919e+02
1.628590861806833434e+00 5.077627659393852468e+02
1.628690885812595024e+00 5.079352523999332334e+02
1.628790909818356392e+00 5.081063532410881862e+02
1.628890933824117759e+00 5.082760005396883116e+02
1.628990957829879127e+00 5.084441266611193555e+02
1.629090981835640495e+00 5.086106642910598339e+02
1.629191005841401862e+00 5.087755464672652010e+02
1.629291029847163230e+00 5.089387066113866354e+02
1.629391053852924598e+00 5.091000785607997727e+02
1.629491077858685966e+00 5.092595966004362253e+02
1.629591101864447333e+00 5.094171954945967400e+02
1.629691125870208701e+00 5.095728105187371284e+02
1.629791149875970069e+00 5.097263774912083818e+02
1.629891173881731437e+00 5.098778328049356219e+02
1.629991197887492804e+00 5.100271134590232123e+02
1.630091221893254172e+00 5.101741570902673857e+02
1.630191245899015540e+00 5.103189020045653024e+02
1.630291269904776907e+00 5.104612872082005310e+02
1.630391293910538275e+00 5.106012524389948908e+02
1.630491317916300087e+00 5.107387381973018137e+02
1.630591341922061233e+00 5.108736857768412847e+02
1.630691365927822822e+00 5.110060372953416845e+02
1.630791389933583968e+00 5.111357357249898428e+02
1.630891413939345558e+00 5.112627249226633239e+02
1.630991437945106703e+00 5.113869496599318154e+02
1.631091461950868293e+00 5.115083556528163626e+02
1.631191485956629439e+00 5.116268895912818380e+02
1.631291509962391029e+00 5.117424991684579254e+02
1.631391533968152174e+00 5.118551331095634396e+02
1.631491557973913764e+00 5.119647412005227807e+02
1.631591581979674910e+00 5.120712743162625884e+02
1.631691605985436500e+00 5.121746844486640384e+02
1.631791629991197645e+00 5.122749247341625960e+02
1.631891653996959235e+00 5.123719494809791968e+02
1.631991678002720381e+00 5.124657141959654609e+02
1.632091702008481970e+00 5.125561756110452052e+02
1.632191726014243116e+00 5.126432917092453181e+02
1.632291750020004706e+00 5.127270217502941705e+02
1.632391774025766296e+00 5.128073262957714178e+02
1.632491798031527663e+00 5.128841672338024864e+02
1.632591822037289031e+00 5.129575078032746660e+02
1.632691846043050399e+00 5.130273126175635525e+02
1.632791870048811766e+00 5.130935476877577912e+02
1.632891894054573134e+00 5.131561804453624518e+02
1.632991918060334502e+00 5.132151797644719409e+02
1.633091942066095870e+00 5.132705159833969901e+02
1.633191966071857237e+00 5.133221609257288947e+02
1.633291990077618605e+00 5.133700879208308834e+02
1.633392014083379973e+00 5.134142718237443432e+02
1.633492038089141341e+00 5.134546890344923895e+02
1.633592062094902708e+00 5.134913175167690724e+02
1.633692086100664076e+00 5.135241368160037609e+02
1.633792110106425444e+00 5.135531280767872886e+02
1.633892134112186811e+00 5.135782740596444000e+02
1.633992158117948179e+00 5.135995591571447676e+02
1.634092182123709547e+00 5.136169694093379121e+02
1.634192206129471137e+00 5.136304925184996364e+02
1.634292230135232504e+00 5.136401178631841731e+02
1.634392254140993872e+00 5.136458365115615834e+02
1.634492278146755240e+00 5.136476412340383604e+02
1.634592302152516607e+00 5.136455265151480489e+02
1.634692326158277975e+00 5.136394885646956254e+02
1.634792350164039343e+00 5.136295253281566602e+02
1.634892374169800711e+00 5.136156364963136411e+02
1.634992398175562078e+00 5.135978235141193409e+02
1.635092422181323446e+00 5.135760895887863171e+02
1.635192446187084814e+00 5.135504396970848120e+02
1.635292470192846181e+00 5.135208805918457529e+02
1.635392494198607549e+00 5.134874208076597597e+02
1.635492518204368917e+00 5.134500706657648834e+02
1.635592542210130285e+00 5.134088422781132977e+02
1.635692566215891652e+00 5.133637495506141022e+02
1.635792590221653020e+00 5.133148081855418923e+02
1.635892614227414388e+00 5.132620356831080244e+02
1.635992638233175756e+00 5.132054513421855972e+02
1.636092662238937345e+00 5.131450762601858742e+02
1.636192686244698713e+00 5.130809333320765973e+02
1.636292710250460081e+00 5.130130472485445807e+02
1.636392734256221448e+00 5.129414444932906463e+02
1.636492758261982816e+00 5.128661533394590606e+02
1.636592782267744184e+00 5.127872038451916978e+02
1.636692806273505552e+00 5.127046278483138622e+02
1.636792830279266919e+00 5.126184589601366497e+02
1.636892854285028287e+00 5.125287325583831262e+02
1.636992878290789655e+00 5.124354857792336588e+02
1.637092902296551022e+00 5.123387575084882428e+02
1.637192926302312390e+00 5.122385883718454807e+02
1.637292950308073758e+00 5.121350207242945771e+02
1.637392974313835126e+00 5.120280986386312634e+02
1.637492998319596493e+00 5.119178678930824162e+02
1.637593022325357861e+00 5.118043759580524465e+02
1.637693046331119229e+00 5.116876719819852042e+02
1.637793070336880596e+00 5.115678067763529953e+02
1.637893094342642186e+00 5.114448327997577053e+02
1.637993118348403776e+00 5.113188041411689255e+02
1.638093142354164922e+00 5.111897765022831095e+02
1.638193166359926511e+00 5.110578071790141621e+02
1.638293190365687657e+00 5.109229550421288195e+02
1.638393214371449247e+00 5.107852805170118131e+02
1.638493238377210393e+00 5.106448455625851466e+02
1.638593262382971982e+00 5.105017136493729595e+02
1.638693286388733128e+00 5.103559497367284621e+02
1.638793310394494718e+00 5.102076202492195307e+02
1.638893334400255863e+00 5.100567930521869471e+02
1.638993358406017453e+00 5.099035374264819893e+02
1.639093382411778599e+00 5.097479240423843407e+02
1.639193406417540189e+00 5.095900249327190181e+02
1.639293430423301334e+00 5.094299134651711256e+02
1.639393454429062924e+00 5.092676643138149757e+02
1.639493478434824070e+00 5.091033534298630912e+02
1.639593502440585659e+00 5.089370580116442397e+02
1.639693526446346805e+00 5.087688564738272703e+02
1.639793550452108617e+00 5.085988284158925694e+02
1.639893574457869985e+00 5.084270545898699538e+02
1.639993598463631352e+00 5.082536168673517523e+02
