2.000080019204609094e+00 5.067838208814542895e+02
2.000180043210370240e+00 5.069435789905364231e+02
2.000280067216131830e+00 5.071033086172002982e+02
2.000380091221892975e+00 5.072630020336501389e+02
2.000480115227654565e+00 5.074226515099636003e+02
2.000580139233416155e+00 5.075822493148110084e+02
2.000680163239177300e+00 5.077417877161693696e+02
2.000780187244938890e+00 5.079012589820408152e+02
2.000880211250700036e+00 5.080606553811669528e+02
2.000980235256461626e+00 5.082199691837492992e+02
2.001080259262222771e+00 5.083791926621627226e+02
2.001180283267984361e+00 5.085383180916721244e+02
2.001280307273745507e+00 5.086973377511512808e+02
2.001380331279507097e+00 5.088562439237940680e+02
2.001480355285268242e+00 5.090150288978340427e+02
2.001580379291029832e+00 5.091736849672569747e+02
2.001680403296790978e+00 5.093322044325158231e+02
2.001780427302552567e+00 5.094905796012429278e+02
2.001880451308313713e+00 5.096488027889643604e+02
2.001980475314075303e+00 5.098068663198122294e+02
2.002080499319836449e+00 5.099647625272328924e+02
2.002180523325598038e+00 5.101224837546993740e+02
2.002280547331359628e+00 5.102800223564206021e+02
2.002380571337120774e+00 5.104373706980463226e+02
2.002480595342882363e+00 5.105945211573771303e+02
2.002580619348643509e+00 5.107514661250665426e+02
2.002680643354405099e+00 5.109081980053265397e+02
2.002780667360166245e+00 5.110647092166306038e+02
2.002880691365927834e+00 5.112209921924115861e+02
2.002980715371688980e+00 5.113770393817635522e+02
2.003080739377450570e+00 5.115328432501380576e+02
2.003180763383211715e+00 5.116883962800392283e+02
2.003280787388973305e+00 5.118436909717184449e+02
2.003380811394734451e+00 5.119987198438665246e+02
2.003480835400496041e+00 5.121534754343012992e+02
2.003580859406257186e+00 5.123079503006580353e+02
2.003680883412018776e+00 5.124621370210724081e+02
2.003780907417779922e+00 5.126160281948652937e+02
2.003880931423541512e+00 5.127696164432229580e+02
2.003980955429302657e+00 5.129228944098765623e+02
2.004080979435064247e+00 5.130758547617760996e+02
2.004181003440825837e+00 5.132284901897654663e+02
2.004281027446586982e+00 5.133807934092524192e+02
2.004381051452348572e+00 5.135327571608779635e+02
2.004481075458110162e+00 5.136843742111794882e+02
2.004581099463871308e+00 5.138356373532550379e+02
2.004681123469632453e+00 5.139865394074215601e+02
2.004781147475394043e+00 5.141370732218728108e+02
2.004881171481155633e+00 5.142872316733302114e+02
2.004981195486916778e+00 5.144370076676960934e+02
2.005081219492677924e+00 5.145863941406988715e+02
2.005181243498439514e+00 5.147353840585371927e+02
2.005281267504201104e+00 5.148839704185202208e+02
2.005381291509962249e+00 5.150321462497039420e+02
2.005481315515723395e+00 5.151799046135262188e+02
2.005581339521484985e+00 5.153272386044354789e+02
2.005681363527246575e+00 5.154741413505161063e+02
2.005781387533007720e+00 5.156206060141117860e+02
2.005881411538768866e+00 5.157666257924450974e+02
2.005981435544530900e+00 5.159121939182305141e+02
2.006081459550292045e+00 5.160573036602859247e+02
2.006181483556053635e+00 5.162019483241398348e+02
2.006281507561814781e+00 5.163461212526334521e+02
2.006381531567576371e+00 5.164898158265207258e+02
2.006481555573337516e+00 5.166330254650616780e+02
2.006581579579099106e+00 5.167757436266119839e+02
2.006681603584860252e+00 5.169179638092107325e+02
2.006781627590621842e+00 5.170596795511604569e+02
2.006881651596382987e+00 5.172008844316055729e+02
2.006981675602144577e+00 5.173415720711028598e+02
2.007081699607905723e+00 5.174817361321918270e+02
2.007181723613667312e+00 5.176213703199559859e+02
2.007281747619428458e+00 5.177604683825832126e+02
2.007381771625190048e+00 5.178990241119176972e+02
2.007481795630951193e+00 5.180370313440118935e+02
2.007581819636712783e+00 5.181744839596674410e+02
2.007681843642473929e+00 5.183113758849755186e+02
2.007781867648235519e+00 5.184477010918540145e+02
2.007881891653997108e+00 5.185834535985708271e+02
2.007981915659758254e+00 5.187186274702737592e+02
2.008081939665519844e+00 5.188532168195055192e+02
2.008181963671280990e+00 5.189872158067198598e+02
2.008281987677042579e+00 5.191206186407881660e+02
2.008382011682803725e+00 5.192534195795037704e+02
2.008482035688565315e+00 5.193856129300784232e+02
2.008582059694326460e+00 5.195171930496367168e+02
2.008682083700088050e+00 5.196481543456987993e+02
2.008782107705849196e+00 5.197784912766677508e+02
2.008882131711610786e+00 5.199081983522979726e+02
2.008982155717371931e+00 5.200372701341709671e+02
2.009082179723133521e+00 5.201657012361565648e+02
2.009182203728894667e+00 5.202934863248725605e+02
2.009282227734656257e+00 5.204206201201365047e+02
2.009382251740417402e+00 5.205470973954131750e+02
2.009482275746178992e+00 5.206729129782567043e+02
2.009582299751940138e+00 5.207980617507431589e+02
2.009682323757701727e+00 5.209225386499008437e+02
2.009782347763463317e+00 5.210463386681340126e+02
2.009882371769224463e+00 5.211694568536397583e+02
2.009982395774986053e+00 5.212918883108169439e+02
2.010082419780747198e+00 5.214136282006725196e+02
2.010182443786508788e+00 5.215346717412202224e+02
2.010282467792269934e+00 5.216550142078729095e+02
2.010382491798031523e+00 5.217746509338268197e+02
2.010482515803792669e+00 5.218935773104428790e+02
2.010582539809554259e+00 5.220117887876203895e+02
2.010682563815315405e+00 5.221292808741617364e+02
2.010782587821076994e+00 5.222460491381351630e+02
2.010882611826838140e+00 5.223620892072281094e+02
2.010982635832599730e+00 5.224773967690938434e+02
2.011082659838360875e+00 5.225919675716934307e+02
2.011182683844122465e+00 5.227057974236304290e+02
2.011282707849883611e+00 5.228188821944768279e+02
2.011382731855645201e+00 5.229312178150967156e+02
2.011482755861406346e+00 5.230428002779594863e+02
2.011582779867167936e+00 5.231536256374467939e+02
2.011682803872929526e+00 5.232636900101560968e+02
2.011782827878691116e+00 5.233729895751919230e+02
2.011882851884452261e+00 5.234815205744569084e+02
2.011982875890213407e+00 5.235892793129281699e+02
2.012082899895974997e+00 5.236962621589357241e+02
2.012182923901736586e+00 5.238024655444273776e+02
2.012282947907497732e+00 5.239078859652271376e+02
2.012382971913258878e+00 5.240125199812916890e+02
2.012482995919020468e+00 5.241163642169564127e+02
2.012583019924782057e+00 5.242194153611706042e+02
2.012683043930543203e+00 5.243216701677357605e+02
2.012783067936304349e+00 5.244231254555270425e+02
2.012883091942065938e+00 5.245237781087114399e+02
2.012983115947827528e+00 5.246236250769624121e+02
2.013083139953588674e+00 5.247226633756604315e+02
2.013183163959349820e+00 5.248208900860925041e+02
2.013283187965111409e+00 5.249183023556412309e+02
2.013383211970872999e+00 5.250148973979692073e+02
2.013483235976634589e+00 5.251106724931927374e+02
2.013583259982395735e+00 5.252056249880516816e+02
2.013683283988157324e+00 5.252997522960720289e+02
2.013783307993918470e+00 5.253930518977194879e+02
2.013883331999680060e+00 5.254855213405464838e+02
2.013983356005441205e+00 5.255771582393313111e+02
2.014083380011202795e+00 5.256679602762151262e+02
2.014183404016963941e+00 5.257579252008224557e+02
2.014283428022725531e+00 5.258470508303840916e+02
2.014383452028486676e+00 5.259353350498454347e+02
2.014483476034248266e+00 5.260227758119721102e+02
2.014583500040009412e+00 5.261093711374471695e+02
2.014683524045771001e+00 5.261951191149601073e+02
2.014783548051532147e+00 5.262800179012882609e+02
2.014883572057293737e+00 5.263640657213753684e+02
2.014983596063054883e+00 5.264472608683960289e+02
2.015083620068816472e+00 5.265296017038185710e+02
2.015183644074577618e+00 5.266110866574576903e+02
2.015283668080339208e+00 5.266917142275223114e+02
2.015383692086100798e+00 5.267714829806519674e+02
2.015483716091861943e+00 5.268503915519515886e+02
2.015583740097623533e+00 5.269284386450153761e+02
2.015683764103384679e+00 5.270056230319427186e+02
2.015783788109146268e+00 5.270819435533499018e+02
2.015883812114907414e+00 5.271573991183745420e+02
2.015983836120669004e+00 5.272319887046679696e+02
2.016083860126430150e+00 5.273057113583872706e+02
2.016183884132191739e+00 5.273785661941751641e+02
2.016283908137952885e+00 5.274505523951340820e+02
2.016383932143714475e+00 5.275216692127951319e+02
2.016483956149475620e+00 5.275919159670769432e+02
2.016583980155237210e+00 5.276612920462384864e+02
2.016684004160998356e+00 5.277297969068259818e+02
2.016784028166759946e+00 5.277974300736093483e+02
2.016884052172521091e+00 5.278641911395181978e+02
2.016984076178282681e+00 5.279300797655614588e+02
2.017084100184044271e+00 5.279950956807491593e+02
2.017184124189805416e+00 5.280592386819987496e+02
2.017284148195567006e+00 5.281225086340434700e+02
2.017384172201328152e+00 5.281849054693250309e+02
2.017484196207089742e+00 5.282464291878844733e+02
2.017584220212850887e+00 5.283070798572462081e+02
2.017684244218612477e+00 5.283668576122901186e+02
2.017784268224373623e+00 5.284257626551246858e+02
2.017884292230135213e+00 5.284837952549446527e+02
2.017984316235896358e+00 5.285409557478898250e+02
2.018084340241657948e+00 5.285972445368913668e+02
2.018184364247419094e+00 5.286526620915116155e+02
2.018284388253180683e+00 5.287072089477821919e+02
2.018384412258941829e+00 5.287608857080301732e+02
2.018484436264703419e+00 5.288136930406978991e+02
2.018584460270464565e+00 5.288656316801585717e+02
2.018684484276226154e+00 5.289167024265252621e+02
2.018784508281987300e+00 5.289669061454496841e+02
2.018884532287748890e+00 5.290162437679185814e+02
2.018984556293510479e+00 5.290647162900399962e+02
2.019084580299272069e+00 5.291123247728269234e+02
2.019184604305033215e+00 5.291590703419694819e+02
2.019284628310794361e+00 5.292049541876057219e+02
2.019384652316555950e+00 5.292499775640807229e+02
2.019484676322317540e+00 5.292941417897079646e+02
2.019584700328078686e+00 5.293374482465102346e+02
2.019684724333839831e+00 5.293798983799696316e+02
2.019784748339601421e+00 5.294214936987610827e+02
2.019884772345363011e+00 5.294622357744826786e+02
2.019984796351124157e+00 5.295021262413800969e+02
2.020084820356885302e+00 5.295411667960655677e+02
2.020184844362646892e+00 5.295793591972291097e+02
2.020284868368408482e+00 5.296167052653431710e+02
2.020384892374169628e+00 5.296532068823639747e+02
2.020484916379930773e+00 5.296888659914247910e+02
2.020584940385692363e+00 5.297236845965238672e+02
2.020684964391453953e+00 5.297576647622050814e+02
2.020784988397215542e+00 5.297908086132355265e+02
2.020885012402976688e+00 5.298231183342758186e+02
2.020985036408738278e+00 5.298545961695424467e+02
2.021085060414499424e+00 5.298852444224690998e+02
2.021185084420261013e+00 5.299150654553575350e+02
2.021285108426022159e+00 5.299440616890262845e+02
2.021385132431783749e+00 5.299722356024524288e+02
2.021485156437544894e+00 5.299995897324066618e+02
2.021585180443306484e+00 5.300261266730858551e+02
2.021685204449067630e+00 5.300518490757373229e+02
2.021785228454829220e+00 5.300767596482784256e+02
2.021885252460590365e+00 5.301008611549125362e+02
2.021985276466351955e+00 5.301241564157379571e+02
2.022085300472113101e+00 5.301466483063520627e+02
2.022185324477874691e+00 5.301683397574487344e+02
2.022285348483635836e+00 5.301892337544156817e+02
2.022385372489397426e+00 5.302093333369202810e+02
2.022485396495158572e+00 5.302286415984954147e+02
2.022585420500920161e+00 5.302471616861164421e+02
2.022685444506681751e+00 5.302648967997770342e+02
2.022785468512442897e+00 5.302818501920585277e+02
2.022885492518204487e+00 5.302980251676915486e+02
2.022985516523965632e+00 5.303134250831184318e+02
2.023085540529727222e+00 5.303280533460493871e+02
2.023185564535488368e+00 5.303419134150087757e+02
2.023285588541249957e+00 5.303550087988845689e+02
2.023385612547011103e+00 5.303673430564691671e+02
2.023485636552772693e+00 5.303789197959945341e+02
2.023585660558533839e+00 5.303897426746677866e+02
2.023685684564295428e+00 5.303998153981978021e+02
2.023785708570056574e+00 5.304091417203192123e+02
2.023885732575818164e+00 5.304177254423143495e+02
2.023985756581579309e+00 5.304255704125262127e+02
2.024085780587340899e+00 5.304326805258731383e+02
2.024185804593102045e+00 5.304390597233546032e+02
2.024285828598863635e+00 5.304447119915569147e+02
2.024385852604624780e+00 5.304496413621529882e+02
2.024485876610386370e+00 5.304538519113967823e+02
2.024585900616147960e+00 5.304573477596185285e+02
2.024685924621909106e+00 5.304601330707128000e+02
2.024785948627670695e+00 5.304622120516228279e+02
2.024885972633431841e+00 5.304635889518242493e+02
2.024985996639193431e+00 5.304642680628024891e+02
2.025086020644954576e+00 5.304642537175269581e+02
2.025186044650716166e+00 5.304635502899252515e+02
2.025286068656477312e+00 5.304621621943492755e+02
2.025386092662238902e+00 5.304600938850412604e+02
2.025486116668000047e+00 5.304573498555968172e+02
2.025586140673761637e+00 5.304539346384231067e+02
2.025686164679522783e+00 5.304498528041947338e+02
2.025786188685284372e+00 5.304451089613078238e+02
2.025886212691045518e+00 5.304397077553308009e+02
2.025986236696807108e+00 5.304336538684505058e+02
2.026086260702568254e+00 5.304269520189187688e+02
2.026186284708329843e+00 5.304196069604938657e+02
2.026286308714090989e+00 5.304116234818798148e+02
2.026386332719853023e+00 5.304030064061644225e+02
2.026486356725614169e+00 5.303937605902553969e+02
2.026586380731375314e+00 5.303838909243094122e+02
2.026686404737136904e+00 5.303734023311658348e+02
2.026786428742898494e+00 5.303622997657729456e+02
2.026886452748659639e+00 5.303505882146139356e+02
2.026986476754420785e+00 5.303382726951315362e+02
2.027086500760182375e+00 5.303253582551493537e+02
2.027186524765943965e+00 5.303118499722913839e+02
2.027286548771705110e+00 5.302977529534014138e+02
2.027386572777466256e+00 5.302830723339578753e+02
2.027486596783227846e+00 5.302678132774893811e+02
2.027586620788989435e+00 5.302519809749874184e+02
2.027686644794750581e+00 5.302355806443187021e+02
2.027786668800511727e+00 5.302186175296327519e+02
2.027886692806273317e+00 5.302010969007727681e+02
2.027986716812034906e+00 5.301830240526825264e+02
2.028086740817796052e+00 5.301644043048111143e+02
2.028186764823557642e+00 5.301452430005193719e+02
2.028286788829319232e+00 5.301255455064814441e+02
2.028386812835080377e+00 5.301053172120894033e+02
2.028486836840841967e+00 5.300845635288532094e+02
2.028586860846603113e+00 5.300632898898036274e+02
2.028686884852364702e+00 5.300415017488892317e+02
2.028786908858125848e+00 5.300192045803778456e+02
2.028886932863887438e+00 5.299964038782532043e+02
2.028986956869648584e+00 5.299731051556152579e+02
2.029086980875410173e+00 5.299493139440746745e+02
2.029187004881171319e+00 5.299250357931516646e+02
2.029287028886932909e+00 5.299002762696713944e+02
2.029387052892694054e+00 5.298750409571605360e+02
2.029487076898455644e+00 5.298493354552429082e+02
2.029587100904216790e+00 5.298231653790355722e+02
2.029687124909978380e+00 5.297965363585437899e+02
2.029787148915739525e+00 5.297694540380572334e+02
2.029887172921501115e+00 5.297419240755452847e+02
2.029987196927262261e+00 5.297139521420533583e+02
2.030087220933023850e+00 5.296855439210967234e+02
2.030187244938785440e+00 5.296567051080593274e+02
2.030287268944546586e+00 5.296274414095890961e+02
2.030387292950308176e+00 5.295977585429943701e+02
2.030487316956069321e+00 5.295676622356418193e+02
2.030587340961830911e+00 5.295371582243549256e+02
2.030687364967592057e+00 5.295062522548107609e+02
2.030787388973353647e+00 5.294749500809409710e+02
2.030887412979114792e+00 5.294432574643301450e+02
2.030987436984876382e+00 5.294111801736188454e+02
2.031087460990637528e+00 5.293787239839014092e+02
2.031187484996399117e+00 5.293458946761328434e+02
2.031287509002160263e+00 5.293126980365302643e+02
2.031387533007921853e+00 5.292791398559772915e+02
2.031487557013682999e+00 5.292452259294301484e+02
2.031587581019444588e+00 5.292109620553269451e+02
2.031687605025205734e+00 5.291763540349920731e+02
2.031787629030967324e+00 5.291414076720506046e+02
2.031887653036728913e+00 5.291061287718355288e+02
2.031987677042490059e+00 5.290705231408021518e+02
2.032087701048251649e+00 5.290345965859437456e+02
2.032187725054012795e+00 5.289983549142059474e+02
2.032287749059774384e+00 5.289618039319034324e+02
2.032387773065535530e+00 5.289249494441419301e+02
2.032487797071297120e+00 5.288877972542384214e+02
2.032587821077058265e+00 5.288503531631425858e+02
2.032687845082819855e+00 5.288126229688658668e+02
2.032787869088581001e+00 5.287746124659039424e+02
2.032887893094342591e+00 5.287363274446697687e+02
2.032987917100103736e+00 5.286977736909237819e+02
2.033087941105865326e+00 5.286589569852060322e+02
2.033187965111626472e+00 5.286198831022753666e+02
2.033287989117388062e+00 5.285805578105440645e+02
2.033388013123149207e+00 5.285409868715214543e+02
2.033488037128910797e+00 5.285011760392569613e+02
2.033588061134671943e+00 5.284611310597822467e+02
2.033688085140433532e+00 5.284208576705647147e+02
2.033788109146195122e+00 5.283803615999536305e+02
2.033888133151956268e+00 5.283396485666387434e+02
2.033988157157717858e+00 5.282987242791018616e+02
2.034088181163479447e+00 5.282575944350799091e+02
2.034188205169240593e+00 5.282162647210241175e+02
2.034288229175001739e+00 5.281747408115679718e+02
2.034388253180763328e+00 5.281330283689932230e+02
2.034488277186524918e+00 5.280911330427024950e+02
2.034588301192286064e+00 5.280490604686924598e+02
2.034688325198047210e+00 5.280068162690314466e+02
2.034788349203808799e+00 5.279644060513421664e+02
2.034888373209570389e+00 5.279218354082827318e+02
2.034988397215331535e+00 5.278791099170355210e+02
2.035088421221092680e+00 5.278362351387993385e+02
2.035188445226854270e+00 5.277932166182798710e+02
2.035288469232615860e+00 5.277500598831913976e+02
2.035388493238377006e+00 5.277067704437549764e+02
2.035488517244138151e+00 5.276633537922069763e+02
2.035588541249900185e+00 5.276198154023018105e+02
2.035688565255661331e+00 5.275761607288303594e+02
2.035788589261422921e+00 5.275323952071316853e+02
2.035888613267184066e+00 5.274885242526149796e+02
2.035988637272945656e+00 5.274445532602824187e+02
2.036088661278706802e+00 5.274004876042561136e+02
2.036188685284468392e+00 5.273563326373110840e+02
2.036288709290229537e+00 5.273120936904097107e+02
2.036388733295991127e+00 5.272677760722408493e+02
2.036488757301752273e+00 5.272233850687647418e+02
2.036588781307513862e+00 5.271789259427598608e+02
2.036688805313275008e+00 5.271344039333748697e+02
2.036788829319036598e+00 5.270898242556850164e+02
2.036888853324797743e+00 5.270451921002515974e+02
2.036988877330559333e+00 5.270005126326896061e+02
2.037088901336320479e+00 5.269557909932312896e+02
2.037188925342082069e+00 5.269110322963059616e+02
2.037288949347843214e+00 5.268662416301139046e+02
2.037388973353604804e+00 5.268214240562085706e+02
2.037488997359366394e+00 5.267765846090856030e+02
2.037589021365127540e+00 5.267317282957731095e+02
2.037689045370889129e+00 5.266868600954264821e+02
2.037789069376650275e+00 5.266419849589317437e+02
2.037889093382411865e+00 5.265971078085076442e+02
2.037989117388173010e+00 5.265522335373184433e+02
2.038089141393934600e+00 5.265073670090863516e+02
2.038189165399695746e+00 5.264625130577121581e+02
2.038289189405457336e+00 5.264176764868991540e+02
2.038389213411218481e+00 5.263728620697817178e+02
2.038489237416980071e+00 5.263280745485609486e+02
2.038589261422741217e+00 5.262833186341409828e+02
2.038689285428502806e+00 5.262385990057741765e+02
2.038789309434263952e+00 5.261939203107100411e+02
2.038889333440025542e+00 5.261492871638478164e+02
2.038989357445786688e+00 5.261047041473968875e+02
2.039089381451548277e+00 5.260601758105376575e+02
2.039189405457309423e+00 5.260157066690936745e+02
2.039289429463071013e+00 5.259713012052022805e+02
2.039389453468832603e+00 5.259269638669960614e+02
2.039489477474593748e+00 5.258826990682866835e+02
2.039589501480355338e+00 5.258385111882521414e+02
2.039689525486116484e+00 5.257944045711340095e+02
2.039789549491878073e+00 5.257503835259342395e+02
2.039889573497639219e+00 5.257064523261229851e+02
2.039989597503400809e+00 5.256626152093474502e+02
2.040089621509161955e+00 5.256188763771460799e+02
2.040189645514923544e+00 5.255752399946724154e+02
2.040289669520684690e+00 5.255317101904172432e+02
2.040389693526446280e+00 5.254882910559441598e+02
2.040489717532207425e+00 5.254449866456233167e+02
2.040589741537969015e+00 5.254018009763736927e+02
2.040689765543730161e+00 5.253587380274128691e+02
2.040789789549491751e+00 5.253158017400078279e+02
2.040889813555252896e+00 5.252729960172340498e+02
2.040989837561014486e+00 5.252303247237388177e+02
2.041089861566775632e+00 5.251877916855115700e+02
2.041189885572537221e+00 5.251454006896564124e+02
2.041289909578298811e+00 5.251031554841746356e+02
2.041389933584060401e+00 5.250610597777490511e+02
2.041489957589821547e+00 5.250191172395346939e+02
2.041589981595582692e+00 5.249773314989560049e+02
2.041690005601344282e+00 5.249357061455095845e+02
2.041790029607105872e+00 5.248942447285699018e+02
2.041890053612867018e+00 5.248529507572040984e+02
2.041990077618628163e+00 5.248118276999895215e+02
2.042090101624389753e+00 5.247708789848387596e+02
2.042190125630151343e+00 5.247301079988286574e+02
2.042290149635912488e+00 5.246895180880353564e+02
2.042390173641673634e+00 5.246491125573768386e+02
2.042490197647435224e+00 5.246088946704552427e+02
2.042590221653196814e+00 5.245688676494138463e+02
2.042690245658957959e+00 5.245290346747906369e+02
2.042790269664719105e+00 5.244893988853824567e+02
2.042890293670480695e+00 5.244499633781143757e+02
2.042990317676242285e+00 5.244107312079122494e+02
2.043090341682003874e+00 5.243717053875823240e+02
2.043190365687765020e+00 5.243328888876976634e+02
2.043290389693526610e+00 5.242942846364890102e+02
2.043390413699287755e+00 5.242558955197378054e+02
2.043490437705049345e+00 5.242177243806814886e+02
2.043590461710810491e+00 5.241797740199199325e+02
2.043690485716572081e+00 5.241420471953259721e+02
2.043790509722333226e+00 5.241045466219659374e+02
2.043890533728094816e+00 5.240672749720229149e+02
2.043990557733855962e+00 5.240302348747262613e+02
2.044090581739617551e+00 5.239934289162848700e+02
2.044190605745378697e+00 5.239568596398288491e+02
2.044290629751140287e+00 5.239205295453537019e+02
2.044390653756901433e+00 5.238844410896745103e+02
2.044490677762663022e+00 5.238485966863777321e+02
2.044590701768424168e+00 5.238129987057884591e+02
2.044690725774185758e+00 5.237776494749324456e+02
2.044790749779946903e+00 5.237425512775133711e+02
2.044890773785708493e+00 5.237077063538890798e+02
2.044990797791470083e+00 5.236731169010536178e+02
2.045090821797231229e+00 5.236387850726293891e+02
2.045190845802992818e+00 5.236047129788589700e+02
2.045290869808753964e+00 5.235709026866048816e+02
2.045390893814515554e+00 5.235373562193553880e+02
2.045490917820276700e+00 5.235040755572338185e+02
2.045590941826038289e+00 5.234710626370136879e+02
2.045690965831799435e+00 5.234383193521399562e+02
2.045790989837561025e+00 5.234058475527546079e+02
2.045891013843322170e+00 5.233736490457273476e+02
2.045991037849083760e+00 5.233417255946925479e+02
2.046091061854844906e+00 5.233100789200893814e+02
2.046191085860606496e+00 5.232787106992092276e+02
2.046291109866367641e+00 5.232476225662462639e+02
2.046391133872129231e+00 5.232168161123552181e+02
2.046491157877890377e+00 5.231862928857127599e+02
2.046591181883651966e+00 5.231560543915833250e+02
2.046691205889413556e+00 5.231261020923923297e+02
2.046791229895174702e+00 5.230964374077997263e+02
2.046891253900936292e+00 5.230670617147869734e+02
2.046991277906697437e+00 5.230379763477372990e+02
2.047091301912459027e+00 5.230091825985327887e+02
2.047191325918220173e+00 5.229806817166460178e+02
2.047291349923981763e+00 5.229524749092445290e+02
2.047391373929742908e+00 5.229245633412940606e+02
2.047491397935504498e+00 5.228969481356712095e+02
2.047591421941265644e+00 5.228696303732779143e+02
2.047691445947027233e+00 5.228426110931616222e+02
2.047791469952788379e+00 5.228158912926400035e+02
2.047891493958549969e+00 5.227894719274295312e+02
2.047991517964311114e+00 5.227633539117819055e+02
2.048091541970072704e+00 5.227375381186186587e+02
2.048191565975833850e+00 5.227120253796784937e+02
2.048291589981595440e+00 5.226868164856613248e+02
2.048391613987356585e+00 5.226619121863814144e+02
2.048491637993118175e+00 5.226373131909258518e+02
2.048591661998879765e+00 5.226130201678107596e+02
2.048691686004641355e+00 5.225890337451510277e+02
2.048791710010402500e+00 5.225653545108282287e+02
2.048891734016163646e+00 5.225419830126617171e+02
2.048991758021925236e+00 5.225189197585892771e+02
2.049091782027686826e+00 5.224961652168504997e+02
2.049191806033447971e+00 5.224737198161685683e+02
2.049291830039209117e+00 5.224515839459448898e+02
2.049391854044970707e+00 5.224297579564502030e+02
2.049491878050732296e+00 5.224082421590258036e+02
2.049591902056493442e+00 5.223870368262839747e+02
2.049691926062254588e+00 5.223661421923145554e+02
2.049791950068016178e+00 5.223455584528959434e+02
2.049891974073777767e+00 5.223252857657091681e+02
2.049991998079538913e+00 5.223053242505541220e+02
2.050092022085300059e+00 5.222856739895732971e+02
2.050192046091061648e+00 5.222663350274760887e+02
2.050292070096823238e+00 5.222473073717670786e+02
2.050392094102584828e+00 5.222285909929803438e+02
2.050492118108345974e+00 5.222101858249141060e+02
2.050592142114107563e+00 5.221920917648715204e+02
2.050692166119868709e+00 5.221743086739031696e+02
2.050792190125630299e+00 5.221568363770541055e+02
2.050892214131391444e+00 5.221396746636144144e+02
2.050992238137153034e+00 5.221228232873708066e+02
2.051092262142914180e+00 5.221062819668655948e+02
2.051192286148675770e+00 5.220900503856549904e+02
2.051292310154436915e+00 5.220741281925728572e+02
2.051392334160198505e+00 5.220585150019965113e+02
2.051492358165959651e+00 5.220432103941176365e+02
2.051592382171721241e+00 5.220282139152118361e+02
2.051692406177482386e+00 5.220135250779180751e+02
2.051792430183243976e+00 5.219991433615117558e+02
2.051892454189005122e+00 5.219850682121917771e+02
2.051992478194766711e+00 5.219712990433603181e+02
2.052092502200527857e+00 5.219578352359118298e+02
2.052192526206289447e+00 5.219446761385217997e+02
2.052292550212051037e+00 5.219318210679400636e+02
2.052392574217812182e+00 5.219192693092855961e+02
2.052492598223573772e+00 5.219070201163423235e+02
2.052592622229334918e+00 5.218950727118616442e+02
2.052692646235096507e+00 5.218834262878647223e+02
2.052792670240857653e+00 5.218720800059464864e+02
2.052892694246619243e+00 5.218610329975831519e+02
2.052992718252380389e+00 5.218502843644428140e+02
2.053092742258141978e+00 5.218398331786963809e+02
2.053192766263903124e+00 5.218296784833346464e+02
2.053292790269664714e+00 5.218198192924801333e+02
2.053392814275425859e+00 5.218102545917101907e+02
2.053492838281187449e+00 5.218009833383749765e+02
2.053592862286948595e+00 5.217920044619202145e+02
2.053692886292710185e+00 5.217833168642130204e+02
2.053792910298471330e+00 5.217749194198681835e+02
2.053892934304232920e+00 5.217668109765749023e+02
2.053992958309994066e+00 5.217589903554292050e+02
2.054092982315755656e+00 5.217514563512639825e+02
2.054193006321517245e+00 5.217442077329837957e+02
2.054293030327278391e+00 5.217372432438993428e+02
2.054393054333039981e+00 5.217305616020652224e+02
2.054493078338801126e+00 5.217241615006161055e+02
2.054593102344562716e+00 5.217180416081096155e+02
2.054693126350323862e+00 5.217122005688644322e+02
2.054793150356085452e+00 5.217066370033048770e+02
2.054893174361846597e+00 5.217013495083040198e+02
2.054993198367608187e+00 5.216963366575284908e+02
2.055093222373369333e+00 5.216915970017859081e+02
2.055193246379130922e+00 5.216871290693707124e+02
2.055293270384892068e+00 5.216829313664136407e+02
2.055393294390653658e+00 5.216790023772317682e+02
2.055493318396414804e+00 5.216753405646770716e+02
2.055593342402176393e+00 5.216719443704904506e+02
2.055693366407937539e+00 5.216688122156515419e+02
2.055793390413699129e+00 5.216659425007341042e+02
2.055893414419460719e+00 5.216633336062584476e+02
2.055993438425222308e+00 5.216609838930457954e+02
2.056093462430983454e+00 5.216588917025743513e+02
2.056193486436744600e+00 5.216570553573350253e+02
2.056293510442506189e+00 5.216554731611876150e+02
2.056393534448267779e+00 5.216541433997170998e+02
2.056493558454028925e+00 5.216530643405924366e+02
2.056593582459790071e+00 5.216522342339212628e+02
2.056693606465551660e+00 5.216516513126119889e+02
2.056793630471313250e+00 5.216513137927283879e+02
2.056893654477074396e+00 5.216512198738500956e+02
2.056993678482835541e+00 5.216513677394303841e+02
2.057093702488597131e+00 5.216517555571550702e+02
2.057193726494358721e+00 5.216523814793013116e+02
2.057293750500119867e+00 5.216532436430969710e+02
2.057393774505881012e+00 5.216543401710782746e+02
2.057493798511642602e+00 5.216556691714489489e+02
2.057593822517404192e+00 5.216572287384394713e+02
2.057693846523165337e+00 5.216590169526635918e+02
2.057793870528926927e+00 5.216610318814783795e+02
2.057893894534688517e+00 5.216632715793399484e+02
2.057993918540449663e+00 5.216657340881631626e+02
2.058093942546211252e+00 5.216684174376758847e+02
2.058193966551972398e+00 5.216713196457773165e+02
2.058293990557733988e+00 5.216744387188934979e+02
2.058394014563495134e+00 5.216777726523332603e+02
2.058494038569256723e+00 5.216813194306411106e+02
2.058594062575017869e+00 5.216850770279525022e+02
2.058694086580779459e+00 5.216890434083496757e+02
2.058794110586540604e+00 5.216932165262093122e+02
2.058894134592302194e+00 5.216975943265579190e+02
2.058994158598063340e+00 5.217021747454223259e+02
2.059094182603824930e+00 5.217069557101791588e+02
2.059194206609586075e+00 5.217119351399035168e+02
2.059294230615347665e+00 5.217171109457181046e+02
2.059394254621108811e+00 5.217224810311389547e+02
2.059494278626870400e+00 5.217280432924234219e+02
2.059594302632631990e+00 5.217337956189118131e+02
2.059694326638393136e+00 5.217397358933747000e+02
2.059794350644154726e+00 5.217458619923520473e+02
2.059894374649915871e+00 5.217521717864965467e+02
2.059994398655677461e+00 5.217586631409111533e+02
2.060094422661438607e+00 5.217653339154892365e+02
2.060194446667200197e+00 5.217721819652504109e+02
2.060294470672961342e+00 5.217792051406775045e+02
2.060394494678722932e+00 5.217864012880471591e+02
2.060494518684484078e+00 5.217937682497653213e+02
2.060594542690245667e+00 5.218013038646986388e+02
2.060694566696006813e+00 5.218090059684994912e+02
2.060794590701768403e+00 5.218168723939372740e+02
2.060894614707529549e+00 5.218249009712218367e+02
2.060994638713291138e+00 5.218330895283285145e+02
2.061094662719052284e+00 5.218414358913200886e+02
2.061194686724813874e+00 5.218499378846665877e+02
2.061294710730575019e+00 5.218585933315638385e+02
2.061394734736336609e+00 5.218674000542500835e+02
2.061494758742098199e+00 5.218763558743207795e+02
2.061594782747859345e+00 5.218854586130396456e+02
2.061694806753620934e+00 5.218947060916495957e+02
2.061794830759382080e+00 5.219040961316827634e+02
2.061894854765143670e+00 5.219136265552634768e+02
2.061994878770904815e+00 5.219232951854157818e+02
2.062094902776666405e+00 5.219330998463623246e+02
2.062194926782427551e+00 5.219430383638247122e+02
2.062294950788189141e+00 5.219531085653218270e+02
2.062394974793950286e+00 5.219633082804627975e+02
2.062494998799711876e+00 5.219736353412428116e+02
2.062595022805473022e+00 5.219840875823290389e+02
2.062695046811234612e+00 5.219946628413520102e+02
2.062795070816995757e+00 5.220053589591891523e+02
2.062895094822757347e+00 5.220161737802480957e+02
2.062995118828518493e+00 5.220271051527474810e+02
2.063095142834280082e+00 5.220381509289945825e+02
2.063195166840041228e+00 5.220493089656588381e+02
2.063295190845803262e+00 5.220605771240479953e+02
2.063395214851564408e+00 5.220719532703743653e+02
2.063495238857325553e+00 5.220834352760243746e+02
2.063595262863087143e+00 5.220950210178232282e+02
2.063695286868848733e+00 5.221067083782949112e+02
2.063795310874609878e+00 5.221184952459234410e+02
2.063895334880371024e+00 5.221303795154080944e+02
2.063995358886132614e+00 5.221423590879170433e+02
2.064095382891894204e+00 5.221544318713375787e+02
2.064195406897655349e+00 5.221665957805257676e+02
2.064295430903416495e+00 5.221788487375483783e+02
2.064395454909178085e+00 5.221911886719287850e+02
2.064495478914939675e+00 5.222036135208808219e+02
2.064595502920700820e+00 5.222161212295509358e+02
2.064695526926461966e+00 5.222287097512461287e+02
2.064795550932223556e+00 5.222413770476676973e+02
2.064895574937985145e+00 5.222541210891349692e+02
2.064995598943746291e+00 5.222669398548122217e+02
2.065095622949507437e+00 5.222798313329286657e+02
2.065195646955269471e+00 5.222927935209959287e+02
2.065295670961030616e+00 5.223058244260223546e+02
2.065395694966792206e+00 5.223189220647260527e+02
2.065495718972553352e+00 5.223320844637418077e+02
2.065595742978314941e+00 5.223453096598268530e+02
2.065695766984076087e+00 5.223585957000631197e+02
2.065795790989837677e+00 5.223719406420576661e+02
2.065895814995598823e+00 5.223853425541326487e+02
2.065995839001360412e+00 5.223987995155259796e+02
2.066095863007121558e+00 5.224123096165740208e+02
2.066195887012883148e+00 5.224258709588993952e+02
2.066295911018644293e+00 5.224394816555941361e+02
2.066395935024405883e+00 5.224531398313984027e+02
2.066495959030167029e+00 5.224668436228766950e+02
2.066595983035928619e+00 5.224805911785903163e+02
2.066696007041689764e+00 5.224943806592664259e+02
2.066796031047451354e+00 5.225082102379642492e+02
2.066896055053212500e+00 5.225220781002373087e+02
2.066996079058974090e+00 5.225359824442934951e+02
2.067096103064735679e+00 5.225499214811499087e+02
2.067196127070496825e+00 5.225638934347863369e+02
2.067296151076258415e+00 5.225778965422931606e+02
2.067396175082019560e+00 5.225919290540166458e+02
2.067496199087781150e+00 5.226059892337030988e+02
2.067596223093542296e+00 5.226200753586373366e+02
2.067696247099303886e+00 5.226341857197746776e+02
2.067796271105065031e+00 5.226483186218788433e+02
2.067896295110826621e+00 5.226624723836448538e+02
2.067996319116587767e+00 5.226766453378264714e+02
2.068096343122349356e+00 5.226908358313594363e+02
2.068196367128110502e+00 5.227050422254760633e+02
2.068296391133872092e+00 5.227192628958234764e+02
2.068396415139633238e+00 5.227334962325734296e+02
2.068496439145394827e+00 5.227477406405283773e+02
2.068596463151155973e+00 5.227619945392285672e+02
2.068696487156917563e+00 5.227762563630531076e+02
2.068796511162678708e+00 5.227905245613146690e+02
2.068896535168440298e+00 5.228047975983565721e+02
2.068996559174201888e+00 5.228190739536405545e+02
2.069096583179963034e+00 5.228333521218373789e+02
2.069196607185724623e+00 5.228476306129065279e+02
2.069296631191485769e+00 5.228619079521799904e+02
2.069396655197247359e+00 5.228761826804366137e+02
2.069496679203008505e+00 5.228904533539775912e+02
2.069596703208770094e+00 5.229047185446941057e+02
2.069696727214531240e+00 5.229189768401358833e+02
2.069796751220292830e+00 5.229332268435741753e+02
2.069896775226053975e+00 5.229474671740593976e+02
2.069996799231815565e+00 5.229616964664795660e+02
2.070096823237576711e+00 5.229759133716135011e+02
2.070196847243338301e+00 5.229901165561782364e+02
2.070296871249099446e+00 5.230043047028777892e+02
2.070396895254861036e+00 5.230184765104434064e+02
2.070496919260622182e+00 5.230326306936742640e+02
2.070596943266383771e+00 5.230467659834753249e+02
2.070696967272145361e+00 5.230608811268864429e+02
2.070796991277906507e+00 5.230749748871151041e+02
2.070897015283668097e+00 5.230890460435598470e+02
2.070997039289429686e+00 5.231030933918359551e+02
2.071097063295190832e+00 5.231171157437929651e+02
2.071197087300951978e+00 5.231311119275317196e+02
2.071297111306713568e+00 5.231450807874173279e+02
2.071397135312475157e+00 5.231590211840883740e+02
2.071497159318236303e+00 5.231729319944641929e+02
2.071597183323997449e+00 5.231868121117501005e+02
2.071697207329759038e+00 5.232006604454321632e+02
2.071797231335520628e+00 5.232144759212807230e+02
2.071897255341281774e+00 5.232282574813382325e+02
2.071997279347042920e+00 5.232420040839150488e+02
2.072097303352804509e+00 5.232557147035741991e+02
2.072197327358566099e+00 5.232693883311171703e+02
2.072297351364327245e+00 5.232830239735627629e+02
2.072397375370088390e+00 5.232966206541286738e+02
2.072497399375849980e+00 5.233101774122051211e+02
2.072597423381611570e+00 5.233236933033269906e+02
2.072697447387373160e+00 5.233371673991447324e+02
2.072797471393134305e+00 5.233505987873872982e+02
2.072897495398895895e+00 5.233639865718286046e+02
2.072997519404657041e+00 5.233773298722476284e+02
2.073097543410418631e+00 5.233906278243837278e+02
2.073197567416179776e+00 5.234038795798929868e+02
2.073297591421941366e+00 5.234170843063001257e+02
2.073397615427702512e+00 5.234302411869457501e+02
2.073497639433464101e+00 5.234433494209343962e+02
2.073597663439225247e+00 5.234564082230764370e+02
2.073697687444986837e+00 5.234694168238282828e+02
2.073797711450747983e+00 5.234823744692316723e+02
2.073897735456509572e+00 5.234952804208481894e+02
2.073997759462270718e+00 5.235081339556905959e+02
2.074097783468032308e+00 5.235209343661525736e+02
2.074197807473793453e+00 5.235336809599382377e+02
2.074297831479555043e+00 5.235463730599834662e+02
2.074397855485316633e+00 5.235590100043795019e+02
2.074497879491077779e+00 5.235715911462916665e+02
2.074597903496839368e+00 5.235841158538771651e+02
2.074697927502600514e+00 5.235965835101982293e+02
2.074797951508362104e+00 5.236089935131348057e+02
2.074897975514123249e+00 5.236213452752923558e+02
2.074997999519884839e+00 5.236336382239123850e+02
2.075098023525645985e+00 5.236458718007729658e+02
2.075198047531407575e+00 5.236580454620939236e+02
2.075298071537168720e+00 5.236701586784367919e+02
2.075398095542930310e+00 5.236822109345999934e+02
2.075498119548691456e+00 5.236942017295175447e+02
2.075598143554453046e+00 5.237061305761504855e+02
2.075698167560214191e+00 5.237179970013791035e+02
2.075798191565975781e+00 5.237298005458908392e+02
2.075898215571736927e+00 5.237415407640672811e+02
2.075998239577498516e+00 5.237532172238700241e+02
2.076098263583259662e+00 5.237648295067240269e+02
2.076198287589021252e+00 5.237763772073938071e+02
2.076298311594782842e+00 5.237878599338691856e+02
2.076398335600543987e+00 5.237992773072364798e+02
2.076498359606305577e+00 5.238106289615561764e+02
2.076598383612066723e+00 5.238219145437349198e+02
2.076698407617828313e+00 5.238331337133975012e+02
2.076798431623589458e+00 5.238442861427560047e+02
2.076898455629351048e+00 5.238553715164773621e+02
2.076998479635112194e+00 5.238663895315494301e+02
2.077098503640873783e+00 5.238773398971453616e+02
2.077198527646634929e+00 5.238882223344855902e+02
2.077298551652396519e+00 5.238990365766994728e+02
2.077398575658157664e+00 5.239097823686855691e+02
2.077498599663919254e+00 5.239204594669665767e+02
2.077598623669680400e+00 5.239310676395496102e+02
2.077698647675441990e+00 5.239416066657770443e+02
2.077798671681203135e+00 5.239520763361841773e+02
2.077898695686964725e+00 5.239624764523478007e+02
2.077998719692725871e+00 5.239728068267373828e+02
2.078098743698487461e+00 5.239830672825687543e+02
2.078198767704249050e+00 5.239932576536440365e+02
2.078298791710010640e+00 5.240033777842074869e+02
2.078398815715771786e+00 5.240134275287842911e+02
2.078498839721532931e+00 5.240234067520291319e+02
2.078598863727294521e+00 5.240333153285675962e+02
2.078698887733056111e+00 5.240431531428391736e+02
2.078798911738817257e+00 5.240529200889383219e+02
2.078898935744578402e+00 5.240626160704549648e+02
2.078998959750339992e+00 5.240722410003133973e+02
2.079098983756101582e+00 5.240817948006106235e+02
2.079199007761862728e+00 5.240912774024536702e+02
2.079299031767623873e+00 5.241006887457972425e+02
2.079399055773385463e+00 5.241100287792780819e+02
2.079499079779147053e+00 5.241192974600509160e+02
2.079599103784908198e+00 5.241284947536214531e+02
2.079699127790669344e+00 5.241376206336822179e+02
2.079799151796430934e+00 5.241466750819425897e+02
2.079899175802192524e+00 5.241556580879636158e+02
2.079999199807954113e+00 5.241645696489881630e+02
2.080099223813715259e+00 5.241734097697730022e+02
2.080199247819476849e+00 5.241821784624183920e+02
2.080299271825237994e+00 5.241908757461997084e+02
2.080399295830999584e+00 5.241995016473956639e+02
2.080499319836760730e+00 5.242080561991188006e+02
2.080599343842522320e+00 5.242165394411443913e+02
2.080699367848283465e+00 5.242249514197387725e+02
2.080799391854045055e+00 5.242332921874885869e+02
2.080899415859806201e+00 5.242415618031275244e+02
2.080999439865567791e+00 5.242497603313664740e+02
2.081099463871328936e+00 5.242578878427202653e+02
2.081199487877090526e+00 5.242659444133344095e+02
2.081299511882851672e+00 5.242739301248155925e+02
2.081399535888613261e+00 5.242818450640571655e+02
2.081499559894374407e+00 5.242896893230665682e+02
2.081599583900135997e+00 5.242974629987955950e+02
2.081699607905897143e+00 5.243051661929666807e+02
2.081799631911658732e+00 5.243127990118994148e+02
2.081899655917420322e+00 5.243203615663421715e+02
2.081999679923181468e+00 5.243278539712965767e+02
2.082099703928943057e+00 5.243352763458495929e+02
2.082199727934704203e+00 5.243426288129987825e+02
2.082299751940465793e+00 5.243499114994853016e+02
2.082399775946226939e+00 5.243571245356210966e+02
2.082499799951988528e+00 5.243642680551183730e+02
2.082599823957749674e+00 5.243713421949216809e+02
2.082699847963511264e+00 5.243783470950371566e+02
2.082799871969272409e+00 5.243852828983657446e+02
2.082899895975033999e+00 5.243921497505315301e+02
2.082999919980795145e+00 5.243989477997188260e+02
2.083099943986556735e+00 5.244056771965010739e+02
2.083199967992317880e+00 5.244123380936762260e+02
2.083299991998079470e+00 5.244189306461014439e+02
2.083400016003840616e+00 5.244254550105277985e+02
2.083500040009602206e+00 5.244319113454349690e+02
2.083600064015363351e+00 5.244382998108698075e+02
2.083700088021124941e+00 5.244446205682826303e+02
2.083800112026886531e+00 5.244508737803644181e+02
2.083900136032647676e+00 5.244570596108884502e+02
2.084000160038409266e+00 5.244631782245484146e+02
2.084100184044170412e+00 5.244692297868002697e+02
2.084200208049932002e+00 5.244752144637036508e+02
2.084300232055693147e+00 5.244811324217662332e+02
2.084400256061454737e+00 5.244869838277862755e+02
2.084500280067215883e+00 5.244927688486978923e+02
2.084600304072977472e+00 5.244984876514197367e+02
2.084700328078738618e+00 5.245041404026997043e+02
2.084800352084500208e+00 5.245097272689638430e+02
2.084900376090261354e+00 5.245152484161691291e+02
2.085000400096022943e+00 5.245207040096504443e+02
2.085100424101784089e+00 5.245260942139771032e+02
2.085200448107545679e+00 5.245314191928032415e+02
2.085300472113306824e+00 5.245366791087246838e+02
2.085400496119068414e+00 5.245418741231359263e+02
2.085500520124830004e+00 5.245470043960857538e+02
2.085600544130591594e+00 5.245520700861389969e+02
2.085700568136352739e+00 5.245570713502361286e+02
2.085800592142113885e+00 5.245620083435549077e+02
2.085900616147875475e+00 5.245668812193762278e+02
2.086000640153637065e+00 5.245716901289474663e+02
2.086100664159398210e+00 5.245764352213498114e+02
2.086200688165159356e+00 5.245811166433677499e+02
2.086300712170920946e+00 5.245857345393588957e+02
2.086400736176682535e+00 5.245902890511246142e+02
2.086500760182443681e+00 5.245947803177843980e+02
2.086600784188204827e+00 5.245992084756519489e+02
2.086700808193966417e+00 5.246035736581110314e+02
2.086800832199728006e+00 5.246078759954937141e+02
2.086900856205489152e+00 5.246121156149628177e+02
2.087000880211250298e+00 5.246162926403919755e+02
2.087100904217011887e+00 5.246204071922509229e+02
2.087200928222773477e+00 5.246244593874920383e+02
2.087300952228534623e+00 5.246284493394365427e+02
2.087400976234296213e+00 5.246323771576662693e+02
2.087501000240057802e+00 5.246362429479144112e+02
2.087601024245818948e+00 5.246400468119578591e+02
2.087701048251580538e+00 5.246437888475157933e+02
2.087801072257341684e+00 5.246474691481445234e+02
2.087901096263103273e+00 5.246510878031388074e+02
2.088001120268864419e+00 5.246546448974328314e+02
2.088101144274626009e+00 5.246581405115040297e+02
2.088201168280387154e+00 5.246615747212790666e+02
2.088301192286148744e+00 5.246649475980406123e+02
2.088401216291909890e+00 5.246682592083393502e+02
2.088501240297671480e+00 5.246715096139045045e+02
2.088601264303432625e+00 5.246746988715588031e+02
2.088701288309194215e+00 5.246778270331340082e+02
2.088801312314955361e+00 5.246808941453904254e+02
2.088901336320716950e+00 5.246839002499374374e+02
2.089001360326478096e+00 5.246868453831561965e+02
2.089101384332239686e+00 5.246897295761245914e+02
2.089201408338001276e+00 5.246925528545465340e+02
2.089301432343762421e+00 5.246953152386788588e+02
2.089401456349524011e+00 5.246980167432645885e+02
2.089501480355285157e+00 5.247006573774680191e+02
2.089601504361046747e+00 5.247032371448101458e+02
2.089701528366807892e+00 5.247057560431074990e+02
2.089801552372569482e+00 5.247082140644139372e+02
2.089901576378330628e+00 5.247106111949633487e+02
2.090001600384092217e+00 5.247129474151159911e+02
2.090101624389853363e+00 5.247152226993066506e+02
2.090201648395614953e+00 5.247174370159950740e+02
2.090301672401376099e+00 5.247195903276185618e+02
2.090401696407137688e+00 5.247216825905470614e+02
2.090501720412898834e+00 5.247237137550424677e+02
2.090601744418660424e+00 5.247256837652154218e+02
2.090701768424421569e+00 5.247275925589917733e+02
2.090801792430183159e+00 5.247294400680732451e+02
2.090901816435944305e+00 5.247312262179084428e+02
2.091001840441705895e+00 5.247329509276604540e+02
2.091101864447467484e+00 5.247346141101787680e+02
2.091201888453228630e+00 5.247362156719743780e+02
2.091301912458990220e+00 5.247377555131974987e+02
2.091401936464751365e+00 5.247392335276156246e+02
2.091501960470512955e+00 5.247406496025963634e+02
2.091601984476274101e+00 5.247420036190899282e+02
2.091702008482035691e+00 5.247432954516190193e+02
2.091802032487796836e+00 5.247445249682648409e+02
2.091902056493558426e+00 5.247456920306610755e+02
2.092002080499319572e+00 5.247467964939856984e+02
2.092102104505081162e+00 5.247478382069599547e+02
2.092202128510842307e+00 5.247488170118458584e+02
2.092302152516603897e+00 5.247497327444465327e+02
2.092402176522365043e+00 5.247505852341137143e+02
2.092502200528126632e+00 5.247513743037496852e+02
2.092602224533887778e+00 5.247520997698195515e+02
2.092702248539649368e+00 5.247527614423597697e+02
2.092802272545410514e+00 5.247533591249945175e+02
2.092902296551172547e+00 5.247538926149492227e+02
2.093002320556933693e+00 5.247543617030705718e+02
2.093102344562694839e+00 5.247547661738469742e+02
2.093202368568456428e+00 5.247551058054318673e+02
2.093302392574218018e+00 5.247553803696697514e+02
2.093402416579979164e+00 5.247555896321247246e+02
2.093502440585740310e+00 5.247557333521095870e+02
2.093602464591501899e+00 5.247558112827206287e+02
2.093702488597263489e+00 5.247558231708721905e+02
2.093802512603024635e+00 5.247557687573342946e+02
2.093902536608785780e+00 5.247556477767726619e+02
2.094002560614547370e+00 5.247554599577927092e+02
2.094102584620308960e+00 5.247552050229817269e+02
2.094202608626070106e+00 5.247548826889584461e+02
2.094302632631831251e+00 5.247544926664214699e+02
2.094402656637592841e+00 5.247540346602010004e+02
2.094502680643354431e+00 5.247535083693150000e+02
2.094602704649115577e+00 5.247529134870214875e+02
2.094702728654876722e+00 5.247522497008822029e+02
2.094802752660638756e+00 5.247515166928187682e+02
2.094902776666399902e+00 5.247507141391812411e+02
2.095002800672161491e+00 5.247498417108092781e+02
2.095102824677922637e+00 5.247488990731015974e+02
2.095202848683684227e+00 5.247478858860865785e+02
2.095302872689445373e+00 5.247468018044932023e+02
2.095402896695206962e+00 5.247456464778264262e+02
2.095502920700968108e+00 5.247444195504428990e+02
2.095602944706729698e+00 5.247431206616306554e+02
2.095702968712490843e+00 5.247417494456888107e+02
2.095802992718252433e+00 5.247403055320119165e+02
2.095903016724013579e+00 5.247387885451737475e+02
2.096003040729775169e+00 5.247371981050156364e+02
2.096103064735536314e+00 5.247355338267344678e+02
2.096203088741297904e+00 5.247337953209744228e+02
2.096303112747059050e+00 5.247319821939219082e+02
2.096403136752820640e+00 5.247300940473971878e+02
2.096503160758581785e+00 5.247281304789557907e+02
2.096603184764343375e+00 5.247260910819856008e+02
2.096703208770104965e+00 5.247239754458074685e+02
2.096803232775866110e+00 5.247217831557801446e+02
2.096903256781627700e+00 5.247195137934055538e+02
2.097003280787388846e+00 5.247171669364315676e+02
2.097103304793150436e+00 5.247147421589672831e+02
2.097203328798911581e+00 5.247122390315879557e+02
2.097303352804673171e+00 5.247096571214509595e+02
2.097403376810434317e+00 5.247069959924093610e+02
2.097503400816195906e+00 5.247042552051254916e+02
2.097603424821957052e+00 5.247014343171917972e+02
2.097703448827718642e+00 5.246985328832496407e+02
2.097803472833479788e+00 5.246955504551089007e+02
2.097903496839241377e+00 5.246924865818712078e+02
2.098003520845002523e+00 5.246893408100570468e+02
2.098103544850764113e+00 5.246861126837276288e+02
2.098203568856525258e+00 5.246828017446152899e+02
2.098303592862286848e+00 5.246794075322519575e+02
2.098403616868047994e+00 5.246759295841000039e+02
2.098503640873809584e+00 5.246723674356846914e+02
2.098603664879571173e+00 5.246687206207257077e+02
2.098703688885332319e+00 5.246649886712768875e+02
2.098803712891093909e+00 5.246611711178578616e+02
2.098903736896855055e+00 5.246572674895951423e+02
2.099003760902616644e+00 5.246532773143601389e+02
2.099103784908377790e+00 5.246492001189096754e+02
2.099203808914139380e+00 5.246450354290292353e+02
2.099303832919900525e+00 5.246407827696749564e+02
2.099403856925662115e+00 5.246364416651174452e+02
2.099503880931423261e+00 5.246320116390897965e+02
2.099603904937184851e+00 5.246274922149315216e+02
2.099703928942945996e+00 5.246228829157395239e+02
2.099803952948707586e+00 5.246181832645148688e+02
2.099903976954468732e+00 5.246133927843134188e+02
2.100004000960230321e+00 5.246085109983973780e+02
2.100104024965991467e+00 5.246035374303878598e+02
2.100204048971753057e+00 5.245984716044175684e+02
2.100304072977514647e+00 5.245933130452863224e+02
2.100404096983275792e+00 5.245880612786124857e+02
2.100504120989037382e+00 5.245827158309929246e+02
2.100604144994798972e+00 5.245772762301586454e+02
2.100704169000560118e+00 5.245717420051319095e+02
2.100804193006321263e+00 5.245661126863844856e+02
2.100904217012082853e+00 5.245603878059971521e+02
2.101004241017844443e+00 5.245545668978202229e+02
2.101104265023605588e+00 5.245486494976332779e+02
2.101204289029366734e+00 5.245426351433072796e+02
2.101304313035128324e+00 5.245365233749657818e+02
2.101404337040889914e+00 5.245303137351456826e+02
2.101504361046651059e+00 5.245240057689650257e+02
2.101604385052412205e+00 5.245175990242809121e+02
2.101704409058173795e+00 5.245110930518570740e+02
2.101804433063935384e+00 5.245044874055266746e+02
2.101904457069696530e+00 5.244977816423587456e+02
2.102004481075457676e+00 5.244909753228200771e+02
2.102104505081219266e+00 5.244840680109449522e+02
2.102204529086980855e+00 5.244770592744971509e+02
2.102304553092742445e+00 5.244699486851387746e+02
2.102404577098503591e+00 5.244627358185942967e+02
2.102504601104265181e+00 5.244554202548197281e+02
2.102604625110026326e+00 5.244480015781649627e+02
2.102704649115787916e+00 5.244404793775455573e+02
2.102804673121549062e+00 5.244328532466059869e+02
2.102904697127310651e+00 5.244251227838872182e+02
2.103004721133071797e+00 5.244172875929947395e+02
2.103104745138833387e+00 5.244093472827630649e+02
2.103204769144594533e+00 5.244013014674254691e+02
2.103304793150356122e+00 5.243931497667773556e+02
2.103404817156117268e+00 5.243848918063465590e+02
2.103504841161878858e+00 5.243765272175545533e+02
2.103604865167640003e+00 5.243680556378874371e+02
2.103704889173401593e+00 5.243594767110589601e+02
2.103804913179162739e+00 5.243507900871776428e+02
2.103904937184924329e+00 5.243419954229088944e+02
2.104004961190685918e+00 5.243330923816454288e+02
2.104104985196447064e+00 5.243240806336643800e+02
2.104205009202208654e+00 5.243149598562985148e+02
2.104305033207969799e+00 5.243057297340949390e+02
2.104405057213731389e+00 5.242963899589797165e+02
2.104505081219492535e+00 5.242869402304198729e+02
2.104605105225254125e+00 5.242773802555871043e+02
2.104705129231015270e+00 5.242677097495147791e+02
2.104805153236776860e+00 5.242579284352632385e+02
2.104905177242538006e+00 5.242480360440770255e+02
2.105005201248299596e+00 5.242380323155449560e+02
2.105105225254060741e+00 5.242279169977572337e+02
2.105205249259822331e+00 5.242176898474646123e+02
2.105305273265583477e+00 5.242073506302334636e+02
2.105405297271345066e+00 5.241968991206041437e+02
2.105505321277106212e+00 5.241863351022429924e+02
2.105605345282867802e+00 5.241756583680972881e+02
2.105705369288628948e+00 5.241648687205502029e+02
2.105805393294390537e+00 5.241539659715691641e+02
2.105905417300152127e+00 5.241429499428601275e+02
2.106005441305913273e+00 5.241318204660145739e+02
2.106105465311674863e+00 5.241205773826604855e+02
2.106205489317436008e+00 5.241092205446083199e+02
2.106305513323197598e+00 5.240977498139983481e+02
2.106405537328958744e+00 5.240861650634449234e+02
2.106505561334720333e+00 5.240744661761797261e+02
2.106605585340481479e+00 5.240626530461964876e+02
2.106705609346243069e+00 5.240507255783898017e+02
2.106805633352004214e+00 5.240386836886957553e+02
2.106905657357765804e+00 5.240265273042311946e+02
2.107005681363526950e+00 5.240142563634286716e+02
2.107105705369288540e+00 5.240018708161732093e+02
2.107205729375049685e+00 5.239893706239371340e+02
2.107305753380811275e+00 5.239767557599096790e+02
2.107405777386572421e+00 5.239640262091309069e+02
2.107505801392334011e+00 5.239511819686184708e+02
2.107605825398095156e+00 5.239382230474969901e+02
2.107705849403856746e+00 5.239251494671216278e+02
2.107805873409618336e+00 5.239119612612059882e+02
2.107905897415379926e+00 5.238986584759408061e+02
2.108005921421141071e+00 5.238852411701168421e+02
2.108105945426902217e+00 5.238717094152425489e+02
2.108205969432663807e+00 5.238580632956623049e+02
2.108305993438425396e+00 5.238443029086703291e+02
2.108406017444186542e+00 5.238304283646248223e+02
2.108506041449947688e+00 5.238164397870596076e+02
2.108606065455709278e+00 5.238023373127928153e+02
2.108706089461470867e+00 5.237881210920343165e+02
2.108806113467232013e+00 5.237737912884915659e+02
2.108906137472993159e+00 5.237593480794721472e+02
2.109006161478754748e+00 5.237447916559872283e+02
2.109106185484516338e+00 5.237301222228485358e+02
2.109206209490277484e+00 5.237153399987657849e+02
2.109306233496038629e+00 5.237004452164421764e+02
2.109406257501800219e+00 5.236854381226683017e+02
2.109506281507561809e+00 5.236703189784095684e+02
2.109606305513323399e+00 5.236550880588979453e+02
2.109706329519084544e+00 5.236397456537149537e+02
2.109806353524846134e+00 5.236242920668782972e+02
2.109906377530607280e+00 5.236087276169209872e+02
2.110006401536368870e+00 5.235930526369721747e+02
2.110106425542130015e+00 5.235772674748322970e+02
2.110206449547891605e+00 5.235613724930483386e+02
2.110306473553652751e+00 5.235453680689873863e+02
2.110406497559414341e+00 5.235292545949015448e+02
2.110506521565175486e+00 5.235130324780002411e+02
2.110606545570937076e+00 5.234967021405120704e+02
2.110706569576698222e+00 5.234802640197463006e+02
2.110806593582459811e+00 5.234637185681546043e+02
2.110906617588220957e+00 5.234470662533863106e+02
2.111006641593982547e+00 5.234303075583430882e+02
2.111106665599743692e+00 5.234134429812310145e+02
2.111206689605505282e+00 5.233964730356109385e+02
2.111306713611266428e+00 5.233793982504428186e+02
2.111406737617028018e+00 5.233622191701310840e+02
2.111506761622789607e+00 5.233449363545657889e+02
2.111606785628550753e+00 5.233275503791611527e+02
2.111706809634312343e+00 5.233100618348909165e+02
2.111806833640073489e+00 5.232924713283216533e+02
2.111906857645835078e+00 5.232747794816455098e+02
2.112006881651596224e+00 5.232569869327024890e+02
2.112106905657357814e+00 5.232390943350104635e+02
2.112206929663118959e+00 5.232211023577855258e+02
2.112306953668880549e+00 5.232030116859600639e+02
2.112406977674641695e+00 5.231848230202009518e+02
2.112507001680403285e+00 5.231665370769217134e+02
2.112607025686164430e+00 5.231481545882948012e+02
2.112707049691926020e+00 5.231296763022583036e+02
2.112807073697687166e+00 5.231111029825208334e+02
2.112907097703448756e+00 5.230924354085640289e+02
2.113007121709209901e+00 5.230736743756425540e+02
2.113107145714971491e+00 5.230548206947784138e+02
2.113207169720732637e+00 5.230358751927561798e+02
2.113307193726494226e+00 5.230168387121128717e+02
2.113407217732255816e+00 5.229977121111244287e+02
2.113507241738016962e+00 5.229784962637920671e+02
2.113607265743778552e+00 5.229591920598214756e+02
2.113707289749539697e+00 5.229398004046031474e+02
2.113807313755301287e+00 5.229203222191881650e+02
2.113907337761062433e+00 5.229007584402584143e+02
2.114007361766824022e+00 5.228811100200990722e+02
2.114107385772585168e+00 5.228613779265629091e+02
2.114207409778346758e+00 5.228415631430344774e+02
2.114307433784107904e+00 5.228216666683920266e+02
2.114407457789869493e+00 5.228016895169625968e+02
2.114507481795630639e+00 5.227816327184782494e+02
2.114607505801392229e+00 5.227614973180264997e+02
2.114707529807153374e+00 5.227412843759992711e+02
2.114807553812914964e+00 5.227209949680375303e+02
2.114907577818676110e+00 5.227006301849745569e+02
2.115007601824437700e+00 5.226801911327739845e+02
2.115107625830199289e+00 5.226596789324668180e+02
2.115207649835960879e+00 5.226390947200849268e+02
2.115307673841722025e+00 5.226184396465889677e+02
2.115407697847483171e+00 5.225977148777984667e+02
2.115507721853244760e+00 5.225769215943129211e+02
2.115607745859006350e+00 5.225560609914344923e+02
2.115707769864767496e+00 5.225351342790858098e+02
2.115807793870528641e+00 5.225141426817231149e+02
2.115907817876290231e+00 5.224930874382497450e+02
2.116007841882051821e+00 5.224719698019243879e+02
2.116107865887812967e+00 5.224507910402666084e+02
2.116207889893574112e+00 5.224295524349583957e+02
2.116307913899335702e+00 5.224082552817459373e+02
2.116407937905097292e+00 5.223869008903348004e+02
2.116507961910858437e+00 5.223654905842835205e+02
2.116607985916619583e+00 5.223440257008934395e+02
2.116708009922381173e+00 5.223225075910988835e+02
2.116808033928142763e+00 5.223009376193480193e+02
2.116908057933903908e+00 5.222793171634870077e+02
2.117008081939665498e+00 5.222576476146380173e+02
2.117108105945427088e+00 5.222359303770733732e+02
2.117208129951188234e+00 5.222141668680898192e+02
2.117308153956949823e+00 5.221923585178777785e+02
2.117408177962710969e+00 5.221705067693874298e+02
2.117508201968472559e+00 5.221486130781918291e+02
2.117608225974233704e+00 5.221266789123507124e+02
2.117708249979995294e+00 5.221047057522637260e+02
2.117808273985756440e+00 5.220826950905303647e+02
2.117908297991518030e+00 5.220606484317977447e+02
2.118008321997279175e+00 5.220385672926130383e+02
2.118108346003040765e+00 5.220164532012676091e+02
2.118208370008801911e+00 5.219943076976419434e+02
2.118308394014563500e+00 5.219721323330458063e+02
2.118408418020324646e+00 5.219499286700557832e+02
2.118508442026086236e+00 5.219276982823502067e+02
2.118608466031847382e+00 5.219054427545434010e+02
2.118708490037608971e+00 5.218831636820117410e+02
2.118808514043370561e+00 5.218608626707231224e+02
2.118908538049131707e+00 5.218385413370610877e+02
2.119008562054893297e+00 5.218162013076432686e+02
2.119108586060654442e+00 5.217938442191431250e+02
2.119208610066416032e+00 5.217714717181048627e+02
2.119308634072177178e+00 5.217490854607549409e+02
2.119408658077938767e+00 5.217266871128157391e+02
2.119508682083699913e+00 5.217042783493119487e+02
2.119608706089461503e+00 5.216818608543753726e+02
2.119708730095222649e+00 5.216594363210491565e+02
2.119808754100984238e+00 5.216370064510870179e+02
2.119908778106745384e+00 5.216145729547527026e+02
2.120008802112506974e+00 5.215921375506121649e+02
2.120108826118268119e+00 5.215697019653301822e+02
2.120208850124029709e+00 5.215472679334571922e+02
2.120308874129790855e+00 5.215248371972202222e+02
2.120408898135552445e+00 5.215024115063058616e+02
2.120508922141313590e+00 5.214799926176453937e+02
2.120608946147075180e+00 5.214575822951942428e+02
2.120708970152836770e+00 5.214351823097115357e+02
2.120808994158597915e+00 5.214127944385345472e+02
2.120909018164359505e+00 5.213904204653549641e+02
2.121009042170120651e+00 5.213680621799883284e+02
2.121109066175882241e+00 5.213457213781449582e+02
2.121209090181643386e+00 5.213233998611965490e+02
2.121309114187404976e+00 5.213010994359415236e+02
2.121409138193166122e+00 5.212788219143673132e+02
2.121509162198927712e+00 5.212565691134119561e+02
2.121609186204688857e+00 5.212343428547233088e+02
2.121709210210450447e+00 5.212121449644145059e+02
2.121809234216211593e+00 5.211899772728196467e+02
2.121909258221973182e+00 5.211678416142455035e+02
2.122009282227734328e+00 5.211457398267252756e+02
2.122109306233495918e+00 5.211236737517635902e+02
2.122209330239257064e+00 5.211016452340857086e+02
2.122309354245018653e+00 5.210796561213841187e+02
2.122409378250779799e+00 5.210577082640571689e+02
2.122509402256541833e+00 5.210358035149572515e+02
2.122609426262302978e+00 5.210139437291245486e+02
2.122709450268064124e+00 5.209921307635300991e+02
2.122809474273825714e+00 5.209703664768080671e+02
2.122909498279587304e+00 5.209486527289952846e+02
2.123009522285348449e+00 5.209269913812598816e+02
2.123109546291109595e+00 5.209053842956363951e+02
2.123209570296871185e+00 5.208838333347530352e+02
2.123309594302632775e+00 5.208623403615649750e+02
2.123409618308393920e+00 5.208409072390754773e+02
2.123509642314155066e+00 5.208195358300679345e+02
2.123609666319916656e+00 5.207982279968249486e+02
2.123709690325678245e+00 5.207769856008553688e+02
2.123809714331439391e+00 5.207558105026145086e+02
2.123909738337200537e+00 5.207347045612240208e+02
2.124009762342962127e+00 5.207136696341930246e+02
2.124109786348723716e+00 5.206927075771352520e+02
2.124209810354484862e+00 5.206718202434853993e+02
2.124309834360246008e+00 5.206510094842167291e+02
2.124409858366008041e+00 5.206302771475540112e+02
2.124509882371769187e+00 5.206096250786895325e+02
2.124609906377530777e+00 5.205890551194941054e+02
2.124709930383291923e+00 5.205685691082288713e+02
2.124809954389053512e+00 5.205481688792588102e+02
2.124909978394814658e+00 5.205278562627594283e+02
2.125010002400576248e+00 5.205076330844292443e+02
2.125110026406337393e+00 5.204875011651955674e+02
2.125210050412098983e+00 5.204674623209248239e+02
2.125310074417860129e+00 5.204475183621282213e+02
2.125410098423621719e+00 5.204276710936678683e+02
2.125510122429382864e+00 5.204079223144649404e+02
2.125610146435144454e+00 5.203882738172013660e+02
2.125710170440905600e+00 5.203687273880278781e+02
2.125810194446667190e+00 5.203492848062675193e+02
2.125910218452428335e+00 5.203299478441181236e+02
2.126010242458189925e+00 5.203107182663575259e+02
2.126110266463951071e+00 5.202915978300457027e+02
2.126210290469712660e+00 5.202725882842287319e+02
2.126310314475474250e+00 5.202536913696396823e+02
2.126410338481235396e+00 5.202349088184023458e+02
2.126510362486996986e+00 5.202162423537330369e+02
2.126610386492758131e+00 5.201976936896429606e+02
2.126710410498519721e+00 5.201792645306406939e+02
2.126810434504280867e+00 5.201609565714322798e+02
2.126910458510042456e+00 5.201427714966251870e+02
2.127010482515803602e+00 5.201247109804291995e+02
2.127110506521565192e+00 5.201067766863591260e+02
2.127210530527326338e+00 5.200889702669379631e+02
2.127310554533087927e+00 5.200712933633974444e+02
2.127410578538849073e+00 5.200537476053821138e+02
2.127510602544610663e+00 5.200363346106516929e+02
2.127610626550371808e+00 5.200190559847862914e+02
2.127710650556133398e+00 5.200019133208863877e+02
2.127810674561894544e+00 5.199849081992806532e+02
2.127910698567656134e+00 5.199680421872287752e+02
2.128010722573417279e+00 5.199513168386266670e+02
2.128110746579178869e+00 5.199347336937137243e+02
2.128210770584940459e+00 5.199182942787765569e+02
2.128310794590701605e+00 5.199020001058568141e+02
2.128410818596463194e+00 5.198858526724610556e+02
2.128510842602224340e+00 5.198698534612648245e+02
2.128610866607985930e+00 5.198540039398264980e+02
2.128710890613747075e+00 5.198383055602937475e+02
2.128810914619508665e+00 5.198227597591163658e+02
2.128910938625269811e+00 5.198073679567564795e+02
2.129010962631031401e+00 5.197921315574035361e+02
2.129110986636792546e+00 5.197770519486856529e+02
2.129211010642554136e+00 5.197621305013864230e+02
2.129311034648315282e+00 5.197473685691599030e+02
2.129411058654076871e+00 5.197327674882466226e+02
2.129511082659838017e+00 5.197183285771949386e+02
2.129611106665599607e+00 5.197040531365779543e+02
2.129711130671360753e+00 5.196899424487148735e+02
2.129811154677122342e+00 5.196759977773937180e+02
2.129911178682883932e+00 5.196622203675946139e+02
2.130011202688645078e+00 5.196486114452151241e+02
2.130111226694406668e+00 5.196351722167952403e+02
2.130211250700168257e+00 5.196219038692477170e+02
2.130311274705929403e+00 5.196088075695848829e+02
2.130411298711690549e+00 5.195958844646524994e+02
2.130511322717452138e+00 5.195831356808604369e+02
2.130611346723213728e+00 5.195705623239178976e+02
2.130711370728974874e+00 5.195581654785690944e+02
2.130811394734736020e+00 5.195459462083326798e+02
2.130911418740497609e+00 5.195339055552401533e+02
2.131011442746259199e+00 5.195220445395768820e+02
2.131111466752020345e+00 5.195103641596281250e+02
2.131211490757781490e+00 5.194988653914215320e+02
2.131311514763543080e+00 5.194875491884781695e+02
2.131411538769304670e+00 5.194764164815583172e+02
2.131511562775065816e+00 5.194654681784155628e+02
2.131611586780826961e+00 5.194547051635494199e+02
2.131711610786588551e+00 5.194441282979631751e+02
2.131811634792350141e+00 5.194337384189191198e+02
2.131911658798111731e+00 5.194235363397003766e+02
2.132011682803872876e+00 5.194135228493737486e+02
2.132111706809634466e+00 5.194036987125551832e+02
2.132211730815395612e+00 5.193940646691759184e+02
2.132311754821157201e+00 5.193846214342524945e+02
2.132411778826918347e+00 5.193753696976597212e+02
2.132511802832679937e+00 5.193663101239050093e+02
2.132611826838441083e+00 5.193574433519061131e+02
2.132711850844202672e+00 5.193487699947693272e+02
2.132811874849963818e+00 5.193402906395742775e+02
2.132911898855725408e+00 5.193320058471568927e+02
2.133011922861486553e+00 5.193239161518990841e+02
2.133111946867248143e+00 5.193160220615177423e+02
2.133211970873009289e+00 5.193083240568591918e+02
2.133311994878770879e+00 5.193008225916941001e+02
2.133412018884532024e+00 5.192935180925175018e+02
2.133512042890293614e+00 5.192864109583506433e+02
2.133612066896055204e+00 5.192795015605438493e+02
2.133712090901816349e+00 5.192727902425868933e+02
2.133812114907577939e+00 5.192662773199177764e+02
2.133912138913339085e+00 5.192599630797373038e+02
2.134012162919100675e+00 5.192538477808253674e+02
2.134112186924861820e+00 5.192479316533613201e+02
2.134212210930623410e+00 5.192422148987459423e+02
2.134312234936384556e+00 5.192366976894293202e+02
2.134412258942146146e+00 5.192313801687379282e+02
2.134512282947907291e+00 5.192262624507091004e+02
2.134612306953668881e+00 5.192213446199264126e+02
2.134712330959430027e+00 5.192166267313576782e+02
2.134812354965191616e+00 5.192121088101986288e+02
2.134912378970952762e+00 5.192077908517177320e+02
2.135012402976714352e+00 5.192036728211076024e+02
2.135112426982475498e+00 5.191997546533344803e+02
2.135212450988237087e+00 5.191960362529956683e+02
2.135312474993998233e+00 5.191925174941801515e+02
2.135412498999759823e+00 5.191891982203298994e+02
2.135512523005521413e+00 5.191860782441078754e+02
2.135612547011282558e+00 5.191831573472666150e+02
2.135712571017044148e+00 5.191804352805243070e+02
2.135812595022805294e+00 5.191779117634389422e+02
2.135912619028566883e+00 5.191755864842925803e+02
2.136012643034328029e+00 5.191734590999741386e+02
2.136112667040089619e+00 5.191715292358684337e+02
2.136212691045850764e+00 5.191697964857479519e+02
2.136312715051612354e+00 5.191682604116683706e+02
2.136412739057373500e+00 5.191669205438699919e+02
2.136512763063135090e+00 5.191657763806790626e+02
2.136612787068896235e+00 5.191648273884164837e+02
2.136712811074657825e+00 5.191640730013079974e+02
2.136812835080418971e+00 5.191635126214004003e+02
2.136912859086180561e+00 5.191631456184788931e+02
2.137012883091941706e+00 5.191629713299907962e+02
2.137112907097703296e+00 5.191629890609727909e+02
2.137212931103464442e+00 5.191631980839812286e+02
2.137312955109226031e+00 5.191635976390256246e+02
2.137412979114987621e+00 5.191641869335094270e+02
2.137513003120749211e+00 5.191649651421712406e+02
2.137613027126510357e+00 5.191659314070323035e+02
2.137713051132271502e+00 5.191670848373466924e+02
2.137813075138033092e+00 5.191684245095573260e+02
2.137913099143794682e+00 5.191699494672525361e+02
2.138013123149555827e+00 5.191716587211321894e+02
2.138113147155316973e+00 5.191735512489734674e+02
2.138213171161078563e+00 5.191756259956008535e+02
2.138313195166840153e+00 5.191778818728644183e+02
2.138413219172601298e+00 5.191803177596166279e+02
2.138513243178362444e+00 5.191829325016981329e+02
2.138613267184124034e+00 5.191857249119244671e+02
2.138713291189885624e+00 5.191886937700796807e+02
2.138813315195646769e+00 5.191918378229111113e+02
2.138913339201407915e+00 5.191951557841308613e+02
2.139013363207169505e+00 5.191986463344220510e+02
2.139113387212931094e+00 5.192023081214443891e+02
2.139213411218692684e+00 5.192061397598506574e+02
2.139313435224453830e+00 5.192101398313038771e+02
2.139413459230215420e+00 5.192143068844976597e+02
2.139513483235976565e+00 5.192186394351845138e+02
2.139613507241738155e+00 5.192231359662041541e+02
2.139713531247499301e+00 5.192277949275201081e+02
2.139813555253260891e+00 5.192326147362578013e+02
2.139913579259022036e+00 5.192375937767482128e+02
2.140013603264783626e+00 5.192427304005753967e+02
2.140113627270544772e+00 5.192480229266282095e+02
2.140213651276306361e+00 5.192534696411581763e+02
2.140313675282067507e+00 5.192590687978379265e+02
2.140413699287829097e+00 5.192648186178280412e+02
2.140513723293590242e+00 5.192707172898435601e+02
2.140613747299351832e+00 5.192767629702317436e+02
2.140713771305112978e+00 5.192829537830467643e+02
2.140813795310874568e+00 5.192892878201331541e+02
2.140913819316635713e+00 5.192957631412107276e+02
2.141013843322397303e+00 5.193023777739689422e+02
2.141113867328158893e+00 5.193091297141593259e+02
2.141213891333920039e+00 5.193160169256950667e+02
2.141313915339681628e+00 5.193230373407561729e+02
2.141413939345442774e+00 5.193301888598966798e+02
2.141513963351204364e+00 5.193374693521585641e+02
2.141613987356965509e+00 5.193448766551850895e+02
2.141714011362727099e+00 5.193524085753458621e+02
2.141814035368488245e+00 5.193600628878609768e+02
2.141914059374249835e+00 5.193678373369281189e+02
2.142014083380010980e+00 5.193757296358594431e+02
2.142114107385772570e+00 5.193837374672197029e+02
2.142214131391533716e+00 5.193918584829660858e+02
2.142314155397295306e+00 5.194000903045975974e+02
2.142414179403056451e+00 5.194084305233045598e+02
2.142514203408818041e+00 5.194168767001243623e+02
2.142614227414579187e+00 5.194254263660996003e+02
2.142714251420340776e+00 5.194340770224445123e+02
2.142814275426101922e+00 5.194428261407078935e+02
2.142914299431863512e+00 5.194516711629516976e+02
2.143014323437625102e+00 5.194606095019196346e+02
2.143114347443386247e+00 5.194696385412235031e+02
2.143214371449147837e+00 5.194787556355240667e+02
2.143314395454908983e+00 5.194879581107212516e+02
2.143414419460670572e+00 5.194972432641459363e+02
2.143514443466431718e+00 5.195066083647562891e+02
2.143614467472193308e+00 5.195160506533405851e+02
2.143714491477954454e+00 5.195255673427195688e+02
2.143814515483716043e+00 5.195351556179554109e+02
2.143914539489477189e+00 5.195448126365670305e+02
2.144014563495238779e+00 5.195545355287445091e+02
2.144114587500999924e+00 5.195643213975708932e+02
2.144214611506761514e+00 5.195741673192463850e+02
2.144314635512522660e+00 5.195840703433176486e+02
2.144414659518284250e+00 5.195940274929115503e+02
2.144514683524045395e+00 5.196040357649682164e+02
2.144614707529806985e+00 5.196140921304851190e+02
2.144714731535568575e+00 5.196241935347590015e+02
2.144814755541330165e+00 5.196343368976349666e+02
2.144914779547091310e+00 5.196445191137579513e+02
2.145014803552852456e+00 5.196547370528278407e+02
2.145114827558614046e+00 5.196649875598600374e+02
2.145214851564375635e+00 5.196752674554475107e+02
2.145314875570136781e+00 5.196855735360276185e+02
2.145414899575897927e+00 5.196959025741527967e+02
2.145514923581659517e+00 5.197062513187638615e+02
2.145614947587421106e+00 5.197166164954693386e+02
2.145714971593182252e+00 5.197269948068235408e+02
2.145814995598943398e+00 5.197373829326162422e+02
2.145915019604704987e+00 5.197477775301545080e+02
2.146015043610466577e+00 5.197581752345602126e+02
2.146115067616227723e+00 5.197685726590626700e+02
2.146215091621988869e+00 5.197789663952958108e+02
2.146315115627750458e+00 5.197893530136036588e+02
2.146415139633512048e+00 5.197997290633422836e+02
2.146515163639273194e+00 5.198100910731907334e+02
2.146615187645034784e+00 5.198204355514619692e+02
2.146715211650796373e+00 5.198307589864177771e+02
2.146815235656557519e+00 5.198410578465889103e+02
2.146915259662319109e+00 5.198513285810938669e+02
2.147015283668080254e+00 5.198615676199655127e+02
2.147115307673841844e+00 5.198717713744790672e+02
2.147215331679602990e+00 5.198819362374816819e+02
2.147315355685364580e+00 5.198920585837281578e+02
2.147415379691125725e+00 5.199021347702154117e+02
2.147515403696887315e+00 5.199121611365249009e+02
2.147615427702648461e+00 5.199221340051644802e+02
2.147715451708410050e+00 5.199320496819127584e+02
2.147815475714171196e+00 5.199419044561695955e+02
2.147915499719932786e+00 5.199516946013067127e+02
2.148015523725693932e+00 5.199614163750209173e+02
2.148115547731455521e+00 5.199710660196919889e+02
2.148215571737216667e+00 5.199806397627423848e+02
2.148315595742978257e+00 5.199901338169977407e+02
2.148415619748739847e+00 5.199995443810526012e+02
2.148515643754500992e+00 5.200088676396387655e+02
2.148615667760262582e+00 5.200180997639918132e+02
2.148715691766023728e+00 5.200272369122271812e+02
2.148815715771785317e+00 5.200362752297121460e+02
2.148915739777546463e+00 5.200452108494441745e+02
2.149015763783308053e+00 5.200540398924283636e+02
2.149115787789069199e+00 5.200627584680615882e+02
2.149215811794830788e+00 5.200713626745148304e+02
2.149315835800591934e+00 5.200798485991190319e+02
2.149415859806353524e+00 5.200882123187540174e+02
2.149515883812114669e+00 5.200964499002385537e+02
2.149615907817876259e+00 5.201045574007230243e+02
2.149715931823637405e+00 5.201125308680823309e+02
2.149815955829398995e+00 5.201203663413134564e+02
2.149915979835160140e+00 5.201280598509341644e+02
2.150016003840921730e+00 5.201356074193812447e+02
2.150116027846682876e+00 5.201430050614143283e+02
2.150216051852444465e+00 5.201502487845179985e+02
2.150316075858206055e+00 5.201573345893082205e+02
2.150416099863967201e+00 5.201642584699380905e+02
2.150516123869728791e+00 5.201710164145081308e+02
2.150616147875489936e+00 5.201776044054757904e+02
2.150716171881251526e+00 5.201840184200656267e+02
2.150816195887012672e+00 5.201902544306851723e+02
2.150916219892774262e+00 5.201963084053375042e+02
2.151016243898535407e+00 5.202021763080384744e+02
2.151116267904296997e+00 5.202078540992325770e+02
2.151216291910058143e+00 5.202133377362129067e+02
2.151316315915819732e+00 5.202186231735397541e+02
2.151416339921580878e+00 5.202237063634623837e+02
2.151516363927342468e+00 5.202285832563401300e+02
2.151616387933103614e+00 5.202332498010664494e+02
2.151716411938865203e+00 5.202377019454925176e+02
2.151816435944626349e+00 5.202419356368508261e+02
2.151916459950387939e+00 5.202459468221838961e+02
2.152016483956149084e+00 5.202497314487683298e+02
2.152116507961911118e+00 5.202532854645443194e+02
2.152216531967672264e+00 5.202566048185422005e+02
2.152316555973433410e+00 5.202596854613119604e+02
2.152416579979194999e+00 5.202625233453536566e+02
2.152516603984956589e+00 5.202651144255462441e+02
2.152616627990717735e+00 5.202674546595785614e+02
2.152716651996478880e+00 5.202695400083812274e+02
2.152816676002240470e+00 5.202713664365567183e+02
2.152916700008002060e+00 5.202729299128126286e+02
2.153016724013763206e+00 5.202742264103924299e+02
2.153116748019524351e+00 5.202752519075082773e+02
2.153216772025285941e+00 5.202760023877746107e+02
2.153316796031047531e+00 5.202764738406400511e+02
2.153416820036808677e+00 5.202766622618198653e+02
2.153516844042569822e+00 5.202765636537282035e+02
2.153616868048331412e+00 5.202761740259131784e+02
2.153716892054093002e+00 5.202754893954873978e+02
2.153816916059854147e+00 5.202745057875606562e+02
2.153916940065615293e+00 5.202732192356738778e+02
2.154016964071377327e+00 5.202716257822297621e+02
2.154116988077138473e+00 5.202697214789234295e+02
2.154217012082900062e+00 5.202675023871778421e+02
2.154317036088661208e+00 5.202649645785702432e+02
2.154417060094422798e+00 5.202621041352653037e+02
2.154517084100183943e+00 5.202589171504447449e+02
2.154617108105945533e+00 5.202553997287359380e+02
2.154717132111706679e+00 5.202515479866417536e+02
2.154817156117468269e+00 5.202473580529673427e+02
2.154917180123229414e+00 5.202428260692488493e+02
2.155017204128991004e+00 5.202379481901778036e+02
2.155117228134752150e+00 5.202327205840301758e+02
2.155217252140513740e+00 5.202271394330869043e+02
2.155317276146274885e+00 5.202212009340618124e+02
2.155417300152036475e+00 5.202149012985208856e+02
2.155517324157797621e+00 5.202082367533051865e+02
2.155617348163559210e+00 5.202012035409525197e+02
2.155717372169320356e+00 5.201937979201152302e+02
2.155817396175081946e+00 5.201860161659777759e+02
2.155917420180843536e+00 5.201778545706760042e+02
2.156017444186604681e+00 5.201693094437096079e+02
2.156117468192366271e+00 5.201603771123579918e+02
2.156217492198127417e+00 5.201510539220918190e+02
2.156317516203889006e+00 5.201413362369851257e+02
2.156417540209650152e+00 5.201312204401237977e+02
2.156517564215411742e+00 5.201207029340132522e+02
2.156617588221172888e+00 5.201097801409849808e+02
2.156717612226934477e+00 5.200984485036015030e+02
2.156817636232695623e+00 5.200867044850576804e+02
2.156917660238457213e+00 5.200745445695823719e+02
2.157017684244218358e+00 5.200619652628372478e+02
2.157117708249979948e+00 5.200489630923135564e+02
2.157217732255741094e+00 5.200355346077269587e+02
2.157317756261502684e+00 5.200216763814100887e+02
2.157417780267263829e+00 5.200073850087046594e+02
2.157517804273025419e+00 5.199926571083482258e+02
2.157617828278786565e+00 5.199774893228625388e+02
2.157717852284548155e+00 5.199618783189359874e+02
2.157817876290309744e+00 5.199458207878063831e+02
2.157917900296070890e+00 5.199293134456397638e+02
2.158017924301832480e+00 5.199123530339103354e+02
2.158117948307593625e+00 5.198949363197705225e+02
2.158217972313355215e+00 5.198770600964253390e+02
2.158317996319116361e+00 5.198587211835036896e+02
2.158418020324877951e+00 5.198399164274219402e+02
2.158518044330639096e+00 5.198206427017516944e+02
2.158618068336400686e+00 5.198008969075779078e+02
2.158718092342161832e+00 5.197806759738615483e+02
2.158818116347923421e+00 5.197599768577915711e+02
2.158918140353684567e+00 5.197387965451418950e+02
2.159018164359446157e+00 5.197171320506188295e+02
2.159118188365207303e+00 5.196949804182107755e+02
2.159218212370968892e+00 5.196723387215308776e+02
2.159318236376730038e+00 5.196492040641591075e+02
2.159418260382491628e+00 5.196255735799801414e+02
2.159518284388253218e+00 5.196014444335202143e+02
2.159618308394014363e+00 5.195768138202756745e+02
2.159718332399775953e+00 5.195516789670455182e+02
2.159818356405537543e+00 5.195260371322546007e+02
2.159918380411298688e+00 5.194998856062761661e+02
2.160018404417059834e+00 5.194732217117509663e+02
2.160118428422821424e+00 5.194460428039039925e+02
2.160218452428583014e+00 5.194183462708533625e+02
2.160318476434344159e+00 5.193901295339221633e+02
2.160418500440105305e+00 5.193613900479411996e+02
2.160518524445866895e+00 5.193321253015517414e+02
2.160618548451628484e+00 5.193023328175038387e+02
2.160718572457389630e+00 5.192720101529480417e+02
2.160818596463150776e+00 5.192411548997293949e+02
2.160918620468912366e+00 5.192097646846719954e+02
2.161018644474673955e+00 5.191778371698618457e+02
2.161118668480435101e+00 5.191453700529281150e+02
2.161218692486196247e+00 5.191123610673171243e+02
2.161318716491957836e+00 5.190788079825640580e+02
2.161418740497719426e+00 5.190447086045608103e+02
2.161518764503481016e+00 5.190100607758203068e+02
2.161618788509242162e+00 5.189748623757343466e+02
2.161718812515003751e+00 5.189391113208320121e+02
2.161818836520764897e+00 5.189028055650294391e+02
2.161918860526526487e+00 5.188659430998770858e+02
2.162018884532287633e+00 5.188285219548059786e+02
2.162118908538049222e+00 5.187905401973636117e+02
2.162218932543810368e+00 5.187519959334501891e+02
2.162318956549571958e+00 5.187128873075510000e+02
2.162418980555333103e+00 5.186732125029601548e+02
2.162519004561094693e+00 5.186329697420075036e+02
2.162619028566855839e+00 5.185921572862704352e+02
2.162719052572617429e+00 5.185507734367931789e+02
2.162819076578378574e+00 5.185088165342933735e+02
2.162919100584140164e+00 5.184662849593663623e+02
2.163019124589901310e+00 5.184231771326880107e+02
2.163119148595662899e+00 5.183794915152088834e+02
2.163219172601424489e+00 5.183352266083466020e+02
2.163319196607185635e+00 5.182903809541724058e+02
2.163419220612947225e+00 5.182449531355927093e+02
2.163519244618708370e+00 5.181989417765294093e+02
2.163619268624469960e+00 5.181523455420918935e+02
2.163719292630231106e+00 5.181051631387441603e+02
2.163819316635992696e+00 5.180573933144703460e+02
2.163919340641753841e+00 5.180090348589349105e+02
2.164019364647515431e+00 5.179600866036361140e+02
2.164119388653276577e+00 5.179105474220556289e+02
2.164219412659038166e+00 5.178604162298051961e+02
2.164319436664799312e+00 5.178096919847645268e+02
2.164419460670560902e+00 5.177583736872202280e+02
2.164519484676322048e+00 5.177064603799947236e+02
2.164619508682083637e+00 5.176539511485721050e+02
2.164719532687844783e+00 5.176008451212210275e+02
2.164819556693606373e+00 5.175471414691085101e+02
2.164919580699367518e+00 5.174928394064143049e+02
2.165019604705129108e+00 5.174379381904358297e+02
2.165119628710890698e+00 5.173824371216895770e+02
2.165219652716651844e+00 5.173263355440101350e+02
2.165319676722413433e+00 5.172696328446384086e+02
2.165419700728174579e+00 5.172123284543134787e+02
2.165519724733936169e+00 5.171544218473484307e+02
2.165619748739697314e+00 5.170959125417149380e+02
2.165719772745458904e+00 5.170368000991068129e+02
2.165819796751220050e+00 5.169770841250142439e+02
2.165919820756981640e+00 5.169167642687814350e+02
2.166019844762742785e+00 5.168558402236665188e+02
2.166119868768504375e+00 5.167943117268910100e+02
2.166219892774265521e+00 5.167321785596874406e+02
2.166319916780027111e+00 5.166694405473435836e+02
2.166419940785788256e+00 5.166060975592354225e+02
2.166519964791549846e+00 5.165421495088623942e+02
2.166619988797310992e+00 5.164775963538720589e+02
2.166720012803072581e+00 5.164124380960831786e+02
2.166820036808833727e+00 5.163466747815001554e+02
2.166920060814595317e+00 5.162803065003275833e+02
2.167020084820356907e+00 5.162133333869735452e+02
2.167120108826118496e+00 5.161457556200548424e+02
2.167220132831879642e+00 5.160775734223886957e+02
2.167320156837640788e+00 5.160087870609869469e+02
2.167420180843402377e+00 5.159393968470417349e+02
2.167520204849163967e+00 5.158694031359059409e+02
2.167620228854925113e+00 5.157988063270698831e+02
2.167720252860686259e+00 5.157276068641299389e+02
2.167820276866447848e+00 5.156558052347586454e+02
2.167920300872209438e+00 5.155834019706608160e+02
2.168020324877970584e+00 5.155103976475314767e+02
2.168120348883731729e+00 5.154367928850062981e+02
2.168220372889493319e+00 5.153625883466061168e+02
2.168320396895254909e+00 5.152877847396787274e+02
2.168420420901016055e+00 5.152123828153329441e+02
2.168520444906777200e+00 5.151363833683692519e+02
2.168620468912538790e+00 5.150597872372050006e+02
2.168720492918300380e+00 5.149825953037951649e+02
2.168820516924061970e+00 5.149048084935461702e+02
2.168920540929823115e+00 5.148264277752281259e+02
2.169020564935584705e+00 5.147474541608775098e+02
2.169120588941345851e+00 5.146678887056993972e+02
2.169220612947107441e+00 5.145877325079608227e+02
2.169320636952868586e+00 5.145069867088827777e+02
2.169420660958630176e+00 5.144256524925237954e+02
2.169520684964391322e+00 5.143437310856605791e+02
2.169620708970152911e+00 5.142612237576649932e+02
2.169720732975914057e+00 5.141781318203711635e+02
2.169820756981675647e+00 5.140944566279442824e+02
2.169920780987436792e+00 5.140101995767394101e+02
2.170020804993198382e+00 5.139253621051566370e+02
2.170120828998959528e+00 5.138399456934936325e+02
2.170220853004721118e+00 5.137539518637909168e+02
2.170320877010482263e+00 5.136673821796730408e+02
2.170420901016243853e+00 5.135802382461833986e+02
2.170520925022004999e+00 5.134925217096198367e+02
2.170620949027766589e+00 5.134042342573571887e+02
2.170720973033528178e+00 5.133153776176719703e+02
2.170820997039289324e+00 5.132259535595576381e+02
2.170921021045050914e+00 5.131359638925408717e+02
2.171021045050812059e+00 5.130454104664847819e+02
2.171121069056573649e+00 5.129542951713967796e+02
2.171221093062334795e+00 5.128626199372239398e+02
2.171321117068096385e+00 5.127703867336495023e+02
2.171421141073857530e+00 5.126775975698797083e+02
2.171521165079619120e+00 5.125842544944323436e+02
2.171621189085380266e+00 5.124903595949144801e+02
2.171721213091141856e+00 5.123959149977982861e+02
2.171821237096903001e+00 5.123009228681949025e+02
2.171921261102664591e+00 5.122053854096186569e+02
2.172021285108425737e+00 5.121093048637521861e+02
2.172121309114187326e+00 5.120126835102030327e+02
2.172221333119948472e+00 5.119155236662577408e+02
2.172321357125710062e+00 5.118178276866317447e+02
2.172421381131471652e+00 5.117195979632149943e+02
2.172521405137232797e+00 5.116208369248123518e+02
2.172621429142994387e+00 5.115215470368803494e+02
2.172721453148755533e+00 5.114217308012603098e+02
2.172821477154517122e+00 5.113213907559055542e+02
2.172921501160278268e+00 5.112205294746070194e+02
2.173021525166039858e+00 5.111191495667137588e+02
2.173121549171801004e+00 5.110172536768463942e+02
2.173221573177562593e+00 5.109148444846125585e+02
2.173321597183323739e+00 5.108119247043133555e+02
2.173421621189085329e+00 5.107084970846467513e+02
2.173521645194846474e+00 5.106045644084094306e+02
2.173621669200608064e+00 5.105001294921922863e+02
2.173721693206369210e+00 5.103951951860730105e+02
2.173821717212130800e+00 5.102897643733050472e+02
2.173921741217891945e+00 5.101838399700023956e+02
2.174021765223653535e+00 5.100774249248202636e+02
2.174121789229414681e+00 5.099705222186348692e+02
2.174221813235176270e+00 5.098631348642136345e+02
2.174321837240937860e+00 5.097552659058890185e+02
2.174421861246699450e+00 5.096469184192227431e+02
2.174521885252460596e+00 5.095380955106707006e+02
2.174621909258221741e+00 5.094288003172434856e+02
2.174721933263983331e+00 5.093190360061586262e+02
2.174821957269744921e+00 5.092088057744983871e+02
2.174921981275506067e+00 5.090981128488566583e+02
2.175022005281267212e+00 5.089869604849853886e+02
2.175122029287028802e+00 5.088753519674397126e+02
2.175222053292790392e+00 5.087632906092136409e+02
2.175322077298551537e+00 5.086507797513822879e+02
2.175422101304312683e+00 5.085378227627307979e+02
2.175522125310074273e+00 5.084244230393861699e+02
2.175622149315835863e+00 5.083105840044460138e+02
2.175722173321597008e+00 5.081963091076023602e+02
2.175822197327358154e+00 5.080816018247617762e+02
2.175922221333119744e+00 5.079664656576655943e+02
2.176022245338881334e+00 5.078509041335064467e+02
2.176122269344642923e+00 5.077349208045397404e+02
2.176222293350404069e+00 5.076185192476941666e+02
2.176322317356165659e+00 5.075017030641795373e+02
2.176422341361926804e+00 5.073844758790928609e+02
2.176522365367688394e+00 5.072668413410198127e+02
2.176622389373449540e+00 5.071488031216338186e+02
2.176722413379211130e+00 5.070303649152957064e+02
2.176822437384972275e+00 5.069115304386452863e+02
2.176922461390733865e+00 5.067923034301986718e+02
2.177022485396495011e+00 5.066726876499338346e+02
2.177122509402256600e+00 5.065526868788816728e+02
2.177222533408017746e+00 5.064323049187100310e+02
2.177322557413779336e+00 5.063115455913084588e+02
2.177422581419540482e+00 5.061904127383696732e+02
2.177522605425302071e+00 5.060689102209673820e+02
2.177622629431063217e+00 5.059470419191359269e+02
2.177722653436824807e+00 5.058248117314429351e+02
2.177822677442585952e+00 5.057022235745673129e+02
2.177922701448347542e+00 5.055792813828653607e+02
2.178022725454109132e+00 5.054559891079449017e+02
2.178122749459870278e+00 5.053323507182322487e+02
2.178222773465631867e+00 5.052083701985367838e+02
2.178322797471393013e+00 5.050840515496192324e+02
2.178422821477154603e+00 5.049593987877511836e+02
2.178522845482915749e+00 5.048344159442810906e+02
2.178622869488677338e+00 5.047091070651896985e+02
2.178722893494438484e+00 5.045834762106533731e+02
2.178822917500200074e+00 5.044575274545978800e+02
2.178922941505961219e+00 5.043312648842575072e+02
2.179022965511722809e+00 5.042046925997290145e+02
2.179122989517483955e+00 5.040778147135237077e+02
2.179223013523245545e+00 5.039506353501233775e+02
2.179323037529006690e+00 5.038231586455290767e+02
2.179423061534768280e+00 5.036953887468138760e+02
2.179523085540529426e+00 5.035673298116697651e+02
2.179623109546291015e+00 5.034389860079600680e+02
2.179723133552052161e+00 5.033103615132636719e+02
2.179823157557813751e+00 5.031814605144247707e+02
2.179923181563575341e+00 5.030522872070976064e+02
2.180023205569336486e+00 5.029228457952930285e+02
2.180123229575098076e+00 5.027931404909239177e+02
2.180223253580859222e+00 5.026631755133482784e+02
2.180323277586620812e+00 5.025329550889159123e+02
2.180423301592381957e+00 5.024024834505086119e+02
2.180523325598143547e+00 5.022717648370855841e+02
2.180623349603904693e+00 5.021408034932275086e+02
2.180723373609666282e+00 5.020096036686757088e+02
2.180823397615427428e+00 5.018781696178774610e+02
2.180923421621189018e+00 5.017465055995273246e+02
2.181023445626950164e+00 5.016146158761102924e+02
2.181123469632711753e+00 5.014825047134419833e+02
2.181223493638472899e+00 5.013501763802127016e+02
2.181323517644234489e+00 5.012176351475292790e+02
2.181423541649995634e+00 5.010848852884569737e+02
2.181523565655757224e+00 5.009519310775631311e+02
2.181623589661518370e+00 5.008187767904587986e+02
2.181723613667280404e+00 5.006854267033432961e+02
2.181823637673041549e+00 5.005518850925466836e+02
2.181923661678802695e+00 5.004181562340756955e+02
2.182023685684564285e+00 5.002842444031555260e+02
2.182123709690325875e+00 5.001501538737767873e+02
2.182223733696087020e+00 5.000158889182407052e+02
2.182323757701848166e+00 4.998814538067053945e+02
2.182423781707609756e+00 4.997468528067340685e+02
2.182523805713371345e+00 4.996120901828410297e+02
2.182623829719132491e+00 4.994771701960413566e+02
2.182723853724893637e+00 4.993420971034008176e+02
2.182823877730655227e+00 4.992068751575856140e+02
2.182923901736416816e+00 4.990715086064142270e+02
2.183023925742177962e+00 4.989360016924104002e+02
2.183123949747939108e+00 4.988003586523568629e+02
2.183223973753700697e+00 4.986645837168497906e+02
2.183323997759462287e+00 4.985286811098542330e+02
2.183424021765223433e+00 4.983926550482638049e+02
2.183524045770985023e+00 4.982565097414562842e+02
2.183624069776746612e+00 4.981202493908577935e+02
2.183724093782507758e+00 4.979838781895009561e+02
2.183824117788269348e+00 4.978474003215890775e+02
2.183924141794030493e+00 4.977108199620604978e+02
2.184024165799792083e+00 4.975741412761572064e+02
2.184124189805553229e+00 4.974373684189894789e+02
2.184224213811314819e+00 4.973005055351075043e+02
2.184324237817075964e+00 4.971635567580721613e+02
2.184424261822837554e+00 4.970265262100299992e+02
2.184524285828598700e+00 4.968894180012849802e+02
2.184624309834360290e+00 4.967522362298795997e+02
2.184724333840121435e+00 4.966149849811715740e+02
2.184824357845883025e+00 4.964776683274147331e+02
2.184924381851644171e+00 4.963402903273448032e+02
2.185024405857405760e+00 4.962028550257615507e+02
2.185124429863166906e+00 4.960653664531200775e+02
2.185224453868928496e+00 4.959278286251164900e+02
2.185324477874689642e+00 4.957902455422841967e+02
2.185424501880451231e+00 4.956526211895860001e+02
2.185524525886212821e+00 4.955149595360107355e+02
2.185624549891973967e+00 4.953772645341754242e+02
2.185724573897735556e+00 4.952395401199229354e+02
2.185824597903496702e+00 4.951017902119315295e+02
2.185924621909258292e+00 4.949640187113171237e+02
2.186024645915019438e+00 4.948262295012463028e+02
2.186124669920781027e+00 4.946884264465477372e+02
2.186224693926542173e+00 4.945506133933261026e+02
2.186324717932303763e+00 4.944127941685820247e+02
2.186424741938064908e+00 4.942749725798314557e+02
2.186524765943826498e+00 4.941371524147302807e+02
2.186624789949587644e+00 4.939993374407015949e+02
2.186724813955349234e+00 4.938615314045618447e+02
2.186824837961110379e+00 4.937237380321580531e+02
2.186924861966871969e+00 4.935859610280004972e+02
2.187024885972633115e+00 4.934482040749016960e+02
2.187124909978394705e+00 4.933104708336217641e+02
2.187224933984156294e+00 4.931727649425076265e+02
2.187324957989917440e+00 4.930350900171472404e+02
2.187424981995679030e+00 4.928974496500170517e+02
2.187525006001440175e+00 4.927598474101401962e+02
2.187625030007201765e+00 4.926222868427434491e+02
2.187725054012962911e+00 4.924847714689184386e+02
2.187825078018724501e+00 4.923473047852880313e+02
2.187925102024485646e+00 4.922098902636755611e+02
2.188025126030247236e+00 4.920725313507747387e+02
2.188125150036008382e+00 4.919352314678295670e+02
2.188225174041769971e+00 4.917979940103091394e+02
2.188325198047531117e+00 4.916608223475948307e+02
2.188425222053292707e+00 4.915237198226651572e+02
2.188525246059053853e+00 4.913866897517860366e+02
2.188625270064815442e+00 4.912497354242071879e+02
2.188725294070576588e+00 4.911128601018580184e+02
2.188825318076338178e+00 4.909760670190514134e+02
2.188925342082099323e+00 4.908393593821878085e+02
2.189025366087860913e+00 4.907027403694671079e+02
2.189125390093622503e+00 4.905662131306002038e+02
2.189225414099383649e+00 4.904297807865285677e+02
2.189325438105145238e+00 4.902934464291454333e+02
2.189425462110906828e+00 4.901572131210203338e+02
2.189525486116667974e+00 4.900210838951309711e+02
2.189625510122429120e+00 4.898850617545957107e+02
2.189725534128190709e+00 4.897491496724118747e+02
2.189825558133952299e+00 4.896133505911985822e+02
2.189925582139713445e+00 4.894776674229427158e+02
2.190025606145474590e+00 4.893421030487496637e+02
2.190125630151236180e+00 4.892066603185986082e+02
2.190225654156997770e+00 4.890713420511011691e+02
2.190325678162758916e+00 4.889361510332655030e+02
2.190425702168520061e+00 4.888010900202630182e+02
2.190525726174281651e+00 4.886661617352029339e+02
2.190625750180043241e+00 4.885313688689067249e+02
2.190725774185804386e+00 4.883967140796892750e+02
2.190825798191565532e+00 4.882621999931465666e+02
2.190925822197327566e+00 4.881278292019426885e+02
2.191025846203088712e+00 4.879936042656059954e+02
2.191125870208850301e+00 4.878595277103283934e+02
2.191225894214611447e+00 4.877256020287670708e+02
2.191325918220373037e+00 4.875918296798544702e+02
2.191425942226134183e+00 4.874582130886094546e+02
2.191525966231895772e+00 4.873247546459559203e+02
2.191625990237656918e+00 4.871914567085429439e+02
2.191726014243418508e+00 4.870583215985725474e+02
2.191826038249179653e+00 4.869253516036303608e+02
2.191926062254941243e+00 4.867925489765210614e+02
2.192026086260702389e+00 4.866599159351099502e+02
2.192126110266463979e+00 4.865274546621665763e+02
2.192226134272225124e+00 4.863951673052161482e+02
2.192326158277986714e+00 4.862630559763924225e+02
2.192426182283747860e+00 4.861311227522999161e+02
2.192526206289509449e+00 4.859993696738739573e+02
2.192626230295270595e+00 4.858677987462537544e+02
2.192726254301032185e+00 4.857364119386533048e+02
2.192826278306793775e+00 4.856052111842413979e+02
2.192926302312554920e+00 4.854741983800248590e+02
2.193026326318316510e+00 4.853433753867341807e+02
2.193126350324077656e+00 4.852127440287212607e+02
2.193226374329839246e+00 4.850823060938525373e+02
2.193326398335600391e+00 4.849520633334147988e+02
2.193426422341361981e+00 4.848220174620210514e+02
2.193526446347123127e+00 4.846921701575241173e+02
2.193626470352884716e+00 4.845625230609333016e+02
2.193726494358645862e+00 4.844330777763358356e+02
2.193826518364407452e+00 4.843038358708249689e+02
2.193926542370168598e+00 4.841747988744315307e+02
2.194026566375930187e+00 4.840459682800615155e+02
2.194126590381691333e+00 4.839173455434373636e+02
2.194226614387452923e+00 4.837889320830424822e+02
2.194326638393214068e+00 4.836607292800766231e+02
2.194426662398975658e+00 4.835327384784097831e+02
2.194526686404736804e+00 4.834049609845440614e+02
2.194626710410498394e+00 4.832773980675807479e+02
2.194726734416259983e+00 4.831500509591903096e+02
2.194826758422021129e+00 4.830229208535886301e+02
2.194926782427782719e+00 4.828960089075189330e+02
2.195026806433543864e+00 4.827693162402372309e+02
2.195126830439305454e+00 4.826428439335016947e+02
2.195226854445066600e+00 4.825165930315719152e+02
2.195326878450828190e+00 4.823905645412044123e+02
2.195426902456589335e+00 4.822647594316633786e+02
2.195526926462350925e+00 4.821391786347265338e+02
2.195626950468112071e+00 4.820138230447029741e+02
2.195726974473873661e+00 4.818886935184530103e+02
2.195826998479634806e+00 4.817637908754115870e+02
2.195927022485396396e+00 4.816391158976197175e+02
2.196027046491157542e+00 4.815146693297589309e+02
2.196127070496919131e+00 4.813904518791891860e+02
2.196227094502680277e+00 4.812664642159948585e+02
2.196327118508441867e+00 4.811427069730336257e+02
2.196427142514203013e+00 4.810191807459888764e+02
2.196527166519964602e+00 4.808958860934304198e+02
2.196627190525726192e+00 4.807728235368766718e+02
2.196727214531487782e+00 4.806499935608628675e+02
2.196827238537248927e+00 4.805273966130150143e+02
2.196927262543010073e+00 4.804050331041262325e+02
2.197027286548771663e+00 4.802829034082393491e+02
2.197127310554533253e+00 4.801610078627368807e+02
2.197227334560294398e+00 4.800393467684279472e+02
2.197327358566055544e+00 4.799179203896484296e+02
2.197427382571817134e+00 4.797967289543610150e+02
2.197527406577578724e+00 4.796757726542599585e+02
2.197627430583339869e+00 4.795550516448836333e+02
2.197727454589101015e+00 4.794345660457279905e+02
2.197827478594862605e+00 4.793143159403655886e+02
2.197927502600624194e+00 4.791943013765709907e+02
2.198027526606385340e+00 4.790745223664490027e+02
2.198127550612146486e+00 4.789549788865681421e+02
2.198227574617908076e+00 4.788356708780965505e+02
2.198327598623669665e+00 4.787165982469462051e+02
2.198427622629431255e+00 4.785977608639193477e+02
2.198527646635192401e+00 4.784791585648572436e+02
2.198627670640953990e+00 4.783607911507979225e+02
2.198727694646715136e+00 4.782426583881347710e+02
2.198827718652476726e+00 4.781247600087813225e+02
2.198927742658237872e+00 4.780070957103384899e+02
2.199027766663999461e+00 4.778896651562680518e+02
2.199127790669760607e+00 4.777724679760699473e+02
2.199227814675522197e+00 4.776555037654622424e+02
2.199327838681283342e+00 4.775387720865679171e+02
2.199427862687044932e+00 4.774222724681027330e+02
2.199527886692806078e+00 4.773060044055707749e+02
2.199627910698567668e+00 4.771899673614610720e+02
2.199727934704328813e+00 4.770741607654497329e+02
2.199827958710090403e+00 4.769585840146062310e+02
2.199927982715851549e+00 4.768432364736022464e+02
2.200028006721613139e+00 4.767281174749275579e+02
2.200128030727374284e+00 4.766132263191066158e+02
2.200228054733135874e+00 4.764985622749204026e+02
2.200328078738897464e+00 4.763841245796319868e+02
2.200428102744658609e+00 4.762699124392177055e+02
2.200528126750420199e+00 4.761559250285975509e+02
2.200628150756181345e+00 4.760421614918770388e+02
2.200728174761942935e+00 4.759286209425821994e+02
2.200828198767704080e+00 4.758153024639094610e+02
2.200928222773465670e+00 4.757022051089713273e+02
2.201028246779226816e+00 4.755893279010491028e+02
2.201128270784988405e+00 4.754766698338466995e+02
2.201228294790749551e+00 4.753642298717539347e+02
2.201328318796511141e+00 4.752520069501051694e+02
2.201428342802272287e+00 4.751399999754466421e+02
2.201528366808033876e+00 4.750282078258068168e+02
2.201628390813795022e+00 4.749166293509686056e+02
2.201728414819556612e+00 4.748052633727465945e+02
2.201828438825317757e+00 4.746941086852655189e+02
2.201928462831079347e+00 4.745831640552440831e+02
2.202028486836840937e+00 4.744724282222814509e+02
2.202128510842602083e+00 4.743618998991453282e+02
2.202228534848363672e+00 4.742515777720666392e+02
2.202328558854124818e+00 4.741414605010333503e+02
2.202428582859886408e+00 4.740315467200896364e+02
2.202528606865647554e+00 4.739218350376388571e+02
2.202628630871409143e+00 4.738123240367467588e+02
2.202728654877170289e+00 4.737030122754510444e+02
2.202828678882931879e+00 4.735938982870691234e+02
2.202928702888693024e+00 4.734849805805151846e+02
2.203028726894454614e+00 4.733762576406139146e+02
2.203128750900215760e+00 4.732677279284210954e+02
2.203228774905977350e+00 4.731593898815438024e+02
2.203328798911738495e+00 4.730512419144658907e+02
2.203428822917500085e+00 4.729432824188758104e+02
2.203528846923261231e+00 4.728355097639944233e+02
2.203628870929022820e+00 4.727279222969087868e+02
2.203728894934783966e+00 4.726205183429058252e+02
2.203828918940545556e+00 4.725132962058100361e+02
2.203928942946307146e+00 4.724062541683227892e+02
2.204028966952068735e+00 4.722993904923637274e+02
2.204128990957829881e+00 4.721927034194160910e+02
2.204229014963591027e+00 4.720861911708722687e+02
2.204329038969352617e+00 4.719798519483813379e+02
2.204429062975114206e+00 4.718736839342014946e+02
2.204529086980875352e+00 4.717676852915525956e+02
2.204629110986636498e+00 4.716618541649710323e+02
2.204729134992398087e+00 4.715561886806647180e+02
2.204829158998159677e+00 4.714506869468739296e+02
2.204929183003920823e+00 4.713453470542318655e+02
2.205029207009681969e+00 4.712401670761265109e+02
2.205129231015443558e+00 4.711351450690647766e+02
2.205229255021205148e+00 4.710302790730394236e+02
2.205329279026966294e+00 4.709255671118958162e+02
2.205429303032727439e+00 4.708210071937019165e+02
2.205529327038489029e+00 4.707165973111199833e+02
2.205629351044250619e+00 4.706123354417773044e+02
2.205729375050012209e+00 4.705082195486419891e+02
2.205829399055773354e+00 4.704042475803963157e+02
2.205929423061534944e+00 4.703004174718162744e+02
2.206029447067296090e+00 4.701967271441477010e+02
2.206129471073057680e+00 4.700931745054860471e+02
2.206229495078818825e+00 4.699897574511578568e+02
2.206329519084580415e+00 4.698864738641012764e+02
2.206429543090341561e+00 4.697833216152502587e+02
2.206529567096103150e+00 4.696802985639177450e+02
2.206629591101864296e+00 4.695774025581805518e+02
2.206729615107625886e+00 4.694746314352667582e+02
2.206829639113387032e+00 4.693719830219408777e+02
2.206929663119148621e+00 4.692694551348917003e+02
2.207029687124909767e+00 4.691670455811224656e+02
2.207129711130671357e+00 4.690647521583389334e+02
2.207229735136432502e+00 4.689625726553389313e+02
2.207329759142194092e+00 4.688605048524040058e+02
2.207429783147955238e+00 4.687585465216899934e+02
2.207529807153716828e+00 4.686566954276188426e+02
2.207629831159478417e+00 4.685549493272710606e+02
2.207729855165239563e+00 4.684533059707779330e+02
2.207829879171001153e+00 4.683517631017156191e+02
2.207929903176762299e+00 4.682503184574966326e+02
2.208029927182523888e+00 4.681489697697656425e+02
2.208129951188285034e+00 4.680477147647905554e+02
2.208229975194046624e+00 4.679465511638600219e+02
2.208329999199807769e+00 4.678454766836744056e+02
2.208430023205569359e+00 4.677444890367411290e+02
2.208530047211330505e+00 4.676435859317698487e+02
2.208630071217092095e+00 4.675427650740641639e+02
2.208730095222853240e+00 4.674420241659175872e+02
2.208830119228614830e+00 4.673413609070065604e+02
2.208930143234375976e+00 4.672407729947847201e+02
2.209030167240137565e+00 4.671402581248751744e+02
2.209130191245898711e+00 4.670398139914650528e+02
2.209230215251660301e+00 4.669394382876953387e+02
2.209330239257421447e+00 4.668391287060570107e+02
2.209430263263183036e+00 4.667388829387805345e+02
2.209530287268944626e+00 4.666386986782259214e+02
2.209630311274705772e+00 4.665385736172764268e+02
2.209730335280467362e+00 4.664385054497266765e+02
2.209830359286228507e+00 4.663384918706713052e+02
2.209930383291990097e+00 4.662385305768958119e+02
2.210030407297751243e+00 4.661386192672630955e+02
2.210130431303512832e+00 4.660387556430999894e+02
2.210230455309273978e+00 4.659389374085842519e+02
2.210330479315035568e+00 4.658391622711292825e+02
2.210430503320796713e+00 4.657394279417683833e+02
2.210530527326558303e+00 4.656397321355382815e+02
2.210630551332319449e+00 4.655400725718599801e+02
2.210730575338081039e+00 4.654404469749216560e+02
2.210830599343842184e+00 4.653408530740560991e+02
2.210930623349603774e+00 4.652412886041204274e+02
2.211030647355364920e+00 4.651417513058737541e+02
2.211130671361126510e+00 4.650422389263518426e+02
2.211230695366887655e+00 4.649427492192420459e+02
2.211330719372649689e+00 4.648432799452564268e+02
2.211430743378410835e+00 4.647438288725030588e+02
2.211530767384171980e+00 4.646443937768564183e+02
2.211630791389933570e+00 4.645449724423252746e+02
2.211730815395695160e+00 4.644455626614196149e+02
2.211830839401456306e+00 4.643461622355154645e+02
2.211930863407217451e+00 4.642467689752195952e+02
2.212030887412979041e+00 4.641473807007282630e+02
2.212130911418740631e+00 4.640479952421910070e+02
2.212230935424501777e+00 4.639486104400647832e+02
2.212330959430262922e+00 4.638492241454713394e+02
2.212430983436024512e+00 4.637498342205523727e+02
2.212531007441786102e+00 4.636504385388199694e+02
2.212631031447547247e+00 4.635510349855074992e+02
2.212731055453308393e+00 4.634516214579163602e+02
2.212831079459069983e+00 4.633521958657634059e+02
2.212931103464831573e+00 4.632527561315233129e+02
2.213031127470592718e+00 4.631533001907704943e+02
2.213131151476354308e+00 4.630538259925170337e+02
2.213231175482115898e+00 4.629543314995511309e+02
2.213331199487877043e+00 4.628548146887699204e+02
2.213431223493638633e+00 4.627552735515134827e+02
2.213531247499399779e+00 4.626557060938915242e+02
2.213631271505161369e+00 4.625561103371127842e+02
2.213731295510922514e+00 4.624564843178093270e+02
2.213831319516684104e+00 4.623568260883573657e+02
2.213931343522445250e+00 4.622571337171974051e+02
2.214031367528206840e+00 4.621574052891513702e+02
2.214131391533967985e+00 4.620576389057359847e+02
2.214231415539729575e+00 4.619578326854739316e+02
2.214331439545490721e+00 4.618579847642033656e+02
2.214431463551252310e+00 4.617580932953828778e+02
2.214531487557013456e+00 4.616581564503955519e+02
2.214631511562775046e+00 4.615581724188469934e+02
2.214731535568536192e+00 4.614581394088645538e+02
2.214831559574297781e+00 4.613580556473907563e+02
2.214931583580058927e+00 4.612579193804734246e+02
2.215031607585820517e+00 4.611577288735563798e+02
2.215131631591582106e+00 4.610574824117619528e+02
2.215231655597343252e+00 4.609571783001757694e+02
2.215331679603104842e+00 4.608568148641221569e+02
2.215431703608865988e+00 4.607563904494434723e+02
2.215531727614627577e+00 4.606559034227706206e+02
2.215631751620388723e+00 4.605553521717928902e+02
2.215731775626150313e+00 4.604547351055248328e+02
2.215831799631911458e+00 4.603540506545673452e+02
2.215931823637673048e+00 4.602532972713693198e+02
2.216031847643434194e+00 4.601524734304816207e+02
2.216131871649195784e+00 4.600515776288118559e+02
2.216231895654956929e+00 4.599506083858725560e+02
2.216331919660718519e+00 4.598495642440271354e+02
2.216431943666479665e+00 4.597484437687331251e+02
2.216531967672241255e+00 4.596472455487801199e+02
2.216631991678002400e+00 4.595459681965254504e+02
2.216732015683763990e+00 4.594446103481278101e+02
2.216832039689525580e+00 4.593431706637724119e+02
2.216932063695286725e+00 4.592416478278981344e+02
2.217032087701048315e+00 4.591400405494177903e+02
2.217132111706809461e+00 4.590383475619350975e+02
2.217232135712571051e+00 4.589365676239592062e+02
2.217332159718332196e+00 4.588346995191149063e+02
2.217432183724093786e+00 4.587327420563477745e+02
2.217532207729854932e+00 4.586306940701269923e+02
2.217632231735616521e+00 4.585285544206457189e+02
2.217732255741377667e+00 4.584263219940136196e+02
2.217832279747139257e+00 4.583239957024502473e+02
2.217932303752900403e+00 4.582215744844698975e+02
2.218032327758661992e+00 4.581190573050688499e+02
2.218132351764423138e+00 4.580164431559000491e+02
2.218232375770184728e+00 4.579137310554527858e+02
2.218332399775945873e+00 4.578109200492234550e+02
2.218432423781707463e+00 4.577080092098817659e+02
2.218532447787468609e+00 4.576049976374370090e+02
2.218632471793230199e+00 4.575018844593951144e+02
2.218732495798991788e+00 4.573986688309182682e+02
2.218832519804752934e+00 4.572953499349734443e+02
2.218932543810514524e+00 4.571919269824824141e+02
2.219032567816276114e+00 4.570883992124646511e+02
2.219132591822037259e+00 4.569847658921769948e+02
2.219232615827798405e+00 4.568810263172507575e+02
2.219332639833559995e+00 4.567771798118210427e+02
2.219432663839321584e+00 4.566732257286574281e+02
2.219532687845082730e+00 4.565691634492851563e+02
2.219632711850843876e+00 4.564649923841049031e+02
2.219732735856605466e+00 4.563607119725090797e+02
2.219832759862367055e+00 4.562563216829915973e+02
2.219932783868128201e+00 4.561518210132566082e+02
2.220032807873889347e+00 4.560472094903191191e+02
2.220132831879650936e+00 4.559424866706061152e+02
2.220232855885412526e+00 4.558376521400497268e+02
2.220332879891173672e+00 4.557327055141773258e+02
2.220432903896934818e+00 4.556276464381992355e+02
2.220532927902696851e+00 4.555224745870889365e+02
2.220632951908457997e+00 4.554171896656617946e+02
2.220732975914219587e+00 4.553117914086505493e+02
2.220832999919980733e+00 4.552062795807697739e+02
2.220933023925742322e+00 4.551006539767870436e+02
2.221033047931503468e+00 4.549949144215793240e+02
2.221133071937265058e+00 4.548890607701932822e+02
2.221233095943026203e+00 4.547830929078948543e+02
2.221333119948787793e+00 4.546770107502203473e+02
2.221433143954548939e+00 4.545708142430184466e+02
2.221533167960310529e+00 4.544645033624922235e+02
2.221633191966071674e+00 4.543580781152323311e+02
2.221733215971833264e+00 4.542515385382527597e+02
2.221833239977594410e+00 4.541448846990124935e+02
2.221933263983355999e+00 4.540381166954438186e+02
2.222033287989117145e+00 4.539312346559682396e+02
2.222133311994878735e+00 4.538242387395133619e+02
2.222233336000639881e+00 4.537171291355214180e+02
2.222333360006401470e+00 4.536099060639561458e+02
2.222433384012163060e+00 4.535025697753067675e+02
2.222533408017924206e+00 4.533951205505834423e+02
2.222633432023685796e+00 4.532875587013123777e+02
2.222733456029446941e+00 4.531798845695261093e+02
2.222833480035208531e+00 4.530720985277469595e+02
2.222933504040969677e+00 4.529642009789707799e+02
2.223033528046731266e+00 4.528561923566421683e+02
2.223133552052492412e+00 4.527480731246296273e+02
2.223233576058254002e+00 4.526398437771917997e+02
2.223333600064015148e+00 4.525315048389443859e+02
2.223433624069776737e+00 4.524230568648205804e+02
2.223533648075537883e+00 4.523145004400265634e+02
2.223633672081299473e+00 4.522058361799952877e+02
2.223733696087060618e+00 4.520970647303338978e+02
2.223833720092822208e+00 4.519881867667699566e+02
2.223933744098583354e+00 4.518792029950893152e+02
2.224033768104344944e+00 4.517701141510733009e+02
2.224133792110106089e+00 4.516609210004327224e+02
2.224233816115867679e+00 4.515516243387338022e+02
2.224333840121629269e+00 4.514422249913234850e+02
2.224433864127390414e+00 4.513327238132508228e+02
2.224533888133152004e+00 4.512231216891813119e+02
2.224633912138913150e+00 4.511134195333107755e+02
2.224733936144674740e+00 4.510036182892734473e+02
2.224833960150435885e+00 4.508937189300468162e+02
2.224933984156197475e+00 4.507837224578526616e+02
2.225034008161958621e+00 4.506736299040522908e+02
2.225134032167720211e+00 4.505634423290424593e+02
2.225234056173481356e+00 4.504531608221415127e+02
2.225334080179242946e+00 4.503427865014778035e+02
2.225434104185004092e+00 4.502323205138678759e+02
2.225534128190765681e+00 4.501217640346981739e+02
2.225634152196526827e+00 4.500111182677958368e+02
2.225734176202288417e+00 4.499003844453014267e+02
2.225834200208049563e+00 4.497895638275347778e+02
2.225934224213811152e+00 4.496786577028571514e+02
2.226034248219572298e+00 4.495676673875329925e+02
2.226134272225333888e+00 4.494565942255828759e+02
2.226234296231095477e+00 4.493454395886382144e+02
2.226334320236857067e+00 4.492342048757887483e+02
2.226434344242618213e+00 4.491228915134261115e+02
2.226534368248379359e+00 4.490115009550892751e+02
2.226634392254140948e+00 4.489000346812985640e+02
2.226734416259902538e+00 4.487884941993929715e+02
2.226834440265663684e+00 4.486768810433592307e+02
2.226934464271424829e+00 4.485651967736635584e+02
2.227034488277186419e+00 4.484534429770687893e+02
2.227134512282948009e+00 4.483416212664632212e+02
2.227234536288709155e+00 4.482297332806741110e+02
2.227334560294470300e+00 4.481177806842817404e+02
2.227434584300231890e+00 4.480057651674326280e+02
2.227534608305993480e+00 4.478936884456468874e+02
2.227634632311754626e+00 4.477815522596219466e+02
2.227734656317515771e+00 4.476693583750347898e+02
2.227834680323277361e+00 4.475571085823395947e+02
2.227934704329038951e+00 4.474448046965656545e+02
2.228034728334800540e+00 4.473324485571056925e+02
2.228134752340561686e+00 4.472200420275080432e+02
2.228234776346323276e+00 4.471075869952612720e+02
2.228334800352084422e+00 4.469950853715783410e+02
2.228434824357846011e+00 4.468825390911771933e+02
2.228534848363607157e+00 4.467699501120553123e+02
2.228634872369368747e+00 4.466573204152687708e+02
2.228734896375129892e+00 4.465446520046988326e+02
2.228834920380891482e+00 4.464319469068254875e+02
2.228934944386652628e+00 4.463192071704903583e+02
2.229034968392414218e+00 4.462064348666618798e+02
2.229134992398175363e+00 4.460936320881936581e+02
2.229235016403936953e+00 4.459808009495859551e+02
2.229335040409698099e+00 4.458679435867380789e+02
2.229435064415459689e+00 4.457550621567027633e+02
2.229535088421220834e+00 4.456421588374353178e+02
2.229635112426982424e+00 4.455292358275423226e+02
2.229735136432743570e+00 4.454162953460266294e+02
2.229835160438505159e+00 4.453033396320303723e+02
2.229935184444266749e+00 4.451903709445748518e+02
2.230035208450027895e+00 4.450773915623002495e+02
2.230135232455789485e+00 4.449644037831986338e+02
2.230235256461550630e+00 4.448514099243499231e+02
2.230335280467312220e+00 4.447384123216526177e+02
2.230435304473073366e+00 4.446254133295526572e+02
2.230535328478834955e+00 4.445124153207698328e+02
2.230635352484596101e+00 4.443994206860236318e+02
2.230735376490357691e+00 4.442864318337556142e+02
2.230835400496118837e+00 4.441734511898501978e+02
2.230935424501880426e+00 4.440604811973530559e+02
2.231035448507641572e+00 4.439475243161880371e+02
2.231135472513403162e+00 4.438345830228726072e+02
2.231235496519164307e+00 4.437216598102309035e+02
2.231335520524925897e+00 4.436087571871040609e+02
2.231435544530687043e+00 4.434958776780591734e+02
2.231535568536448633e+00 4.433830238230996201e+02
2.231635592542210222e+00 4.432701981773681723e+02
2.231735616547971368e+00 4.431574033108531694e+02
2.231835640553732958e+00 4.430446418080907733e+02
2.231935664559494104e+00 4.429319162678649491e+02
2.232035688565255693e+00 4.428192293029089797e+02
2.232135712571016839e+00 4.427065835396023203e+02
2.232235736576778429e+00 4.425939816176679642e+02
2.232335760582539574e+00 4.424814261898677046e+02
2.232435784588301164e+00 4.423689199216956922e+02
2.232535808594062310e+00 4.422564654910713671e+02
2.232635832599823900e+00 4.421440655880307986e+02
2.232735856605585045e+00 4.420317229144172870e+02
2.232835880611346635e+00 4.419194401835695771e+02
2.232935904617107781e+00 4.418072201200106974e+02
2.233035928622869370e+00 4.416950654591336161e+02
2.233135952628630516e+00 4.415829789468877493e+02
2.233235976634392106e+00 4.414709633394641060e+02
2.233336000640153252e+00 4.413590214029782715e+02
2.233436024645914841e+00 4.412471559131528807e+02
2.233536048651676431e+00 4.411353696550012842e+02
2.233636072657438021e+00 4.410236654225076336e+02
2.233736096663199167e+00 4.409120460183069099e+02
2.233836120668960312e+00 4.408005142533664298e+02
2.233936144674721902e+00 4.406890729466620655e+02
2.234036168680483492e+00 4.405777249248594671e+02
2.234136192686244637e+00 4.404664730219899411e+02
2.234236216692005783e+00 4.403553200791284326e+02
2.234336240697767373e+00 4.402442689440704271e+02
2.234436264703528963e+00 4.401333224710077729e+02
2.234536288709290108e+00 4.400224835202039912e+02
2.234636312715051254e+00 4.399117549576718602e+02
2.234736336720812844e+00 4.398011396548464518e+02
2.234836360726574433e+00 4.396906404882598167e+02
2.234936384732335579e+00 4.395802603392182277e+02
2.235036408738096725e+00 4.394700020934732834e+02
2.235136432743858315e+00 4.393598686408986396e+02
2.235236456749619904e+00 4.392498628751631600e+02
2.235336480755381494e+00 4.391399876934048621e+02
2.235436504761142640e+00 4.390302459959066255e+02
2.235536528766904230e+00 4.389206406857678076e+02
2.235636552772665375e+00 4.388111746685796675e+02
2.235736576778426965e+00 4.387018508521006765e+02
2.235836600784188111e+00 4.385926721459297823e+02
2.235936624789949700e+00 4.384836414611805822e+02
2.236036648795710846e+00 4.383747617101586229e+02
2.236136672801472436e+00 4.382660358060336989e+02
2.236236696807233582e+00 4.381574666625175496e+02
2.236336720812995171e+00 4.380490571935392836e+02
2.236436744818756317e+00 4.379408103129216556e+02
2.236536768824517907e+00 4.378327289340563766e+02
2.236636792830279052e+00 4.377248159695845970e+02
2.236736816836040642e+00 4.376170743310726152e+02
2.236836840841801788e+00 4.375095069286911666e+02
2.236936864847563378e+00 4.374021166708935198e+02
2.237036888853324523e+00 4.372949064640972665e+02
2.237136912859086113e+00 4.371878792123627022e+02
2.237236936864847703e+00 4.370810378170752415e+02
2.237336960870608848e+00 4.369743851766286298e+02
2.237436984876370438e+00 4.368679241861047444e+02
2.237537008882131584e+00 4.367616577369611264e+02
2.237637032887893174e+00 4.366555887167132823e+02
2.237737056893654319e+00 4.365497200086214207e+02
2.237837080899415909e+00 4.364440544913769031e+02
2.237937104905177055e+00 4.363385950387907997e+02
2.238037128910938645e+00 4.362333445194819319e+02
2.238137152916699790e+00 4.361283057965661101e+02
2.238237176922461380e+00 4.360234817273505996e+02
2.238337200928222526e+00 4.359188751630228467e+02
2.238437224933984115e+00 4.358144889483467637e+02
2.238537248939745261e+00 4.357103259213568549e+02
2.238637272945506851e+00 4.356063889130537063e+02
2.238737296951267997e+00 4.355026807471031134e+02
2.238837320957029586e+00 4.353992042395348108e+02
2.238937344962790732e+00 4.352959621984421119e+02
2.239037368968552322e+00 4.351929574236853568e+02
2.239137392974313912e+00 4.350901927065946779e+02
2.239237416980075057e+00 4.349876708296756078e+02
2.239337440985836647e+00 4.348853945663143463e+02
2.239437464991597793e+00 4.347833666804893937e+02
2.239537488997359382e+00 4.346815899264778409e+02
2.239637513003120528e+00 4.345800670485693900e+02
2.239737537008882118e+00 4.344788007807794656e+02
2.239837561014643263e+00 4.343777938465645434e+02
2.239937585020404853e+00 4.342770489585392397e+02
2.240037609026165999e+00 4.341765688181942551e+02
