1.600052011442517408e+00 5.086114877917895569e+02
1.600152033447358235e+00 5.086045257490367248e+02
1.600252055452199285e+00 5.085979606698866746e+02
1.600352077457040334e+00 5.085917920319943732e+02
1.600452099461881605e+00 5.085860192582691184e+02
1.600552121466722655e+00 5.085806417170229565e+02
1.600652143471563704e+00 5.085756587221271730e+02
1.600752165476404754e+00 5.085710695331798661e+02
1.600852187481245581e+00 5.085668733556746020e+02
1.600952209486086630e+00 5.085630693411828247e+02
1.601052231490927902e+00 5.085596565875390525e+02
1.601152253495768951e+00 5.085566341390372145e+02
1.601252275500610001e+00 5.085540009866294895e+02
1.601352297505451272e+00 5.085517560681352052e+02
1.601452319510292321e+00 5.085498982684596285e+02
1.601552341515133149e+00 5.085484264198125288e+02
1.601652363519974198e+00 5.085473393019420314e+02
1.601752385524815248e+00 5.085466356423698358e+02
1.601852407529656297e+00 5.085463141166355854e+02
1.601952429534497568e+00 5.085463733485486273e+02
1.602052451539338618e+00 5.085468119104457969e+02
1.602152473544179667e+00 5.085476283234562516e+02
1.602252495549020495e+00 5.085488210577739778e+02
1.602352517553861766e+00 5.085503885329352443e+02
1.602452539558702815e+00 5.085523291181069681e+02
1.602552561563543865e+00 5.085546411323737175e+02
1.602652583568384914e+00 5.085573228450435295e+02
1.602752605573225964e+00 5.085603724759477018e+02
1.602852627578067235e+00 5.085637881957557624e+02
1.602952649582908062e+00 5.085675681262931676e+02
1.603052671587749112e+00 5.085717103408668436e+02
1.603152693592590161e+00 5.085762128645973803e+02
1.603252715597431433e+00 5.085810736747558849e+02
1.603352737602272482e+00 5.085862907011093625e+02
1.603452759607113531e+00 5.085918618262703603e+02
1.603552781611954581e+00 5.085977848860546828e+02
1.603652803616795408e+00 5.086040576698442237e+02
1.603752825621636457e+00 5.086106779209560500e+02
1.603852847626477729e+00 5.086176433370164887e+02
1.603952869631318778e+00 5.086249515703458997e+02
1.604052891636159828e+00 5.086326002283406069e+02
1.604152913641001099e+00 5.086405868738698928e+02
1.604252935645842149e+00 5.086489090256746977e+02
1.604352957650682976e+00 5.086575641587691052e+02
1.604452979655524025e+00 5.086665497048551288e+02
1.604553001660365075e+00 5.086758630527347691e+02
1.604653023665206124e+00 5.086855015487340097e+02
1.604753045670047396e+00 5.086954624971290855e+02
1.604853067674888445e+00 5.087057431605785496e+02
1.604953089679729494e+00 5.087163407605628436e+02
1.605053111684570322e+00 5.087272524778258003e+02
1.605153133689411593e+00 5.087384754528233657e+02
1.605253155694252643e+00 5.087500067861791422e+02
1.605353177699093692e+00 5.087618435391405569e+02
1.605453199703934741e+00 5.087739827340452621e+02
1.605553221708775791e+00 5.087864213547874215e+02
1.605653243713617062e+00 5.087991563472943994e+02
1.605753265718457889e+00 5.088121846200029381e+02
1.605853287723298939e+00 5.088255030443447140e+02
1.605953309728139988e+00 5.088391084552311554e+02
1.606053331732981260e+00 5.088529976515509361e+02
1.606153353737822309e+00 5.088671673966629214e+02
1.606253375742663358e+00 5.088816144189012221e+02
1.606353397747504408e+00 5.088963354120791109e+02
1.606453419752345235e+00 5.089113270360009551e+02
1.606553441757186285e+00 5.089265859169764781e+02
1.606653463762027556e+00 5.089421086483405361e+02
1.606753485766868605e+00 5.089578917909750544e+02
1.606853507771709655e+00 5.089739318738377278e+02
1.606953529776550926e+00 5.089902253944915742e+02
1.607053551781391976e+00 5.090067688196410813e+02
1.607153573786232803e+00 5.090235585856717080e+02
1.607253595791073852e+00 5.090405910991902942e+02
1.607353617795914902e+00 5.090578627375740552e+02
1.607453639800755951e+00 5.090753698495180402e+02
1.607553661805597223e+00 5.090931087555902650e+02
1.607653683810438272e+00 5.091110757487865044e+02
1.607753705815279321e+00 5.091292670950934394e+02
1.607853727820120149e+00 5.091476790340489629e+02
1.607953749824961420e+00 5.091663077793101024e+02
1.608053771829802470e+00 5.091851495192232733e+02
1.608153793834643519e+00 5.092042004173951000e+02
1.608253815839484568e+00 5.092234566132698319e+02
1.608353837844325618e+00 5.092429142227069860e+02
1.608453859849166889e+00 5.092625693385624004e+02
1.608553881854007717e+00 5.092824180312732665e+02
1.608653903858848766e+00 5.093024563494425365e+02
1.608753925863689815e+00 5.093226803204300950e+02
1.608853947868531087e+00 5.093430859509428501e+02
1.608953969873372136e+00 5.093636692276293729e+02
1.609053991878213186e+00 5.093844261176758437e+02
1.609154013883054235e+00 5.094053525694034192e+02
1.609254035887895062e+00 5.094264445128694092e+02
1.609354057892736112e+00 5.094476978604711803e+02
1.609454079897577383e+00 5.094691085075462524e+02
1.609554101902418433e+00 5.094906723329838769e+02
1.609654123907259482e+00 5.095123851998281452e+02
1.609754145912100753e+00 5.095342429558912158e+02
1.609854167916941803e+00 5.095562414343615956e+02
1.609954189921782630e+00 5.095783764544199244e+02
1.610054211926623680e+00 5.096006438218502694e+02
1.610154233931464729e+00 5.096230393296567058e+02
1.610254255936305778e+00 5.096455587586808633e+02
1.610354277941147050e+00 5.096681978782189049e+02
1.610454299945988099e+00 5.096909524466394146e+02
1.610554321950829149e+00 5.097138182120067427e+02
1.610654343955669976e+00 5.097367909126975292e+02
1.610754365960511247e+00 5.097598662780254131e+02
1.610854387965352297e+00 5.097830400288627288e+02
1.610954409970193346e+00 5.098063078782626008e+02
1.611054431975034396e+00 5.098296655320835384e+02
1.611154453979875445e+00 5.098531086896132365e+02
1.611254475984716716e+00 5.098766330441928858e+02
1.611354497989557544e+00 5.099002342838411437e+02
1.611454519994398593e+00 5.099239080918810032e+02
1.611554541999239643e+00 5.099476501475638770e+02
1.611654564004080914e+00 5.099714561266932265e+02
1.611754586008921963e+00 5.099953217022512035e+02
1.611854608013763013e+00 5.100192425450252927e+02
1.611954630018604062e+00 5.100432143242285292e+02
1.612054652023444890e+00 5.100672327081274489e+02
1.612154674028285939e+00 5.100912933646654892e+02
1.612254696033127210e+00 5.101153919620847432e+02
1.612354718037968260e+00 5.101395241695520326e+02
1.612454740042809309e+00 5.101636856577779326e+02
1.612554762047650581e+00 5.101878720996401739e+02
1.612654784052491408e+00 5.102120791708049978e+02
1.612754806057332457e+00 5.102363025503449308e+02
1.612854828062173507e+00 5.102605379213592300e+02
1.612954850067014556e+00 5.102847809715913172e+02
1.613054872071855605e+00 5.103090273940450743e+02
1.613154894076696877e+00 5.103332728876006286e+02
1.613254916081537926e+00 5.103575131576288300e+02
1.613354938086378754e+00 5.103817439166023178e+02
1.613454960091219803e+00 5.104059608847087475e+02
1.613554982096061075e+00 5.104301597904585606e+02
1.613655004100902124e+00 5.104543363712935502e+02
1.613755026105743173e+00 5.104784863741942331e+02
1.613855048110584223e+00 5.105026055562829583e+02
1.613955070115425272e+00 5.105266896854255378e+02
1.614055092120266099e+00 5.105507345408333322e+02
1.614155114125107371e+00 5.105747359136615273e+02
1.614255136129948420e+00 5.105986896076051380e+02
1.614355158134789470e+00 5.106225914394915435e+02
1.614455180139630741e+00 5.106464372398745581e+02
1.614555202144471791e+00 5.106702228536237271e+02
1.614655224149312840e+00 5.106939441405074831e+02
1.614755246154153667e+00 5.107175969757822713e+02
1.614855268158994717e+00 5.107411772507720684e+02
1.614955290163835766e+00 5.107646808734465935e+02
1.615055312168677037e+00 5.107881037689991786e+02
1.615155334173518087e+00 5.108114418804184993e+02
1.615255356178359136e+00 5.108346911690609318e+02
1.615355378183200408e+00 5.108578476152160306e+02
1.615455400188041235e+00 5.108809072186720641e+02
1.615555422192882284e+00 5.109038659992762632e+02
1.615655444197723334e+00 5.109267199974947289e+02
1.615755466202564383e+00 5.109494652749636998e+02
1.615855488207405433e+00 5.109720979150444009e+02
1.615955510212246704e+00 5.109946140233681717e+02
1.616055532217087753e+00 5.110170097283814812e+02
1.616155554221928581e+00 5.110392811818881000e+02
1.616255576226769630e+00 5.110614245595829743e+02
1.616355598231610902e+00 5.110834360615884293e+02
1.616455620236451951e+00 5.111053119129823585e+02
1.616555642241293000e+00 5.111270483643230023e+02
1.616655664246134050e+00 5.111486416921724185e+02
1.616755686250975099e+00 5.111700881996115982e+02
1.616855708255815927e+00 5.111913842167563189e+02
1.616955730260657198e+00 5.112125261012649275e+02
1.617055752265498247e+00 5.112335102388436212e+02
1.617155774270339297e+00 5.112543330437478062e+02
1.617255796275180568e+00 5.112749909592782274e+02
1.617355818280021618e+00 5.112954804582728912e+02
1.617455840284862667e+00 5.113157980435946115e+02
1.617555862289703494e+00 5.113359402486142926e+02
1.617655884294544544e+00 5.113559036376879021e+02
1.617755906299385593e+00 5.113756848066326484e+02
1.617855928304226865e+00 5.113952803831942333e+02
1.617955950309067914e+00 5.114146870275104106e+02
1.618055972313908963e+00 5.114339014325723838e+02
1.618155994318750235e+00 5.114529203246768816e+02
1.618256016323591062e+00 5.114717404638777793e+02
1.618356038328432112e+00 5.114903586444282269e+02
1.618456060333273161e+00 5.115087716952214123e+02
1.618556082338114210e+00 5.115269764802252439e+02
1.618656104342955260e+00 5.115449698989091871e+02
1.618756126347796531e+00 5.115627488866687145e+02
1.618856148352637581e+00 5.115803104152460037e+02
1.618956170357478408e+00 5.115976514931390966e+02
1.619056192362319457e+00 5.116147691660118539e+02
1.619156214367160729e+00 5.116316605170962362e+02
1.619256236372001778e+00 5.116483226675868536e+02
1.619356258376842828e+00 5.116647527770339821e+02
1.619456280381683877e+00 5.116809480437291882e+02
1.619556302386524926e+00 5.116969057050819742e+02
1.619656324391365754e+00 5.117126230379977301e+02
1.619756346396207025e+00 5.117280973592432360e+02
1.619856368401048075e+00 5.117433260258101200e+02
1.619956390405889124e+00 5.117583064352714359e+02
1.620056412410730395e+00 5.117730360261315923e+02
1.620156434415571445e+00 5.117875122781719597e+02
1.620256456420412494e+00 5.118017327127893736e+02
1.620356478425253322e+00 5.118156948933280432e+02
1.620456500430094371e+00 5.118293964254076513e+02
1.620556522434935420e+00 5.118428349572417346e+02
1.620656544439776692e+00 5.118560081799548698e+02
1.620756566444617741e+00 5.118689138278871269e+02
1.620856588449458791e+00 5.118815496789000008e+02
1.620956610454300062e+00 5.118939135546685293e+02
1.621056632459140889e+00 5.119060033209736389e+02
1.621156654463981939e+00 5.119178168879827808e+02
1.621256676468822988e+00 5.119293522105282364e+02
1.621356698473664038e+00 5.119406072883755314e+02
1.621456720478505087e+00 5.119515801664891228e+02
1.621556742483346358e+00 5.119622689352891030e+02
1.621656764488187408e+00 5.119726717309016522e+02
1.621756786493028235e+00 5.119827867354031241e+02
1.621856808497869284e+00 5.119926121770578220e+02
1.621956830502710556e+00 5.120021463305509997e+02
1.622056852507551605e+00 5.120113875172108919e+02
1.622156874512392655e+00 5.120203341052271071e+02
1.622256896517233704e+00 5.120289845098637898e+02
1.622356918522074753e+00 5.120373371936598232e+02
1.622456940526915581e+00 5.120453906666330113e+02
1.622556962531756852e+00 5.120531434864648190e+02
1.622656984536597902e+00 5.120605942586894344e+02
1.622757006541438951e+00 5.120677416368674812e+02
1.622857028546280223e+00 5.120745843227598471e+02
1.622957050551121272e+00 5.120811210664904820e+02
1.623057072555962321e+00 5.120873506667022639e+02
1.623157094560803149e+00 5.120932719707086562e+02
1.623257116565644198e+00 5.120988838746371812e+02
1.623357138570485247e+00 5.121041853235643657e+02
1.623457160575326519e+00 5.121091753116481868e+02
1.623557182580167568e+00 5.121138528822463059e+02
1.623657204585008618e+00 5.121182171280364628e+02
1.623757226589849889e+00 5.121222671911218640e+02
1.623857248594690716e+00 5.121260022631352058e+02
1.623957270599531766e+00 5.121294215853316700e+02
1.624057292604372815e+00 5.121325244486793054e+02
1.624157314609213865e+00 5.121353101939362205e+02
1.624257336614054914e+00 5.121377782117291417e+02
1.624357358618896185e+00 5.121399279426169642e+02
1.624457380623737235e+00 5.121417588771520286e+02
1.624557402628578062e+00 5.121432705559328724e+02
1.624657424633419112e+00 5.121444625696503863e+02
1.624757446638260383e+00 5.121453345591271500e+02
1.624857468643101432e+00 5.121458862153485825e+02
1.624957490647942482e+00 5.121461172794881804e+02
1.625057512652783531e+00 5.121460275429266176e+02
1.625157534657624581e+00 5.121456168472615218e+02
1.625257556662465408e+00 5.121448850843117953e+02
1.625357578667306679e+00 5.121438321961145448e+02
1.625457600672147729e+00 5.121424581749159870e+02
1.625557622676988778e+00 5.121407630631529173e+02
1.625657644681830050e+00 5.121387469534304273e+02
1.625757666686671099e+00 5.121364099884899588e+02
1.625857688691512148e+00 5.121337523611717870e+02
1.625957710696352976e+00 5.121307743143704556e+02
1.626057732701194025e+00 5.121274761409823668e+02
1.626157754706035075e+00 5.121238581838488244e+02
1.626257776710876346e+00 5.121199208356877079e+02
1.626357798715717395e+00 5.121156645390229869e+02
1.626457820720558445e+00 5.121110897861052536e+02
1.626557842725399716e+00 5.121061971188249800e+02
1.626657864730240544e+00 5.121009871286198631e+02
1.626757886735081593e+00 5.120954604563742123e+02
1.626857908739922642e+00 5.120896177923117421e+02
1.626957930744763692e+00 5.120834598758842731e+02
1.627057952749604741e+00 5.120769874956486092e+02
1.627157974754446013e+00 5.120702014891419367e+02
1.627257996759287062e+00 5.120631027427450590e+02
1.627358018764127889e+00 5.120556921915447219e+02
1.627458040768968939e+00 5.120479708191844566e+02
1.627558062773810210e+00 5.120399396577114430e+02
1.627658084778651260e+00 5.120315997874150753e+02
1.627758106783492309e+00 5.120229523366599551e+02
1.627858128788333358e+00 5.120139984817130880e+02
1.627958150793174408e+00 5.120047394465615298e+02
1.628058172798015235e+00 5.119951765027274746e+02
1.628158194802856507e+00 5.119853109690728843e+02
1.628258216807697556e+00 5.119751442115999680e+02
1.628358238812538605e+00 5.119646776432461479e+02
1.628458260817379877e+00 5.119539127236680542e+02
1.628558282822220926e+00 5.119428509590263729e+02
1.628658304827061976e+00 5.119314939017567667e+02
1.628758326831902803e+00 5.119198431503385223e+02
1.628858348836743852e+00 5.119079003490581954e+02
1.628958370841584902e+00 5.118956671877629674e+02
1.629058392846426173e+00 5.118831454016103066e+02
1.629158414851267223e+00 5.118703367708115479e+02
1.629258436856108272e+00 5.118572431203687643e+02
1.629358458860949543e+00 5.118438663198043628e+02
1.629458480865790371e+00 5.118302082828882931e+02
1.629558502870631420e+00 5.118162709673540007e+02
1.629658524875472470e+00 5.118020563746115386e+02
1.629758546880313519e+00 5.117875665494569262e+02
1.629858568885154568e+00 5.117728035797691746e+02
1.629958590889995840e+00 5.117577695962087887e+02
1.630058612894836667e+00 5.117424667719038780e+02
1.630158634899677716e+00 5.117268973221351871e+02
1.630258656904518766e+00 5.117110635040135662e+02
1.630358678909360037e+00 5.116949676161522120e+02
1.630458700914201087e+00 5.116786119983313483e+02
1.630558722919042136e+00 5.116619990311613719e+02
1.630658744923883186e+00 5.116451311357352552e+02
1.630758766928724013e+00 5.116280107732814599e+02
1.630858788933565062e+00 5.116106404448048579e+02
1.630958810938406334e+00 5.115930226907281622e+02
1.631058832943247383e+00 5.115751600905235819e+02
1.631158854948088432e+00 5.115570552623422032e+02
1.631258876952929704e+00 5.115387108626365489e+02
1.631358898957770753e+00 5.115201295857783634e+02
1.631458920962611581e+00 5.115013141636709975e+02
1.631558942967452630e+00 5.114822673653569609e+02
1.631658964972293679e+00 5.114629919966213834e+02
1.631758986977134729e+00 5.114434908995892215e+02
1.631859008981976000e+00 5.114237669523151908e+02
1.631959030986817050e+00 5.114038230683769939e+02
1.632059052991658099e+00 5.113836621964524625e+02
1.632159074996498926e+00 5.113632873199020992e+02
1.632259097001340198e+00 5.113427014563405919e+02
1.632359119006181247e+00 5.113219076572058839e+02
1.632459141011022297e+00 5.113009090073244352e+02
1.632559163015863346e+00 5.112797086244698903e+02
1.632659185020704395e+00 5.112583096589191882e+02
1.632759207025545667e+00 5.112367152930034990e+02
1.632859229030386494e+00 5.112149287406545000e+02
1.632959251035227544e+00 5.111929532469473543e+02
1.633059273040068593e+00 5.111707920876385174e+02
1.633159295044909864e+00 5.111484485687002461e+02
1.633259317049750914e+00 5.111259260258497648e+02
1.633359339054591963e+00 5.111032278240759297e+02
1.633459361059433013e+00 5.110803573571619154e+02
1.633559383064273840e+00 5.110573180472015338e+02
1.633659405069114889e+00 5.110341133441152124e+02
1.633759427073956161e+00 5.110107467251597200e+02
1.633859449078797210e+00 5.109872216944359593e+02
1.633959471083638260e+00 5.109635417823908483e+02
1.634059493088479531e+00 5.109397105453185191e+02
1.634159515093320580e+00 5.109157315648552071e+02
1.634259537098161408e+00 5.108916084474744821e+02
1.634359559103002457e+00 5.108673448239724166e+02
1.634459581107843507e+00 5.108429443489583832e+02
1.634559603112684556e+00 5.108184107003368695e+02
1.634659625117525827e+00 5.107937475787839503e+02
1.634759647122366877e+00 5.107689587072286486e+02
1.634859669127207926e+00 5.107440478303241207e+02
1.634959691132048754e+00 5.107190187139194109e+02
1.635059713136890025e+00 5.106938751445270555e+02
1.635159735141731074e+00 5.106686209287890392e+02
1.635259757146572124e+00 5.106432598929372375e+02
1.635359779151413173e+00 5.106177958822563596e+02
1.635459801156254223e+00 5.105922327605384794e+02
1.635559823161095494e+00 5.105665744095392142e+02
1.635659845165936321e+00 5.105408247284294703e+02
1.635759867170777371e+00 5.105149876332458803e+02
1.635859889175618420e+00 5.104890670563383992e+02
1.635959911180459692e+00 5.104630669458149441e+02
1.636059933185300741e+00 5.104369912649864318e+02
1.636159955190141790e+00 5.104108439918062459e+02
1.636259977194982840e+00 5.103846291183099311e+02
1.636359999199823667e+00 5.103583506500540921e+02
1.636460021204664717e+00 5.103320126055498349e+02
1.636560043209505988e+00 5.103056190156972889e+02
1.636660065214347037e+00 5.102791739232177406e+02
1.636760087219188087e+00 5.102526813820859388e+02
1.636860109224029358e+00 5.102261454569534180e+02
1.636960131228870408e+00 5.101995702225827927e+02
1.637060153233711235e+00 5.101729597632683522e+02
1.637160175238552284e+00 5.101463181722655236e+02
1.637260197243393334e+00 5.101196495512089086e+02
1.637360219248234383e+00 5.100929580095386200e+02
1.637460241253075655e+00 5.100662476639204215e+02
1.637560263257916704e+00 5.100395226376659252e+02
1.637660285262757753e+00 5.100127870601501172e+02
1.637760307267598581e+00 5.099860450662328049e+02
1.637860329272439852e+00 5.099593007956726183e+02
1.637960351277280902e+00 5.099325583925470937e+02
1.638060373282121951e+00 5.099058220046679821e+02
1.638160395286963000e+00 5.098790957829942840e+02
1.638260417291804050e+00 5.098523838810505708e+02
1.638360439296645321e+00 5.098256904543408154e+02
1.638460461301486148e+00 5.097990196597621093e+02
1.638560483306327198e+00 5.097723756550184362e+02
1.638660505311168247e+00 5.097457625980363218e+02
1.638760527316009519e+00 5.097191846463774709e+02
1.638860549320850568e+00 5.096926459566512335e+02
1.638960571325691618e+00 5.096661506839321305e+02
1.639060593330532667e+00 5.096397029811693642e+02
1.639160615335373494e+00 5.096133069986036617e+02
1.639260637340214544e+00 5.095869668831816170e+02
1.639360659345055815e+00 5.095606867779683284e+02
1.639460681349896864e+00 5.095344708215648097e+02
1.639560703354737914e+00 5.095083231475229013e+02
1.639660725359579185e+00 5.094822478837606354e+02
1.639760747364420235e+00 5.094562491519794776e+02
1.639860769369261062e+00 5.094303310670824203e+02
1.639960791374102111e+00 5.094044977365908267e+02
1.640060813378943161e+00 5.093787532600656505e+02
1.640160835383784210e+00 5.093531017285259281e+02
1.640260857388625482e+00 5.093275472238702832e+02
1.640360879393466531e+00 5.093020938182997952e+02
1.640460901398307580e+00 5.092767455737387081e+02
1.640560923403148408e+00 5.092515065412629269e+02
1.640660945407989679e+00 5.092263807605235115e+02
1.640760967412830729e+00 5.092013722591736382e+02
1.640860989417671778e+00 5.091764850522975507e+02
1.640961011422512827e+00 5.091517231418424672e+02
1.641061033427353877e+00 5.091270905160470761e+02
1.641161055432195148e+00 5.091025911488781617e+02
1.641261077437035976e+00 5.090782289994645566e+02
1.641361099441877025e+00 5.090540080115321757e+02
1.641461121446718074e+00 5.090299321128470638e+02
1.641561143451559346e+00 5.090060052146512248e+02
1.641661165456400395e+00 5.089822312111093652e+02
1.641761187461241445e+00 5.089586139787522256e+02
1.641861209466082494e+00 5.089351573759230405e+02
1.641961231470923321e+00 5.089118652422268951e+02
1.642061253475764371e+00 5.088887413979845178e+02
1.642161275480605642e+00 5.088657896436828878e+02
1.642261297485446692e+00 5.088430137594323810e+02
1.642361319490287741e+00 5.088204175044277235e+02
1.642461341495129012e+00 5.087980046164075247e+02
1.642561363499970062e+00 5.087757788111177319e+02
1.642661385504810889e+00 5.087537437817799741e+02
1.642761407509651939e+00 5.087319031985587117e+02
1.642861429514492988e+00 5.087102607080372536e+02
1.642961451519334037e+00 5.086888199326884887e+02
1.643061473524175309e+00 5.086675844703560188e+02
1.643161495529016358e+00 5.086465578937340410e+02
1.643261517533857408e+00 5.086257437498527452e+02
1.643361539538698235e+00 5.086051455595630273e+02
1.643461561543539506e+00 5.085847668170303564e+02
1.643561583548380556e+00 5.085646109892266509e+02
1.643661605553221605e+00 5.085446815154277829e+02
1.643761627558062655e+00 5.085249818067136971e+02
1.643861649562903704e+00 5.085055152454743279e+02
1.643961671567744975e+00 5.084862851849148910e+02
1.644061693572585803e+00 5.084672949485675417e+02
1.644161715577426852e+00 5.084485478298066141e+02
1.644261737582267902e+00 5.084300470913678396e+02
1.644361759587109173e+00 5.084117959648691567e+02
1.644461781591950222e+00 5.083937976503359550e+02
1.644561803596791272e+00 5.083760553157345043e+02
1.644661825601632321e+00 5.083585720965014616e+02
1.644761847606473149e+00 5.083413510950847467e+02
1.644861869611314198e+00 5.083243953804833950e+02
1.644961891616155469e+00 5.083077079877954247e+02
1.645061913620996519e+00 5.082912919177663298e+02
1.645161935625837568e+00 5.082751501363434841e+02
1.645261957630678840e+00 5.082592855742357756e+02
1.645361979635519889e+00 5.082437011264750026e+02
1.645462001640360716e+00 5.082283996519846028e+02
1.645562023645201766e+00 5.082133839731494618e+02
1.645662045650042815e+00 5.081986568753930555e+02
1.645762067654883865e+00 5.081842211067587414e+02
1.645862089659725136e+00 5.081700793774930958e+02
1.645962111664566185e+00 5.081562343596369828e+02
1.646062133669407235e+00 5.081426886866204882e+02
1.646162155674248062e+00 5.081294449528595010e+02
1.646262177679089334e+00 5.081165057133624714e+02
1.646362199683930383e+00 5.081038734833372246e+02
1.646462221688771432e+00 5.080915507378059033e+02
1.646562243693612482e+00 5.080795399112215591e+02
1.646662265698453531e+00 5.080678433970936112e+02
1.646762287703294803e+00 5.080564635476148396e+02
1.646862309708135630e+00 5.080454026732944612e+02
1.646962331712976679e+00 5.080346630425977992e+02
1.647062353717817729e+00 5.080242468815894199e+02
1.647162375722659000e+00 5.080141563735808745e+02
1.647262397727500050e+00 5.080043936587857161e+02
1.647362419732341099e+00 5.079949608339784390e+02
1.647462441737182148e+00 5.079858599521576252e+02
1.647562463742022976e+00 5.079770930222186394e+02
1.647662485746864025e+00 5.079686620086246762e+02
1.647762507751705296e+00 5.079605688310901428e+02
1.647862529756546346e+00 5.079528153642657458e+02
1.647962551761387395e+00 5.079454034374293201e+02
1.648062573766228667e+00 5.079383348341830242e+02
1.648162595771069494e+00 5.079316112921560489e+02
1.648262617775910543e+00 5.079252345027109641e+02
1.648362639780751593e+00 5.079192061106592746e+02
1.648462661785592642e+00 5.079135277139791356e+02
1.648562683790433692e+00 5.079082008635404577e+02
1.648662705795274963e+00 5.079032270628356969e+02
1.648762727800116012e+00 5.078986077677153617e+02
1.648862749804956840e+00 5.078943443861306832e+02
1.648962771809797889e+00 5.078904382778799231e+02
1.649062793814639161e+00 5.078868907543642877e+02
1.649162815819480210e+00 5.078837030783441833e+02
1.649262837824321259e+00 5.078808764637066133e+02
1.649362859829162309e+00 5.078784120752357580e+02
1.649462881834003358e+00 5.078763110283892956e+02
1.649562903838844186e+00 5.078745743890817721e+02
1.649662925843685457e+00 5.078732031734732004e+02
1.649762947848526506e+00 5.078721983477644812e+02
1.649862969853367556e+00 5.078715608279966887e+02
1.649962991858208827e+00 5.078712914798589395e+02
1.650063013863049877e+00 5.078713911185023449e+02
1.650163035867890926e+00 5.078718605083558941e+02
1.650263057872731753e+00 5.078727003629546743e+02
1.650363079877572803e+00 5.078739113447684304e+02
1.650463101882413852e+00 5.078754940650399021e+02
1.650563123887255124e+00 5.078774490836286759e+02
1.650663145892096173e+00 5.078797769088585028e+02
1.650763167896937222e+00 5.078824779973753607e+02
1.650863189901778494e+00 5.078855527540071080e+02
1.650963211906619321e+00 5.078890015316336530e+02
1.651063233911460371e+00 5.078928246310583177e+02
1.651163255916301420e+00 5.078970223008902849e+02
1.651263277921142469e+00 5.079015947374300595e+02
1.651363299925983519e+00 5.079065420845633412e+02
1.651463321930824790e+00 5.079118644336581951e+02
1.651563343935665840e+00 5.079175618234723970e+02
1.651663365940506667e+00 5.079236342400636204e+02
1.651763387945347716e+00 5.079300816167062749e+02
1.651863409950188988e+00 5.079369038338188602e+02
1.651963431955030037e+00 5.079441007188898993e+02
1.652063453959871087e+00 5.079516720464177979e+02
1.652163475964712136e+00 5.079596175378524094e+02
1.652263497969553185e+00 5.079679368615438193e+02
1.652363519974394013e+00 5.079766296326985753e+02
1.652463541979235284e+00 5.079856954133400677e+02
1.652563563984076334e+00 5.079951337122783457e+02
1.652663585988917383e+00 5.080049439850829458e+02
1.652763607993758654e+00 5.080151256340636223e+02
1.652863629998599704e+00 5.080256780082577279e+02
1.652963652003440753e+00 5.080366004034224829e+02
1.653063674008281581e+00 5.080478920620345775e+02
1.653163696013122630e+00 5.080595521732959128e+02
1.653263718017963679e+00 5.080715798731465043e+02
1.653363740022804951e+00 5.080839742442807960e+02
1.653463762027646000e+00 5.080967343161724443e+02
1.653563784032487050e+00 5.081098590651065479e+02
1.653663806037328321e+00 5.081233474142148339e+02
1.653763828042169148e+00 5.081371982335195980e+02
1.653863850047010198e+00 5.081514103399827604e+02
1.653963872051851247e+00 5.081659824975619131e+02
1.654063894056692297e+00 5.081809134172709719e+02
1.654163916061533346e+00 5.081962017572491845e+02
1.654263938066374617e+00 5.082118461228362207e+02
1.654363960071215667e+00 5.082278450666493086e+02
1.654463982076056494e+00 5.082441970886731042e+02
1.654564004080897544e+00 5.082609006363493904e+02
1.654664026085738815e+00 5.082779541046789973e+02
1.654764048090579864e+00 5.082953558363234379e+02
1.654864070095420914e+00 5.083131041217181405e+02
1.654964092100261963e+00 5.083311971991881819e+02
1.655064114105103013e+00 5.083496332550714101e+02
1.655164136109943840e+00 5.083684104238483314e+02
1.655264158114785111e+00 5.083875267882768867e+02
1.655364180119626161e+00 5.084069803795329108e+02
1.655464202124467210e+00 5.084267691773579259e+02
1.655564224129308482e+00 5.084468911102123911e+02
1.655664246134149531e+00 5.084673440554337276e+02
1.655764268138990580e+00 5.084881258394012207e+02
1.655864290143831408e+00 5.085092342377088812e+02
1.655964312148672457e+00 5.085306669753387041e+02
1.656064334153513506e+00 5.085524217268462053e+02
1.656164356158354778e+00 5.085744961165466407e+02
1.656264378163195827e+00 5.085968877187107182e+02
1.656364400168036877e+00 5.086195940577624128e+02
1.656464422172878148e+00 5.086426126084867292e+02
1.656564444177718975e+00 5.086659407962393971e+02
1.656664466182560025e+00 5.086895759971644679e+02
1.656764488187401074e+00 5.087135155384163454e+02
1.656864510192242124e+00 5.087377566983893757e+02
1.656964532197083173e+00 5.087622967069492574e+02
1.657064554201924444e+00 5.087871327456754216e+02
1.657164576206765494e+00 5.088122619481031279e+02
1.657264598211606321e+00 5.088376813999752812e+02
1.657364620216447371e+00 5.088633881394976015e+02
1.657464642221288642e+00 5.088893791576005583e+02
1.657564664226129691e+00 5.089156513982055685e+02
1.657664686230970741e+00 5.089422017584960827e+02
1.657764708235811790e+00 5.089690270891974819e+02
1.657864730240652840e+00 5.089961241948557245e+02
1.657964752245493667e+00 5.090234898341289522e+02
1.658064774250334938e+00 5.090511207200794956e+02
1.658164796255175988e+00 5.090790135204683793e+02
1.658264818260017037e+00 5.091071648580648343e+02
1.658364840264858309e+00 5.091355713109496719e+02
1.658464862269699358e+00 5.091642294128320145e+02
1.658564884274540407e+00 5.091931356533648909e+02
1.658664906279381235e+00 5.092222864784715739e+02
1.658764928284222284e+00 5.092516782906706112e+02
1.658864950289063334e+00 5.092813074494136458e+02
1.658964972293904605e+00 5.093111702714182911e+02
1.659064994298745654e+00 5.093412630310147051e+02
1.659165016303586704e+00 5.093715819604923354e+02
1.659265038308427975e+00 5.094021232504515524e+02
1.659365060313268803e+00 5.094328830501605694e+02
1.659465082318109852e+00 5.094638574679195244e+02
1.659565104322950901e+00 5.094950425714235394e+02
1.659665126327791951e+00 5.095264343881348168e+02
1.659765148332633000e+00 5.095580289056588299e+02
1.659865170337474272e+00 5.095898220721227290e+02
1.659965192342315321e+00 5.096218097965594325e+02
1.660065214347156148e+00 5.096539879492974592e+02
1.660165236351997198e+00 5.096863523623520678e+02
1.660265258356838469e+00 5.097188988298234449e+02
1.660365280361679519e+00 5.097516231082969966e+02
1.660465302366520568e+00 5.097845209172490968e+02
1.660565324371361617e+00 5.098175879394569279e+02
1.660665346376202667e+00 5.098508198214113349e+02
1.660765368381043494e+00 5.098842121737351931e+02
1.660865390385884766e+00 5.099177605716034805e+02
1.660965412390725815e+00 5.099514605551696604e+02
1.661065434395566864e+00 5.099853076299952477e+02
1.661165456400408136e+00 5.100192972674817611e+02
1.661265478405249185e+00 5.100534249053076792e+02
1.661365500410090235e+00 5.100876859478698861e+02
1.661465522414931062e+00 5.101220757667269936e+02
1.661565544419772111e+00 5.101565897010461867e+02
1.661665566424613161e+00 5.101912230580552432e+02
1.661765588429454432e+00 5.102259711134983604e+02
1.661865610434295482e+00 5.102608291120914714e+02
1.661965632439136531e+00 5.102957922679870535e+02
1.662065654443977802e+00 5.103308557652350146e+02
1.662165676448818630e+00 5.103660147582542663e+02
1.662265698453659679e+00 5.104012643723024780e+02
1.662365720458500729e+00 5.104365997039483318e+02
1.662465742463341778e+00 5.104720158215540664e+02
1.662565764468182827e+00 5.105075077657501197e+02
1.662665786473024099e+00 5.105430705499226747e+02
1.662765808477865148e+00 5.105786991606985907e+02
1.662865830482705976e+00 5.106143885584336886e+02
1.662965852487547025e+00 5.106501336777072879e+02
1.663065874492388296e+00 5.106859294278133348e+02
1.663165896497229346e+00 5.107217706932619308e+02
1.663265918502070395e+00 5.107576523342758037e+02
1.663365940506911445e+00 5.107935691872946791e+02
1.663465962511752494e+00 5.108295160654807887e+02
1.663565984516593321e+00 5.108654877592256298e+02
1.663666006521434593e+00 5.109014790366595662e+02
1.663766028526275642e+00 5.109374846441645559e+02
1.663866050531116692e+00 5.109734993068900621e+02
1.663966072535957963e+00 5.110095177292674293e+02
1.664066094540799012e+00 5.110455345955302846e+02
1.664166116545640062e+00 5.110815445702356214e+02
1.664266138550480889e+00 5.111175422987854517e+02
1.664366160555321938e+00 5.111535224079543127e+02
1.664466182560162988e+00 5.111894795064130221e+02
1.664566204565004259e+00 5.112254081852611307e+02
1.664666226569845309e+00 5.112613030185535763e+02
1.664766248574686358e+00 5.112971585638358079e+02
1.664866270579527630e+00 5.113329693626767494e+02
1.664966292584368457e+00 5.113687299412046627e+02
1.665066314589209506e+00 5.114044348106432381e+02
1.665166336594050556e+00 5.114400784678515492e+02
1.665266358598891605e+00 5.114756553958638392e+02
1.665366380603732654e+00 5.115111600644300438e+02
1.665466402608573926e+00 5.115465869305583055e+02
1.665566424613414753e+00 5.115819304390613524e+02
1.665666446618255803e+00 5.116171850230967380e+02
1.665766468623096852e+00 5.116523451047194158e+02
1.665866490627938123e+00 5.116874050954233439e+02
1.665966512632779173e+00 5.117223593966922408e+02
1.666066534637620222e+00 5.117572024005495450e+02
1.666166556642461272e+00 5.117919284901057040e+02
1.666266578647302099e+00 5.118265320401122267e+02
1.666366600652143148e+00 5.118610074175106206e+02
1.666466622656984420e+00 5.118953489819868423e+02
1.666566644661825469e+00 5.119295510865220535e+02
1.666666666666666519e+00 5.119636080779471854e+02
1.666766688671507790e+00 5.119975142974971050e+02
1.666866710676348839e+00 5.120312640813649523e+02
1.666966732681189667e+00 5.120648517612555679e+02
1.667066754686030716e+00 5.120982716649431268e+02
1.667166776690871766e+00 5.121315181168234858e+02
1.667266798695712815e+00 5.121645854384714767e+02
1.667366820700554086e+00 5.121974679491968345e+02
1.667466842705395136e+00 5.122301599665983076e+02
1.667566864710236185e+00 5.122626558071217460e+02
1.667666886715077013e+00 5.122949497866115962e+02
1.667766908719918284e+00 5.123270362208727420e+02
1.667866930724759333e+00 5.123589094262201797e+02
1.667966952729600383e+00 5.123905637200360843e+02
1.668066974734441432e+00 5.124219934213258512e+02
1.668166996739282482e+00 5.124531928512703871e+02
1.668267018744123753e+00 5.124841563337829484e+02
1.668367040748964580e+00 5.125148781960606357e+02
1.668467062753805630e+00 5.125453527691369118e+02
1.668567084758646679e+00 5.125755743884362801e+02
1.668667106763487951e+00 5.126055373943243012e+02
1.668767128768329000e+00 5.126352361326595428e+02
1.668867150773170049e+00 5.126646649553439374e+02
1.668967172778011099e+00 5.126938182208716626e+02
1.669067194782851926e+00 5.127226902948785892e+02
1.669167216787692976e+00 5.127512755506884332e+02
1.669267238792534247e+00 5.127795683698615221e+02
1.669367260797375296e+00 5.128075631427384451e+02
1.669467282802216346e+00 5.128352542689855227e+02
1.669567304807057617e+00 5.128626361581386846e+02
1.669667326811898667e+00 5.128897032301424588e+02
1.669767348816739494e+00 5.129164499158955550e+02
1.669867370821580543e+00 5.129428706577862158e+02
1.669967392826421593e+00 5.129689599102312059e+02
1.670067414831262642e+00 5.129947121402138919e+02
1.670167436836103914e+00 5.130201218278172064e+02
1.670267458840944963e+00 5.130451834667583171e+02
1.670367480845786012e+00 5.130698915649190894e+02
1.670467502850626840e+00 5.130942406448782549e+02
1.670567524855468111e+00 5.131182252444380083e+02
1.670667546860309161e+00 5.131418399171514011e+02
1.670767568865150210e+00 5.131650792328453008e+02
1.670867590869991259e+00 5.131879377781473295e+02
1.670967612874832309e+00 5.132104101570007515e+02
1.671067634879673580e+00 5.132324909911891382e+02
1.671167656884514408e+00 5.132541749208492092e+02
1.671267678889355457e+00 5.132754566049869709e+02
1.671367700894196506e+00 5.132963307219894205e+02
1.671467722899037778e+00 5.133167919701363644e+02
1.671567744903878827e+00 5.133368350681064385e+02
1.671667766908719877e+00 5.133564547554831279e+02
1.671767788913560926e+00 5.133756457932594230e+02
1.671867810918401753e+00 5.133944029643372460e+02
1.671967832923242803e+00 5.134127210740259670e+02
1.672067854928084074e+00 5.134305949505385342e+02
1.672167876932925124e+00 5.134480194454846469e+02
1.672267898937766173e+00 5.134649894343607457e+02
1.672367920942607444e+00 5.134814998170394347e+02
1.672467942947448494e+00 5.134975455182531050e+02
1.672567964952289321e+00 5.135131214880759671e+02
1.672667986957130370e+00 5.135282227024064241e+02
1.672768008961971420e+00 5.135428441634405772e+02
1.672868030966812469e+00 5.135569809001476642e+02
1.672968052971653741e+00 5.135706279687410643e+02
1.673068074976494790e+00 5.135837804531453230e+02
1.673168096981335840e+00 5.135964334654609047e+02
1.673268118986176667e+00 5.136085821464271248e+02
1.673368140991017938e+00 5.136202216658789439e+02
1.673468162995858988e+00 5.136313472232033064e+02
1.673568185000700037e+00 5.136419540477918417e+02
1.673668207005541086e+00 5.136520373994879947e+02
1.673768229010382136e+00 5.136615925690340418e+02
1.673868251015223407e+00 5.136706148785124242e+02
1.673968273020064235e+00 5.136790996817845780e+02
1.674068295024905284e+00 5.136870423649266968e+02
1.674168317029746333e+00 5.136944383466612862e+02
1.674268339034587605e+00 5.137012830787853090e+02
1.674368361039428654e+00 5.137075720465943505e+02
1.674468383044269704e+00 5.137133007693053059e+02
1.674568405049110753e+00 5.137184648004724750e+02
1.674668427053951580e+00 5.137230597284017222e+02
1.674768449058792630e+00 5.137270811765598637e+02
1.674868471063633901e+00 5.137305248039828030e+02
1.674968493068474951e+00 5.137333863056759355e+02
1.675068515073316000e+00 5.137356614130145545e+02
1.675168537078157271e+00 5.137373458941365243e+02
1.675268559082998321e+00 5.137384355543349557e+02
1.675368581087839148e+00 5.137389262364451952e+02
1.675468603092680198e+00 5.137388138212255626e+02
1.675568625097521247e+00 5.137380942277394524e+02
1.675668647102362296e+00 5.137367634137277719e+02
1.675768669107203568e+00 5.137348173759800147e+02
1.675868691112044617e+00 5.137322521507018109e+02
1.675968713116885667e+00 5.137290638138774739e+02
1.676068735121726494e+00 5.137252484816281140e+02
1.676168757126567765e+00 5.137208023105649772e+02
1.676268779131408815e+00 5.137157214981398283e+02
1.676368801136249864e+00 5.137100022829913541e+02
1.676468823141090914e+00 5.137036409452864518e+02
1.676568845145931963e+00 5.136966338070553775e+02
1.676668867150773234e+00 5.136889772325257582e+02
1.676768889155614062e+00 5.136806676284513742e+02
1.676868911160455111e+00 5.136717014444361666e+02
1.676968933165296161e+00 5.136620751732508552e+02
1.677068955170137432e+00 5.136517853511522844e+02
1.677168977174978481e+00 5.136408285581886730e+02
1.677268999179819531e+00 5.136292014185100925e+02
1.677369021184660580e+00 5.136169006006684867e+02
1.677469043189501408e+00 5.136039228179124621e+02
1.677569065194342457e+00 5.135902648284827592e+02
1.677669087199183728e+00 5.135759234358956746e+02
1.677769109204024778e+00 5.135608954892318252e+02
1.677869131208865827e+00 5.135451778834082006e+02
1.677969153213707099e+00 5.135287675594559005e+02
1.678069175218548148e+00 5.135116615047886626e+02
1.678169197223388975e+00 5.134938567534638878e+02
1.678269219228230025e+00 5.134753503864467348e+02
1.678369241233071074e+00 5.134561395318605719e+02
1.678469263237912124e+00 5.134362213652402716e+02
1.678569285242753395e+00 5.134155931097744769e+02
1.678669307247594444e+00 5.133942520365480959e+02
1.678769329252435494e+00 5.133721954647760413e+02
1.678869351257276321e+00 5.133494207620348107e+02
1.678969373262117593e+00 5.133259253444880414e+02
1.679069395266958642e+00 5.133017066771069494e+02
1.679169417271799691e+00 5.132767622738863338e+02
1.679269439276640741e+00 5.132510896980566031e+02
1.679369461281481790e+00 5.132246865622877294e+02
1.679469483286323062e+00 5.131975505288926342e+02
1.679569505291163889e+00 5.131696793100217064e+02
1.679669527296004938e+00 5.131410706678555016e+02
1.679769549300845988e+00 5.131117224147889146e+02
1.679869571305687259e+00 5.130816324136146704e+02
1.679969593310528309e+00 5.130507985776982878e+02
1.680069615315369358e+00 5.130192188711495191e+02
1.680169637320210407e+00 5.129868913089881062e+02
1.680269659325051235e+00 5.129538139573071476e+02
1.680369681329892284e+00 5.129199849334249848e+02
1.680469703334733556e+00 5.128854024060409529e+02
1.680569725339574605e+00 5.128500645953781714e+02
1.680669747344415654e+00 5.128139697733273579e+02
1.680769769349256926e+00 5.127771162635785913e+02
1.680869791354097975e+00 5.127395024417568266e+02
1.680969813358938802e+00 5.127011267355444488e+02
1.681069835363779852e+00 5.126619876248036007e+02
1.681169857368620901e+00 5.126220836416902102e+02
1.681269879373461951e+00 5.125814133707669953e+02
1.681369901378303222e+00 5.125399754491057820e+02
1.681469923383144272e+00 5.124977685663914144e+02
1.681569945387985321e+00 5.124547914650134999e+02
1.681669967392826148e+00 5.124110429401584952e+02
1.681769989397667420e+00 5.123665218398942898e+02
1.681870011402508469e+00 5.123212270652511506e+02
1.681970033407349518e+00 5.122751575702947093e+02
1.682070055412190568e+00 5.122283123621967889e+02
1.682170077417031617e+00 5.121806905013000915e+02
1.682270099421872889e+00 5.121322911011772021e+02
1.682370121426713716e+00 5.120831133286868635e+02
1.682470143431554765e+00 5.120331564040197918e+02
1.682570165436395815e+00 5.119824196007476758e+02
1.682670187441237086e+00 5.119309022458582490e+02
1.682770209446078136e+00 5.118786037197913288e+02
1.682870231450919185e+00 5.118255234564683747e+02
1.682970253455760012e+00 5.117716609433142594e+02
1.683070275460601062e+00 5.117170157212801769e+02
1.683170297465442111e+00 5.116615873848533624e+02
1.683270319470283383e+00 5.116053755820681204e+02
1.683370341475124432e+00 5.115483800145096893e+02
1.683470363479965481e+00 5.114906004373117412e+02
1.683570385484806753e+00 5.114320366591521179e+02
1.683670407489647580e+00 5.113726885422404393e+02
1.683770429494488630e+00 5.113125560023009371e+02
1.683870451499329679e+00 5.112516390085532976e+02
1.683970473504170728e+00 5.111899375836849231e+02
1.684070495509011778e+00 5.111274518038205770e+02
1.684170517513853049e+00 5.110641817984857198e+02
1.684270539518694099e+00 5.110001277505652979e+02
1.684370561523534926e+00 5.109352898962591780e+02
1.684470583528375975e+00 5.108696685250287146e+02
1.684570605533217247e+00 5.108032639795436012e+02
1.684670627538058296e+00 5.107360766556187173e+02
1.684770649542899346e+00 5.106681070021502364e+02
1.684870671547740395e+00 5.105993555210452541e+02
1.684970693552581444e+00 5.105298227671440827e+02
1.685070715557422272e+00 5.104595093481437971e+02
1.685170737562263543e+00 5.103884159245095589e+02
1.685270759567104593e+00 5.103165432093884419e+02
1.685370781571945642e+00 5.102438919685113774e+02
1.685470803576786913e+00 5.101704630200957808e+02
1.685570825581627963e+00 5.100962572347431205e+02
1.685670847586469012e+00 5.100212755353246052e+02
1.685770869591309840e+00 5.099455188968757398e+02
1.685870891596150889e+00 5.098689883464703598e+02
1.685970913600991938e+00 5.097916849631031369e+02
1.686070935605833210e+00 5.097136098775596906e+02
1.686170957610674259e+00 5.096347642722840874e+02
1.686270979615515309e+00 5.095551493812441777e+02
1.686371001620356580e+00 5.094747664897886352e+02
1.686471023625197407e+00 5.093936169345018357e+02
1.686571045630038457e+00 5.093117021030531077e+02
1.686671067634879506e+00 5.092290234340421193e+02
1.686771089639720556e+00 5.091455824168382946e+02
1.686871111644561605e+00 5.090613805914193790e+02
1.686971133649402876e+00 5.089764195481999423e+02
1.687071155654243926e+00 5.088907009278622695e+02
1.687171177659084753e+00 5.088042264211761676e+02
1.687271199663925803e+00 5.087169977688182030e+02
1.687371221668767074e+00 5.086290167611867901e+02
1.687471243673608123e+00 5.085402852382116521e+02
1.687571265678449173e+00 5.084508050891590756e+02
1.687671287683290222e+00 5.083605782524322763e+02
1.687771309688131272e+00 5.082696067153704576e+02
1.687871331692972099e+00 5.081778925140403658e+02
1.687971353697813370e+00 5.080854377330243778e+02
1.688071375702654420e+00 5.079922445052072817e+02
1.688171397707495469e+00 5.078983150115529384e+02
1.688271419712336741e+00 5.078036514808839570e+02
1.688371441717177790e+00 5.077082561896523885e+02
1.688471463722018839e+00 5.076121314617074631e+02
1.688571485726859667e+00 5.075152796680613392e+02
1.688671507731700716e+00 5.074177032266474043e+02
1.688771529736541765e+00 5.073194046020770998e+02
1.688871551741383037e+00 5.072203863053929922e+02
1.688971573746224086e+00 5.071206508938157640e+02
1.689071595751065136e+00 5.070202009704906345e+02
1.689171617755906407e+00 5.069190391842253121e+02
1.689271639760747235e+00 5.068171682292310152e+02
1.689371661765588284e+00 5.067145908448510454e+02
1.689471683770429333e+00 5.066113098152924863e+02
1.689571705775270383e+00 5.065073279693536961e+02
1.689671727780111432e+00 5.064026481801423643e+02
1.689771749784952704e+00 5.062972733647977179e+02
1.689871771789793753e+00 5.061912064842031214e+02
1.689971793794634580e+00 5.060844505426978799e+02
1.690071815799475630e+00 5.059770085877858037e+02
1.690171837804316901e+00 5.058688837098383715e+02
1.690271859809157950e+00 5.057600790417972121e+02
1.690371881813999000e+00 5.056505977588685710e+02
1.690471903818840049e+00 5.055404430782208465e+02
1.690571925823681099e+00 5.054296182586727468e+02
1.690671947828521926e+00 5.053181266003819019e+02
1.690771969833363197e+00 5.052059714445282452e+02
1.690871991838204247e+00 5.050931561729954637e+02
1.690972013843045296e+00 5.049796842080488091e+02
1.691072035847886568e+00 5.048655590120084753e+02
1.691172057852727617e+00 5.047507840869212146e+02
1.691272079857568666e+00 5.046353629742305884e+02
1.691372101862409494e+00 5.045192992544390336e+02
1.691472123867250543e+00 5.044025965467727701e+02
1.691572145872091593e+00 5.042852585088384672e+02
1.691672167876932864e+00 5.041672888362821254e+02
1.691772189881773913e+00 5.040486912624407410e+02
1.691872211886614963e+00 5.039294695579929453e+02
1.691972233891456234e+00 5.038096275306075427e+02
1.692072255896297062e+00 5.036891690245871018e+02
1.692172277901138111e+00 5.035680979205113772e+02
1.692272299905979160e+00 5.034464181348751595e+02
1.692372321910820210e+00 5.033241336197278315e+02
1.692472343915661259e+00 5.032012483623029198e+02
1.692572365920502531e+00 5.030777663846546375e+02
1.692672387925343580e+00 5.029536917432836276e+02
1.692772409930184407e+00 5.028290285287638426e+02
1.692872431935025457e+00 5.027037808653682305e+02
1.692972453939866728e+00 5.025779529106878272e+02
1.693072475944707778e+00 5.024515488552524403e+02
1.693172497949548827e+00 5.023245729221473539e+02
1.693272519954389876e+00 5.021970293666271914e+02
1.693372541959230926e+00 5.020689224757292664e+02
1.693472563964071753e+00 5.019402565678821020e+02
1.693572585968913025e+00 5.018110359925146327e+02
1.693672607973754074e+00 5.016812651296603462e+02
1.693772629978595123e+00 5.015509483895625067e+02
1.693872651983436395e+00 5.014200902122736352e+02
1.693972673988277444e+00 5.012886950672581747e+02
1.694072695993118494e+00 5.011567674529861165e+02
1.694172717997959321e+00 5.010243118965307758e+02
1.694272740002800370e+00 5.008913329531623049e+02
1.694372762007641420e+00 5.007578352059384201e+02
1.694472784012482691e+00 5.006238232652962665e+02
1.694572806017323741e+00 5.004893017686385974e+02
1.694672828022164790e+00 5.003542753799211482e+02
1.694772850027006061e+00 5.002187487892367130e+02
1.694872872031846889e+00 5.000827267124004152e+02
1.694972894036687938e+00 4.999462138905278152e+02
1.695072916041528988e+00 4.998092150896168846e+02
1.695172938046370037e+00 4.996717351001274210e+02
1.695272960051211086e+00 4.995337787365548934e+02
1.695372982056052358e+00 4.993953508370097438e+02
1.695473004060893407e+00 4.992564562627875375e+02
1.695573026065734235e+00 4.991170998979438878e+02
1.695673048070575284e+00 4.989772866488673344e+02
1.695773070075416555e+00 4.988370214438450603e+02
1.695873092080257605e+00 4.986963092326365654e+02
1.695973114085098654e+00 4.985551549860381328e+02
1.696073136089939704e+00 4.984135636954512165e+02
1.696173158094780753e+00 4.982715403724469070e+02
1.696273180099621580e+00 4.981290900483306245e+02
1.696373202104462852e+00 4.979862177737060165e+02
1.696473224109303901e+00 4.978429286180362396e+02
1.696573246114144951e+00 4.976992276692073460e+02
1.696673268118986222e+00 4.975551200330862684e+02
1.696773290123827271e+00 4.974106108330831262e+02
1.696873312128668321e+00 4.972657052097086989e+02
1.696973334133509148e+00 4.971204083201316735e+02
1.697073356138350197e+00 4.969747253377404377e+02
1.697173378143191247e+00 4.968286614516935629e+02
1.697273400148032518e+00 4.966822218664808588e+02
1.697373422152873568e+00 4.965354118014762435e+02
1.697473444157714617e+00 4.963882364904950464e+02
1.697573466162555889e+00 4.962407011813446616e+02
1.697673488167396716e+00 4.960928111353835561e+02
1.697773510172237765e+00 4.959445716270701610e+02
1.697873532177078815e+00 4.957959879435191510e+02
1.697973554181919864e+00 4.956470653840524960e+02
1.698073576186760913e+00 4.954978092597538648e+02
1.698173598191602185e+00 4.953482248930170613e+02
1.698273620196443234e+00 4.951983176171031005e+02
1.698373642201284062e+00 4.950480927756888718e+02
1.698473664206125111e+00 4.948975557224181898e+02
1.698573686210966383e+00 4.947467118204559711e+02
1.698673708215807432e+00 4.945955664420381481e+02
1.698773730220648481e+00 4.944441249680230044e+02
1.698873752225489531e+00 4.942923927874438732e+02
1.698973774230330580e+00 4.941403752970588243e+02
1.699073796235171407e+00 4.939880779009046137e+02
1.699173818240012679e+00 4.938355060098466538e+02
1.699273840244853728e+00 4.936826650411325659e+02
1.699373862249694778e+00 4.935295604179418092e+02
1.699473884254536049e+00 4.933761975689416772e+02
1.699573906259377098e+00 4.932225819278381778e+02
1.699673928264218148e+00 4.930687189329284479e+02
1.699773950269058975e+00 4.929146140266555562e+02
1.699873972273900025e+00 4.927602726551613159e+02
1.699973994278741074e+00 4.926057002678429626e+02
1.700074016283582345e+00 4.924509023169046031e+02
1.700174038288423395e+00 4.922958842569159401e+02
1.700274060293264444e+00 4.921406515443652552e+02
1.700374082298105272e+00 4.919852096372184747e+02
1.700474104302946543e+00 4.918295639944752793e+02
1.700574126307787592e+00 4.916737200757278288e+02
1.700674148312628642e+00 4.915176833407174968e+02
1.700774170317469691e+00 4.913614592488964377e+02
1.700874192322310741e+00 4.912050532589870500e+02
1.700974214327152012e+00 4.910484708285438842e+02
1.701074236331992839e+00 4.908917174135126515e+02
1.701174258336833889e+00 4.907347984677973614e+02
1.701274280341674938e+00 4.905777194428211487e+02
1.701374302346516210e+00 4.904204857870923888e+02
1.701474324351357259e+00 4.902631029457696741e+02
1.701574346356198308e+00 4.901055763602296338e+02
1.701674368361039358e+00 4.899479114676342988e+02
1.701774390365880185e+00 4.897901137005009105e+02
1.701874412370721235e+00 4.896321884862714455e+02
1.701974434375562506e+00 4.894741412468856652e+02
1.702074456380403555e+00 4.893159773983508103e+02
1.702174478385244605e+00 4.891577023503197097e+02
1.702274500390085876e+00 4.889993215056633176e+02
1.702374522394926926e+00 4.888408402600476848e+02
1.702474544399767753e+00 4.886822640015136017e+02
1.702574566404608802e+00 4.885235981100547633e+02
1.702674588409449852e+00 4.883648479571992311e+02
1.702774610414290901e+00 4.882060189055911792e+02
1.702874632419132173e+00 4.880471163085769604e+02
1.702974654423973222e+00 4.878881455097876483e+02
1.703074676428814271e+00 4.877291118427292531e+02
1.703174698433655099e+00 4.875700206303686173e+02
1.703274720438496370e+00 4.874108771847258481e+02
1.703374742443337420e+00 4.872516868064658411e+02
1.703474764448178469e+00 4.870924547844912240e+02
1.703574786453019518e+00 4.869331863955403605e+02
1.703674808457860568e+00 4.867738869037812037e+02
1.703774830462701839e+00 4.866145615604126533e+02
1.703874852467542667e+00 4.864552156032660832e+02
1.703974874472383716e+00 4.862958542564067557e+02
1.704074896477224765e+00 4.861364827297391571e+02
1.704174918482066037e+00 4.859771062186138693e+02
1.704274940486907086e+00 4.858177299034359748e+02
1.704374962491748136e+00 4.856583589492760780e+02
1.704474984496589185e+00 4.854989985054828594e+02
1.704575006501430012e+00 4.853396537052988151e+02
1.704675028506271062e+00 4.851803296654750852e+02
1.704775050511112333e+00 4.850210314858913989e+02
1.704875072515953383e+00 4.848617642491789184e+02
1.704975094520794432e+00 4.847025330203411499e+02
1.705075116525635703e+00 4.845433428463805967e+02
1.705175138530476753e+00 4.843841987559264908e+02
1.705275160535317580e+00 4.842251057588649701e+02
1.705375182540158630e+00 4.840660688459697099e+02
1.705475204544999679e+00 4.839070929885398868e+02
1.705575226549840728e+00 4.837481831380352446e+02
1.705675248554682000e+00 4.835893442257134325e+02
1.705775270559523049e+00 4.834305811622753595e+02
1.705875292564364099e+00 4.832718988375081608e+02
1.705975314569204926e+00 4.831133021199300970e+02
1.706075336574046197e+00 4.829547958564419901e+02
1.706175358578887247e+00 4.827963848719778071e+02
1.706275380583728296e+00 4.826380739691579720e+02
1.706375402588569345e+00 4.824798679279484190e+02
1.706475424593410395e+00 4.823217715053165193e+02
1.706575446598251666e+00 4.821637894348962163e+02
1.706675468603092494e+00 4.820059264266501486e+02
1.706775490607933543e+00 4.818481871665380254e+02
1.706875512612774592e+00 4.816905763161863092e+02
1.706975534617615864e+00 4.815330985125590360e+02
1.707075556622456913e+00 4.813757583676367062e+02
1.707175578627297963e+00 4.812185604680903452e+02
1.707275600632139012e+00 4.810615093749639755e+02
1.707375622636979839e+00 4.809046096233587377e+02
1.707475644641820889e+00 4.807478657221176945e+02
1.707575666646662160e+00 4.805912821535160333e+02
1.707675688651503210e+00 4.804348633729526910e+02
1.707775710656344259e+00 4.802786138086455026e+02
1.707875732661185531e+00 4.801225378613282828e+02
1.707975754666026580e+00 4.799666399039524549e+02
1.708075776670867407e+00 4.798109242813890774e+02
1.708175798675708457e+00 4.796553953101374645e+02
1.708275820680549506e+00 4.795000572780335233e+02
1.708375842685390555e+00 4.793449144439620682e+02
1.708475864690231827e+00 4.791899710375727750e+02
1.708575886695072876e+00 4.790352312589981807e+02
1.708675908699913926e+00 4.788806992785766852e+02
1.708775930704754753e+00 4.787263792365752124e+02
1.708875952709596024e+00 4.785722752429182947e+02
1.708975974714437074e+00 4.784183913769192031e+02
1.709075996719278123e+00 4.782647316870126701e+02
1.709176018724119173e+00 4.781113001904922157e+02
1.709276040728960222e+00 4.779581008732514533e+02
1.709376062733801493e+00 4.778051376895268731e+02
1.709476084738642321e+00 4.776524145616431838e+02
1.709576106743483370e+00 4.774999353797659865e+02
1.709676128748324420e+00 4.773477040016520050e+02
1.709776150753165691e+00 4.771957242524057961e+02
1.709876172758006740e+00 4.770439999242409499e+02
1.709976194762847790e+00 4.768925347762411775e+02
1.710076216767688839e+00 4.767413325341261725e+02
1.710176238772529667e+00 4.765903968900229870e+02
1.710276260777370716e+00 4.764397315022357020e+02
1.710376282782211987e+00 4.762893399950226581e+02
1.710476304787053037e+00 4.761392259583772102e+02
1.710576326791894086e+00 4.759893929478071186e+02
1.710676348796735358e+00 4.758398444841230912e+02
1.710776370801576407e+00 4.756905840532265302e+02
1.710876392806417234e+00 4.755416151059033041e+02
1.710976414811258284e+00 4.753929410576196233e+02
1.711076436816099333e+00 4.752445652883193361e+02
1.711176458820940383e+00 4.750964911422304340e+02
1.711276480825781654e+00 4.749487219276675205e+02
1.711376502830622703e+00 4.748012609168449103e+02
1.711476524835463753e+00 4.746541113456868857e+02
1.711576546840304580e+00 4.745072764136464230e+02
1.711676568845145852e+00 4.743607592835235209e+02
1.711776590849986901e+00 4.742145630812892136e+02
1.711876612854827950e+00 4.740686908959139600e+02
1.711976634859669000e+00 4.739231457791955791e+02
1.712076656864510049e+00 4.737779307455951425e+02
1.712176678869351321e+00 4.736330487720733800e+02
1.712276700874192148e+00 4.734885027979324832e+02
1.712376722879033197e+00 4.733442957246587071e+02
1.712476744883874247e+00 4.732004304157729848e+02
1.712576766888715518e+00 4.730569096966801794e+02
1.712676788893556568e+00 4.729137363545256107e+02
1.712776810898397617e+00 4.727709131380526060e+02
1.712876832903238666e+00 4.726284427574644269e+02
1.712976854908079494e+00 4.724863278842917680e+02
1.713076876912920543e+00 4.723445711512602543e+02
1.713176898917761815e+00 4.722031751521619753e+02
1.713276920922602864e+00 4.720621424417360004e+02
1.713376942927443913e+00 4.719214755355441184e+02
1.713476964932285185e+00 4.717811769098572654e+02
1.713576986937126234e+00 4.716412490015393928e+02
1.713677008941967062e+00 4.715016942079417959e+02
1.713777030946808111e+00 4.713625148867948269e+02
1.713877052951649160e+00 4.712237133561066571e+02
1.713977074956490210e+00 4.710852918940636300e+02
1.714077096961331481e+00 4.709472527389373226e+02
1.714177118966172531e+00 4.708095980889909242e+02
1.714277140971013580e+00 4.706723301023924932e+02
1.714377162975854407e+00 4.705354508971308292e+02
1.714477184980695679e+00 4.703989625509345842e+02
1.714577206985536728e+00 4.702628671011952974e+02
1.714677228990377778e+00 4.701271665448936687e+02
1.714777250995218827e+00 4.699918628385300963e+02
1.714877273000059876e+00 4.698569578980582264e+02
1.714977295004901148e+00 4.697224535988228808e+02
1.715077317009741975e+00 4.695883517754996319e+02
1.715177339014583024e+00 4.694546542220411425e+02
1.715277361019424074e+00 4.693213626916242447e+02
1.715377383024265345e+00 4.691884788966019642e+02
1.715477405029106395e+00 4.690560045084583294e+02
1.715577427033947444e+00 4.689239411577681267e+02
1.715677449038788493e+00 4.687922904341593835e+02
1.715777471043629321e+00 4.686610538862787507e+02
1.715877493048470370e+00 4.685302330217617737e+02
1.715977515053311642e+00 4.683998293072061188e+02
1.716077537058152691e+00 4.682698441681486656e+02
1.716177559062993740e+00 4.681402789890444183e+02
1.716277581067835012e+00 4.680111351132533173e+02
1.716377603072676061e+00 4.678824138430246080e+02
1.716477625077516889e+00 4.677541164394909856e+02
1.716577647082357938e+00 4.676262441226605233e+02
1.716677669087198987e+00 4.674987980714175819e+02
1.716777691092040037e+00 4.673717794235220708e+02
1.716877713096881308e+00 4.672451892756164966e+02
1.716977735101722358e+00 4.671190286832338074e+02
1.717077757106563407e+00 4.669932986608110355e+02
1.717177779111404234e+00 4.668680001817031098e+02
1.717277801116245506e+00 4.667431341782049117e+02
1.717377823121086555e+00 4.666187015415723067e+02
1.717477845125927605e+00 4.664947031220489748e+02
1.717577867130768654e+00 4.663711397288970488e+02
1.717677889135609703e+00 4.662480121304294016e+02
1.717777911140450531e+00 4.661253210540475038e+02
1.717877933145291802e+00 4.660030671862813847e+02
1.717977955150132852e+00 4.658812511728336290e+02
1.718077977154973901e+00 4.657598736186265569e+02
1.718177999159815172e+00 4.656389350878534401e+02
1.718278021164656222e+00 4.655184361040309113e+02
1.718378043169497271e+00 4.653983771500597868e+02
1.718478065174338099e+00 4.652787586682829328e+02
1.718578087179179148e+00 4.651595810605518864e+02
1.718678109184020197e+00 4.650408446882929638e+02
1.718778131188861469e+00 4.649225498725800776e+02
1.718878153193702518e+00 4.648046968942083481e+02
1.718978175198543568e+00 4.646872859937726048e+02
1.719078197203384839e+00 4.645703173717480468e+02
1.719178219208225666e+00 4.644537911885759058e+02
1.719278241213066716e+00 4.643377075647503602e+02
1.719378263217907765e+00 4.642220665809112461e+02
1.719478285222748815e+00 4.641068682779371102e+02
1.719578307227589864e+00 4.639921126570445722e+02
1.719678329232431135e+00 4.638777996798884828e+02
1.719778351237272185e+00 4.637639292686675390e+02
1.719878373242113012e+00 4.636505013062304670e+02
1.719978395246954062e+00 4.635375156361894824e+02
1.720078417251795333e+00 4.634249720630317597e+02
1.720178439256636382e+00 4.633128703522386900e+02
1.720278461261477432e+00 4.632012102304064456e+02
1.720378483266318481e+00 4.630899913853691601e+02
1.720478505271159531e+00 4.629792134663264846e+02
1.720578527276000358e+00 4.628688760839735323e+02
1.720678549280841629e+00 4.627589788106354831e+02
1.720778571285682679e+00 4.626495211804011660e+02
1.720878593290523728e+00 4.625405026892666456e+02
1.720978615295365000e+00 4.624319227952745450e+02
1.721078637300206049e+00 4.623237809186620666e+02
1.721178659305047098e+00 4.622160764420078749e+02
1.721278681309887926e+00 4.621088087103871658e+02
1.721378703314728975e+00 4.620019770315231540e+02
1.721478725319570025e+00 4.618955806759479401e+02
1.721578747324411296e+00 4.617896188771612742e+02
1.721678769329252345e+00 4.616840908317975618e+02
1.721778791334093395e+00 4.615789956997889476e+02
1.721878813338934666e+00 4.614743326045381764e+02
1.721978835343775494e+00 4.613701006330914538e+02
1.722078857348616543e+00 4.612662988363134104e+02
1.722178879353457592e+00 4.611629262290657607e+02
1.722278901358298642e+00 4.610599817903888038e+02
1.722378923363139691e+00 4.609574644636870744e+02
1.722478945367980963e+00 4.608553731569163006e+02
1.722578967372822012e+00 4.607537067427725788e+02
1.722678989377662839e+00 4.606524640588876309e+02
1.722779011382503889e+00 4.605516439080213331e+02
1.722879033387345160e+00 4.604512450582634528e+02
1.722979055392186210e+00 4.603512662432333968e+02
1.723079077397027259e+00 4.602517061622849610e+02
1.723179099401868308e+00 4.601525634807131837e+02
1.723279121406709358e+00 4.600538368299623357e+02
1.723379143411550185e+00 4.599555248078410159e+02
1.723479165416391456e+00 4.598576259787342906e+02
1.723579187421232506e+00 4.597601388738228252e+02
1.723679209426073555e+00 4.596630619913028681e+02
1.723779231430914827e+00 4.595663937966077128e+02
1.723879253435755876e+00 4.594701327226352419e+02
1.723979275440596926e+00 4.593742771699733112e+02
1.724079297445437753e+00 4.592788255071324102e+02
1.724179319450278802e+00 4.591837760707761618e+02
1.724279341455119852e+00 4.590891271659601784e+02
1.724379363459961123e+00 4.589948770663668256e+02
1.724479385464802172e+00 4.589010240145466923e+02
1.724579407469643222e+00 4.588075662221614266e+02
1.724679429474484493e+00 4.587145018702287871e+02
1.724779451479325321e+00 4.586218291093707649e+02
1.724879473484166370e+00 4.585295460600631259e+02
1.724979495489007419e+00 4.584376508128871137e+02
1.725079517493848469e+00 4.583461414287849038e+02
1.725179539498689518e+00 4.582550159393159674e+02
1.725279561503530790e+00 4.581642723469172438e+02
1.725379583508371839e+00 4.580739086251625167e+02
1.725479605513212666e+00 4.579839227190284987e+02
1.725579627518053716e+00 4.578943125451585274e+02
1.725679649522894987e+00 4.578050759921317763e+02
1.725779671527736037e+00 4.577162109207336584e+02
1.725879693532577086e+00 4.576277151642273111e+02
1.725979715537418135e+00 4.575395865286286607e+02
1.726079737542259185e+00 4.574518227929821705e+02
1.726179759547100012e+00 4.573644217096396005e+02
1.726279781551941284e+00 4.572773810045420646e+02
1.726379803556782333e+00 4.571906983775002686e+02
1.726479825561623382e+00 4.571043715024807170e+02
1.726579847566464654e+00 4.570183980278914078e+02
1.726679869571305703e+00 4.569327755768714496e+02
1.726779891576146753e+00 4.568475017475795994e+02
1.726879913580987580e+00 4.567625741134892223e+02
1.726979935585828629e+00 4.566779902236790463e+02
1.727079957590669679e+00 4.565937476031318170e+02
1.727179979595510950e+00 4.565098437530316460e+02
1.727280001600352000e+00 4.564262761510619839e+02
1.727380023605193049e+00 4.563430422517086527e+02
1.727480045610034320e+00 4.562601394865623092e+02
1.727580067614875148e+00 4.561775652646240360e+02
1.727680089619716197e+00 4.560953169726091687e+02
1.727780111624557247e+00 4.560133919752576048e+02
1.727880133629398296e+00 4.559317876156449074e+02
1.727980155634239345e+00 4.558505012154890892e+02
1.728080177639080617e+00 4.557695300754684240e+02
1.728180199643921666e+00 4.556888714755317551e+02
1.728280221648762494e+00 4.556085226752176141e+02
1.728380243653603543e+00 4.555284809139710660e+02
1.728480265658444814e+00 4.554487434114597022e+02
1.728580287663285864e+00 4.553693073678978749e+02
1.728680309668126913e+00 4.552901699643663846e+02
1.728780331672967963e+00 4.552113283631358627e+02
1.728880353677809012e+00 4.551327797079920856e+02
1.728980375682649839e+00 4.550545211245611199e+02
1.729080397687491111e+00 4.549765497206357168e+02
1.729180419692332160e+00 4.548988625865051745e+02
1.729280441697173210e+00 4.548214567952848597e+02
1.729380463702014481e+00 4.547443294032457857e+02
1.729480485706855530e+00 4.546674774501477714e+02
1.729580507711696580e+00 4.545908979595726009e+02
1.729680529716537407e+00 4.545145879392584334e+02
1.729780551721378457e+00 4.544385443814340988e+02
1.729880573726219506e+00 4.543627642631577146e+02
1.729980595731060777e+00 4.542872445466528006e+02
1.730080617735901827e+00 4.542119821796464976e+02
1.730180639740742876e+00 4.541369740957114232e+02
1.730280661745584148e+00 4.540622172146039475e+02
1.730380683750424975e+00 4.539877084426068450e+02
1.730480705755266024e+00 4.539134446728709236e+02
1.730580727760107074e+00 4.538394227857600072e+02
1.730680749764948123e+00 4.537656396491926216e+02
1.730780771769789173e+00 4.536920921189896490e+02
1.730880793774630444e+00 4.536187770392176049e+02
1.730980815779471493e+00 4.535456912425373730e+02
1.731080837784312321e+00 4.534728315505494720e+02
1.731180859789153370e+00 4.534001947741442109e+02
1.731280881793994642e+00 4.533277777138486044e+02
1.731380903798835691e+00 4.532555771601756760e+02
1.731480925803676740e+00 4.531835898939756362e+02
1.731580947808517790e+00 4.531118126867859246e+02
1.731680969813358839e+00 4.530402423011812516e+02
1.731780991818199666e+00 4.529688754911270507e+02
1.731881013823040938e+00 4.528977090023291794e+02
1.731981035827881987e+00 4.528267395725898723e+02
1.732081057832723037e+00 4.527559639321568739e+02
1.732181079837564308e+00 4.526853788040793916e+02
1.732281101842405358e+00 4.526149809045620600e+02
1.732381123847246407e+00 4.525447669433172564e+02
1.732481145852087234e+00 4.524747336239211108e+02
1.732581167856928284e+00 4.524048776441680957e+02
1.732681189861769333e+00 4.523351956964252167e+02
1.732781211866610604e+00 4.522656844679891037e+02
1.732881233871451654e+00 4.521963406414394058e+02
1.732981255876292703e+00 4.521271608949950291e+02
1.733081277881133975e+00 4.520581419028713412e+02
1.733181299885974802e+00 4.519892803356349305e+02
1.733281321890815851e+00 4.519205728605593322e+02
1.733381343895656901e+00 4.518520161419812666e+02
1.733481365900497950e+00 4.517836068416578996e+02
1.733581387905339000e+00 4.517153416191218867e+02
1.733681409910180271e+00 4.516472171320369284e+02
1.733781431915021320e+00 4.515792300365556571e+02
1.733881453919862148e+00 4.515113769876733159e+02
1.733981475924703197e+00 4.514436546395854180e+02
1.734081497929544469e+00 4.513760596460417673e+02
1.734181519934385518e+00 4.513085886607030375e+02
1.734281541939226567e+00 4.512412383374974070e+02
1.734381563944067617e+00 4.511740053309708856e+02
1.734481585948908666e+00 4.511068862966467350e+02
1.734581607953749494e+00 4.510398778913786373e+02
1.734681629958590765e+00 4.509729767737041470e+02
1.734781651963431814e+00 4.509061796041974048e+02
1.734881673968272864e+00 4.508394830458254319e+02
1.734981695973114135e+00 4.507728837642986264e+02
1.735081717977955185e+00 4.507063784284234771e+02
1.735181739982796012e+00 4.506399637104570957e+02
1.735281761987637061e+00 4.505736362864540752e+02
1.735381783992478111e+00 4.505073928366226710e+02
1.735481805997319160e+00 4.504412300456709772e+02
1.735581828002160432e+00 4.503751446031585033e+02
1.735681850007001481e+00 4.503091332038458745e+02
1.735781872011842530e+00 4.502431925480431119e+02
1.735881894016683358e+00 4.501773193419551831e+02
1.735981916021524629e+00 4.501115102980330676e+02
1.736081938026365679e+00 4.500457621353167497e+02
1.736181960031206728e+00 4.499800715797825319e+02
1.736281982036047777e+00 4.499144353646873924e+02
1.736382004040888827e+00 4.498488502309126034e+02
1.736482026045730098e+00 4.497833129273073496e+02
1.736582048050570926e+00 4.497178202110310394e+02
1.736682070055411975e+00 4.496523688478935128e+02
1.736782092060253024e+00 4.495869556126970110e+02
1.736882114065094296e+00 4.495215772895738837e+02
1.736982136069935345e+00 4.494562306723258871e+02
1.737082158074776395e+00 4.493909125647616634e+02
1.737182180079617444e+00 4.493256197810319463e+02
1.737282202084458271e+00 4.492603491459658471e+02
1.737382224089299321e+00 4.491950974954042408e+02
1.737482246094140592e+00 4.491298616765326983e+02
1.737582268098981642e+00 4.490646385482141341e+02
1.737682290103822691e+00 4.489994249813164515e+02
1.737782312108663962e+00 4.489342178590464414e+02
1.737882334113505012e+00 4.488690140772721975e+02
1.737982356118345839e+00 4.488038105448548549e+02
1.738082378123186889e+00 4.487386041839711197e+02
1.738182400128027938e+00 4.486733919304381857e+02
1.738282422132868987e+00 4.486081707340349567e+02
1.738382444137710259e+00 4.485429375588260541e+02
1.738482466142551308e+00 4.484776893834797988e+02
1.738582488147392358e+00 4.484124232015853408e+02
1.738682510152233185e+00 4.483471360219730286e+02
1.738782532157074456e+00 4.482818248690257406e+02
1.738882554161915506e+00 4.482164867829956165e+02
1.738982576166756555e+00 4.481511188203155598e+02
1.739082598171597605e+00 4.480857180539086357e+02
1.739182620176438654e+00 4.480202815734985506e+02
1.739282642181279925e+00 4.479548064859162650e+02
1.739382664186120753e+00 4.478892899154059819e+02
1.739482686190961802e+00 4.478237290039287473e+02
1.739582708195802851e+00 4.477581209114644594e+02
1.739682730200644123e+00 4.476924628163131388e+02
1.739782752205485172e+00 4.476267519153937542e+02
1.739882774210326222e+00 4.475609854245392967e+02
1.739982796215167271e+00 4.474951605787932749e+02
1.740082818220008098e+00 4.474292746327037094e+02
1.740182840224849148e+00 4.473633248606117832e+02
1.740282862229690419e+00 4.472973085569435625e+02
1.740382884234531469e+00 4.472312230364967149e+02
1.740482906239372518e+00 4.471650656347248969e+02
1.740582928244213790e+00 4.470988337080229371e+02
1.740682950249054839e+00 4.470325246340065064e+02
1.740782972253895666e+00 4.469661358117934356e+02
1.740882994258736716e+00 4.468996646622785534e+02
1.740983016263577765e+00 4.468331086284127878e+02
1.741083038268418814e+00 4.467664651754703300e+02
1.741183060273260086e+00 4.466997317913259167e+02
1.741283082278101135e+00 4.466329059867194360e+02
1.741383104282942185e+00 4.465659852955243423e+02
1.741483126287783012e+00 4.464989672750108980e+02
1.741583148292624283e+00 4.464318495061099270e+02
1.741683170297465333e+00 4.463646295936704291e+02
1.741783192302306382e+00 4.462973051667198661e+02
1.741883214307147432e+00 4.462298738787167167e+02
1.741983236311988481e+00 4.461623334078049083e+02
1.742083258316829752e+00 4.460946814570655192e+02
1.742183280321670580e+00 4.460269157547622285e+02
1.742283302326511629e+00 4.459590340545888125e+02
1.742383324331352679e+00 4.458910341359122071e+02
1.742483346336193950e+00 4.458229138040144903e+02
1.742583368341034999e+00 4.457546708903287822e+02
1.742683390345876049e+00 4.456863032526778170e+02
1.742783412350717098e+00 4.456178087755049546e+02
1.742883434355557926e+00 4.455491853701081482e+02
1.742983456360398975e+00 4.454804309748662945e+02
1.743083478365240246e+00 4.454115435554639362e+02
1.743183500370081296e+00 4.453425211051165320e+02
1.743283522374922345e+00 4.452733616447903842e+02
1.743383544379763617e+00 4.452040632234203485e+02
1.743483566384604666e+00 4.451346239181252145e+02
1.743583588389445493e+00 4.450650418344205264e+02
1.743683610394286543e+00 4.449953151064268582e+02
1.743783632399127592e+00 4.449254418970784855e+02
1.743883654403968642e+00 4.448554203983280217e+02
1.743983676408809913e+00 4.447852488313475305e+02
1.744083698413650962e+00 4.447149254467266815e+02
1.744183720418492012e+00 4.446444485246699401e+02
1.744283742423332839e+00 4.445738163751882439e+02
1.744383764428174111e+00 4.445030273382919859e+02
1.744483786433015160e+00 4.444320797841748458e+02
1.744583808437856209e+00 4.443609721134027382e+02
1.744683830442697259e+00 4.442897027570912769e+02
1.744783852447538308e+00 4.442182701770878452e+02
1.744883874452379580e+00 4.441466728661461048e+02
1.744983896457220407e+00 4.440749093480987995e+02
1.745083918462061456e+00 4.440029781780281155e+02
1.745183940466902506e+00 4.439308779424331988e+02
1.745283962471743777e+00 4.438586072593934091e+02
1.745383984476584827e+00 4.437861647787293577e+02
1.745484006481425876e+00 4.437135491821605342e+02
1.745584028486266925e+00 4.436407591834627056e+02
1.745684050491107753e+00 4.435677935286150841e+02
1.745784072495948802e+00 4.434946509959543732e+02
1.745884094500790074e+00 4.434213303963157955e+02
1.745984116505631123e+00 4.433478305731803175e+02
1.746084138510472172e+00 4.432741504028093686e+02
1.746184160515313444e+00 4.432002887943841074e+02
1.746284182520154493e+00 4.431262446901386625e+02
1.746384204524995321e+00 4.430520170654882577e+02
1.746484226529836370e+00 4.429776049291577920e+02
1.746584248534677419e+00 4.429030073233054736e+02
1.746684270539518469e+00 4.428282233236407706e+02
1.746784292544359740e+00 4.427532520395454867e+02
1.746884314549200790e+00 4.426780926141839245e+02
1.746984336554041839e+00 4.426027442246167425e+02
1.747084358558882666e+00 4.425272060819073090e+02
1.747184380563723938e+00 4.424514774312243617e+02
1.747284402568564987e+00 4.423755575519448371e+02
1.747384424573406037e+00 4.422994457577520961e+02
1.747484446578247086e+00 4.422231413967271010e+02
1.747584468583088135e+00 4.421466438514434003e+02
1.747684490587929407e+00 4.420699525390515419e+02
1.747784512592770234e+00 4.419930669113659292e+02
1.747884534597611284e+00 4.419159864549435497e+02
1.747984556602452333e+00 4.418387106911640103e+02
1.748084578607293604e+00 4.417612391763019559e+02
1.748184600612134654e+00 4.416835715015987489e+02
1.748284622616975703e+00 4.416057072933299423e+02
1.748384644621816753e+00 4.415276462128706498e+02
1.748484666626657580e+00 4.414493879567535259e+02
1.748584688631498629e+00 4.413709322567287927e+02
1.748684710636339901e+00 4.412922788798173315e+02
1.748784732641180950e+00 4.412134276283606482e+02
1.748884754646021999e+00 4.411343783400682241e+02
1.748984776650863271e+00 4.410551308880626493e+02
1.749084798655704320e+00 4.409756851809170257e+02
1.749184820660545148e+00 4.408960411626947575e+02
1.749284842665386197e+00 4.408161988129801898e+02
1.749384864670227246e+00 4.407361581469114071e+02
1.749484886675068296e+00 4.406559192152032551e+02
1.749584908679909567e+00 4.405754821041743412e+02
1.749684930684750617e+00 4.404948469357615295e+02
1.749784952689591666e+00 4.404140138675409162e+02
1.749884974694432493e+00 4.403329830927372655e+02
1.749984996699273765e+00 4.402517548402336729e+02
1.750085018704114814e+00 4.401703293745784435e+02
1.750185040708955864e+00 4.400887069959848645e+02
1.750285062713796913e+00 4.400068880403309777e+02
1.750385084718637962e+00 4.399248728791561689e+02
1.750485106723479234e+00 4.398426619196492311e+02
1.750585128728320061e+00 4.397602556046405198e+02
1.750685150733161111e+00 4.396776544125818305e+02
1.750785172738002160e+00 4.395948588575332678e+02
1.750885194742843431e+00 4.395118694891348241e+02
1.750985216747684481e+00 4.394286868925844374e+02
1.751085238752525530e+00 4.393453116886084899e+02
1.751185260757366580e+00 4.392617445334252579e+02
1.751285282762207407e+00 4.391779861187130791e+02
1.751385304767048456e+00 4.390940371715668107e+02
1.751485326771889728e+00 4.390098984544573000e+02
1.751585348776730777e+00 4.389255707651816465e+02
1.751685370781571827e+00 4.388410549368147713e+02
1.751785392786413098e+00 4.387563518376546199e+02
1.751885414791254147e+00 4.386714623711644663e+02
1.751985436796094975e+00 4.385863874759132273e+02
1.752085458800936024e+00 4.385011281255098652e+02
1.752185480805777074e+00 4.384156853285344937e+02
1.752285502810618123e+00 4.383300601284710751e+02
1.752385524815459394e+00 4.382442536036272145e+02
1.752485546820300444e+00 4.381582668670593534e+02
1.752585568825141271e+00 4.380721010664899495e+02
1.752685590829982321e+00 4.379857573842226088e+02
1.752785612834823592e+00 4.378992370370524441e+02
1.752885634839664641e+00 4.378125412761750113e+02
1.752985656844505691e+00 4.377256713870885392e+02
1.753085678849346740e+00 4.376386286894992850e+02
1.753185700854187790e+00 4.375514145372132475e+02
1.753285722859028617e+00 4.374640303180349861e+02
1.753385744863869888e+00 4.373764774536558662e+02
1.753485766868710938e+00 4.372887573995417370e+02
1.753585788873551987e+00 4.372008716448171981e+02
1.753685810878393259e+00 4.371128217121458306e+02
1.753785832883234308e+00 4.370246091576067329e+02
1.753885854888075357e+00 4.369362355705687833e+02
1.753985876892916185e+00 4.368477025735616053e+02
1.754085898897757234e+00 4.367590118221408488e+02
1.754185920902598284e+00 4.366701650047527323e+02
1.754285942907439555e+00 4.365811638425945489e+02
1.754385964912280604e+00 4.364920100894711368e+02
1.754485986917121654e+00 4.364027055316491328e+02
1.754586008921962925e+00 4.363132519877065079e+02
1.754686030926803753e+00 4.362236513083801128e+02
1.754786052931644802e+00 4.361339053764080518e+02
1.754886074936485851e+00 4.360440161063735331e+02
1.754986096941326901e+00 4.359539854445379774e+02
1.755086118946167950e+00 4.358638153686783880e+02
1.755186140951009222e+00 4.357735078879148318e+02
1.755286162955850271e+00 4.356830650425420686e+02
1.755386184960691098e+00 4.355924889038502670e+02
1.755486206965532148e+00 4.355017815739465732e+02
1.755586228970373419e+00 4.354109451855765656e+02
1.755686250975214469e+00 4.353199819019333745e+02
1.755786272980055518e+00 4.352288939164752719e+02
1.755886294984896567e+00 4.351376834527296182e+02
1.755986316989737617e+00 4.350463527641003338e+02
1.756086338994578444e+00 4.349549041336714481e+02
1.756186360999419716e+00 4.348633398740021221e+02
1.756286383004260765e+00 4.347716623269287766e+02
1.756386405009101814e+00 4.346798738633524977e+02
1.756486427013943086e+00 4.345879768830333205e+02
1.756586449018784135e+00 4.344959738143752475e+02
1.756686471023625185e+00 4.344038671142110388e+02
1.756786493028466012e+00 4.343116592675834227e+02
1.756886515033307061e+00 4.342193527875225527e+02
1.756986537038148111e+00 4.341269502148227275e+02
1.757086559042989382e+00 4.340344541178135955e+02
1.757186581047830432e+00 4.339418670921290868e+02
1.757286603052671481e+00 4.338491917604768560e+02
1.757386625057512752e+00 4.337564307723972661e+02
1.757486647062353580e+00 4.336635868040295350e+02
1.757586669067194629e+00 4.335706625578663420e+02
1.757686691072035678e+00 4.334776607625106521e+02
1.757786713076876728e+00 4.333845841724262868e+02
1.757886735081717777e+00 4.332914355676914511e+02
1.757986757086559049e+00 4.331982177537414600e+02
1.758086779091400098e+00 4.331049335611173774e+02
1.758186801096240925e+00 4.330115858452028306e+02
1.758286823101081975e+00 4.329181774859678171e+02
1.758386845105923246e+00 4.328247113877027346e+02
1.758486867110764296e+00 4.327311904787522963e+02
1.758586889115605345e+00 4.326376177112470032e+02
1.758686911120446394e+00 4.325439960608313186e+02
1.758786933125287444e+00 4.324503285263906491e+02
1.758886955130128271e+00 4.323566181297753701e+02
1.758986977134969543e+00 4.322628679155193367e+02
1.759086999139810592e+00 4.321690809505614652e+02
1.759187021144651641e+00 4.320752603239609471e+02
1.759287043149492913e+00 4.319814091466108152e+02
1.759387065154333962e+00 4.318875305509491227e+02
1.759487087159175012e+00 4.317936276906694957e+02
1.759587109164015839e+00 4.316997037404265143e+02
1.759687131168856888e+00 4.316057618955400130e+02
1.759787153173697938e+00 4.315118053716983013e+02
1.759887175178539209e+00 4.314178374046587123e+02
1.759987197183380259e+00 4.313238612499422970e+02
1.760087219188221308e+00 4.312298801825336909e+02
1.760187241193062579e+00 4.311358974965701236e+02
1.760287263197903407e+00 4.310419165050369656e+02
1.760387285202744456e+00 4.309479405394529863e+02
1.760487307207585506e+00 4.308539729495606707e+02
1.760587329212426555e+00 4.307600171030090337e+02
1.760687351217267604e+00 4.306660763850374565e+02
1.760787373222108876e+00 4.305721541981572500e+02
1.760887395226949925e+00 4.304782539618306600e+02
1.760987417231790753e+00 4.303843791121466893e+02
1.761087439236631802e+00 4.302905331014987951e+02
1.761187461241473073e+00 4.301967193982555955e+02
1.761287483246314123e+00 4.301029414864351565e+02
1.761387505251155172e+00 4.300092028653730267e+02
1.761487527255996222e+00 4.299155070493917492e+02
1.761587549260837271e+00 4.298218575674643489e+02
1.761687571265678098e+00 4.297282579628831058e+02
1.761787593270519370e+00 4.296347117929190631e+02
1.761887615275360419e+00 4.295412226284854000e+02
1.761987637280201469e+00 4.294477940537958034e+02
1.762087659285042740e+00 4.293544296660247710e+02
1.762187681289883789e+00 4.292611330749605258e+02
1.762287703294724839e+00 4.291679079026642967e+02
1.762387725299565666e+00 4.290747577831212993e+02
1.762487747304406716e+00 4.289816863618940488e+02
1.762587769309247765e+00 4.288886972957727153e+02
1.762687791314089036e+00 4.287957942524254236e+02
1.762787813318930086e+00 4.287029809100445163e+02
1.762887835323771135e+00 4.286102609569959441e+02
1.762987857328612407e+00 4.285176380914635388e+02
1.763087879333453234e+00 4.284251160210931744e+02
1.763187901338294283e+00 4.283326984626355056e+02
1.763287923343135333e+00 4.282403891415901853e+02
1.763387945347976382e+00 4.281481917918442832e+02
1.763487967352817432e+00 4.280561101553137178e+02
1.763587989357658703e+00 4.279641479815801972e+02
1.763688011362499752e+00 4.278723090275326513e+02
1.763788033367340580e+00 4.277805970569988858e+02
1.763888055372181629e+00 4.276890158403859914e+02
1.763988077377022901e+00 4.275975691543140442e+02
1.764088099381863950e+00 4.275062607812474766e+02
1.764188121386704999e+00 4.274150945091317908e+02
1.764288143391546049e+00 4.273240741310248723e+02
1.764388165396387098e+00 4.272332034447284741e+02
1.764488187401227925e+00 4.271424862524190758e+02
1.764588209406069197e+00 4.270519263602791966e+02
1.764688231410910246e+00 4.269615275781255264e+02
1.764788253415751296e+00 4.268712937190392722e+02
1.764888275420592567e+00 4.267812285989942893e+02
1.764988297425433617e+00 4.266913360364852110e+02
1.765088319430274666e+00 4.266016198521547267e+02
1.765188341435115493e+00 4.265120838684207456e+02
1.765288363439956543e+00 4.264227319091029926e+02
1.765388385444797592e+00 4.263335677990493764e+02
1.765488407449638864e+00 4.262445953637613911e+02
1.765588429454479913e+00 4.261558184290220197e+02
1.765688451459320962e+00 4.260672408205164174e+02
1.765788473464162234e+00 4.259788663634627142e+02
1.765888495469003061e+00 4.258906988822323569e+02
1.765988517473844110e+00 4.258027421999784110e+02
1.766088539478685160e+00 4.257150001382577784e+02
1.766188561483526209e+00 4.256274765166562588e+02
1.766288583488367259e+00 4.255401751524154861e+02
1.766388605493208530e+00 4.254530998600550902e+02
1.766488627498049580e+00 4.253662544509974168e+02
1.766588649502890407e+00 4.252796427331940663e+02
1.766688671507731456e+00 4.251932685107495900e+02
1.766788693512572728e+00 4.251071355835470058e+02
1.766888715517413777e+00 4.250212477468730867e+02
1.766988737522254826e+00 4.249356087910428528e+02
1.767088759527095876e+00 4.248502225010284405e+02
1.767188781531936925e+00 4.247650926560815492e+02
1.767288803536777753e+00 4.246802230293624234e+02
1.767388825541619024e+00 4.245956173875655395e+02
1.767488847546460073e+00 4.245112794905492137e+02
1.767588869551301123e+00 4.244272130909599241e+02
1.767688891556142394e+00 4.243434219338639082e+02
1.767788913560983444e+00 4.242599097563750092e+02
1.767888935565824493e+00 4.241766802872831477e+02
1.767988957570665320e+00 4.240937372466867714e+02
1.768088979575506370e+00 4.240110843456230327e+02
1.768189001580347419e+00 4.239287252856972827e+02
1.768289023585188691e+00 4.238466637587190462e+02
1.768389045590029740e+00 4.237649034463324256e+02
1.768489067594870789e+00 4.236834480196520190e+02
1.768589089599712061e+00 4.236023011388962232e+02
1.768689111604552888e+00 4.235214664530247433e+02
1.768789133609393938e+00 4.234409475993738852e+02
1.768889155614234987e+00 4.233607482032950884e+02
1.768989177619076036e+00 4.232808718777949366e+02
1.769089199623917086e+00 4.232013222231727809e+02
1.769189221628758357e+00 4.231221028266630242e+02
1.769289243633599407e+00 4.230432172620782012e+02
1.769389265638440234e+00 4.229646690894504673e+02
1.769489287643281283e+00 4.228864618546776342e+02
1.769589309648122555e+00 4.228085990891693200e+02
1.769689331652963604e+00 4.227310843094923030e+02
1.769789353657804654e+00 4.226539210170205365e+02
1.769889375662645703e+00 4.225771126975864718e+02
1.769989397667486530e+00 4.225006628211291400e+02
1.770089419672327580e+00 4.224245748413491697e+02
1.770189441677168851e+00 4.223488521953626673e+02
1.770289463682009901e+00 4.222734983033576555e+02
1.770389485686850950e+00 4.221985165682504544e+02
1.770489507691692221e+00 4.221239103753453605e+02
1.770589529696533271e+00 4.220496830919968829e+02
1.770689551701374098e+00 4.219758380672674321e+02
1.770789573706215148e+00 4.219023786315975713e+02
1.770889595711056197e+00 4.218293080964677984e+02
1.770989617715897246e+00 4.217566297540686264e+02
1.771089639720738518e+00 4.216843468769679362e+02
1.771189661725579567e+00 4.216124627177837851e+02
1.771289683730420617e+00 4.215409805088579560e+02
1.771389705735261444e+00 4.214699034619305849e+02
1.771489727740102715e+00 4.213992347678175747e+02
1.771589749744943765e+00 4.213289775960912493e+02
1.771689771749784814e+00 4.212591350947585624e+02
1.771789793754625864e+00 4.211897103899480612e+02
1.771889815759466913e+00 4.211207065855936662e+02
1.771989837764308184e+00 4.210521267631227715e+02
1.772089859769149012e+00 4.209839739811461072e+02
1.772189881773990061e+00 4.209162512751492500e+02
1.772289903778831111e+00 4.208489616571897045e+02
1.772389925783672382e+00 4.207821081155908587e+02
1.772489947788513431e+00 4.207156936146411681e+02
1.772589969793354481e+00 4.206497210942978882e+02
1.772689991798195530e+00 4.205841934698894988e+02
1.772790013803036357e+00 4.205191136318218241e+02
1.772890035807877407e+00 4.204544844452878465e+02
1.772990057812718678e+00 4.203903087499770663e+02
1.773090079817559728e+00 4.203265893597925924e+02
1.773190101822400777e+00 4.202633290625636278e+02
1.773290123827242049e+00 4.202005306197689265e+02
1.773390145832083098e+00 4.201381967662540546e+02
1.773490167836923925e+00 4.200763302099582006e+02
1.773590189841764975e+00 4.200149336316430890e+02
1.773690211846606024e+00 4.199540096846166080e+02
1.773790233851447073e+00 4.198935609944727503e+02
1.773890255856288345e+00 4.198335901588221759e+02
1.773990277861129394e+00 4.197740997470310731e+02
1.774090299865970444e+00 4.197150922999639988e+02
1.774190321870811271e+00 4.196565703297256960e+02
1.774290343875652542e+00 4.195985363194095612e+02
1.774390365880493592e+00 4.195409927228456581e+02
1.774490387885334641e+00 4.194839419643563474e+02
1.774590409890175691e+00 4.194273864385090747e+02
1.774690431895016740e+00 4.193713285098756387e+02
1.774790453899858012e+00 4.193157705127965755e+02
1.774890475904698839e+00 4.192607147511427002e+02
1.774990497909539888e+00 4.192061634980863118e+02
1.775090519914380938e+00 4.191521189958691025e+02
1.775190541919222209e+00 4.190985834555794440e+02
1.775290563924063258e+00 4.190455590569291644e+02
1.775390585928904308e+00 4.189930479480331087e+02
1.775490607933745357e+00 4.189410522451942143e+02
1.775590629938586185e+00 4.188895740326921100e+02
1.775690651943427234e+00 4.188386153625698398e+02
1.775790673948268505e+00 4.187881782544333191e+02
1.775890695953109555e+00 4.187382646952438563e+02
1.775990717957950604e+00 4.186888766391214745e+02
1.776090739962791876e+00 4.186400160071483469e+02
1.776190761967632925e+00 4.185916846871758707e+02
1.776290783972473752e+00 4.185438845336361169e+02
1.776390805977314802e+00 4.184966173673562935e+02
1.776490827982155851e+00 4.184498849753767900e+02
1.776590849986996901e+00 4.184036891107719498e+02
1.776690871991838172e+00 4.183580314924765275e+02
1.776790893996679221e+00 4.183129138051111227e+02
1.776890916001520271e+00 4.182683376988190957e+02
1.776990938006361098e+00 4.182243047890980279e+02
1.777090960011202370e+00 4.181808166566408431e+02
1.777190982016043419e+00 4.181378748471788072e+02
1.777291004020884468e+00 4.180954808713280499e+02
1.777391026025725518e+00 4.180536362044400676e+02
1.777491048030566567e+00 4.180123422864549525e+02
1.777591070035407839e+00 4.179716005217598536e+02
1.777691092040248666e+00 4.179314122790506758e+02
1.777791114045089715e+00 4.178917788911973048e+02
1.777891136049930765e+00 4.178527016551105362e+02
1.777991158054772036e+00 4.178141818316183844e+02
1.778091180059613086e+00 4.177762206453404019e+02
1.778191202064454135e+00 4.177388192845678532e+02
1.778291224069295184e+00 4.177019789011492321e+02
1.778391246074136012e+00 4.176657006103774847e+02
1.778491268078977061e+00 4.176299854908825750e+02
1.778591290083818333e+00 4.175948345845264953e+02
1.778691312088659382e+00 4.175602488963036194e+02
1.778791334093500431e+00 4.175262293942438419e+02
1.778891356098341703e+00 4.174927770093205481e+02
1.778991378103182752e+00 4.174598926353628485e+02
1.779091400108023580e+00 4.174275771289681529e+02
1.779191422112864629e+00 4.173958313094246932e+02
1.779291444117705678e+00 4.173646559586331932e+02
1.779391466122546728e+00 4.173340518210342225e+02
1.779491488127387999e+00 4.173040196035406666e+02
1.779591510132229049e+00 4.172745599754707655e+02
1.779691532137070098e+00 4.172456735684900195e+02
1.779791554141910925e+00 4.172173609765516744e+02
1.779891576146752197e+00 4.171896227558466421e+02
1.779991598151593246e+00 4.171624594247529672e+02
1.780091620156434296e+00 4.171358714637922276e+02
1.780191642161275345e+00 4.171098593155877552e+02
1.780291664166116394e+00 4.170844233848307567e+02
1.780391686170957666e+00 4.170595640382438205e+02
1.780491708175798493e+00 4.170352816045555642e+02
1.780591730180639543e+00 4.170115763744757373e+02
1.780691752185480592e+00 4.169884486006732800e+02
1.780791774190321863e+00 4.169658984977621685e+02
1.780891796195162913e+00 4.169439262422881711e+02
1.780991818200003962e+00 4.169225319727216288e+02
1.781091840204845012e+00 4.169017157894509751e+02
1.781191862209685839e+00 4.168814777547864878e+02
1.781291884214526888e+00 4.168618178929619944e+02
1.781391906219368160e+00 4.168427361901436825e+02
1.781491928224209209e+00 4.168242325944426057e+02
1.781591950229050259e+00 4.168063070159310541e+02
1.781691972233891530e+00 4.167889593266636439e+02
1.781791994238732579e+00 4.167721893607009065e+02
1.781892016243573407e+00 4.167559969141383363e+02
1.781992038248414456e+00 4.167403817451401551e+02
1.782092060253255505e+00 4.167253435739746692e+02
1.782192082258096555e+00 4.167108820830562763e+02
1.782292104262937826e+00 4.166969969169904857e+02
1.782392126267778876e+00 4.166836876826220077e+02
1.782492148272619925e+00 4.166709539490896645e+02
1.782592170277460752e+00 4.166587952478827219e+02
1.782692192282302024e+00 4.166472110729004612e+02
1.782792214287143073e+00 4.166362008805215851e+02
1.782892236291984123e+00 4.166257640896694738e+02
1.782992258296825172e+00 4.166159000818889240e+02
1.783092280301666221e+00 4.166066082014215226e+02
1.783192302306507493e+00 4.165978877552878430e+02
1.783292324311348320e+00 4.165897380133732781e+02
1.783392346316189370e+00 4.165821582085164323e+02
1.783492368321030419e+00 4.165751475366058116e+02
1.783592390325871690e+00 4.165687051566728769e+02
1.783692412330712740e+00 4.165628301909977154e+02
1.783792434335553789e+00 4.165575217252113021e+02
1.783892456340394839e+00 4.165527788084075382e+02
1.783992478345235666e+00 4.165486004532553466e+02
1.784092500350076715e+00 4.165449856361166781e+02
1.784192522354917987e+00 4.165419332971665654e+02
1.784292544359759036e+00 4.165394423405203952e+02
1.784392566364600086e+00 4.165375116343608966e+02
1.784492588369441357e+00 4.165361400110731438e+02
1.784592610374282406e+00 4.165353262673802988e+02
1.784692632379123234e+00 4.165350691644837866e+02
1.784792654383964283e+00 4.165353674282096677e+02
1.784892676388805333e+00 4.165362197491563165e+02
1.784992698393646382e+00 4.165376247828450005e+02
1.785092720398487653e+00 4.165395811498792682e+02
1.785192742403328703e+00 4.165420874361018946e+02
1.785292764408169752e+00 4.165451421927588171e+02
1.785392786413010580e+00 4.165487439366690978e+02
1.785492808417851851e+00 4.165528911503920995e+02
1.785592830422692900e+00 4.165575822824058037e+02
1.785692852427533950e+00 4.165628157472822295e+02
1.785792874432374999e+00 4.165685899258721179e+02
1.785892896437216049e+00 4.165749031654889905e+02
1.785992918442057320e+00 4.165817537800997457e+02
1.786092940446898147e+00 4.165891400505165620e+02
1.786192962451739197e+00 4.165970602245944292e+02
1.786292984456580246e+00 4.166055125174313503e+02
1.786393006461421518e+00 4.166144951115701929e+02
1.786493028466262567e+00 4.166240061572091236e+02
1.786593050471103616e+00 4.166340437724102230e+02
1.786693072475944666e+00 4.166446060433129333e+02
1.786793094480785493e+00 4.166556910243541552e+02
1.786893116485626543e+00 4.166672967384870390e+02
1.786993138490467814e+00 4.166794211774074483e+02
1.787093160495308863e+00 4.166920623017803678e+02
1.787193182500149913e+00 4.167052180414707436e+02
1.787293204504991184e+00 4.167188862957798960e+02
1.787393226509832012e+00 4.167330649336817601e+02
1.787493248514673061e+00 4.167477517940643565e+02
1.787593270519514110e+00 4.167629446859736504e+02
1.787693292524355160e+00 4.167786413888626385e+02
1.787793314529196209e+00 4.167948396528398689e+02
1.787893336534037481e+00 4.168115371989253504e+02
1.787993358538878530e+00 4.168287317193055515e+02
1.788093380543719357e+00 4.168464208775959037e+02
1.788193402548560407e+00 4.168646023091011443e+02
1.788293424553401678e+00 4.168832736210836174e+02
1.788393446558242728e+00 4.169024323930319156e+02
1.788493468563083777e+00 4.169220761769315686e+02
1.788593490567924826e+00 4.169422024975440308e+02
1.788693512572765876e+00 4.169628088526796432e+02
1.788793534577606703e+00 4.169838927134811684e+02
1.788893556582447975e+00 4.170054515247093150e+02
1.788993578587289024e+00 4.170274827050252497e+02
1.789093600592130073e+00 4.170499836472830566e+02
1.789193622596971345e+00 4.170729517188195246e+02
1.789293644601812394e+00 4.170963842617512682e+02
1.789393666606653444e+00 4.171202785932702568e+02
1.789493688611494271e+00 4.171446320059452546e+02
1.789593710616335320e+00 4.171694417680230345e+02
1.789693732621176370e+00 4.171947051237357300e+02
1.789793754626017641e+00 4.172204192936056302e+02
1.789893776630858691e+00 4.172465814747591821e+02
1.789993798635699740e+00 4.172731888412357648e+02
1.790093820640541011e+00 4.173002385443069215e+02
1.790193842645381839e+00 4.173277277127902494e+02
1.790293864650222888e+00 4.173556534533724971e+02
1.790393886655063937e+00 4.173840128509286274e+02
1.790493908659904987e+00 4.174128029688486095e+02
1.790593930664746036e+00 4.174420208493647806e+02
1.790693952669587308e+00 4.174716635138776155e+02
1.790793974674428357e+00 4.175017279632888858e+02
1.790893996679269184e+00 4.175322111783364676e+02
1.790994018684110234e+00 4.175631101199256818e+02
1.791094040688951505e+00 4.175944217294709802e+02
1.791194062693792555e+00 4.176261429292303546e+02
1.791294084698633604e+00 4.176582706226517416e+02
1.791394106703474653e+00 4.176908016947128317e+02
1.791494128708315703e+00 4.177237330122675303e+02
1.791594150713156530e+00 4.177570614243923046e+02
1.791694172717997802e+00 4.177907837627340086e+02
1.791794194722838851e+00 4.178248968418638469e+02
1.791894216727679900e+00 4.178593974596249154e+02
1.791994238732521172e+00 4.178942823974894054e+02
1.792094260737362221e+00 4.179295484209123401e+02
1.792194282742203271e+00 4.179651922796897452e+02
1.792294304747044098e+00 4.180012107083158526e+02
1.792394326751885147e+00 4.180376004263448522e+02
1.792494348756726197e+00 4.180743581387511654e+02
1.792594370761567468e+00 4.181114805362926745e+02
1.792694392766408518e+00 4.181489642958761692e+02
1.792794414771249567e+00 4.181868060809205190e+02
1.792894436776090838e+00 4.182250025417262123e+02
1.792994458780931666e+00 4.182635503158416554e+02
1.793094480785772715e+00 4.183024460284348720e+02
1.793194502790613765e+00 4.183416862926591193e+02
1.793294524795454814e+00 4.183812677100312385e+02
1.793394546800295863e+00 4.184211868707988060e+02
1.793494568805137135e+00 4.184614403543160961e+02
1.793594590809978184e+00 4.185020247294182809e+02
1.793694612814819012e+00 4.185429365547978477e+02
1.793794634819660061e+00 4.185841723793793676e+02
1.793894656824501332e+00 4.186257287426972198e+02
1.793994678829342382e+00 4.186676021752761017e+02
1.794094700834183431e+00 4.187097891990049447e+02
1.794194722839024481e+00 4.187522863275214036e+02
1.794294744843865530e+00 4.187950900665885570e+02
1.794394766848706357e+00 4.188381969144757022e+02
1.794494788853547629e+00 4.188816033623434123e+02
1.794594810858388678e+00 4.189253058946205215e+02
1.794694832863229728e+00 4.189693009893884437e+02
1.794794854868070999e+00 4.190135851187638991e+02
1.794894876872912048e+00 4.190581547492818117e+02
1.794994898877753098e+00 4.191030063422791727e+02
1.795094920882593925e+00 4.191481363542765735e+02
1.795194942887434975e+00 4.191935412373647978e+02
1.795294964892276024e+00 4.192392174395864117e+02
1.795394986897117295e+00 4.192851614053213325e+02
1.795495008901958345e+00 4.193313695756709194e+02
1.795595030906799394e+00 4.193778383888416101e+02
1.795695052911640666e+00 4.194245642805296370e+02
1.795795074916481493e+00 4.194715436843043221e+02
1.795895096921322542e+00 4.195187730319943853e+02
1.795995118926163592e+00 4.195662487540686243e+02
1.796095140931004641e+00 4.196139672800233029e+02
1.796195162935845691e+00 4.196619250387616376e+02
1.796295184940686962e+00 4.197101184589810146e+02
1.796395206945528011e+00 4.197585439695524201e+02
1.796495228950368839e+00 4.198071979999053838e+02
1.796595250955209888e+00 4.198560769804089432e+02
1.796695272960051160e+00 4.199051773427527792e+02
1.796795294964892209e+00 4.199544955203287486e+02
1.796895316969733258e+00 4.200040279486122472e+02
1.796995338974574308e+00 4.200537710655402748e+02
1.797095360979415357e+00 4.201037213118916611e+02
1.797195382984256184e+00 4.201538751316658136e+02
1.797295404989097456e+00 4.202042289724587363e+02
1.797395426993938505e+00 4.202547792858429148e+02
1.797495448998779555e+00 4.203055225277406635e+02
1.797595471003620826e+00 4.203564551587992355e+02
1.797695493008461876e+00 4.204075736447672398e+02
1.797795515013302925e+00 4.204588744568659990e+02
1.797895537018143752e+00 4.205103540721626132e+02
1.797995559022984802e+00 4.205620089739392142e+02
1.798095581027825851e+00 4.206138356520666548e+02
1.798195603032667123e+00 4.206658306033684767e+02
1.798295625037508172e+00 4.207179903319920413e+02
1.798395647042349221e+00 4.207703113497743743e+02
1.798495669047190493e+00 4.208227901766052810e+02
1.798595691052031320e+00 4.208754233407925653e+02
1.798695713056872370e+00 4.209282073794229859e+02
1.798795735061713419e+00 4.209811388387246325e+02
1.798895757066554468e+00 4.210342142744258354e+02
1.798995779071395518e+00 4.210874302521104937e+02
1.799095801076236789e+00 4.211407833475769849e+02
1.799195823081077839e+00 4.211942701471925830e+02
1.799295845085918666e+00 4.212478872482439556e+02
1.799395867090759715e+00 4.213016312592906161e+02
1.799495889095600987e+00 4.213554988005133168e+02
1.799595911100442036e+00 4.214094865040619311e+02
1.799695933105283085e+00 4.214635910144004356e+02
1.799795955110124135e+00 4.215178089886518364e+02
1.799895977114965184e+00 4.215721370969391160e+02
1.799995999119806012e+00 4.216265720227262364e+02
1.800096021124647283e+00 4.216811104631547664e+02
1.800196043129488332e+00 4.217357491293809062e+02
1.800296065134329382e+00 4.217904847469087031e+02
1.800396087139170653e+00 4.218453140559207100e+02
1.800496109144011703e+00 4.219002338116096098e+02
1.800596131148852752e+00 4.219552407845046105e+02
1.800696153153693579e+00 4.220103317607947133e+02
1.800796175158534629e+00 4.220655035426532322e+02
1.800896197163375678e+00 4.221207529485582199e+02
1.800996219168216950e+00 4.221760768136090860e+02
1.801096241173057999e+00 4.222314719898433282e+02
1.801196263177899048e+00 4.222869353465486597e+02
1.801296285182740320e+00 4.223424637705750229e+02
1.801396307187581147e+00 4.223980541666388149e+02
1.801496329192422197e+00 4.224537034576353562e+02
1.801596351197263246e+00 4.225094085849332259e+02
1.801696373202104295e+00 4.225651665086809885e+02
1.801796395206945345e+00 4.226209742081020408e+02
1.801896417211786616e+00 4.226768286817896296e+02
1.801996439216627666e+00 4.227327269479976621e+02
1.802096461221468493e+00 4.227886660449329952e+02
1.802196483226309542e+00 4.228446430310389133e+02
1.802296505231150814e+00 4.229006549852787771e+02
1.802396527235991863e+00 4.229566990074190471e+02
1.802496549240832913e+00 4.230127722183040078e+02
1.802596571245673962e+00 4.230688717601324242e+02
1.802696593250515011e+00 4.231249947967284015e+02
1.802796615255355839e+00 4.231811385138094579e+02
1.802896637260197110e+00 4.232373001192534616e+02
1.802996659265038160e+00 4.232934768433588602e+02
1.803096681269879209e+00 4.233496659391082062e+02
1.803196703274720480e+00 4.234058646824180414e+02
1.803296725279561530e+00 4.234620703723971360e+02
1.803396747284402579e+00 4.235182803315931892e+02
1.803496769289243407e+00 4.235744919062414624e+02
1.803596791294084456e+00 4.236307024665049994e+02
1.803696813298925505e+00 4.236869094067173478e+02
1.803796835303766777e+00 4.237431101456170381e+02
1.803896857308607826e+00 4.237993021265809830e+02
1.803996879313448876e+00 4.238554828178548632e+02
1.804096901318290147e+00 4.239116497127777734e+02
1.804196923323130974e+00 4.239678003300069236e+02
1.804296945327972024e+00 4.240239322137348381e+02
1.804396967332813073e+00 4.240800429339063840e+02
1.804496989337654123e+00 4.241361300864303416e+02
1.804597011342495172e+00 4.241921912933880776e+02
1.804697033347336443e+00 4.242482242032377258e+02
1.804797055352177271e+00 4.243042264910172889e+02
1.804897077357018320e+00 4.243601958585397256e+02
1.804997099361859370e+00 4.244161300345892300e+02
1.805097121366700641e+00 4.244720267751105212e+02
1.805197143371541690e+00 4.245278838633947771e+02
1.805297165376382740e+00 4.245836991102642060e+02
1.805397187381223789e+00 4.246394703542480897e+02
1.805497209386064617e+00 4.246951954617611023e+02
1.805597231390905666e+00 4.247508723272734983e+02
1.805697253395746937e+00 4.248064988734781764e+02
1.805797275400587987e+00 4.248620730514541037e+02
1.805897297405429036e+00 4.249175928408276377e+02
1.805997319410270308e+00 4.249730562499279927e+02
1.806097341415111357e+00 4.250284613159386709e+02
1.806197363419952184e+00 4.250838061050448005e+02
1.806297385424793234e+00 4.251390887125798486e+02
1.806397407429634283e+00 4.251943072631630685e+02
1.806497429434475332e+00 4.252494599108380839e+02
1.806597451439316604e+00 4.253045448392030039e+02
1.806697473444157653e+00 4.253595602615397411e+02
1.806797495448998703e+00 4.254145044209383286e+02
1.806897517453839530e+00 4.254693755904163481e+02
1.806997539458680802e+00 4.255241720730348902e+02
1.807097561463521851e+00 4.255788922020124119e+02
1.807197583468362900e+00 4.256335343408300105e+02
1.807297605473203950e+00 4.256880968833358452e+02
1.807397627478044999e+00 4.257425782538472845e+02
1.807497649482886271e+00 4.257969769072432769e+02
1.807597671487727098e+00 4.258512913290575170e+02
1.807697693492568147e+00 4.259055200355651891e+02
1.807797715497409197e+00 4.259596615738666401e+02
1.807897737502250468e+00 4.260137145219657668e+02
1.807997759507091518e+00 4.260676774888447653e+02
1.808097781511932567e+00 4.261215491145372312e+02
1.808197803516773616e+00 4.261753280701897779e+02
1.808297825521614444e+00 4.262290130581282597e+02
1.808397847526455493e+00 4.262826028119152966e+02
1.808497869531296764e+00 4.263360960964030255e+02
1.808597891536137814e+00 4.263894917077834066e+02
1.808697913540978863e+00 4.264427884736331862e+02
1.808797935545820135e+00 4.264959852529562454e+02
1.808897957550661184e+00 4.265490809362194113e+02
1.808997979555502011e+00 4.266020744453860516e+02
1.809098001560343061e+00 4.266549647339446096e+02
1.809198023565184110e+00 4.267077507869319106e+02
1.809298045570025160e+00 4.267604316209557282e+02
1.809398067574866431e+00 4.268130062842071197e+02
1.809498089579707480e+00 4.268654738564750346e+02
1.809598111584548530e+00 4.269178334491527949e+02
1.809698133589389357e+00 4.269700842052417329e+02
1.809798155594230629e+00 4.270222252993482357e+02
1.809898177599071678e+00 4.270742559376809595e+02
1.809998199603912727e+00 4.271261753580406548e+02
1.810098221608753777e+00 4.271779828298061830e+02
1.810198243613594826e+00 4.272296776539160987e+02
1.810298265618436098e+00 4.272812591628469931e+02
1.810398287623276925e+00 4.273327267205878002e+02
1.810498309628117974e+00 4.273840797226088739e+02
1.810598331632959024e+00 4.274353175958273141e+02
1.810698353637800295e+00 4.274864397985669484e+02
1.810798375642641345e+00 4.275374458205176325e+02
1.810898397647482394e+00 4.275883351826854550e+02
1.810998419652323443e+00 4.276391074373436822e+02
1.811098441657164271e+00 4.276897621679755730e+02
1.811198463662005320e+00 4.277402989892146365e+02
1.811298485666846592e+00 4.277907175467826733e+02
1.811398507671687641e+00 4.278410175174186065e+02
1.811498529676528690e+00 4.278911986088102140e+02
1.811598551681369962e+00 4.279412605595151717e+02
1.811698573686211011e+00 4.279912031388813602e+02
1.811798595691051839e+00 4.280410261469632474e+02
1.811898617695892888e+00 4.280907294144329853e+02
1.811998639700733937e+00 4.281403128024881539e+02
1.812098661705574987e+00 4.281897762027556951e+02
1.812198683710416258e+00 4.282391195371893673e+02
1.812298705715257308e+00 4.282883427579679960e+02
1.812398727720098357e+00 4.283374458473859931e+02
1.812498749724939184e+00 4.283864288177394428e+02
1.812598771729780456e+00 4.284352917112120736e+02
1.812698793734621505e+00 4.284840345997537838e+02
1.812798815739462555e+00 4.285326575849553024e+02
1.812898837744303604e+00 4.285811607979218252e+02
1.812998859749144653e+00 4.286295443991401157e+02
1.813098881753985925e+00 4.286778085783431607e+02
1.813198903758826752e+00 4.287259535543689708e+02
1.813298925763667802e+00 4.287739795750186431e+02
1.813398947768508851e+00 4.288218869169083405e+02
1.813498969773350122e+00 4.288696758853179745e+02
1.813598991778191172e+00 4.289173468140374439e+02
1.813699013783032221e+00 4.289649000652062796e+02
1.813799035787873271e+00 4.290123360291516974e+02
1.813899057792714098e+00 4.290596551242250598e+02
1.813999079797555147e+00 4.291068577966279349e+02
1.814099101802396419e+00 4.291539445202430443e+02
1.814199123807237468e+00 4.292009157964546375e+02
1.814299145812078518e+00 4.292477721539686968e+02
1.814399167816919789e+00 4.292945141486292187e+02
1.814499189821760838e+00 4.293411423632308583e+02
1.814599211826601666e+00 4.293876574073281063e+02
1.814699233831442715e+00 4.294340599170380415e+02
1.814799255836283765e+00 4.294803505548473481e+02
1.814899277841124814e+00 4.295265300094059739e+02
1.814999299845966085e+00 4.295725989953257340e+02
1.815099321850807135e+00 4.296185582529705016e+02
1.815199343855648184e+00 4.296644085482460014e+02
1.815299365860489011e+00 4.297101506723828379e+02
1.815399387865330283e+00 4.297557854417220824e+02
1.815499409870171332e+00 4.298013136974898885e+02
1.815599431875012382e+00 4.298467363055768828e+02
1.815699453879853431e+00 4.298920541563083475e+02
1.815799475884694480e+00 4.299372681642134921e+02
1.815899497889535752e+00 4.299823792677925667e+02
1.815999519894376579e+00 4.300273884292801085e+02
1.816099541899217629e+00 4.300722966344040969e+02
1.816199563904058678e+00 4.301171048921427769e+02
1.816299585908899950e+00 4.301618142344809144e+02
1.816399607913740999e+00 4.302064257161581509e+02
1.816499629918582048e+00 4.302509404144199721e+02
1.816599651923423098e+00 4.302953594287614578e+02
1.816699673928263925e+00 4.303396838806697247e+02
1.816799695933104974e+00 4.303839149133655155e+02
1.816899717937946246e+00 4.304280536915387074e+02
1.816999739942787295e+00 4.304721014010842168e+02
1.817099761947628345e+00 4.305160592488317661e+02
1.817199783952469616e+00 4.305599284622762752e+02
1.817299805957310666e+00 4.306037102893046722e+02
1.817399827962151493e+00 4.306474059979195204e+02
1.817499849966992542e+00 4.306910168759601447e+02
1.817599871971833592e+00 4.307345442308219390e+02
1.817699893976674641e+00 4.307779893891733991e+02
1.817799915981515912e+00 4.308213536966695187e+02
1.817899937986356962e+00 4.308646385176641616e+02
1.817999959991198011e+00 4.309078452349191366e+02
1.818099981996038839e+00 4.309509752493123642e+02
1.818200004000880110e+00 4.309940299795424608e+02
1.818300026005721159e+00 4.310370108618310496e+02
1.818400048010562209e+00 4.310799193496242196e+02
1.818500070015403258e+00 4.311227569132912549e+02
1.818600092020244308e+00 4.311655250398208636e+02
1.818700114025085579e+00 4.312082252325158720e+02
1.818800136029926406e+00 4.312508590106858719e+02
1.818900158034767456e+00 4.312934279093379928e+02
1.819000180039608505e+00 4.313359334788661386e+02
1.819100202044449777e+00 4.313783772847372120e+02
1.819200224049290826e+00 4.314207609071763159e+02
1.819300246054131875e+00 4.314630859408515562e+02
1.819400268058972925e+00 4.315053539945543548e+02
1.819500290063813752e+00 4.315475666908808989e+02
1.819600312068654802e+00 4.315897256659089862e+02
1.819700334073496073e+00 4.316318325688769164e+02
1.819800356078337122e+00 4.316738890618578353e+02
1.819900378083178172e+00 4.317158968194336808e+02
1.820000400088019443e+00 4.317578575283682767e+02
1.820100422092860493e+00 4.317997728872790049e+02
1.820200444097701320e+00 4.318416446063057492e+02
1.820300466102542369e+00 4.318834744067789870e+02
1.820400488107383419e+00 4.319252640208899265e+02
1.820500510112224468e+00 4.319670151913529708e+02
1.820600532117065740e+00 4.320087296710742066e+02
1.820700554121906789e+00 4.320504092228138120e+02
1.820800576126747838e+00 4.320920556188483488e+02
1.820900598131588666e+00 4.321336706406339090e+02
1.821000620136429937e+00 4.321752560784669868e+02
1.821100642141270987e+00 4.322168137311447254e+02
1.821200664146112036e+00 4.322583454056232881e+02
1.821300686150953085e+00 4.322998529166777644e+02
1.821400708155794135e+00 4.323413380865587214e+02
1.821500730160635406e+00 4.323828027446492115e+02
1.821600752165476234e+00 4.324242487271235404e+02
1.821700774170317283e+00 4.324656778765996137e+02
1.821800796175158332e+00 4.325070920417963407e+02
1.821900818179999604e+00 4.325484930771879135e+02
1.822000840184840653e+00 4.325898828426585965e+02
1.822100862189681703e+00 4.326312632031563226e+02
1.822200884194522530e+00 4.326726360283453232e+02
1.822300906199363579e+00 4.327140031922608614e+02
1.822400928204204629e+00 4.327553665729616910e+02
1.822500950209045900e+00 4.327967280521825728e+02
1.822600972213886950e+00 4.328380895149877574e+02
1.822700994218727999e+00 4.328794528494221368e+02
1.822801016223569270e+00 4.329208199461645563e+02
1.822901038228410098e+00 4.329621926981818660e+02
1.823001060233251147e+00 4.330035730003786512e+02
1.823101082238092197e+00 4.330449627492508284e+02
1.823201104242933246e+00 4.330863638425405497e+02
1.823301126247774295e+00 4.331277781788851939e+02
1.823401148252615567e+00 4.331692076574743169e+02
1.823501170257456616e+00 4.332106541777015991e+02
1.823601192262297443e+00 4.332521196388184990e+02
1.823701214267138493e+00 4.332936059395890993e+02
1.823801236271979764e+00 4.333351149779435332e+02
1.823901258276820814e+00 4.333766486506357296e+02
1.824001280281661863e+00 4.334182088528968393e+02
1.824101302286502913e+00 4.334597974780924119e+02
1.824201324291343962e+00 4.335014164173789482e+02
1.824301346296184789e+00 4.335430675593623278e+02
1.824401368301026061e+00 4.335847527897556688e+02
1.824501390305867110e+00 4.336264739910379262e+02
1.824601412310708159e+00 4.336682330421164124e+02
1.824701434315549431e+00 4.337100318179833494e+02
1.824801456320390480e+00 4.337518721893830502e+02
1.824901478325231530e+00 4.337937560224695517e+02
1.825001500330072357e+00 4.338356851784732271e+02
1.825101522334913406e+00 4.338776615133667747e+02
1.825201544339754456e+00 4.339196868775279654e+02
1.825301566344595727e+00 4.339617631154102924e+02
1.825401588349436777e+00 4.340038920652082197e+02
1.825501610354277826e+00 4.340460755585299921e+02
1.825601632359119098e+00 4.340883154200654417e+02
1.825701654363959925e+00 4.341306134672616963e+02
1.825801676368800974e+00 4.341729715099946247e+02
1.825901698373642024e+00 4.342153913502443743e+02
1.826001720378483073e+00 4.342578747817733529e+02
1.826101742383324122e+00 4.343004235898036995e+02
1.826201764388165394e+00 4.343430395506959485e+02
1.826301786393006443e+00 4.343857244316336619e+02
1.826401808397847271e+00 4.344284799903031740e+02
1.826501830402688320e+00 4.344713079745808386e+02
1.826601852407529591e+00 4.345142101222201063e+02
1.826701874412370641e+00 4.345571881605368390e+02
1.826801896417211690e+00 4.346002438061034923e+02
1.826901918422052740e+00 4.346433787644398308e+02
1.827001940426893789e+00 4.346865947297067123e+02
1.827101962431734616e+00 4.347298933844031694e+02
1.827201984436575888e+00 4.347732763990643434e+02
1.827302006441416937e+00 4.348167454319620333e+02
1.827402028446257987e+00 4.348603021288068931e+02
1.827502050451099258e+00 4.349039481224544943e+02
1.827602072455940307e+00 4.349476850326094564e+02
1.827702094460781357e+00 4.349915144655378754e+02
1.827802116465622184e+00 4.350354380137752059e+02
1.827902138470463234e+00 4.350794572558446021e+02
1.828002160475304283e+00 4.351235737559685504e+02
1.828102182480145554e+00 4.351677890637900532e+02
1.828202204484986604e+00 4.352121047140923906e+02
1.828302226489827653e+00 4.352565222265248508e+02
1.828402248494668925e+00 4.353010431053258458e+02
1.828502270499509752e+00 4.353456688390530189e+02
1.828602292504350801e+00 4.353904009003144893e+02
1.828702314509191851e+00 4.354352407455036200e+02
1.828802336514032900e+00 4.354801898145334462e+02
1.828902358518873950e+00 4.355252495305786624e+02
1.829002380523715221e+00 4.355704212998140861e+02
1.829102402528556270e+00 4.356157065111646034e+02
1.829202424533397098e+00 4.356611065360478960e+02
1.829302446538238147e+00 4.357066227281287638e+02
1.829402468543079419e+00 4.357522564230698094e+02
1.829502490547920468e+00 4.357980089382908773e+02
1.829602512552761517e+00 4.358438815727251381e+02
1.829702534557602567e+00 4.358898756065848374e+02
1.829802556562443616e+00 4.359359923011240880e+02
1.829902578567284444e+00 4.359822328984101318e+02
1.830002600572125715e+00 4.360285986210914757e+02
1.830102622576966764e+00 4.360750906721771116e+02
1.830202644581807814e+00 4.361217102348109620e+02
1.830302666586649085e+00 4.361684584720545672e+02
1.830402688591490135e+00 4.362153365266721607e+02
1.830502710596331184e+00 4.362623455209170515e+02
1.830602732601172011e+00 4.363094865563240319e+02
1.830702754606013061e+00 4.363567607135028652e+02
1.830802776610854110e+00 4.364041690519359236e+02
1.830902798615695382e+00 4.364517126097800883e+02
1.831002820620536431e+00 4.364993924036714361e+02
1.831102842625377480e+00 4.365472094285322555e+02
1.831202864630218752e+00 4.365951646573838048e+02
1.831302886635059579e+00 4.366432590411592400e+02
1.831402908639900629e+00 4.366914935085245588e+02
1.831502930644741678e+00 4.367398689656995998e+02
1.831602952649582727e+00 4.367883862962829653e+02
1.831702974654423777e+00 4.368370463610830257e+02
1.831802996659265048e+00 4.368858499979492649e+02
1.831903018664106098e+00 4.369347980216083442e+02
1.832003040668946925e+00 4.369838912235077260e+02
1.832103062673787974e+00 4.370331303716541242e+02
1.832203084678629246e+00 4.370825162104666788e+02
1.832303106683470295e+00 4.371320494606244438e+02
1.832403128688311345e+00 4.371817308189225741e+02
1.832503150693152394e+00 4.372315609581319222e+02
1.832603172697993443e+00 4.372815405268615905e+02
1.832703194702834271e+00 4.373316701494244967e+02
1.832803216707675542e+00 4.373819504257082258e+02
1.832903238712516591e+00 4.374323819310507133e+02
1.833003260717357641e+00 4.374829652161144509e+02
1.833103282722198912e+00 4.375337008067738225e+02
1.833203304727039962e+00 4.375845892039952219e+02
1.833303326731881011e+00 4.376356308837326878e+02
1.833403348736721838e+00 4.376868262968164345e+02
1.833503370741562888e+00 4.377381758688538298e+02
1.833603392746403937e+00 4.377896800001297493e+02
1.833703414751245209e+00 4.378413390655125568e+02
1.833803436756086258e+00 4.378931534143637805e+02
1.833903458760927307e+00 4.379451233704521655e+02
1.834003480765768579e+00 4.379972492318696595e+02
1.834103502770609406e+00 4.380495312709552422e+02
1.834203524775450456e+00 4.381019697342193808e+02
1.834303546780291505e+00 4.381545648422738850e+02
1.834403568785132554e+00 4.382073167897660255e+02
1.834503590789973604e+00 4.382602257453172570e+02
1.834603612794814875e+00 4.383132918514630774e+02
1.834703634799655925e+00 4.383665152246011303e+02
1.834803656804496752e+00 4.384198959549401593e+02
1.834903678809337801e+00 4.384734341064549881e+02
1.835003700814179073e+00 4.385271297168446836e+02
1.835103722819020122e+00 4.385809827974946984e+02
1.835203744823861172e+00 4.386349933334431626e+02
1.835303766828702221e+00 4.386891612833537692e+02
1.835403788833543270e+00 4.387434865794861025e+02
1.835503810838384098e+00 4.387979691276804033e+02
1.835603832843225369e+00 4.388526088073355709e+02
1.835703854848066419e+00 4.389074054713996134e+02
1.835803876852907468e+00 4.389623589463592452e+02
1.835903898857748739e+00 4.390174690322356810e+02
1.836003920862589789e+00 4.390727355025846350e+02
1.836103942867430838e+00 4.391281581045001303e+02
1.836203964872271666e+00 4.391837365586214901e+02
1.836303986877112715e+00 4.392394705591459569e+02
1.836404008881953764e+00 4.392953597738452913e+02
1.836504030886795036e+00 4.393514038440841318e+02
1.836604052891636085e+00 4.394076023848463137e+02
1.836704074896477135e+00 4.394639549847628359e+02
1.836804096901318406e+00 4.395204612061428975e+02
1.836904118906159233e+00 4.395771205850126648e+02
1.837004140911000283e+00 4.396339326311544937e+02
1.837104162915841332e+00 4.396908968281522903e+02
1.837204184920682382e+00 4.397480126334415900e+02
1.837304206925523431e+00 4.398052794783584432e+02
1.837404228930364702e+00 4.398626967682026816e+02
1.837504250935205752e+00 4.399202638822928861e+02
1.837604272940046579e+00 4.399779801740364746e+02
1.837704294944887629e+00 4.400358449709949014e+02
1.837804316949728900e+00 4.400938575749590882e+02
1.837904338954569949e+00 4.401520172620259927e+02
1.838004360959410999e+00 4.402103232826803492e+02
1.838104382964252048e+00 4.402687748618788532e+02
1.838204404969093098e+00 4.403273711991399750e+02
1.838304426973933925e+00 4.403861114686368978e+02
1.838404448978775196e+00 4.404449948192939814e+02
1.838504470983616246e+00 4.405040203748894783e+02
1.838604492988457295e+00 4.405631872341574535e+02
1.838704514993298567e+00 4.406224944709004490e+02
1.838804536998139616e+00 4.406819411340977695e+02
1.838904559002980665e+00 4.407415262480258207e+02
1.839004581007821493e+00 4.408012488123766843e+02
1.839104603012662542e+00 4.408611078023808432e+02
1.839204625017503592e+00 4.409211021689395693e+02
1.839304647022344863e+00 4.409812308387510029e+02
1.839404669027185912e+00 4.410414927144504418e+02
1.839504691032026962e+00 4.411018866747468792e+02
1.839604713036867789e+00 4.411624115745677841e+02
1.839704735041709061e+00 4.412230662452038246e+02
1.839804757046550110e+00 4.412838494944605827e+02
1.839904779051391159e+00 4.413447601068133963e+02
1.840004801056232209e+00 4.414057968435616317e+02
