1.900018003960871393e+00 5.093443971373515069e+02
1.900118025965712443e+00 5.093397855058582877e+02
1.900218047970553270e+00 5.093351734240852693e+02
1.900318069975394319e+00 5.093305618212441459e+02
1.900418091980235591e+00 5.093259516285050950e+02
1.900518113985076640e+00 5.093213437787714497e+02
1.900618135989917690e+00 5.093167392064532919e+02
1.900718157994758739e+00 5.093121388472400213e+02
1.900818179999599788e+00 5.093075436378749146e+02
1.900918202004440616e+00 5.093029545159256486e+02
1.901018224009281887e+00 5.092983724195609625e+02
1.901118246014122937e+00 5.092937982873190776e+02
1.901218268018963986e+00 5.092892330578836777e+02
1.901318290023805258e+00 5.092846776698557392e+02
1.901418312028646307e+00 5.092801330615247366e+02
1.901518334033487356e+00 5.092756001706447933e+02
1.901618356038328184e+00 5.092710799342044083e+02
1.901718378043169233e+00 5.092665732882027214e+02
1.901818400048010282e+00 5.092620811674204333e+02
1.901918422052851554e+00 5.092576045051962410e+02
1.902018444057692603e+00 5.092531442331975882e+02
1.902118466062533653e+00 5.092487012811997147e+02
1.902218488067374924e+00 5.092442765768557820e+02
1.902318510072215751e+00 5.092398710454766615e+02
1.902418532077056801e+00 5.092354856098026517e+02
1.902518554081897850e+00 5.092311211897845169e+02
1.902618576086738900e+00 5.092267787023570236e+02
1.902718598091579949e+00 5.092224590612178190e+02
1.902818620096421220e+00 5.092181631766060264e+02
1.902918642101262270e+00 5.092138919550819764e+02
1.903018664106103097e+00 5.092096462993059163e+02
1.903118686110944147e+00 5.092054271078195598e+02
1.903218708115785418e+00 5.092012352748275816e+02
1.903318730120626467e+00 5.091970716899798504e+02
1.903418752125467517e+00 5.091929372381559347e+02
1.903518774130308566e+00 5.091888327992476206e+02
1.903618796135149616e+00 5.091847592479464879e+02
1.903718818139990443e+00 5.091807174535300646e+02
1.903818840144831714e+00 5.091767082796476984e+02
1.903918862149672764e+00 5.091727325841129641e+02
1.904018884154513813e+00 5.091687912186896483e+02
1.904118906159355085e+00 5.091648850288856920e+02
1.904218928164196134e+00 5.091610148537467353e+02
1.904318950169037183e+00 5.091571815256462514e+02
1.904418972173878011e+00 5.091533858700848896e+02
1.904518994178719060e+00 5.091496287054850995e+02
1.904619016183560110e+00 5.091459108429888829e+02
1.904719038188401381e+00 5.091422330862600347e+02
1.904819060193242430e+00 5.091385962312828042e+02
1.904919082198083480e+00 5.091350010661649321e+02
1.905019104202924751e+00 5.091314483709442698e+02
1.905119126207765579e+00 5.091279389173916456e+02
1.905219148212606628e+00 5.091244734688212930e+02
1.905319170217447677e+00 5.091210527798993439e+02
1.905419192222288727e+00 5.091176775964542003e+02
1.905519214227129776e+00 5.091143486552912805e+02
1.905619236231971048e+00 5.091110666840062322e+02
1.905719258236812097e+00 5.091078324008034883e+02
1.905819280241652924e+00 5.091046465143123783e+02
1.905919302246493974e+00 5.091015097234109703e+02
1.906019324251335245e+00 5.090984227170467875e+02
1.906119346256176295e+00 5.090953861740611046e+02
1.906219368261017344e+00 5.090924007630168262e+02
1.906319390265858393e+00 5.090894671420262512e+02
1.906419412270699443e+00 5.090865859585829867e+02
1.906519434275540270e+00 5.090837578493943738e+02
1.906619456280381542e+00 5.090809834402182332e+02
1.906719478285222591e+00 5.090782633456972803e+02
1.906819500290063640e+00 5.090755981692013847e+02
1.906919522294904912e+00 5.090729885026700003e+02
1.907019544299745961e+00 5.090704349264546522e+02
1.907119566304587011e+00 5.090679380091680741e+02
1.907219588309427838e+00 5.090654983075294240e+02
1.907319610314268887e+00 5.090631163662214931e+02
1.907419632319109937e+00 5.090607927177398437e+02
1.907519654323951208e+00 5.090585278822528608e+02
1.907619676328792258e+00 5.090563223674568007e+02
1.907719698333633307e+00 5.090541766684419827e+02
1.907819720338474578e+00 5.090520912675534078e+02
1.907919742343315406e+00 5.090500666342592240e+02
1.908019764348156455e+00 5.090481032250199860e+02
1.908119786352997505e+00 5.090462014831604733e+02
1.908219808357838554e+00 5.090443618387428160e+02
1.908319830362679603e+00 5.090425847084470661e+02
1.908419852367520875e+00 5.090408704954490418e+02
1.908519874372361924e+00 5.090392195893036842e+02
1.908619896377202751e+00 5.090376323658312003e+02
1.908719918382043801e+00 5.090361091870049677e+02
1.908819940386885072e+00 5.090346504008427360e+02
1.908919962391726122e+00 5.090332563413025468e+02
1.909019984396567171e+00 5.090319273281762662e+02
1.909120006401408220e+00 5.090306636669932914e+02
1.909220028406249048e+00 5.090294656489213594e+02
1.909320050411090097e+00 5.090283335506721301e+02
1.909420072415931369e+00 5.090272676344111460e+02
1.909520094420772418e+00 5.090262681476683611e+02
1.909620116425613467e+00 5.090253353232536142e+02
1.909720138430454739e+00 5.090244693791743771e+02
1.909820160435295788e+00 5.090236705185553774e+02
1.909920182440136616e+00 5.090229389295645319e+02
1.910020204444977665e+00 5.090222747853381406e+02
1.910120226449818714e+00 5.090216782439111967e+02
1.910220248454659764e+00 5.090211494481496857e+02
1.910320270459501035e+00 5.090206885256898204e+02
1.910420292464342085e+00 5.090202955888734095e+02
1.910520314469183134e+00 5.090199707346930609e+02
1.910620336474023961e+00 5.090197140447356787e+02
1.910720358478865233e+00 5.090195255851347724e+02
1.910820380483706282e+00 5.090194054065181604e+02
1.910920402488547332e+00 5.090193535439651100e+02
1.911020424493388381e+00 5.090193700169658655e+02
1.911120446498229430e+00 5.090194548293815160e+02
1.911220468503070702e+00 5.090196079694090940e+02
1.911320490507911529e+00 5.090198294095501410e+02
1.911420512512752579e+00 5.090201191065829107e+02
1.911520534517593628e+00 5.090204770015341182e+02
1.911620556522434899e+00 5.090209030196601816e+02
1.911720578527275949e+00 5.090213970704244844e+02
1.911820600532116998e+00 5.090219590474864049e+02
1.911920622536958048e+00 5.090225888286851159e+02
1.912020644541798875e+00 5.090232862760324224e+02
1.912120666546639924e+00 5.090240512357055422e+02
1.912220688551481196e+00 5.090248835380468222e+02
1.912320710556322245e+00 5.090257829975623167e+02
1.912420732561163295e+00 5.090267494129275292e+02
1.912520754566004566e+00 5.090277825669930394e+02
1.912620776570845615e+00 5.090288822267984301e+02
1.912720798575686443e+00 5.090300481435826896e+02
1.912820820580527492e+00 5.090312800528033108e+02
1.912920842585368542e+00 5.090325776741578352e+02
1.913020864590209591e+00 5.090339407116049415e+02
1.913120886595050862e+00 5.090353688533954255e+02
1.913220908599891912e+00 5.090368617720993711e+02
1.913320930604732961e+00 5.090384191246425303e+02
1.913420952609573789e+00 5.090400405523418499e+02
1.913520974614415060e+00 5.090417256809456603e+02
1.913620996619256109e+00 5.090434741206807985e+02
1.913721018624097159e+00 5.090452854662938194e+02
1.913821040628938208e+00 5.090471592971066457e+02
1.913921062633779258e+00 5.090490951770668744e+02
1.914021084638620529e+00 5.090510926548061548e+02
1.914121106643461356e+00 5.090531512636998741e+02
1.914221128648302406e+00 5.090552705219287191e+02
1.914321150653143455e+00 5.090574499325495026e+02
1.914421172657984727e+00 5.090596889835592833e+02
1.914521194662825776e+00 5.090619871479735252e+02
1.914621216667666825e+00 5.090643438838993120e+02
1.914721238672507875e+00 5.090667586346145868e+02
1.914821260677348702e+00 5.090692308286527350e+02
1.914921282682189752e+00 5.090717598798865424e+02
1.915021304687031023e+00 5.090743451876170980e+02
1.915121326691872072e+00 5.090769861366679265e+02
1.915221348696713122e+00 5.090796820974762795e+02
1.915321370701554393e+00 5.090824324261961351e+02
1.915421392706395443e+00 5.090852364647952299e+02
1.915521414711236270e+00 5.090880935411619816e+02
1.915621436716077319e+00 5.090910029692126955e+02
1.915721458720918369e+00 5.090939640490010447e+02
1.915821480725759418e+00 5.090969760668323261e+02
1.915921502730600690e+00 5.091000382953817507e+02
1.916021524735441739e+00 5.091031499938098932e+02
1.916121546740282788e+00 5.091063104078891683e+02
1.916221568745123616e+00 5.091095187701272380e+02
1.916321590749964887e+00 5.091127742998965005e+02
1.916421612754805937e+00 5.091160762035646599e+02
1.916521634759646986e+00 5.091194236746285355e+02
1.916621656764488035e+00 5.091228158938532715e+02
1.916721678769329085e+00 5.091262520294097840e+02
1.916821700774170356e+00 5.091297312370183477e+02
1.916921722779011183e+00 5.091332526600954793e+02
1.917021744783852233e+00 5.091368154298997410e+02
1.917121766788693282e+00 5.091404186656840807e+02
1.917221788793534554e+00 5.091440614748510143e+02
1.917321810798375603e+00 5.091477429531064445e+02
1.917421832803216653e+00 5.091514621846205273e+02
1.917521854808057702e+00 5.091552182421885959e+02
1.917621876812898529e+00 5.091590101873958929e+02
1.917721898817739579e+00 5.091628370707849172e+02
1.917821920822580850e+00 5.091666979320240216e+02
1.917921942827421899e+00 5.091705918000794782e+02
1.918021964832262949e+00 5.091745176933915218e+02
1.918121986837104220e+00 5.091784746200489167e+02
1.918222008841945270e+00 5.091824615779709120e+02
1.918322030846786097e+00 5.091864775550867535e+02
1.918422052851627146e+00 5.091905215295219023e+02
1.918522074856468196e+00 5.091945924697819237e+02
1.918622096861309245e+00 5.091986893349450156e+02
1.918722118866150517e+00 5.092028110748497056e+02
1.918822140870991566e+00 5.092069566302895964e+02
1.918922162875832615e+00 5.092111249332091916e+02
1.919022184880673443e+00 5.092153149069016536e+02
1.919122206885514714e+00 5.092195254662067327e+02
1.919222228890355764e+00 5.092237555177159720e+02
1.919322250895196813e+00 5.092280039599735346e+02
1.919422272900037862e+00 5.092322696836852742e+02
1.919522294904878912e+00 5.092365515719230871e+02
1.919622316909720183e+00 5.092408485003383021e+02
1.919722338914561011e+00 5.092451593373722858e+02
1.919822360919402060e+00 5.092494829444688094e+02
1.919922382924243109e+00 5.092538181762930094e+02
1.920022404929084381e+00 5.092581638809450055e+02
1.920122426933925430e+00 5.092625189001821013e+02
1.920222448938766480e+00 5.092668820696379726e+02
1.920322470943607529e+00 5.092712522190454365e+02
1.920422492948448356e+00 5.092756281724614382e+02
1.920522514953289406e+00 5.092800087484930600e+02
1.920622536958130677e+00 5.092843927605227918e+02
1.920722558962971727e+00 5.092887790169400546e+02
1.920822580967812776e+00 5.092931663213707907e+02
1.920922602972654047e+00 5.092975534729078504e+02
1.921022624977495097e+00 5.093019392663471194e+02
1.921122646982335924e+00 5.093063224924193264e+02
1.921222668987176974e+00 5.093107019380269094e+02
1.921322690992018023e+00 5.093150763864830424e+02
1.921422712996859072e+00 5.093194446177464556e+02
1.921522735001700344e+00 5.093238054086638158e+02
1.921622757006541393e+00 5.093281575332104580e+02
1.921722779011382443e+00 5.093324997627298103e+02
1.921822801016223270e+00 5.093368308661792412e+02
1.921922823021064541e+00 5.093411496103724403e+02
1.922022845025905591e+00 5.093454547602227649e+02
1.922122867030746640e+00 5.093497450789939762e+02
1.922222889035587690e+00 5.093540193285409714e+02
1.922322911040428739e+00 5.093582762695608039e+02
1.922422933045270010e+00 5.093625146618404074e+02
1.922522955050110838e+00 5.093667332645044326e+02
1.922622977054951887e+00 5.093709308362668935e+02
1.922722999059792937e+00 5.093751061356804257e+02
1.922823021064634208e+00 5.093792579213862837e+02
1.922923043069475257e+00 5.093833849523671802e+02
1.923023065074316307e+00 5.093874859881997850e+02
1.923123087079157356e+00 5.093915597893054610e+02
1.923223109083998184e+00 5.093956051172044113e+02
1.923323131088839233e+00 5.093996207347684049e+02
1.923423153093680504e+00 5.094036054064749806e+02
1.923523175098521554e+00 5.094075578986599453e+02
1.923623197103362603e+00 5.094114769797733970e+02
1.923723219108203875e+00 5.094153614206321095e+02
1.923823241113044924e+00 5.094192099946748726e+02
1.923923263117885751e+00 5.094230214782173221e+02
1.924023285122726801e+00 5.094267946507052329e+02
1.924123307127567850e+00 5.094305282949706566e+02
1.924223329132408900e+00 5.094342211974841348e+02
1.924323351137250171e+00 5.094378721486109498e+02
1.924423373142091220e+00 5.094414799428650440e+02
1.924523395146932270e+00 5.094450433791620867e+02
1.924623417151773097e+00 5.094485612610737917e+02
1.924723439156614369e+00 5.094520323970808136e+02
1.924823461161455418e+00 5.094554556008274631e+02
1.924923483166296467e+00 5.094588296913715908e+02
1.925023505171137517e+00 5.094621534934395299e+02
1.925123527175978566e+00 5.094654258376766620e+02
1.925223549180819838e+00 5.094686455608980964e+02
1.925323571185660665e+00 5.094718115063405435e+02
1.925423593190501714e+00 5.094749225239103225e+02
1.925523615195342764e+00 5.094779774704356896e+02
1.925623637200184035e+00 5.094809752099134812e+02
1.925723659205025085e+00 5.094839146137562693e+02
1.925823681209866134e+00 5.094867945610405400e+02
1.925923703214707183e+00 5.094896139387527114e+02
1.926023725219548011e+00 5.094923716420350388e+02
1.926123747224389060e+00 5.094950665744275966e+02
1.926223769229230331e+00 5.094976976481133306e+02
1.926323791234071381e+00 5.095002637841594151e+02
1.926423813238912430e+00 5.095027639127603720e+02
1.926523835243753702e+00 5.095051969734737440e+02
1.926623857248594529e+00 5.095075619154638389e+02
1.926723879253435578e+00 5.095098576977354696e+02
1.926823901258276628e+00 5.095120832893709917e+02
1.926923923263117677e+00 5.095142376697658051e+02
1.927023945267958727e+00 5.095163198288625495e+02
1.927123967272799998e+00 5.095183287673808081e+02
1.927223989277641047e+00 5.095202634970497115e+02
1.927324011282481875e+00 5.095221230408365045e+02
1.927424033287322924e+00 5.095239064331731242e+02
1.927524055292164196e+00 5.095256127201828917e+02
1.927624077297005245e+00 5.095272409599051571e+02
1.927724099301846294e+00 5.095287902225165908e+02
1.927824121306687344e+00 5.095302595905527028e+02
1.927924143311528393e+00 5.095316481591270303e+02
1.928024165316369221e+00 5.095329550361475413e+02
1.928124187321210492e+00 5.095341793425336618e+02
1.928224209326051541e+00 5.095353202124264271e+02
1.928324231330892591e+00 5.095363767934034058e+02
1.928424253335733862e+00 5.095373482466861788e+02
1.928524275340574912e+00 5.095382337473480447e+02
1.928624297345415961e+00 5.095390324845195664e+02
1.928724319350256788e+00 5.095397436615915012e+02
1.928824341355097838e+00 5.095403664964159134e+02
1.928924363359938887e+00 5.095409002215050691e+02
1.929024385364780159e+00 5.095413440842278305e+02
1.929124407369621208e+00 5.095416973470035487e+02
1.929224429374462257e+00 5.095419592874958425e+02
1.929324451379303529e+00 5.095421291987990458e+02
1.929424473384144356e+00 5.095422063896283476e+02
1.929524495388985406e+00 5.095421901845027151e+02
1.929624517393826455e+00 5.095420799239270764e+02
1.929724539398667504e+00 5.095418749645747880e+02
1.929824561403508554e+00 5.095415746794596998e+02
1.929924583408349825e+00 5.095411784581159509e+02
1.930024605413190875e+00 5.095406857067670217e+02
1.930124627418031702e+00 5.095400958484948433e+02
1.930224649422872751e+00 5.095394083234082814e+02
1.930324671427714023e+00 5.095386225888046852e+02
1.930424693432555072e+00 5.095377381193331416e+02
1.930524715437396122e+00 5.095367544071505108e+02
1.930624737442237171e+00 5.095356709620790525e+02
1.930724759447078220e+00 5.095344873117566067e+02
1.930824781451919048e+00 5.095332030017885927e+02
1.930924803456760319e+00 5.095318175958921643e+02
1.931024825461601369e+00 5.095303306760433770e+02
1.931124847466442418e+00 5.095287418426131012e+02
1.931224869471283689e+00 5.095270507145085048e+02
1.931324891476124739e+00 5.095252569293066927e+02
1.931424913480965788e+00 5.095233601433862987e+02
1.931524935485806616e+00 5.095213600320536784e+02
1.931624957490647665e+00 5.095192562896712047e+02
1.931724979495488714e+00 5.095170486297777188e+02
1.931825001500329986e+00 5.095147367852076172e+02
1.931925023505171035e+00 5.095123205082059030e+02
1.932025045510012085e+00 5.095097995705408493e+02
1.932125067514853356e+00 5.095071737636134799e+02
1.932225089519694183e+00 5.095044428985624450e+02
1.932325111524535233e+00 5.095016068063665671e+02
1.932425133529376282e+00 5.094986653379435779e+02
1.932525155534217332e+00 5.094956183642467522e+02
1.932625177539058381e+00 5.094924657763555160e+02
1.932725199543899652e+00 5.094892074855640658e+02
1.932825221548740702e+00 5.094858434234693618e+02
1.932925243553581529e+00 5.094823735420490038e+02
1.933025265558422578e+00 5.094787978137416076e+02
1.933125287563263850e+00 5.094751162315214401e+02
1.933225309568104899e+00 5.094713288089688490e+02
1.933325331572945949e+00 5.094674355803380195e+02
1.933425353577786998e+00 5.094634366006218897e+02
1.933525375582628048e+00 5.094593319456107565e+02
1.933625397587468875e+00 5.094551217119501416e+02
1.933725419592310146e+00 5.094508060171940542e+02
1.933825441597151196e+00 5.094463849998535352e+02
1.933925463601992245e+00 5.094418588194430981e+02
1.934025485606833517e+00 5.094372276565222251e+02
1.934125507611674566e+00 5.094324917127342474e+02
1.934225529616515615e+00 5.094276512108412476e+02
1.934325551621356443e+00 5.094227063947534475e+02
1.934425573626197492e+00 5.094176575295580278e+02
1.934525595631038541e+00 5.094125049015408422e+02
1.934625617635879813e+00 5.094072488182079610e+02
1.934725639640720862e+00 5.094018896083001096e+02
1.934825661645561912e+00 5.093964276218051168e+02
1.934925683650403183e+00 5.093908632299663850e+02
1.935025705655244010e+00 5.093851968252857887e+02
1.935125727660085060e+00 5.093794288215264032e+02
1.935225749664926109e+00 5.093735596537086394e+02
1.935325771669767159e+00 5.093675897781018875e+02
1.935425793674608208e+00 5.093615196722143423e+02
1.935525815679449479e+00 5.093553498347799859e+02
1.935625837684290529e+00 5.093490807857362483e+02
1.935725859689131356e+00 5.093427130662049080e+02
1.935825881693972406e+00 5.093362472384648072e+02
1.935925903698813677e+00 5.093296838859203035e+02
1.936025925703654726e+00 5.093230236130681874e+02
1.936125947708495776e+00 5.093162670454605632e+02
1.936225969713336825e+00 5.093094148296611365e+02
1.936325991718177875e+00 5.093024676332011609e+02
1.936426013723018702e+00 5.092954261445293014e+02
1.936526035727859973e+00 5.092882910729578043e+02
1.936626057732701023e+00 5.092810631486057105e+02
1.936726079737542072e+00 5.092737431223374074e+02
1.936826101742383344e+00 5.092663317656974300e+02
1.936926123747224393e+00 5.092588298708424190e+02
1.937026145752065442e+00 5.092512382504673951e+02
1.937126167756906270e+00 5.092435577377292475e+02
1.937226189761747319e+00 5.092357891861670396e+02
1.937326211766588369e+00 5.092279334696172555e+02
1.937426233771429640e+00 5.092199914821250673e+02
1.937526255776270689e+00 5.092119641378530446e+02
1.937626277781111739e+00 5.092038523709861693e+02
1.937726299785953010e+00 5.091956571356307677e+02
1.937826321790793838e+00 5.091873794057118516e+02
1.937926343795634887e+00 5.091790201748656273e+02
1.938026365800475936e+00 5.091705804563290485e+02
1.938126387805316986e+00 5.091620612828255616e+02
1.938226409810158035e+00 5.091534637064448816e+02
1.938326431814999307e+00 5.091447887985228817e+02
1.938426453819840356e+00 5.091360376495139803e+02
1.938526475824681183e+00 5.091272113688626746e+02
1.938626497829522233e+00 5.091183110848706406e+02
1.938726519834363504e+00 5.091093379445571827e+02
1.938826541839204554e+00 5.091002931135210474e+02
1.938926563844045603e+00 5.090911777757958703e+02
1.939026585848886652e+00 5.090819931337013600e+02
1.939126607853727702e+00 5.090727404076924358e+02
1.939226629858568529e+00 5.090634208362029085e+02
1.939326651863409801e+00 5.090540356754878530e+02
1.939426673868250850e+00 5.090445861994624011e+02
1.939526695873091899e+00 5.090350736995326315e+02
1.939626717877933171e+00 5.090254994844297016e+02
1.939726739882774220e+00 5.090158648800348828e+02
1.939826761887615270e+00 5.090061712292041420e+02
1.939926783892456097e+00 5.089964198915891984e+02
1.940026805897297146e+00 5.089866122434518729e+02
1.940126827902138196e+00 5.089767496774802567e+02
1.940226849906979467e+00 5.089668336025975464e+02
1.940326871911820517e+00 5.089568654437692317e+02
1.940426893916661566e+00 5.089468466418056209e+02
1.940526915921502837e+00 5.089367786531636284e+02
1.940626937926343665e+00 5.089266629497423082e+02
1.940726959931184714e+00 5.089165010186764562e+02
1.940826981936025764e+00 5.089062943621287900e+02
1.940927003940866813e+00 5.088960444970758772e+02
1.941027025945707862e+00 5.088857529550905383e+02
1.941127047950549134e+00 5.088754212821280589e+02
1.941227069955390183e+00 5.088650510382980201e+02
1.941327091960231011e+00 5.088546437976436891e+02
1.941427113965072060e+00 5.088442011479115195e+02
1.941527135969913331e+00 5.088337246903209916e+02
1.941627157974754381e+00 5.088232160393310437e+02
1.941727179979595430e+00 5.088126768224014427e+02
1.941827201984436480e+00 5.088021086797539851e+02
1.941927223989277529e+00 5.087915132641308560e+02
1.942027245994118356e+00 5.087808922405470184e+02
1.942127267998959628e+00 5.087702472860429452e+02
1.942227290003800677e+00 5.087595800894347349e+02
1.942327312008641726e+00 5.087488923510567815e+02
1.942427334013482998e+00 5.087381857825106977e+02
1.942527356018324047e+00 5.087274621064010489e+02
1.942627378023165097e+00 5.087167230560775124e+02
1.942727400028005924e+00 5.087059703753687927e+02
1.942827422032846973e+00 5.086952058183166514e+02
1.942927444037688023e+00 5.086844311489069810e+02
1.943027466042529294e+00 5.086736481407973542e+02
1.943127488047370344e+00 5.086628585770433801e+02
1.943227510052211393e+00 5.086520642498233542e+02
1.943327532057052665e+00 5.086412669601597827e+02
1.943427554061893492e+00 5.086304685176355065e+02
1.943527576066734541e+00 5.086196707401151116e+02
1.943627598071575591e+00 5.086088754534567897e+02
1.943727620076416640e+00 5.085980844912251086e+02
1.943827642081257689e+00 5.085872996944028159e+02
1.943927664086098961e+00 5.085765229110990617e+02
1.944027686090939788e+00 5.085657559962551204e+02
1.944127708095780838e+00 5.085550008113494300e+02
1.944227730100621887e+00 5.085442592241009265e+02
1.944327752105463158e+00 5.085335331081683989e+02
1.944427774110304208e+00 5.085228243428512656e+02
1.944527796115145257e+00 5.085121348127862007e+02
1.944627818119986307e+00 5.085014664076413737e+02
1.944727840124827134e+00 5.084908210218126214e+02
1.944827862129668183e+00 5.084802005541130256e+02
1.944927884134509455e+00 5.084696069074673233e+02
1.945027906139350504e+00 5.084590419885969936e+02
1.945127928144191554e+00 5.084485077077114852e+02
1.945227950149032825e+00 5.084380059781916543e+02
1.945327972153873874e+00 5.084275387162767288e+02
1.945427994158714702e+00 5.084171078407471214e+02
1.945528016163555751e+00 5.084067152726059362e+02
1.945628038168396801e+00 5.083963629347625783e+02
1.945728060173237850e+00 5.083860527517105083e+02
1.945828082178079121e+00 5.083757866492060202e+02
1.945928104182920171e+00 5.083655665539480424e+02
1.946028126187761220e+00 5.083553943932516859e+02
1.946128148192602048e+00 5.083452720947285002e+02
1.946228170197443319e+00 5.083352015859564972e+02
1.946328192202284368e+00 5.083251847941583037e+02
1.946428214207125418e+00 5.083152236458713560e+02
1.946528236211966467e+00 5.083053200666230396e+02
1.946628258216807517e+00 5.082954759805998606e+02
1.946728280221648788e+00 5.082856933103205392e+02
1.946828302226489615e+00 5.082759739763067159e+02
1.946928324231330665e+00 5.082663198967518383e+02
1.947028346236171714e+00 5.082567329871902757e+02
1.947128368241012986e+00 5.082472151601686505e+02
1.947228390245854035e+00 5.082377683249123947e+02
1.947328412250695084e+00 5.082283943869961718e+02
1.947428434255536134e+00 5.082190952480106603e+02
1.947528456260376961e+00 5.082098728052308729e+02
1.947628478265218011e+00 5.082007289512841339e+02
1.947728500270059282e+00 5.081916655738186250e+02
1.947828522274900331e+00 5.081826845551692031e+02
1.947928544279741381e+00 5.081737877720266852e+02
1.948028566284582652e+00 5.081649770951057121e+02
1.948128588289423702e+00 5.081562543888112486e+02
1.948228610294264529e+00 5.081476215109086070e+02
1.948328632299105578e+00 5.081390803121905719e+02
1.948428654303946628e+00 5.081306326361453785e+02
1.948528676308787677e+00 5.081222803186281567e+02
1.948628698313628949e+00 5.081140251875284548e+02
1.948728720318469998e+00 5.081058690624394671e+02
1.948828742323311047e+00 5.080978137543297635e+02
1.948928764328151875e+00 5.080898610652144498e+02
1.949028786332993146e+00 5.080820127878257040e+02
1.949128808337834196e+00 5.080742707052861533e+02
1.949228830342675245e+00 5.080666365907798081e+02
1.949328852347516294e+00 5.080591122072286794e+02
1.949428874352357344e+00 5.080516993069651903e+02
1.949528896357198615e+00 5.080443996314085666e+02
1.949628918362039443e+00 5.080372149107417954e+02
1.949728940366880492e+00 5.080301468635881861e+02
1.949828962371721541e+00 5.080231971966901483e+02
1.949928984376562813e+00 5.080163676045901866e+02
1.950029006381403862e+00 5.080096597693095077e+02
1.950129028386244912e+00 5.080030753600325397e+02
1.950229050391085961e+00 5.079966160327894045e+02
1.950329072395926788e+00 5.079902834301398116e+02
1.950429094400767838e+00 5.079840791808604195e+02
1.950529116405609109e+00 5.079780048996313440e+02
1.950629138410450159e+00 5.079720621867273849e+02
1.950729160415291208e+00 5.079662526277071493e+02
1.950829182420132479e+00 5.079605777931047328e+02
1.950929204424973529e+00 5.079550392381248685e+02
1.951029226429814356e+00 5.079496385023404628e+02
1.951129248434655405e+00 5.079443771093842201e+02
1.951229270439496455e+00 5.079392565666556720e+02
1.951329292444337504e+00 5.079342783650164392e+02
1.951429314449178776e+00 5.079294439784964652e+02
1.951529336454019825e+00 5.079247548639974070e+02
1.951629358458860874e+00 5.079202124610021087e+02
1.951729380463701702e+00 5.079158181912810051e+02
1.951829402468542973e+00 5.079115734586068243e+02
1.951929424473384023e+00 5.079074796484644594e+02
1.952029446478225072e+00 5.079035381277705028e+02
1.952129468483066121e+00 5.078997502445902796e+02
1.952229490487907171e+00 5.078961173278557908e+02
1.952329512492748442e+00 5.078926406870929782e+02
1.952429534497589270e+00 5.078893216121445562e+02
1.952529556502430319e+00 5.078861613728980728e+02
1.952629578507271368e+00 5.078831612190165288e+02
1.952729600512112640e+00 5.078803223796719521e+02
1.952829622516953689e+00 5.078776460632814178e+02
1.952929644521794739e+00 5.078751334572439191e+02
1.953029666526635788e+00 5.078727857276829809e+02
1.953129688531476615e+00 5.078706040191889883e+02
1.953229710536317665e+00 5.078685894545689052e+02
1.953329732541158936e+00 5.078667431345931504e+02
1.953429754545999986e+00 5.078650661377484425e+02
1.953529776550841035e+00 5.078635595199955333e+02
1.953629798555682306e+00 5.078622243145248945e+02
1.953729820560523356e+00 5.078610615315211589e+02
1.953829842565364183e+00 5.078600721579268225e+02
1.953929864570205233e+00 5.078592571572082761e+02
1.954029886575046282e+00 5.078586174691305359e+02
1.954129908579887331e+00 5.078581540095287892e+02
1.954229930584728603e+00 5.078578676700879555e+02
1.954329952589569652e+00 5.078577593181224756e+02
1.954429974594410702e+00 5.078578297963595105e+02
1.954529996599251529e+00 5.078580799227320881e+02
1.954630018604092800e+00 5.078585104901635532e+02
1.954730040608933850e+00 5.078591222663659437e+02
1.954830062613774899e+00 5.078599159936392198e+02
1.954930084618615949e+00 5.078608923886694129e+02
1.955030106623456998e+00 5.078620521423379728e+02
1.955130128628298269e+00 5.078633959195291254e+02
1.955230150633139097e+00 5.078649243589421758e+02
1.955330172637980146e+00 5.078666380729092111e+02
1.955430194642821196e+00 5.078685376472159305e+02
1.955530216647662467e+00 5.078706236409227017e+02
1.955630238652503516e+00 5.078728965861962479e+02
1.955730260657344566e+00 5.078753569881388330e+02
1.955830282662185615e+00 5.078780053246260877e+02
1.955930304667026443e+00 5.078808420461450055e+02
1.956030326671867492e+00 5.078838675756380212e+02
1.956130348676708763e+00 5.078870823083509549e+02
1.956230370681549813e+00 5.078904866116847643e+02
1.956330392686390862e+00 5.078940808250500822e+02
1.956430414691232134e+00 5.078978652597295422e+02
1.956530436696073183e+00 5.079018401987399329e+02
1.956630458700914010e+00 5.079060058966991846e+02
1.956730480705755060e+00 5.079103625797020527e+02
1.956830502710596109e+00 5.079149104451943231e+02
1.956930524715437159e+00 5.079196496618536116e+02
1.957030546720278430e+00 5.079245803694750521e+02
1.957130568725119479e+00 5.079297026788608491e+02
1.957230590729960529e+00 5.079350166717134698e+02
1.957330612734801356e+00 5.079405224005331547e+02
1.957430634739642628e+00 5.079462198885227622e+02
1.957530656744483677e+00 5.079521091294905659e+02
1.957630678749324726e+00 5.079581900877651037e+02
1.957730700754165776e+00 5.079644626981095143e+02
1.957830722759006825e+00 5.079709268656404220e+02
1.957930744763848097e+00 5.079775824657552334e+02
1.958030766768688924e+00 5.079844293440584124e+02
1.958130788773529973e+00 5.079914673162977579e+02
1.958230810778371023e+00 5.079986961683000573e+02
1.958330832783212294e+00 5.080061156559159485e+02
1.958430854788053344e+00 5.080137255049654641e+02
1.958530876792894393e+00 5.080215254111914760e+02
1.958630898797735442e+00 5.080295150402165518e+02
1.958730920802576270e+00 5.080376940275006064e+02
1.958830942807417319e+00 5.080460619783121388e+02
1.958930964812258591e+00 5.080546184676940697e+02
1.959030986817099640e+00 5.080633630404406063e+02
1.959131008821940689e+00 5.080722952110781989e+02
1.959231030826781961e+00 5.080814144638477501e+02
1.959331052831623010e+00 5.080907202526964284e+02
1.959431074836463837e+00 5.081002120012685168e+02
1.959531096841304887e+00 5.081098891029070046e+02
1.959631118846145936e+00 5.081197509206548375e+02
1.959731140850986986e+00 5.081297967872647519e+02
1.959831162855828257e+00 5.081400260052103022e+02
1.959931184860669307e+00 5.081504378467051879e+02
1.960031206865510356e+00 5.081610315537250244e+02
1.960131228870351183e+00 5.081718063380336616e+02
1.960231250875192455e+00 5.081827613812167783e+02
1.960331272880033504e+00 5.081938958347172957e+02
1.960431294884874553e+00 5.082052088198764181e+02
1.960531316889715603e+00 5.082166994279821211e+02
1.960631338894556652e+00 5.082283667203172399e+02
1.960731360899397924e+00 5.082402097282181330e+02
1.960831382904238751e+00 5.082522274531332300e+02
1.960931404909079800e+00 5.082644188666886294e+02
1.961031426913920850e+00 5.082767829107594935e+02
1.961131448918762121e+00 5.082893184975431495e+02
1.961231470923603171e+00 5.083020245096411145e+02
1.961331492928444220e+00 5.083148998001414611e+02
1.961431514933285047e+00 5.083279431927080623e+02
1.961531536938126097e+00 5.083411534816771109e+02
1.961631558942967146e+00 5.083545294321514803e+02
1.961731580947808418e+00 5.083680697801088400e+02
1.961831602952649467e+00 5.083817732325063616e+02
1.961931624957490516e+00 5.083956384673952584e+02
1.962031646962331788e+00 5.084096641340382803e+02
1.962131668967172615e+00 5.084238488530323252e+02
1.962231690972013665e+00 5.084381912164332107e+02
1.962331712976854714e+00 5.084526897878915292e+02
1.962431734981695763e+00 5.084673431027839001e+02
1.962531756986536813e+00 5.084821496683591704e+02
1.962631778991378084e+00 5.084971079638801825e+02
1.962731800996219134e+00 5.085122164407765695e+02
1.962831823001059961e+00 5.085274735227967540e+02
1.962931845005901010e+00 5.085428776061713165e+02
1.963031867010742282e+00 5.085584270597738623e+02
1.963131889015583331e+00 5.085741202252910398e+02
1.963231911020424381e+00 5.085899554173951174e+02
1.963331933025265430e+00 5.086059309239236654e+02
1.963431955030106479e+00 5.086220450060569647e+02
1.963531977034947307e+00 5.086382958985109894e+02
1.963631999039788578e+00 5.086546818097239111e+02
1.963732021044629628e+00 5.086712009220530035e+02
1.963832043049470677e+00 5.086878513919753004e+02
1.963932065054311948e+00 5.087046313502902422e+02
1.964032087059152998e+00 5.087215389023307921e+02
1.964132109063994047e+00 5.087385721281748374e+02
1.964232131068834875e+00 5.087557290828628993e+02
1.964332153073675924e+00 5.087730077966194813e+02
1.964432175078516973e+00 5.087904062750795333e+02
1.964532197083358245e+00 5.088079224995184404e+02
1.964632219088199294e+00 5.088255544270868995e+02
1.964732241093040344e+00 5.088432999910473313e+02
1.964832263097881615e+00 5.088611571010202397e+02
1.964932285102722442e+00 5.088791236432268192e+02
1.965032307107563492e+00 5.088971974807427046e+02
1.965132329112404541e+00 5.089153764537513212e+02
1.965232351117245591e+00 5.089336583798046831e+02
1.965332373122086640e+00 5.089520410540829971e+02
1.965432395126927911e+00 5.089705222496654642e+02
1.965532417131768961e+00 5.089890997177976715e+02
1.965632439136609788e+00 5.090077711881673395e+02
1.965732461141450838e+00 5.090265343691843896e+02
1.965832483146292109e+00 5.090453869482598748e+02
1.965932505151133158e+00 5.090643265920949716e+02
1.966032527155974208e+00 5.090833509469691194e+02
1.966132549160815257e+00 5.091024576390339575e+02
1.966232571165656307e+00 5.091216442746102757e+02
1.966332593170497134e+00 5.091409084404884879e+02
1.966432615175338405e+00 5.091602477042328019e+02
1.966532637180179455e+00 5.091796596144897649e+02
1.966632659185020504e+00 5.091991417012975489e+02
1.966732681189861776e+00 5.092186914764034782e+02
1.966832703194702825e+00 5.092383064335792824e+02
1.966932725199543874e+00 5.092579840489439675e+02
1.967032747204384702e+00 5.092777217812878803e+02
1.967132769209225751e+00 5.092975170724021723e+02
1.967232791214066800e+00 5.093173673474078669e+02
1.967332813218908072e+00 5.093372700150903256e+02
1.967432835223749121e+00 5.093572224682382057e+02
1.967532857228590171e+00 5.093772220839837246e+02
1.967632879233431442e+00 5.093972662241453122e+02
1.967732901238272269e+00 5.094173522355736168e+02
1.967832923243113319e+00 5.094374774505034793e+02
1.967932945247954368e+00 5.094576391869019858e+02
1.968032967252795418e+00 5.094778347488303893e+02
1.968132989257636467e+00 5.094980614267933561e+02
1.968233011262477739e+00 5.095183164981074810e+02
1.968333033267318788e+00 5.095385972272590607e+02
1.968433055272159615e+00 5.095589008662735750e+02
1.968533077277000665e+00 5.095792246550830669e+02
1.968633099281841936e+00 5.095995658218963626e+02
1.968733121286682985e+00 5.096199215835725909e+02
1.968833143291524035e+00 5.096402891459989632e+02
1.968933165296365084e+00 5.096606657044670214e+02
1.969033187301206134e+00 5.096810484440547953e+02
1.969133209306046961e+00 5.097014345400070283e+02
1.969233231310888232e+00 5.097218211581238734e+02
1.969333253315729282e+00 5.097422054551443580e+02
1.969433275320570331e+00 5.097625845791387746e+02
1.969533297325411603e+00 5.097829556698975466e+02
1.969633319330252652e+00 5.098033158593251528e+02
1.969733341335093701e+00 5.098236622718355875e+02
1.969833363339934529e+00 5.098439920247491273e+02
1.969933385344775578e+00 5.098643022286904625e+02
1.970033407349616628e+00 5.098845899879902959e+02
1.970133429354457899e+00 5.099048524010863730e+02
1.970233451359298948e+00 5.099250865609279799e+02
1.970333473364139998e+00 5.099452895553800431e+02
1.970433495368981269e+00 5.099654584676324589e+02
1.970533517373822097e+00 5.099855903766047049e+02
1.970633539378663146e+00 5.100056823573585234e+02
1.970733561383504195e+00 5.100257314815063410e+02
1.970833583388345245e+00 5.100457348176261689e+02
1.970933605393186294e+00 5.100656894316726948e+02
1.971033627398027566e+00 5.100855923873918982e+02
1.971133649402868615e+00 5.101054407467378837e+02
1.971233671407709442e+00 5.101252315702877240e+02
1.971333693412550492e+00 5.101449619176611350e+02
1.971433715417391763e+00 5.101646288479356031e+02
1.971533737422232813e+00 5.101842294200687320e+02
1.971633759427073862e+00 5.102037606933155871e+02
1.971733781431914911e+00 5.102232197276512693e+02
1.971833803436755961e+00 5.102426035841912153e+02
1.971933825441596788e+00 5.102619093256116685e+02
1.972033847446438060e+00 5.102811340165751517e+02
1.972133869451279109e+00 5.103002747241488350e+02
1.972233891456120158e+00 5.103193285182318277e+02
1.972333913460961430e+00 5.103382924719758194e+02
1.972433935465802479e+00 5.103571636622087340e+02
1.972533957470643529e+00 5.103759391698610557e+02
1.972633979475484356e+00 5.103946160803855605e+02
1.972734001480325405e+00 5.104131914841842672e+02
1.972834023485166455e+00 5.104316624770318072e+02
1.972934045490007726e+00 5.104500261604994193e+02
1.973034067494848776e+00 5.104682796423761033e+02
1.973134089499689825e+00 5.104864200370955700e+02
1.973234111504531096e+00 5.105044444661577927e+02
1.973334133509371924e+00 5.105223500585509555e+02
1.973434155514212973e+00 5.105401339511757328e+02
1.973534177519054023e+00 5.105577932892653052e+02
1.973634199523895072e+00 5.105753252268083315e+02
1.973734221528736121e+00 5.105927269269679414e+02
1.973834243533577393e+00 5.106099955625039684e+02
1.973934265538418442e+00 5.106271283161912606e+02
1.974034287543259270e+00 5.106441223812367980e+02
1.974134309548100319e+00 5.106609749617003899e+02
1.974234331552941590e+00 5.106776832729090643e+02
1.974334353557782640e+00 5.106942445418739567e+02
1.974434375562623689e+00 5.107106560077036193e+02
1.974534397567464739e+00 5.107269149220202848e+02
1.974634419572305788e+00 5.107430185493690260e+02
1.974734441577146615e+00 5.107589641676318024e+02
1.974834463581987887e+00 5.107747490684355398e+02
1.974934485586828936e+00 5.107903705575598110e+02
1.975034507591669986e+00 5.108058259553471316e+02
1.975134529596511257e+00 5.108211125971046158e+02
1.975234551601352306e+00 5.108362278335102928e+02
1.975334573606193356e+00 5.108511690310140239e+02
1.975434595611034183e+00 5.108659335722402943e+02
1.975534617615875232e+00 5.108805188563831621e+02
1.975634639620716282e+00 5.108949222996076855e+02
1.975734661625557553e+00 5.109091413354406086e+02
1.975834683630398603e+00 5.109231734151683213e+02
1.975934705635239652e+00 5.109370160082230541e+02
1.976034727640080924e+00 5.109506666025754384e+02
1.976134749644921751e+00 5.109641227051203600e+02
1.976234771649762800e+00 5.109773818420608222e+02
1.976334793654603850e+00 5.109904415592911846e+02
1.976434815659444899e+00 5.110032994227782410e+02
1.976534837664285948e+00 5.110159530189366706e+02
1.976634859669127220e+00 5.110283999550067051e+02
1.976734881673968269e+00 5.110406378594243506e+02
1.976834903678809097e+00 5.110526643821954167e+02
1.976934925683650146e+00 5.110644771952581209e+02
1.977034947688491417e+00 5.110760739928529119e+02
1.977134969693332467e+00 5.110874524918811517e+02
1.977234991698173516e+00 5.110986104322670940e+02
1.977335013703014566e+00 5.111095455773117351e+02
1.977435035707855615e+00 5.111202557140491081e+02
1.977535057712696442e+00 5.111307386535958130e+02
1.977635079717537714e+00 5.111409922314970231e+02
1.977735101722378763e+00 5.111510143080739681e+02
1.977835123727219813e+00 5.111608027687642561e+02
1.977935145732061084e+00 5.111703555244585004e+02
1.978035167736902133e+00 5.111796705118374575e+02
1.978135189741743183e+00 5.111887456937031970e+02
1.978235211746584010e+00 5.111975790593056104e+02
1.978335233751425060e+00 5.112061686246705676e+02
1.978435255756266109e+00 5.112145124329183545e+02
1.978535277761107380e+00 5.112226085545826777e+02
1.978635299765948430e+00 5.112304550879254634e+02
1.978735321770789479e+00 5.112380501592476776e+02
1.978835343775630307e+00 5.112453919231948589e+02
1.978935365780471578e+00 5.112524785630624820e+02
1.979035387785312627e+00 5.112593082910933617e+02
1.979135409790153677e+00 5.112658793487757976e+02
1.979235431794994726e+00 5.112721900071328491e+02
1.979335453799835776e+00 5.112782385670128633e+02
1.979435475804677047e+00 5.112840233593711901e+02
1.979535497809517874e+00 5.112895427455512163e+02
1.979635519814358924e+00 5.112947951175603976e+02
1.979735541819199973e+00 5.112997788983418559e+02
1.979835563824041245e+00 5.113044925420409754e+02
1.979935585828882294e+00 5.113089345342709748e+02
1.980035607833723343e+00 5.113131033923700102e+02
1.980135629838564393e+00 5.113169976656570270e+02
1.980235651843405220e+00 5.113206159356820990e+02
1.980335673848246270e+00 5.113239568164727871e+02
1.980435695853087541e+00 5.113270189547756672e+02
1.980535717857928590e+00 5.113298010302938792e+02
1.980635739862769640e+00 5.113323017559192749e+02
1.980735761867610911e+00 5.113345198779612701e+02
1.980835783872451961e+00 5.113364541763722286e+02
1.980935805877292788e+00 5.113381034649614776e+02
1.981035827882133837e+00 5.113394665916158601e+02
1.981135849886974887e+00 5.113405424385042011e+02
1.981235871891815936e+00 5.113413299222868886e+02
1.981335893896657208e+00 5.113418279943122684e+02
1.981435915901498257e+00 5.113420356408142879e+02
1.981535937906339306e+00 5.113419518831022401e+02
1.981635959911180134e+00 5.113415757777467547e+02
1.981735981916021405e+00 5.113409064167608449e+02
1.981836003920862455e+00 5.113399429277747004e+02
1.981936025925703504e+00 5.113386844742085486e+02
1.982036047930544553e+00 5.113371302554367617e+02
1.982136069935385603e+00 5.113352795069490071e+02
1.982236091940226874e+00 5.113331315005074771e+02
1.982336113945067702e+00 5.113306855442955339e+02
1.982436135949908751e+00 5.113279409830653321e+02
1.982536157954749800e+00 5.113248971982770854e+02
1.982636179959591072e+00 5.113215536082344101e+02
1.982736201964432121e+00 5.113179096682162026e+02
1.982836223969273171e+00 5.113139648705982836e+02
1.982936245974114220e+00 5.113097187449758394e+02
1.983036267978955047e+00 5.113051708582770516e+02
1.983136289983796097e+00 5.113003208148716681e+02
1.983236311988637368e+00 5.112951682566760496e+02
1.983336333993478418e+00 5.112897128632499175e+02
1.983436355998319467e+00 5.112839543518912251e+02
1.983536378003160738e+00 5.112778924777219345e+02
1.983636400008001788e+00 5.112715270337739639e+02
1.983736422012842615e+00 5.112648578510603556e+02
1.983836444017683664e+00 5.112578847986538904e+02
1.983936466022524714e+00 5.112506077837472276e+02
1.984036488027365763e+00 5.112430267517166840e+02
1.984136510032207035e+00 5.112351416861758935e+02
1.984236532037048084e+00 5.112269526090277054e+02
1.984336554041889134e+00 5.112184595805059075e+02
1.984436576046729961e+00 5.112096626992150163e+02
1.984536598051571232e+00 5.112005621021644401e+02
1.984636620056412282e+00 5.111911579647934332e+02
1.984736642061253331e+00 5.111814505009971299e+02
1.984836664066094380e+00 5.111714399631387096e+02
1.984936686070935430e+00 5.111611266420642323e+02
1.985036708075776701e+00 5.111505108671059929e+02
1.985136730080617529e+00 5.111395930060830892e+02
1.985236752085458578e+00 5.111283734652962494e+02
1.985336774090299627e+00 5.111168526895135074e+02
1.985436796095140899e+00 5.111050311619594595e+02
1.985536818099981948e+00 5.110929094042866154e+02
1.985636840104822998e+00 5.110804879765510691e+02
1.985736862109664047e+00 5.110677674771782222e+02
1.985836884114504874e+00 5.110547485429222547e+02
1.985936906119345924e+00 5.110414318488233789e+02
1.986036928124187195e+00 5.110278181081570210e+02
1.986136950129028245e+00 5.110139080723755569e+02
1.986236972133869294e+00 5.109997025310516392e+02
1.986336994138710565e+00 5.109852023118054376e+02
1.986437016143551615e+00 5.109704082802371659e+02
1.986537038148392442e+00 5.109553213398460230e+02
1.986637060153233492e+00 5.109399424319465766e+02
1.986737082158074541e+00 5.109242725355807693e+02
1.986837104162915590e+00 5.109083126674215691e+02
1.986937126167756862e+00 5.108920638816746873e+02
1.987037148172597911e+00 5.108755272699703482e+02
1.987137170177438961e+00 5.108587039612540934e+02
1.987237192182279788e+00 5.108415951216687745e+02
1.987337214187121059e+00 5.108242019544319419e+02
1.987437236191962109e+00 5.108065256997089136e+02
1.987537258196803158e+00 5.107885676344784542e+02
1.987637280201644208e+00 5.107703290723968053e+02
1.987737302206485257e+00 5.107518113636502903e+02
1.987837324211326528e+00 5.107330158948067833e+02
1.987937346216167356e+00 5.107139440886612647e+02
1.988037368221008405e+00 5.106945974040764327e+02
1.988137390225849455e+00 5.106749773358154698e+02
1.988237412230690726e+00 5.106550854143719107e+02
1.988337434235531775e+00 5.106349232057937115e+02
1.988437456240372825e+00 5.106144923115006691e+02
1.988537478245213874e+00 5.105937943680989974e+02
1.988637500250054702e+00 5.105728310471880604e+02
1.988737522254895751e+00 5.105516040551644892e+02
1.988837544259737022e+00 5.105301151330183416e+02
1.988937566264578072e+00 5.105083660561267607e+02
1.989037588269419121e+00 5.104863586340404709e+02
1.989137610274260393e+00 5.104640947102664086e+02
1.989237632279101442e+00 5.104415761620444414e+02
1.989337654283942269e+00 5.104188049001210175e+02
1.989437676288783319e+00 5.103957828685126401e+02
1.989537698293624368e+00 5.103725120442720140e+02
1.989637720298465418e+00 5.103489944372437321e+02
1.989737742303306689e+00 5.103252320898141647e+02
1.989837764308147738e+00 5.103012270766624852e+02
1.989937786312988788e+00 5.102769815045010091e+02
1.990037808317829615e+00 5.102524975118132602e+02
1.990137830322670887e+00 5.102277772685858395e+02
1.990237852327511936e+00 5.102028229760398403e+02
1.990337874332352985e+00 5.101776368663497578e+02
1.990437896337194035e+00 5.101522212023652401e+02
1.990537918342035084e+00 5.101265782773244837e+02
1.990637940346876356e+00 5.101007104145636504e+02
1.990737962351717183e+00 5.100746199672217926e+02
1.990837984356558232e+00 5.100483093179414595e+02
1.990938006361399282e+00 5.100217808785643570e+02
1.991038028366240553e+00 5.099950370898238816e+02
1.991138050371081603e+00 5.099680804210308906e+02
1.991238072375922652e+00 5.099409133697570837e+02
1.991338094380763701e+00 5.099135384615140651e+02
1.991438116385604529e+00 5.098859582494279721e+02
1.991538138390445578e+00 5.098581753139072816e+02
1.991638160395286850e+00 5.098301922623114706e+02
1.991738182400127899e+00 5.098020117286125696e+02
1.991838204404968948e+00 5.097736363730489870e+02
1.991938226409810220e+00 5.097450688817854711e+02
1.992038248414651269e+00 5.097163119665594877e+02
1.992138270419492097e+00 5.096873683643251525e+02
1.992238292424333146e+00 5.096582408368993811e+02
1.992338314429174195e+00 5.096289321705978637e+02
1.992438336434015245e+00 5.095994451758683681e+02
1.992538358438856516e+00 5.095697826869258620e+02
1.992638380443697566e+00 5.095399475613739924e+02
1.992738402448538615e+00 5.095099426798317950e+02
1.992838424453379442e+00 5.094797709455535255e+02
1.992938446458220714e+00 5.094494352840447391e+02
1.993038468463061763e+00 5.094189386426745045e+02
1.993138490467902812e+00 5.093882839902846627e+02
1.993238512472743862e+00 5.093574743167997667e+02
1.993338534477584911e+00 5.093265126328246879e+02
1.993438556482426183e+00 5.092954019692483598e+02
1.993538578487267010e+00 5.092641453768396786e+02
1.993638600492108059e+00 5.092327459258390832e+02
1.993738622496949109e+00 5.092012067055514990e+02
1.993838644501790380e+00 5.091695308239332007e+02
1.993938666506631430e+00 5.091377214071753770e+02
1.994038688511472479e+00 5.091057815992866153e+02
1.994138710516313528e+00 5.090737145616728867e+02
1.994238732521154356e+00 5.090415234727127540e+02
1.994338754525995405e+00 5.090092115273293416e+02
1.994438776530836677e+00 5.089767819365651462e+02
1.994538798535677726e+00 5.089442379271467871e+02
1.994638820540518775e+00 5.089115827410535644e+02
1.994738842545360047e+00 5.088788196350790827e+02
1.994838864550201096e+00 5.088459518803933292e+02
1.994938886555041924e+00 5.088129827621013987e+02
1.995038908559882973e+00 5.087799155788007965e+02
1.995138930564724022e+00 5.087467536421343652e+02
1.995238952569565072e+00 5.087135002763436091e+02
1.995338974574406343e+00 5.086801588178192901e+02
1.995438996579247393e+00 5.086467326146506593e+02
1.995539018584088442e+00 5.086132250261688341e+02
1.995639040588929269e+00 5.085796394224947790e+02
1.995739062593770541e+00 5.085459791840813182e+02
1.995839084598611590e+00 5.085122477012518516e+02
1.995939106603452640e+00 5.084784483737450387e+02
1.996039128608293689e+00 5.084445846102478299e+02
1.996139150613134738e+00 5.084106598279351488e+02
1.996239172617975566e+00 5.083766774520033778e+02
1.996339194622816837e+00 5.083426409152041856e+02
1.996439216627657887e+00 5.083085536573796617e+02
1.996539238632498936e+00 5.082744191249888672e+02
1.996639260637340207e+00 5.082402407706428562e+02
1.996739282642181257e+00 5.082060220526296916e+02
1.996839304647022306e+00 5.081717664344458854e+02
1.996939326651863134e+00 5.081374773843207322e+02
1.997039348656704183e+00 5.081031583747451350e+02
1.997139370661545232e+00 5.080688128819941767e+02
1.997239392666386504e+00 5.080344443856562293e+02
1.997339414671227553e+00 5.080000563681508083e+02
1.997439436676068603e+00 5.079656523142587048e+02
1.997539458680909874e+00 5.079312357106407489e+02
1.997639480685750701e+00 5.078968100453615193e+02
1.997739502690591751e+00 5.078623788074120853e+02
1.997839524695432800e+00 5.078279454862317266e+02
1.997939546700273850e+00 5.077935135712299939e+02
1.998039568705114899e+00 5.077590865513063818e+02
1.998139590709956170e+00 5.077246679143751180e+02
1.998239612714797220e+00 5.076902611468835858e+02
1.998339634719638047e+00 5.076558697333362034e+02
1.998439656724479097e+00 5.076214971558144384e+02
1.998539678729320368e+00 5.075871468934997210e+02
1.998639700734161417e+00 5.075528224221950495e+02
1.998739722739002467e+00 5.075185272138484152e+02
1.998839744743843516e+00 5.074842647360745218e+02
1.998939766748684566e+00 5.074500384516798022e+02
1.999039788753525393e+00 5.074158518181856152e+02
1.999139810758366664e+00 5.073817082873525806e+02
1.999239832763207714e+00 5.073476113047067315e+02
1.999339854768048763e+00 5.073135643090661802e+02
1.999439876772890035e+00 5.072795707320655652e+02
1.999539898777731084e+00 5.072456339976881736e+02
1.999639920782572133e+00 5.072117575217915828e+02
1.999739942787412961e+00 5.071779447116389861e+02
1.999839964792254010e+00 5.071441989654311442e+02
1.999939986797095060e+00 5.071105236718366314e+02
2.000040008801936331e+00 4.715134768265804155e+02
2.000140030806777602e+00 4.712660227428137887e+02
2.000240052811618430e+00 4.710185254459892690e+02
2.000340074816459701e+00 4.707709985579682552e+02
2.000440096821300529e+00 4.705234557154918775e+02
2.000540118826141356e+00 4.702759105688168688e+02
2.000640140830982627e+00 4.700283767803480828e+02
2.000740162835823899e+00 4.697808680232701022e+02
2.000840184840664726e+00 4.695333979801769146e+02
2.000940206845505998e+00 4.692859803416987461e+02
2.001040228850347269e+00 4.690386288051302017e+02
2.001140250855187652e+00 4.687913570730519268e+02
2.001240272860028924e+00 4.685441788519573265e+02
2.001340294864870195e+00 4.682971078508728624e+02
2.001440316869711022e+00 4.680501577799810207e+02
2.001540338874552294e+00 4.678033423492410066e+02
2.001640360879393565e+00 4.675566752670086430e+02
2.001740382884234393e+00 4.673101702386572924e+02
2.001840404889075220e+00 4.670638409651974143e+02
2.001940426893916491e+00 4.668177011418971460e+02
2.002040448898757319e+00 4.665717644569009508e+02
2.002140470903598590e+00 4.663260445898505395e+02
2.002240492908439862e+00 4.660805552105080665e+02
2.002340514913280689e+00 4.658353099773740951e+02
2.002440536918121960e+00 4.655903225363127262e+02
2.002540558922962788e+00 4.653456065191736570e+02
2.002640580927804059e+00 4.651011755424175931e+02
2.002740602932644887e+00 4.648570432057415474e+02
2.002840624937486158e+00 4.646132230907073790e+02
2.002940646942326985e+00 4.643697287593693659e+02
2.003040668947168257e+00 4.641265737529073476e+02
2.003140690952009528e+00 4.638837715902574246e+02
2.003240712956850356e+00 4.636413357667490800e+02
2.003340734961691183e+00 4.633992797527423591e+02
2.003440756966532454e+00 4.631576169922677764e+02
2.003540778971373726e+00 4.629163609016691794e+02
2.003640800976214553e+00 4.626755248682495676e+02
2.003740822981055825e+00 4.624351222489192423e+02
2.003840844985896652e+00 4.621951663688498684e+02
2.003940866990737923e+00 4.619556705201277964e+02
2.004040888995578751e+00 4.617166479604123879e+02
2.004140911000420022e+00 4.614781119116015589e+02
2.004240933005260850e+00 4.612400755584945955e+02
2.004340955010102121e+00 4.610025520474660539e+02
2.004440977014943392e+00 4.607655544851372156e+02
2.004540999019784220e+00 4.605290959370577752e+02
2.004641021024625047e+00 4.602931894263875279e+02
2.004741043029466319e+00 4.600578479325856165e+02
2.004841065034307590e+00 4.598230843901039293e+02
2.004941087039148417e+00 4.595889116870827138e+02
2.005041109043989689e+00 4.593553426640578436e+02
2.005141131048830516e+00 4.591223901126654141e+02
2.005241153053671788e+00 4.588900667743585018e+02
2.005341175058512615e+00 4.586583853391249477e+02
2.005441197063353886e+00 4.584273584442141782e+02
2.005541219068194714e+00 4.581969986728685171e+02
2.005641241073035985e+00 4.579673185530600676e+02
2.005741263077877257e+00 4.577383305562339046e+02
2.005841285082718084e+00 4.575100470960609300e+02
2.005941307087559355e+00 4.572824805271912965e+02
2.006041329092400183e+00 4.570556431440210190e+02
2.006141351097241010e+00 4.568295471794600644e+02
2.006241373102082282e+00 4.566042048037104450e+02
2.006341395106923553e+00 4.563796281230524983e+02
2.006441417111764380e+00 4.561558291786334394e+02
2.006541439116605652e+00 4.559328199452700119e+02
2.006641461121446923e+00 4.557106123302540936e+02
2.006741483126287307e+00 4.554892181721674547e+02
2.006841505131128578e+00 4.552686492397051552e+02
2.006941527135969849e+00 4.550489172305044576e+02
2.007041549140810677e+00 4.548300337699873808e+02
2.007141571145651948e+00 4.546120104102043911e+02
2.007241593150493220e+00 4.543948586286924183e+02
2.007341615155334047e+00 4.541785898273374187e+02
2.007441637160174874e+00 4.539632153312509217e+02
2.007541659165016146e+00 4.537487463876481115e+02
2.007641681169856973e+00 4.535351941647410285e+02
2.007741703174698245e+00 4.533225697506401275e+02
2.007841725179539516e+00 4.531108841522600414e+02
2.007941747184380343e+00 4.529001482942433086e+02
2.008041769189221615e+00 4.526903730178852356e+02
2.008141791194062442e+00 4.524815690800746779e+02
2.008241813198903714e+00 4.522737471522399915e+02
2.008341835203744541e+00 4.520669178193094240e+02
2.008441857208585812e+00 4.518610915786774740e+02
2.008541879213426640e+00 4.516562788391852337e+02
2.008641901218267911e+00 4.514524899201053358e+02
2.008741923223109183e+00 4.512497350501465121e+02
2.008841945227950010e+00 4.510480243664581508e+02
2.008941967232790837e+00 4.508473679136544092e+02
2.009041989237632109e+00 4.506477756428435555e+02
2.009142011242473380e+00 4.504492574106710663e+02
2.009242033247314208e+00 4.502518229783713082e+02
2.009342055252155479e+00 4.500554820108333161e+02
2.009442077256996306e+00 4.498602440756772012e+02
2.009542099261837578e+00 4.496661186423379490e+02
2.009642121266678405e+00 4.494731150811676912e+02
2.009742143271519677e+00 4.492812426625432067e+02
2.009842165276360504e+00 4.490905105559878052e+02
2.009942187281201775e+00 4.489009278293073635e+02
2.010042209286043047e+00 4.487125034477318195e+02
2.010142231290883874e+00 4.485252462730762204e+02
2.010242253295724701e+00 4.483391650629083074e+02
2.010342275300565973e+00 4.481542684697309369e+02
2.010442297305407244e+00 4.479705650401763819e+02
2.010542319310248072e+00 4.477880632142124000e+02
2.010642341315089343e+00 4.476067713243613753e+02
2.010742363319930170e+00 4.474266975949311700e+02
2.010842385324771442e+00 4.472478501412612104e+02
2.010942407329612269e+00 4.470702369689772127e+02
2.011042429334453541e+00 4.468938659732630185e+02
2.011142451339294368e+00 4.467187449381416968e+02
2.011242473344135639e+00 4.465448815357719923e+02
2.011342495348976911e+00 4.463722833257573370e+02
2.011442517353817738e+00 4.462009577544686181e+02
2.011542539358659010e+00 4.460309121543772335e+02
2.011642561363499837e+00 4.458621537434065090e+02
2.011742583368340664e+00 4.456946896242904472e+02
2.011842605373181936e+00 4.455285267839533390e+02
2.011942627378023207e+00 4.453636720928951718e+02
2.012042649382864035e+00 4.452001323045955132e+02
2.012142671387705306e+00 4.450379140549309795e+02
2.012242693392546578e+00 4.448770238616036750e+02
2.012342715397386961e+00 4.447174681235859452e+02
2.012442737402228232e+00 4.445592531205785463e+02
2.012542759407069504e+00 4.444023850124806927e+02
2.012642781411910331e+00 4.442468698388779558e+02
2.012742803416751602e+00 4.440927135185410748e+02
2.012842825421592874e+00 4.439399218489382974e+02
2.012942847426433701e+00 4.437885005057665921e+02
2.013042869431274529e+00 4.436384550424907616e+02
2.013142891436115800e+00 4.434897908899013714e+02
2.013242913440956627e+00 4.433425133556860942e+02
2.013342935445797899e+00 4.431966276240138427e+02
2.013442957450639170e+00 4.430521387551347061e+02
2.013542979455479998e+00 4.429090516849929600e+02
2.013643001460320825e+00 4.427673712248572429e+02
2.013743023465162096e+00 4.426271020609626135e+02
2.013843045470003368e+00 4.424882487541673868e+02
2.013943067474844195e+00 4.423508157396253182e+02
2.014043089479685467e+00 4.422148073264752384e+02
2.014143111484526294e+00 4.420802276975363156e+02
2.014243133489367565e+00 4.419470809090306034e+02
2.014343155494208393e+00 4.418153708903089409e+02
2.014443177499049664e+00 4.416851014435987963e+02
2.014543199503890492e+00 4.415562762437639321e+02
2.014643221508731763e+00 4.414288988380790215e+02
2.014743243513573034e+00 4.413029726460183610e+02
2.014843265518413862e+00 4.411785009590631148e+02
2.014943287523255133e+00 4.410554869405179943e+02
2.015043309528095961e+00 4.409339336253463557e+02
2.015143331532937232e+00 4.408138439200184848e+02
2.015243353537778059e+00 4.406952206023775034e+02
2.015343375542619331e+00 4.405780663215150526e+02
2.015443397547460158e+00 4.404623835976672126e+02
2.015543419552301430e+00 4.403481748221214502e+02
2.015643441557142701e+00 4.402354422571402779e+02
2.015743463561983528e+00 4.401241880358994081e+02
2.015843485566824356e+00 4.400144141624403460e+02
2.015943507571665627e+00 4.399061225116392961e+02
2.016043529576506899e+00 4.397993148291882335e+02
2.016143551581347726e+00 4.396939927315933119e+02
2.016243573586188997e+00 4.395901577061863463e+02
2.016343595591029825e+00 4.394878111111534054e+02
2.016443617595870652e+00 4.393869541755755108e+02
2.016543639600711924e+00 4.392875879994853108e+02
2.016643661605553195e+00 4.391897135539394412e+02
2.016743683610394022e+00 4.390933316811030522e+02
2.016843705615235294e+00 4.389984430943529787e+02
2.016943727620076565e+00 4.389050483783913705e+02
2.017043749624917393e+00 4.388131479893766596e+02
2.017143771629758220e+00 4.387227422550690221e+02
2.017243793634599491e+00 4.386338313749897111e+02
2.017343815639440319e+00 4.385464154205936325e+02
2.017443837644281590e+00 4.384604943354607940e+02
2.017543859649122862e+00 4.383760679354974741e+02
2.017643881653963689e+00 4.382931359091531931e+02
2.017743903658804960e+00 4.382116978176560451e+02
2.017843925663645788e+00 4.381317530952553625e+02
2.017943947668486615e+00 4.380533010494856967e+02
2.018043969673327886e+00 4.379763408614398941e+02
2.018143991678169158e+00 4.379008715860589973e+02
2.018244013683009985e+00 4.378268921524366988e+02
2.018344035687851257e+00 4.377544013641362426e+02
2.018444057692692528e+00 4.376833978995227881e+02
2.018544079697533355e+00 4.376138803121083356e+02
2.018644101702374183e+00 4.375458470309139898e+02
2.018744123707215454e+00 4.374792963608409764e+02
2.018844145712056282e+00 4.374142264830613271e+02
2.018944167716897553e+00 4.373506354554168638e+02
2.019044189721738825e+00 4.372885212128362582e+02
2.019144211726579652e+00 4.372278815677636885e+02
2.019244233731420479e+00 4.371687142106015926e+02
2.019344255736261751e+00 4.371110167101655861e+02
2.019444277741103022e+00 4.370547865141580814e+02
2.019544299745943849e+00 4.370000209496461707e+02
2.019644321750785121e+00 4.369467172235633257e+02
2.019744343755625948e+00 4.368948724232143945e+02
2.019844365760467220e+00 4.368444835168029954e+02
2.019944387765308047e+00 4.367955473539640820e+02
2.020044409770149318e+00 4.367480606663162348e+02
2.020144431774990146e+00 4.367020200680212838e+02
2.020244453779831417e+00 4.366574220563605877e+02
2.020344475784672689e+00 4.366142630123230788e+02
2.020444497789513516e+00 4.365725392012047337e+02
2.020544519794354787e+00 4.365322467732224823e+02
2.020644541799195615e+00 4.364933817641399969e+02
2.020744563804036886e+00 4.364559400959045661e+02
2.020844585808877714e+00 4.364199175772997705e+02
2.020944607813718985e+00 4.363853099046065154e+02
2.021044629818559812e+00 4.363521126622767952e+02
2.021144651823401084e+00 4.363203213236247962e+02
2.021244673828242355e+00 4.362899312515207839e+02
2.021344695833083183e+00 4.362609376991048862e+02
2.021444717837924010e+00 4.362333358105098569e+02
2.021544739842765281e+00 4.362071206215929351e+02
2.021644761847606553e+00 4.361822870606832794e+02
2.021744783852447380e+00 4.361588299493383261e+02
2.021844805857288652e+00 4.361367440031141314e+02
2.021944827862129479e+00 4.361160238323416252e+02
2.022044849866970306e+00 4.360966639429214524e+02
2.022144871871811578e+00 4.360786587371223959e+02
2.022244893876652849e+00 4.360620025143959992e+02
2.022344915881493677e+00 4.360466894722002280e+02
2.022444937886334948e+00 4.360327137068325101e+02
2.022544959891176219e+00 4.360200692142752814e+02
2.022644981896017047e+00 4.360087498910511385e+02
2.022745003900857874e+00 4.359987495350886775e+02
2.022845025905699146e+00 4.359900618465966886e+02
2.022945047910539973e+00 4.359826804289510278e+02
2.023045069915381244e+00 4.359765987895920034e+02
2.023145091920222516e+00 4.359718103409257992e+02
2.023245113925063343e+00 4.359683084012435188e+02
2.023345135929904615e+00 4.359660861956442659e+02
2.023445157934745442e+00 4.359651368569691385e+02
2.023545179939586269e+00 4.359654534267464783e+02
2.023645201944427541e+00 4.359670288561421216e+02
2.023745223949268812e+00 4.359698560069230098e+02
2.023845245954109640e+00 4.359739276524283582e+02
2.023945267958950911e+00 4.359792364785471364e+02
2.024045289963792182e+00 4.359857750847077114e+02
2.024145311968633010e+00 4.359935359848742564e+02
2.024245333973473837e+00 4.360025116085522541e+02
2.024345355978315109e+00 4.360126943018009342e+02
2.024445377983155936e+00 4.360240763282549779e+02
2.024545399987997207e+00 4.360366498701548039e+02
2.024645421992838479e+00 4.360504070293823702e+02
2.024745443997679306e+00 4.360653398285073763e+02
2.024845466002520133e+00 4.360814402118395492e+02
2.024945488007361405e+00 4.360987000464874654e+02
2.025045510012202676e+00 4.361171111234268096e+02
2.025145532017043504e+00 4.361366651585748855e+02
2.025245554021884775e+00 4.361573537938704703e+02
2.025345576026725603e+00 4.361791685983633897e+02
2.025445598031566874e+00 4.362021010693085827e+02
2.025545620036407701e+00 4.362261426332675569e+02
2.025645642041248973e+00 4.362512846472154706e+02
2.025745664046089800e+00 4.362775183996565715e+02
2.025845686050931072e+00 4.363048351117425909e+02
2.025945708055772343e+00 4.363332259383995506e+02
2.026045730060613170e+00 4.363626819694600272e+02
2.026145752065454442e+00 4.363931942307989971e+02
2.026245774070295269e+00 4.364247536854783220e+02
2.026345796075136541e+00 4.364573512348932809e+02
2.026445818079977368e+00 4.364909777199288783e+02
2.026545840084818639e+00 4.365256239221149599e+02
2.026645862089659467e+00 4.365612805647911046e+02
2.026745884094500738e+00 4.365979383142759502e+02
2.026845906099342010e+00 4.366355877810364063e+02
2.026945928104182837e+00 4.366742195208682915e+02
2.027045950109023664e+00 4.367138240360749251e+02
2.027145972113864936e+00 4.367543917766549839e+02
2.027245994118706207e+00 4.367959131414889384e+02
2.027346016123547034e+00 4.368383784795350380e+02
2.027446038128388306e+00 4.368817780910239321e+02
2.027546060133229133e+00 4.369261022286600564e+02
2.027646082138069961e+00 4.369713410988255191e+02
2.027746104142911232e+00 4.370174848627845563e+02
2.027846126147752503e+00 4.370645236378962863e+02
2.027946148152593331e+00 4.371124474988249631e+02
2.028046170157434602e+00 4.371612464787564249e+02
2.028146192162275874e+00 4.372109105706160790e+02
2.028246214167116701e+00 4.372614297282876805e+02
2.028346236171957528e+00 4.373127938678364899e+02
2.028446258176798800e+00 4.373649928687340775e+02
2.028546280181639627e+00 4.374180165750847209e+02
2.028646302186480899e+00 4.374718547968517441e+02
2.028746324191322170e+00 4.375264973110893720e+02
2.028846346196162997e+00 4.375819338631714004e+02
2.028946368201004269e+00 4.376381541680266309e+02
2.029046390205845096e+00 4.376951479113684513e+02
2.029146412210685924e+00 4.377529047509326574e+02
2.029246434215527195e+00 4.378114143177096480e+02
2.029346456220368466e+00 4.378706662171825883e+02
2.029446478225209294e+00 4.379306500305611962e+02
2.029546500230050565e+00 4.379913553160208153e+02
2.029646522234891837e+00 4.380527716099363147e+02
2.029746544239732664e+00 4.381148884281204801e+02
2.029846566244573491e+00 4.381776952670611536e+02
2.029946588249414763e+00 4.382411816051544520e+02
2.030046610254255590e+00 4.383053369039425888e+02
2.030146632259096862e+00 4.383701506093491389e+02
2.030246654263938133e+00 4.384356121529111192e+02
2.030346676268778960e+00 4.385017109530147081e+02
2.030446698273619788e+00 4.385684364161251096e+02
2.030546720278461059e+00 4.386357779380203397e+02
2.030646742283302331e+00 4.387037249050158607e+02
2.030746764288143158e+00 4.387722666951968904e+02
2.030846786292984429e+00 4.388413926796422402e+02
2.030946808297825257e+00 4.389110922236499164e+02
2.031046830302666528e+00 4.389813546879567525e+02
2.031146852307507356e+00 4.390521694299617934e+02
2.031246874312348627e+00 4.391235258049406411e+02
2.031346896317189454e+00 4.391954131672632684e+02
2.031446918322030726e+00 4.392678208716031349e+02
2.031546940326871997e+00 4.393407382741512492e+02
2.031646962331712825e+00 4.394141547338188047e+02
2.031746984336553652e+00 4.394880596134426582e+02
2.031847006341394923e+00 4.395624422809858061e+02
2.031947028346236195e+00 4.396372921107323464e+02
2.032047050351077022e+00 4.397125984844838626e+02
2.032147072355918294e+00 4.397883507927465985e+02
2.032247094360759121e+00 4.398645384359176660e+02
2.032347116365600392e+00 4.399411508254676164e+02
2.032447138370441220e+00 4.400181773851177809e+02
2.032547160375282491e+00 4.400956075520130639e+02
2.032647182380123319e+00 4.401734307778915536e+02
2.032747204384964590e+00 4.402516365302487316e+02
2.032847226389805861e+00 4.403302142934960557e+02
2.032947248394646689e+00 4.404091535701180078e+02
2.033047270399487960e+00 4.404884438818186254e+02
2.033147292404328788e+00 4.405680747706702505e+02
2.033247314409169615e+00 4.406480358002485787e+02
2.033347336414010886e+00 4.407283165567695846e+02
2.033447358418852158e+00 4.408089066502171249e+02
2.033547380423692985e+00 4.408897957154648566e+02
2.033647402428534257e+00 4.409709734133940060e+02
2.033747424433375528e+00 4.410524294320033505e+02
2.033847446438215911e+00 4.411341534875161869e+02
2.033947468443057183e+00 4.412161353254758183e+02
2.034047490447898454e+00 4.412983647218405281e+02
2.034147512452739281e+00 4.413808314840672438e+02
2.034247534457580553e+00 4.414635254521923002e+02
2.034347556462421824e+00 4.415464364999028817e+02
2.034447578467262652e+00 4.416295545356032335e+02
2.034547600472103479e+00 4.417128695034721204e+02
2.034647622476944751e+00 4.417963713845153961e+02
2.034747644481785578e+00 4.418800501976103874e+02
2.034847666486626849e+00 4.419638960005404442e+02
2.034947688491468121e+00 4.420478988910264206e+02
2.035047710496308948e+00 4.421320490077499130e+02
2.035147732501150220e+00 4.422163365313617760e+02
2.035247754505991047e+00 4.423007516854938785e+02
2.035347776510832318e+00 4.423852847377543185e+02
2.035447798515673146e+00 4.424699260007189423e+02
2.035547820520514417e+00 4.425546658329113257e+02
2.035647842525355244e+00 4.426394946397794001e+02
2.035747864530196516e+00 4.427244028746577555e+02
2.035847886535037787e+00 4.428093810397257357e+02
2.035947908539878615e+00 4.428944196869557572e+02
2.036047930544719442e+00 4.429795094190515101e+02
2.036147952549560713e+00 4.430646408903796214e+02
2.036247974554401985e+00 4.431498048078905185e+02
2.036347996559242812e+00 4.432349919320308800e+02
2.036448018564084084e+00 4.433201930776479003e+02
2.036548040568924911e+00 4.434053991148817317e+02
2.036648062573766182e+00 4.434906009700516734e+02
2.036748084578607010e+00 4.435757896265299678e+02
2.036848106583448281e+00 4.436609561256096299e+02
2.036948128588289109e+00 4.437460915673588602e+02
2.037048150593130380e+00 4.438311871114667611e+02
2.037148172597971651e+00 4.439162339780829711e+02
2.037248194602812479e+00 4.440012234486398484e+02
2.037348216607653306e+00 4.440861468666739711e+02
2.037448238612494578e+00 4.441709956386279714e+02
2.037548260617335849e+00 4.442557612346509472e+02
2.037648282622176676e+00 4.443404351893800595e+02
2.037748304627017948e+00 4.444250091027217877e+02
2.037848326631858775e+00 4.445094746406119270e+02
2.037948348636700047e+00 4.445938235357738222e+02
2.038048370641540874e+00 4.446780475884609132e+02
2.038148392646382145e+00 4.447621386671913797e+02
2.038248414651222973e+00 4.448460887094696545e+02
2.038348436656064244e+00 4.449298897224990696e+02
2.038448458660905516e+00 4.450135337838842133e+02
2.038548480665746343e+00 4.450970130423185083e+02
2.038648502670587614e+00 4.451803197182650820e+02
2.038748524675428442e+00 4.452634461046259844e+02
2.038848546680269269e+00 4.453463845673946366e+02
2.038948568685110541e+00 4.454291275463075408e+02
2.039048590689951812e+00 4.455116675554739345e+02
2.039148612694792639e+00 4.455939971840011822e+02
2.039248634699633911e+00 4.456761090966057282e+02
2.039348656704475182e+00 4.457579960342126810e+02
2.039448678709315566e+00 4.458396508145468147e+02
2.039548700714156837e+00 4.459210663327070847e+02
2.039648722718998108e+00 4.460022355617336984e+02
2.039748744723838936e+00 4.460831515531615423e+02
2.039848766728680207e+00 4.461638074375620135e+02
2.039948788733521479e+00 4.462441964250746196e+02
2.040048810738362306e+00 4.463243118059238554e+02
2.040148832743203133e+00 4.464041469509272702e+02
2.040248854748044405e+00 4.464836953119897771e+02
2.040348876752885232e+00 4.465629504225865958e+02
2.040448898757726504e+00 4.466419058982344836e+02
2.040548920762567775e+00 4.467205554369498941e+02
2.040648942767408602e+00 4.467988928196976417e+02
2.040748964772249874e+00 4.468769119108233667e+02
2.040848986777090701e+00 4.469546066584773598e+02
2.040949008781931973e+00 4.470319710950261083e+02
2.041049030786772800e+00 4.471089993374489495e+02
2.041149052791614071e+00 4.471856855877252883e+02
2.041249074796454899e+00 4.472620241332090245e+02
2.041349096801296170e+00 4.473380093469888834e+02
2.041449118806137442e+00 4.474136356882386849e+02
2.041549140810978269e+00 4.474888977025553913e+02
2.041649162815819096e+00 4.475637900222826602e+02
2.041749184820660368e+00 4.476383073668245629e+02
2.041849206825501639e+00 4.477124445429446382e+02
2.041949228830342467e+00 4.477861964450543155e+02
2.042049250835183738e+00 4.478595580554899698e+02
2.042149272840024565e+00 4.479325244447737191e+02
2.042249294844865837e+00 4.480050907718656390e+02
2.042349316849706664e+00 4.480772522844022205e+02
2.042449338854547936e+00 4.481490043189219818e+02
2.042549360859388763e+00 4.482203423010797678e+02
2.042649382864230034e+00 4.482912617458472369e+02
2.042749404869071306e+00 4.483617582577025473e+02
2.042849426873912133e+00 4.484318275308065154e+02
2.042949448878752960e+00 4.485014653491676313e+02
2.043049470883594232e+00 4.485706675867921263e+02
2.043149492888435503e+00 4.486394302078252849e+02
2.043249514893276331e+00 4.487077492666780927e+02
2.043349536898117602e+00 4.487756209081405245e+02
2.043449558902958429e+00 4.488430413674857391e+02
2.043549580907799701e+00 4.489100069705602323e+02
2.043649602912640528e+00 4.489765141338604622e+02
2.043749624917481800e+00 4.490425593645990148e+02
2.043849646922322627e+00 4.491081392607580369e+02
2.043949668927163899e+00 4.491732505111306750e+02
2.044049690932005170e+00 4.492378898953490989e+02
2.044149712936845997e+00 4.493020542839008726e+02
2.044249734941687269e+00 4.493657406381348096e+02
2.044349756946528096e+00 4.494289460102529574e+02
2.044449778951368923e+00 4.494916675432896227e+02
2.044549800956210195e+00 4.495539024710816420e+02
2.044649822961051466e+00 4.496156481182226798e+02
2.044749844965892294e+00 4.496769019000078629e+02
2.044849866970733565e+00 4.497376613223672734e+02
2.044949888975574837e+00 4.497979239817836401e+02
2.045049910980415220e+00 4.498576875652035483e+02
2.045149932985256491e+00 4.499169498499320525e+02
2.045249954990097763e+00 4.499757087035179097e+02
2.045349976994938590e+00 4.500339620836263634e+02
2.045449998999779861e+00 4.500917080379013555e+02
2.045550021004621133e+00 4.501489447038125604e+02
2.045650043009461960e+00 4.502056703084970195e+02
2.045750065014302788e+00 4.502618831685821874e+02
2.045850087019144059e+00 4.503175816900020436e+02
2.045950109023984886e+00 4.503727643678013237e+02
2.046050131028826158e+00 4.504274297859261651e+02
2.046150153033667429e+00 4.504815766170044640e+02
2.046250175038508257e+00 4.505352036221165690e+02
2.046350197043349528e+00 4.505883096505529011e+02
2.046450219048190355e+00 4.506408936395600904e+02
2.046550241053031627e+00 4.506929546140768252e+02
2.046650263057872454e+00 4.507444916864602078e+02
2.046750285062713726e+00 4.507955040561964779e+02
2.046850307067554553e+00 4.508459910096075305e+02
2.046950329072395824e+00 4.508959519195390158e+02
2.047050351077237096e+00 4.509453862450448014e+02
2.047150373082077923e+00 4.509942935310554049e+02
2.047250395086918751e+00 4.510426734080385813e+02
2.047350417091760022e+00 4.510905255916480883e+02
2.047450439096601293e+00 4.511378498823631844e+02
2.047550461101442121e+00 4.511846461651164191e+02
2.047650483106283392e+00 4.512309144089118718e+02
2.047750505111124220e+00 4.512766546664331599e+02
2.047850527115965491e+00 4.513218670736391687e+02
2.047950549120806318e+00 4.513665518493540389e+02
2.048050571125647590e+00 4.514107092948447075e+02
2.048150593130488417e+00 4.514543397933846336e+02
2.048250615135329689e+00 4.514974438098168434e+02
2.048350637140170960e+00 4.515400218900961136e+02
2.048450659145011787e+00 4.515820746608330865e+02
2.048550681149852615e+00 4.516236028288183775e+02
2.048650703154693886e+00 4.516646071805432712e+02
2.048750725159535158e+00 4.517050885817107542e+02
2.048850747164375985e+00 4.517450479767339289e+02
2.048950769169217256e+00 4.517844863882273216e+02
2.049050791174058084e+00 4.518234049164914836e+02
2.049150813178898911e+00 4.518618047389829826e+02
2.049250835183740183e+00 4.518996871097801318e+02
2.049350857188581454e+00 4.519370533590376340e+02
2.049450879193422281e+00 4.519739048924344615e+02
2.049550901198263553e+00 4.520102431906105949e+02
2.049650923203104824e+00 4.520460698085956892e+02
2.049750945207945652e+00 4.520813863752321140e+02
2.049850967212786479e+00 4.521161945925859413e+02
2.049950989217627750e+00 4.521504962353521933e+02
2.050051011222468578e+00 4.521842931502506531e+02
2.050151033227309849e+00 4.522175872554147418e+02
2.050251055232151121e+00 4.522503805397703900e+02
2.050351077236991948e+00 4.522826750624110446e+02
2.050451099241833219e+00 4.523144729519600560e+02
2.050551121246674047e+00 4.523457764059299393e+02
2.050651143251514874e+00 4.523765876900710055e+02
2.050751165256356146e+00 4.524069091377139102e+02
2.050851187261197417e+00 4.524367431491054958e+02
2.050951209266038244e+00 4.524660921907360489e+02
2.051051231270879516e+00 4.524949587946616703e+02
2.051151253275720787e+00 4.525233455578160147e+02
2.051251275280561615e+00 4.525512551413207234e+02
2.051351297285402442e+00 4.525786902697831806e+02
2.051451319290243713e+00 4.526056537305930192e+02
2.051551341295084541e+00 4.526321483732075421e+02
2.051651363299925812e+00 4.526581771084361208e+02
2.051751385304767084e+00 4.526837429077099841e+02
2.051851407309607911e+00 4.527088488023589434e+02
2.051951429314448738e+00 4.527334978828666294e+02
2.052051451319290010e+00 4.527576932981335176e+02
2.052151473324131281e+00 4.527814382547244350e+02
2.052251495328972108e+00 4.528047360161181132e+02
2.052351517333813380e+00 4.528275899019438384e+02
2.052451539338654207e+00 4.528500032872191241e+02
2.052551561343495479e+00 4.528719796015788006e+02
2.052651583348336306e+00 4.528935223284992730e+02
2.052751605353177577e+00 4.529146350045190843e+02
2.052851627358018405e+00 4.529353212184520316e+02
2.052951649362859676e+00 4.529555846105996011e+02
2.053051671367700948e+00 4.529754288719542501e+02
2.053151693372541775e+00 4.529948577434029175e+02
2.053251715377383047e+00 4.530138750149199041e+02
2.053351737382223874e+00 4.530324845247639018e+02
2.053451759387065145e+00 4.530506901586619506e+02
2.053551781391905973e+00 4.530684958489960081e+02
2.053651803396747244e+00 4.530859055739842916e+02
2.053751825401588071e+00 4.531029233568551149e+02
2.053851847406429343e+00 4.531195532650221480e+02
2.053951869411270614e+00 4.531357994092551280e+02
2.054051891416111442e+00 4.531516659428405092e+02
2.054151913420952269e+00 4.531671570607534818e+02
2.054251935425793540e+00 4.531822769988096411e+02
2.054351957430634812e+00 4.531970300328268877e+02
2.054451979435475639e+00 4.532114204777782334e+02
2.054552001440316911e+00 4.532254526869436404e+02
2.054652023445157738e+00 4.532391310510579387e+02
2.054752045449998565e+00 4.532524599974586295e+02
2.054852067454839837e+00 4.532654439892298228e+02
2.054952089459681108e+00 4.532780875243441869e+02
2.055052111464521936e+00 4.532903951348030205e+02
2.055152133469363207e+00 4.533023713857727444e+02
2.055252155474204478e+00 4.533140208747250881e+02
2.055352177479045306e+00 4.533253482305681814e+02
2.055452199483886133e+00 4.533363581127803172e+02
2.055552221488727405e+00 4.533470552105433171e+02
2.055652243493568232e+00 4.533574442418716330e+02
2.055752265498409503e+00 4.533675299527415632e+02
2.055852287503250775e+00 4.533773171162201265e+02
2.055952309508091602e+00 4.533868105315931416e+02
2.056052331512932874e+00 4.533960150234900084e+02
2.056152353517773701e+00 4.534049354410115029e+02
2.056252375522614528e+00 4.534135766568546160e+02
2.056352397527455800e+00 4.534219435664383582e+02
2.056452419532297071e+00 4.534300410870282008e+02
2.056552441537137899e+00 4.534378741568606301e+02
2.056652463541979170e+00 4.534454477342692940e+02
2.056752485546820441e+00 4.534527667968091009e+02
2.056852507551661269e+00 4.534598363403810026e+02
2.056952529556502096e+00 4.534666613783601292e+02
2.057052551561343368e+00 4.534732469407187523e+02
2.057152573566184195e+00 4.534795980731569216e+02
2.057252595571025466e+00 4.534857198362261670e+02
2.057352617575866738e+00 4.534916173044611014e+02
2.057452639580707565e+00 4.534972955655081819e+02
2.057552661585548393e+00 4.535027597192574262e+02
2.057652683590389664e+00 4.535080148769712878e+02
2.057752705595230935e+00 4.535130661604234774e+02
2.057852727600071763e+00 4.535179187010283499e+02
2.057952749604913034e+00 4.535225776389825114e+02
2.058052771609753862e+00 4.535270481224002879e+02
2.058152793614595133e+00 4.535313353064545936e+02
2.058252815619435960e+00 4.535354443525199031e+02
2.058352837624277232e+00 4.535393804273176102e+02
2.058452859629118059e+00 4.535431487020606482e+02
2.058552881633959331e+00 4.535467543516038518e+02
2.058652903638800602e+00 4.535502025535971597e+02
2.058752925643641429e+00 4.535534984876371141e+02
2.058852947648482701e+00 4.535566473344260316e+02
2.058952969653323528e+00 4.535596542749308355e+02
2.059052991658164800e+00 4.535625244895461492e+02
2.059153013663005627e+00 4.535652631572608584e+02
2.059253035667846898e+00 4.535678754548263214e+02
2.059353057672687726e+00 4.535703665559300362e+02
2.059453079677528997e+00 4.535727416303701602e+02
2.059553101682370269e+00 4.535750058432358855e+02
2.059653123687211096e+00 4.535771643540905416e+02
2.059753145692051923e+00 4.535792223161579386e+02
2.059853167696893195e+00 4.535811848755143956e+02
2.059953189701734466e+00 4.535830571702807674e+02
2.060053211706575294e+00 4.535848443298244774e+02
2.060153233711416565e+00 4.535865514739602986e+02
2.060253255716257392e+00 4.535881837121597755e+02
2.060353277721098220e+00 4.535897461427599637e+02
2.060453299725939491e+00 4.535912438521817762e+02
2.060553321730780763e+00 4.535926819141518536e+02
2.060653343735621590e+00 4.535940653889255145e+02
2.060753365740462861e+00 4.535953993225194836e+02
2.060853387745304133e+00 4.535966887459459258e+02
2.060953409750144960e+00 4.535979386744530757e+02
2.061053431754985787e+00 4.535991541067712660e+02
2.061153453759827059e+00 4.536003400243636179e+02
2.061253475764667886e+00 4.536015013906821309e+02
2.061353497769509158e+00 4.536026431504283210e+02
2.061453519774350429e+00 4.536037702288223841e+02
2.061553541779191256e+00 4.536048875308735546e+02
2.061653563784032528e+00 4.536059999406594443e+02
2.061753585788873355e+00 4.536071123206109519e+02
2.061853607793714183e+00 4.536082295108008111e+02
2.061953629798555454e+00 4.536093563282418017e+02
2.062053651803396725e+00 4.536104975661863250e+02
2.062153673808237553e+00 4.536116579934366655e+02
2.062253695813078824e+00 4.536128423536588343e+02
2.062353717817920096e+00 4.536140553647026081e+02
2.062453739822760923e+00 4.536153017179312883e+02
2.062553761827601750e+00 4.536165860775523697e+02
2.062653783832443022e+00 4.536179130799601467e+02
2.062753805837283849e+00 4.536192873330820703e+02
2.062853827842125121e+00 4.536207134157324390e+02
2.062953849846966392e+00 4.536221958769727962e+02
2.063053871851807219e+00 4.536237392354810254e+02
2.063153893856648047e+00 4.536253479789226049e+02
2.063253915861489318e+00 4.536270265633356757e+02
2.063353937866330590e+00 4.536287794125177584e+02
2.063453959871171417e+00 4.536306109174218477e+02
2.063553981876012688e+00 4.536325254355602965e+02
2.063654003880853516e+00 4.536345272904140415e+02
2.063754025885694787e+00 4.536366207708521188e+02
2.063854047890535615e+00 4.536388101305560099e+02
2.063954069895376886e+00 4.536410995874527998e+02
2.064054091900217713e+00 4.536434933231543596e+02
2.064154113905058985e+00 4.536459954824096030e+02
2.064254135909900256e+00 4.536486101725550384e+02
2.064354157914741084e+00 4.536513414629830550e+02
2.064454179919582355e+00 4.536541933846103234e+02
2.064554201924423182e+00 4.536571699293606343e+02
2.064654223929264454e+00 4.536602750496483054e+02
2.064754245934105281e+00 4.536635126578777317e+02
2.064854267938946553e+00 4.536668866259434481e+02
2.064954289943787380e+00 4.536704007847446860e+02
2.065054311948628651e+00 4.536740589237043082e+02
2.065154333953469923e+00 4.536778647902966668e+02
2.065254355958310750e+00 4.536818220895836475e+02
2.065354377963151578e+00 4.536859344837617982e+02
2.065454399967992849e+00 4.536902055917119583e+02
2.065554421972834120e+00 4.536946389885649751e+02
2.065654443977674948e+00 4.536992382052667381e+02
2.065754465982516219e+00 4.537040067281631082e+02
2.065854487987357047e+00 4.537089479985809817e+02
2.065954509992197874e+00 4.537140654124282264e+02
2.066054531997039145e+00 4.537193623197963461e+02
2.066154554001880417e+00 4.537248420245738316e+02
2.066254576006721244e+00 4.537305077840673562e+02
2.066354598011562516e+00 4.537363628086334870e+02
2.066454620016403787e+00 4.537424102613169907e+02
2.066554642021244170e+00 4.537486532575002229e+02
2.066654664026085442e+00 4.537550948645581457e+02
2.066754686030926713e+00 4.537617381015244860e+02
2.066854708035767541e+00 4.537685859387689220e+02
2.066954730040608812e+00 4.537756412976771117e+02
2.067054752045450083e+00 4.537829070503456137e+02
2.067154774050290911e+00 4.537903860192828347e+02
2.067254796055131738e+00 4.537980809771185022e+02
2.067354818059973010e+00 4.538059946463243932e+02
2.067454840064813837e+00 4.538141296989422813e+02
2.067554862069655108e+00 4.538224887563221728e+02
2.067654884074496380e+00 4.538310743888659999e+02
2.067754906079337207e+00 4.538398891157883099e+02
2.067854928084178479e+00 4.538489354048768405e+02
2.067954950089019306e+00 4.538582156722673631e+02
2.068054972093860577e+00 4.538677322822271094e+02
2.068154994098701405e+00 4.538774875469464973e+02
2.068255016103542676e+00 4.538874837263408608e+02
2.068355038108383503e+00 4.538977230278600246e+02
2.068455060113224775e+00 4.539082076063066324e+02
2.068555082118066046e+00 4.539189395636668678e+02
2.068655104122906874e+00 4.539299209489474833e+02
2.068755126127747701e+00 4.539411537580209028e+02
2.068855148132588972e+00 4.539526399334830558e+02
2.068955170137430244e+00 4.539643813645175783e+02
2.069055192142271071e+00 4.539763798867699052e+02
2.069155214147112343e+00 4.539886372822307976e+02
2.069255236151953170e+00 4.540011552791281133e+02
2.069355258156794442e+00 4.540139355518288653e+02
2.069455280161635269e+00 4.540269797207497504e+02
2.069555302166476540e+00 4.540402893522758632e+02
2.069655324171317368e+00 4.540538659586912331e+02
2.069755346176158639e+00 4.540677109981151034e+02
2.069855368180999911e+00 4.540818258744479863e+02
2.069955390185840738e+00 4.540962119373290875e+02
2.070055412190681565e+00 4.541108704821015749e+02
2.070155434195522837e+00 4.541258027497827925e+02
2.070255456200364108e+00 4.541410099270523233e+02
2.070355478205204935e+00 4.541564931462384038e+02
2.070455500210046207e+00 4.541722534853214484e+02
2.070555522214887034e+00 4.541882919679447923e+02
2.070655544219728306e+00 4.542046095634283347e+02
2.070755566224569133e+00 4.542212071868008820e+02
2.070855588229410404e+00 4.542380856988319238e+02
2.070955610234251232e+00 4.542552459060801198e+02
2.071055632239092503e+00 4.542726885609434362e+02
2.071155654243933775e+00 4.542904143617239470e+02
2.071255676248774602e+00 4.543084239526975239e+02
2.071355698253615873e+00 4.543267179241930762e+02
2.071455720258456701e+00 4.543452968126812834e+02
2.071555742263297528e+00 4.543641611008724794e+02
2.071655764268138800e+00 4.543833112178189140e+02
2.071755786272980071e+00 4.544027475390312247e+02
2.071855808277820898e+00 4.544224703865991728e+02
2.071955830282662170e+00 4.544424800293235194e+02
2.072055852287503441e+00 4.544627766828534732e+02
2.072155874292343825e+00 4.544833605098357339e+02
2.072255896297185096e+00 4.545042316200679693e+02
2.072355918302026367e+00 4.545253900706644572e+02
2.072455940306867195e+00 4.545468358662267860e+02
2.072555962311708466e+00 4.545685689590258107e+02
2.072655984316549738e+00 4.545905892491870190e+02
2.072756006321390565e+00 4.546128965848890857e+02
2.072856028326231392e+00 4.546354907625668034e+02
2.072956050331072664e+00 4.546583715271239043e+02
2.073056072335913491e+00 4.546815385721527036e+02
2.073156094340754763e+00 4.547049915401615863e+02
2.073256116345596034e+00 4.547287300228110780e+02
2.073356138350436861e+00 4.547527535611567373e+02
2.073456160355278133e+00 4.547770616458992095e+02
2.073556182360118960e+00 4.548016537176450811e+02
2.073656204364960232e+00 4.548265291671693262e+02
2.073756226369801059e+00 4.548516873356911674e+02
2.073856248374642330e+00 4.548771275151545410e+02
2.073956270379483158e+00 4.549028489485146451e+02
2.074056292384324429e+00 4.549288508300345484e+02
2.074156314389165701e+00 4.549551323055881085e+02
2.074256336394006528e+00 4.549816924729675520e+02
2.074356358398847355e+00 4.550085303822024798e+02
2.074456380403688627e+00 4.550356450358807479e+02
2.074556402408529898e+00 4.550630353894825930e+02
2.074656424413370726e+00 4.550907003517138492e+02
2.074756446418211997e+00 4.551186387848540562e+02
2.074856468423052824e+00 4.551468495051030914e+02
2.074956490427894096e+00 4.551753312829428637e+02
2.075056512432734923e+00 4.552040828434978721e+02
2.075156534437576195e+00 4.552331028669066768e+02
2.075256556442417022e+00 4.552623899887000789e+02
2.075356578447258293e+00 4.552919428001815163e+02
2.075456600452099565e+00 4.553217598488183739e+02
2.075556622456940392e+00 4.553518396386378413e+02
2.075656644461781219e+00 4.553821806306258964e+02
2.075756666466622491e+00 4.554127812431370899e+02
2.075856688471463762e+00 4.554436398523071148e+02
2.075956710476304590e+00 4.554747547924720266e+02
2.076056732481145861e+00 4.555061243565946825e+02
2.076156754485986689e+00 4.555377467966910103e+02
2.076256776490827960e+00 4.555696203242723072e+02
2.076356798495668787e+00 4.556017431107822517e+02
2.076456820500510059e+00 4.556341132880453983e+02
2.076556842505350886e+00 4.556667289487203902e+02
2.076656864510192158e+00 4.556995881467564118e+02
2.076756886515033429e+00 4.557326888978562920e+02
2.076856908519874256e+00 4.557660291799447236e+02
2.076956930524715528e+00 4.557996069336400069e+02
2.077056952529556355e+00 4.558334200627334667e+02
2.077156974534397182e+00 4.558674664346696090e+02
2.077256996539238454e+00 4.559017438810338945e+02
2.077357018544079725e+00 4.559362501980466504e+02
2.077457040548920553e+00 4.559709831470553354e+02
2.077557062553761824e+00 4.560059404550385693e+02
2.077657084558603096e+00 4.560411198151081749e+02
2.077757106563443479e+00 4.560765188870208249e+02
2.077857128568284750e+00 4.561121352976904291e+02
2.077957150573126022e+00 4.561479666417034764e+02
2.078057172577966849e+00 4.561840104818444388e+02
2.078157194582808120e+00 4.562202643496157748e+02
2.078257216587649392e+00 4.562567257457718597e+02
2.078357238592490219e+00 4.562933921408461515e+02
2.078457260597331047e+00 4.563302609756923403e+02
2.078557282602172318e+00 4.563673296620197561e+02
2.078657304607013145e+00 4.564045955829392369e+02
2.078757326611854417e+00 4.564420560935067215e+02
2.078857348616695688e+00 4.564797085212751426e+02
2.078957370621536516e+00 4.565175501668437619e+02
2.079057392626377787e+00 4.565555783044160307e+02
2.079157414631218614e+00 4.565937901823564857e+02
2.079257436636059886e+00 4.566321830237518498e+02
2.079357458640900713e+00 4.566707540269752599e+02
2.079457480645741985e+00 4.567095003662515182e+02
2.079557502650582812e+00 4.567484191922266632e+02
2.079657524655424083e+00 4.567875076325386772e+02
2.079757546660265355e+00 4.568267627923895589e+02
2.079857568665106182e+00 4.568661817551240460e+02
2.079957590669947010e+00 4.569057615828030521e+02
2.080057612674788281e+00 4.569454993167874477e+02
2.080157634679629552e+00 4.569853919783149649e+02
2.080257656684470380e+00 4.570254365690882992e+02
2.080357678689311651e+00 4.570656300718550256e+02
2.080457700694152479e+00 4.571059694509981455e+02
2.080557722698993750e+00 4.571464516531212325e+02
2.080657744703834577e+00 4.571870736076401727e+02
2.080757766708675849e+00 4.572278322273700724e+02
2.080857788713516676e+00 4.572687244091217167e+02
2.080957810718357948e+00 4.573097470342899555e+02
2.081057832723199219e+00 4.573508969694502184e+02
2.081157854728040046e+00 4.573921710669522440e+02
2.081257876732880874e+00 4.574335661655152308e+02
2.081357898737722145e+00 4.574750790908244653e+02
2.081457920742563417e+00 4.575167066561268143e+02
2.081557942747404244e+00 4.575584456628301382e+02
2.081657964752245515e+00 4.576002929010981006e+02
2.081757986757086343e+00 4.576422451504487867e+02
2.081858008761927614e+00 4.576842991803545146e+02
2.081958030766768442e+00 4.577264517508360768e+02
2.082058052771609713e+00 4.577686996130643138e+02
2.082158074776450540e+00 4.578110395099548668e+02
2.082258096781291812e+00 4.578534681767688994e+02
2.082358118786133083e+00 4.578959823417072812e+02
2.082458140790973911e+00 4.579385787265091494e+02
2.082558162795815182e+00 4.579812540470479121e+02
2.082658184800656009e+00 4.580240050139270238e+02
2.082758206805496837e+00 4.580668283330742270e+02
2.082858228810338108e+00 4.581097207063360202e+02
2.082958250815179380e+00 4.581526788320724108e+02
2.083058272820020207e+00 4.581956994057464385e+02
2.083158294824861478e+00 4.582387791205164831e+02
2.083258316829702750e+00 4.582819146678270954e+02
2.083358338834543133e+00 4.583251027379967013e+02
2.083458360839384405e+00 4.583683400208037710e+02
2.083558382844225676e+00 4.584116232060758307e+02
2.083658404849066503e+00 4.584549489842694356e+02
2.083758426853907775e+00 4.584983140470553735e+02
2.083858448858749046e+00 4.585417150878994903e+02
2.083958470863589874e+00 4.585851488026397647e+02
2.084058492868430701e+00 4.586286118900645761e+02
2.084158514873271972e+00 4.586721010524870508e+02
2.084258536878112800e+00 4.587156129963180433e+02
2.084358558882954071e+00 4.587591444326368446e+02
2.084458580887795343e+00 4.588026920777583086e+02
2.084558602892636170e+00 4.588462526538000361e+02
2.084658624897476997e+00 4.588898228892454654e+02
2.084758646902318269e+00 4.589333995195028706e+02
2.084858668907159540e+00 4.589769792874658378e+02
2.084958690912000367e+00 4.590205589440668064e+02
2.085058712916841639e+00 4.590641352488302687e+02
2.085158734921682466e+00 4.591077049704228443e+02
2.085258756926523738e+00 4.591512648871981241e+02
2.085358778931364565e+00 4.591948117877421964e+02
2.085458800936205837e+00 4.592383424714114426e+02
2.085558822941046664e+00 4.592818537488718107e+02
2.085658844945887935e+00 4.593253424426322340e+02
2.085758866950729207e+00 4.593688053875724222e+02
2.085858888955570034e+00 4.594122394314716757e+02
2.085958910960411306e+00 4.594556414355333800e+02
2.086058932965252133e+00 4.594990082749006888e+02
2.086158954970093404e+00 4.595423368391743111e+02
2.086258976974934232e+00 4.595856240329254661e+02
2.086358998979775503e+00 4.596288667762023010e+02
2.086459020984616330e+00 4.596720620050333537e+02
2.086559042989457602e+00 4.597152066719293657e+02
2.086659064994298873e+00 4.597582977463781617e+02
2.086759086999139701e+00 4.598013322153353784e+02
2.086859109003980528e+00 4.598443070837145115e+02
2.086959131008821799e+00 4.598872193748651398e+02
2.087059153013663071e+00 4.599300661310581404e+02
2.087159175018503898e+00 4.599728444139535100e+02
2.087259197023345170e+00 4.600155513050732452e+02
2.087359219028185997e+00 4.600581839062659242e+02
2.087459241033026824e+00 4.601007393401663421e+02
2.087559263037868096e+00 4.601432147506512820e+02
2.087659285042709367e+00 4.601856073032894869e+02
2.087759307047550195e+00 4.602279141857887339e+02
2.087859329052391466e+00 4.602701326084364837e+02
2.087959351057232738e+00 4.603122598045329141e+02
2.088059373062073565e+00 4.603542930308261703e+02
2.088159395066914392e+00 4.603962295679341423e+02
2.088259417071755664e+00 4.604380667207663009e+02
2.088359439076596491e+00 4.604798018189397339e+02
2.088459461081437762e+00 4.605214322171860886e+02
2.088559483086279034e+00 4.605629552957599344e+02
2.088659505091119861e+00 4.606043684608342801e+02
2.088759527095961133e+00 4.606456691448942706e+02
2.088859549100801960e+00 4.606868548071294072e+02
2.088959571105642787e+00 4.607279229338092819e+02
2.089059593110484059e+00 4.607688710386658499e+02
2.089159615115325330e+00 4.608096966632617750e+02
2.089259637120166158e+00 4.608503973773557050e+02
2.089359659125007429e+00 4.608909707792626591e+02
2.089459681129848700e+00 4.609314144962070259e+02
2.089559703134689528e+00 4.609717261846706151e+02
2.089659725139530355e+00 4.610119035307342870e+02
2.089759747144371627e+00 4.610519442504132712e+02
2.089859769149212454e+00 4.610918460899877118e+02
2.089959791154053725e+00 4.611316068263266743e+02
2.090059813158894997e+00 4.611712242672032858e+02
2.090159835163735824e+00 4.612106962516103295e+02
2.090259857168576652e+00 4.612500206500621402e+02
2.090359879173417923e+00 4.612891953648934873e+02
2.090459901178259194e+00 4.613282183305555009e+02
2.090559923183100022e+00 4.613670875138991505e+02
2.090659945187941293e+00 4.614058009144563357e+02
2.090759967192782121e+00 4.614443565647134164e+02
2.090859989197623392e+00 4.614827525303798552e+02
2.090960011202464219e+00 4.615209869106465135e+02
2.091060033207305491e+00 4.615590578384426976e+02
2.091160055212146318e+00 4.615969634806826321e+02
2.091260077216987590e+00 4.616347020385074984e+02
2.091360099221828861e+00 4.616722717475199715e+02
2.091460121226669688e+00 4.617096708780126164e+02
2.091560143231510960e+00 4.617468977351895774e+02
2.091660165236351787e+00 4.617839506593820147e+02
2.091760187241193059e+00 4.618208280262558674e+02
2.091860209246033886e+00 4.618575282470137608e+02
2.091960231250875157e+00 4.618940497685903210e+02
2.092060253255715985e+00 4.619303910738418608e+02
2.092160275260557256e+00 4.619665506817244705e+02
2.092260297265398528e+00 4.620025271474723354e+02
2.092360319270239355e+00 4.620383190627646286e+02
2.092460341275080182e+00 4.620739250558865479e+02
2.092560363279921454e+00 4.621093437918843279e+02
2.092660385284762725e+00 4.621445739727124646e+02
2.092760407289603553e+00 4.621796143373763925e+02
2.092860429294444824e+00 4.622144636620643041e+02
2.092960451299285651e+00 4.622491207602757868e+02
2.093060473304126479e+00 4.622835844829425582e+02
2.093160495308967750e+00 4.623178537185416985e+02
2.093260517313809022e+00 4.623519273932009241e+02
2.093360539318649849e+00 4.623858044708024408e+02
2.093460561323491120e+00 4.624194839530721310e+02
2.093560583328332392e+00 4.624529648796672632e+02
2.093660605333173219e+00 4.624862463282571525e+02
2.093760627338014046e+00 4.625193274145939881e+02
2.093860649342855318e+00 4.625522072925782027e+02
2.093960671347696145e+00 4.625848851543198634e+02
2.094060693352537417e+00 4.626173602301879555e+02
2.094160715357378688e+00 4.626496317888560839e+02
2.094260737362219515e+00 4.626816991373428323e+02
2.094360759367060787e+00 4.627135616210404123e+02
2.094460781371901614e+00 4.627452186237417209e+02
2.094560803376742442e+00 4.627766695676559721e+02
2.094660825381583713e+00 4.628079139134220554e+02
2.094760847386424985e+00 4.628389511601102413e+02
2.094860869391265812e+00 4.628697808452230333e+02
2.094960891396107083e+00 4.629004025446829473e+02
2.095060913400948355e+00 4.629308158728179023e+02
2.095160935405789182e+00 4.629610204823373465e+02
2.095260957410630009e+00 4.629910160643051995e+02
2.095360979415471281e+00 4.630208023481010287e+02
2.095461001420312108e+00 4.630503791013791215e+02
2.095561023425153380e+00 4.630797461300174405e+02
2.095661045429994651e+00 4.631089032780632806e+02
2.095761067434835478e+00 4.631378504276696617e+02
2.095861089439676306e+00 4.631665874990259226e+02
2.095961111444517577e+00 4.631951144502821762e+02
2.096061133449358849e+00 4.632234312774671139e+02
2.096161155454199676e+00 4.632515380143977382e+02
2.096261177459040947e+00 4.632794347325868216e+02
2.096361199463881775e+00 4.633071215411385424e+02
2.096461221468723046e+00 4.633345985866416186e+02
2.096561243473563874e+00 4.633618660530536317e+02
2.096661265478405145e+00 4.633889241615812011e+02
2.096761287483245972e+00 4.634157731705522565e+02
2.096861309488087244e+00 4.634424133752829107e+02
2.096961331492928515e+00 4.634688451079351807e+02
2.097061353497769343e+00 4.634950687373756750e+02
2.097161375502610614e+00 4.635210846690185917e+02
2.097261397507451441e+00 4.635468933446705364e+02
2.097361419512292713e+00 4.635724952423642549e+02
2.097461441517133540e+00 4.635978908761891830e+02
2.097561463521974812e+00 4.636230807961143228e+02
2.097661485526815639e+00 4.636480655878057178e+02
2.097761507531656910e+00 4.636728458724392112e+02
2.097861529536498182e+00 4.636974223065034266e+02
2.097961551541339009e+00 4.637217955816029189e+02
2.098061573546179837e+00 4.637459664242492750e+02
2.098161595551021108e+00 4.637699355956507929e+02
2.098261617555862379e+00 4.637937038914948289e+02
2.098361639560703207e+00 4.638172721417250841e+02
2.098461661565544478e+00 4.638406412103122989e+02
2.098561683570385306e+00 4.638638119950182954e+02
2.098661705575226133e+00 4.638867854271607598e+02
2.098761727580067404e+00 4.639095624713632446e+02
2.098861749584908676e+00 4.639321441253066496e+02
2.098961771589749503e+00 4.639545314194737671e+02
2.099061793594590775e+00 4.639767254168859836e+02
2.099161815599432046e+00 4.639987272128378777e+02
2.099261837604272873e+00 4.640205379346266454e+02
2.099361859609113701e+00 4.640421587412733970e+02
2.099461881613954972e+00 4.640635908232408156e+02
2.099561903618795800e+00 4.640848354021485989e+02
2.099661925623637071e+00 4.641058937304789538e+02
2.099761947628478342e+00 4.641267670912811809e+02
2.099861969633319170e+00 4.641474567978704044e+02
2.099961991638160441e+00 4.641679641935193104e+02
2.100062013643001269e+00 4.641882906511489182e+02
2.100162035647842096e+00 4.642084375730111674e+02
2.100262057652683367e+00 4.642284063903707079e+02
2.100362079657524639e+00 4.642481985631763450e+02
2.100462101662365466e+00 4.642678155797348154e+02
2.100562123667206738e+00 4.642872589563771726e+02
2.100662145672048009e+00 4.643065302371179541e+02
2.100762167676888836e+00 4.643256309933150305e+02
2.100862189681729664e+00 4.643445628233221214e+02
2.100962211686570935e+00 4.643633273521373326e+02
2.101062233691411762e+00 4.643819262310514091e+02
2.101162255696253034e+00 4.644003611372850742e+02
2.101262277701094305e+00 4.644186337736294945e+02
2.101362299705935133e+00 4.644367458680765139e+02
2.101462321710775960e+00 4.644546991734529229e+02
2.101562343715617232e+00 4.644724954670401758e+02
2.101662365720458503e+00 4.644901365502033741e+02
2.101762387725299330e+00 4.645076242480046744e+02
2.101862409730140602e+00 4.645249604088223805e+02
2.101962431734981429e+00 4.645421469039591784e+02
2.102062453739822701e+00 4.645591856272544078e+02
2.102162475744663528e+00 4.645760784946853619e+02
2.102262497749504799e+00 4.645928274439731354e+02
2.102362519754345627e+00 4.646094344341775013e+02
2.102462541759186898e+00 4.646259014452974156e+02
2.102562563764028170e+00 4.646422304778580497e+02
2.102662585768868997e+00 4.646584235525063491e+02
2.102762607773709824e+00 4.646744827095944288e+02
2.102862629778551096e+00 4.646904100087658662e+02
2.102962651783392367e+00 4.647062075285357423e+02
2.103062673788233194e+00 4.647218773658704549e+02
2.103162695793074466e+00 4.647374216357658838e+02
2.103262717797915293e+00 4.647528424708181660e+02
2.103362739802756565e+00 4.647681420207985639e+02
2.103462761807597392e+00 4.647833224522207161e+02
2.103562783812438663e+00 4.647983859479097646e+02
2.103662805817279491e+00 4.648133347065652288e+02
2.103762827822120762e+00 4.648281709423264942e+02
2.103862849826962034e+00 4.648428968843319922e+02
2.103962871831802861e+00 4.648575147762808797e+02
2.104062893836644133e+00 4.648720268759854548e+02
2.104162915841484960e+00 4.648864354549338032e+02
2.104262937846325787e+00 4.649007427978380065e+02
2.104362959851167059e+00 4.649149512021895134e+02
2.104462981856008330e+00 4.649290629778089396e+02
2.104563003860849157e+00 4.649430804463973459e+02
2.104663025865690429e+00 4.649570059410810359e+02
2.104763047870531700e+00 4.649708418059620385e+02
2.104863069875372084e+00 4.649845903956630195e+02
2.104963091880213355e+00 4.649982540748709994e+02
2.105063113885054626e+00 4.650118352178816394e+02
2.105163135889895454e+00 4.650253362081415389e+02
2.105263157894736725e+00 4.650387594377918958e+02
2.105363179899577997e+00 4.650521073072083027e+02
2.105463201904418824e+00 4.650653822245410538e+02
2.105563223909259651e+00 4.650785866052552819e+02
2.105663245914100923e+00 4.650917228716720047e+02
2.105763267918941750e+00 4.651047934525043388e+02
2.105863289923783022e+00 4.651178007823981488e+02
2.105963311928624293e+00 4.651307473014696257e+02
2.106063333933465120e+00 4.651436354548437748e+02
2.106163355938306392e+00 4.651564676921916544e+02
2.106263377943147219e+00 4.651692464672696588e+02
2.106363399947988491e+00 4.651819742374565863e+02
2.106463421952829318e+00 4.651946534632916155e+02
2.106563443957670589e+00 4.652072866080141580e+02
2.106663465962511417e+00 4.652198761371001865e+02
2.106763487967352688e+00 4.652324245178040769e+02
2.106863509972193960e+00 4.652449342186959598e+02
2.106963531977034787e+00 4.652574077092019706e+02
2.107063553981875614e+00 4.652698474591459785e+02
2.107163575986716886e+00 4.652822559382905183e+02
2.107263597991558157e+00 4.652946356158775529e+02
2.107363619996398985e+00 4.653069889601731006e+02
2.107463642001240256e+00 4.653193184380110665e+02
2.107563664006081083e+00 4.653316265143363353e+02
2.107663686010922355e+00 4.653439156517516153e+02
2.107763708015763182e+00 4.653561883100662726e+02
2.107863730020604454e+00 4.653684469458415833e+02
2.107963752025445281e+00 4.653806940119424667e+02
2.108063774030286552e+00 4.653929319570880807e+02
2.108163796035127824e+00 4.654051632254036122e+02
2.108263818039968651e+00 4.654173902559750786e+02
2.108363840044809479e+00 4.654296154824044152e+02
2.108463862049650750e+00 4.654418413323665504e+02
2.108563884054492021e+00 4.654540702271709165e+02
2.108663906059332849e+00 4.654663045813181270e+02
2.108763928064174120e+00 4.654785468020666599e+02
2.108863950069014948e+00 4.654907992889945945e+02
2.108963972073856219e+00 4.655030644335695911e+02
2.109063994078697046e+00 4.655153446187158011e+02
2.109164016083538318e+00 4.655276422183851537e+02
2.109264038088379145e+00 4.655399595971310305e+02
2.109364060093220417e+00 4.655522991096858618e+02
2.109464082098061688e+00 4.655646631005367908e+02
2.109564104102902515e+00 4.655770539035072488e+02
2.109664126107743787e+00 4.655894738413412597e+02
2.109764148112584614e+00 4.656019252252883689e+02
2.109864170117425441e+00 4.656144103546922111e+02
2.109964192122266713e+00 4.656269315165830562e+02
2.110064214127107984e+00 4.656394909852700721e+02
2.110164236131948812e+00 4.656520910219401799e+02
2.110264258136790083e+00 4.656647338742582747e+02
2.110364280141631355e+00 4.656774217759676731e+02
2.110464302146471738e+00 4.656901569464993145e+02
2.110564324151313009e+00 4.657029415905807355e+02
2.110664346156154281e+00 4.657157778978466922e+02
2.110764368160995108e+00 4.657286680424572864e+02
2.110864390165836380e+00 4.657416141827149545e+02
2.110964412170677651e+00 4.657546184606891302e+02
2.111064434175518478e+00 4.657676830018418173e+02
2.111164456180359306e+00 4.657808099146562313e+02
2.111264478185200577e+00 4.657940012902718081e+02
2.111364500190041404e+00 4.658072592021180185e+02
2.111464522194882676e+00 4.658205857055593242e+02
2.111564544199723947e+00 4.658339828375357001e+02
2.111664566204564775e+00 4.658474526162125926e+02
2.111764588209406046e+00 4.658609970406322418e+02
2.111864610214246873e+00 4.658746180903719392e+02
2.111964632219088145e+00 4.658883177252000110e+02
2.112064654223928972e+00 4.659020978847426022e+02
2.112164676228770244e+00 4.659159604881529617e+02
2.112264698233611071e+00 4.659299074337787943e+02
2.112364720238452342e+00 4.659439405988450744e+02
2.112464742243293614e+00 4.659580618391302096e+02
2.112564764248134441e+00 4.659722729886530033e+02
2.112664786252975269e+00 4.659865758593614373e+02
2.112764808257816540e+00 4.660009722408265702e+02
2.112864830262657811e+00 4.660154638999410963e+02
2.112964852267498639e+00 4.660300525806220548e+02
2.113064874272339910e+00 4.660447400035179726e+02
2.113164896277180738e+00 4.660595278657207814e+02
2.113264918282022009e+00 4.660744178404821696e+02
2.113364940286862836e+00 4.660894115769352197e+02
2.113464962291704108e+00 4.661045106998192296e+02
2.113564984296544935e+00 4.661197168092128891e+02
2.113665006301386207e+00 4.661350314802666048e+02
2.113765028306227478e+00 4.661504562629447719e+02
2.113865050311068305e+00 4.661659926817711721e+02
2.113965072315909133e+00 4.661816422355776126e+02
2.114065094320750404e+00 4.661974063972596696e+02
2.114165116325591676e+00 4.662132866135386280e+02
2.114265138330432503e+00 4.662292843047229667e+02
2.114365160335273774e+00 4.662454008644814962e+02
2.114465182340114602e+00 4.662616376596173495e+02
2.114565204344955873e+00 4.662779960298496462e+02
2.114665226349796701e+00 4.662944772875968056e+02
2.114765248354637972e+00 4.663110827177690680e+02
2.114865270359478799e+00 4.663278135775641431e+02
2.114965292364320071e+00 4.663446710962683710e+02
2.115065314369161342e+00 4.663616564750633415e+02
2.115165336374002170e+00 4.663787708868373443e+02
2.115265358378843441e+00 4.663960154760025034e+02
2.115365380383684268e+00 4.664133913583190747e+02
2.115465402388525096e+00 4.664308996207200835e+02
2.115565424393366367e+00 4.664485413211472746e+02
2.115665446398207639e+00 4.664663174883903594e+02
2.115765468403048466e+00 4.664842291219279673e+02
2.115865490407889737e+00 4.665022771917802515e+02
2.115965512412731009e+00 4.665204626383637105e+02
2.116065534417571392e+00 4.665387863723509554e+02
2.116165556422412664e+00 4.665572492745370141e+02
2.116265578427253935e+00 4.665758521957117182e+02
2.116365600432094762e+00 4.665945959565373187e+02
2.116465622436936034e+00 4.666134813474308203e+02
2.116565644441777305e+00 4.666325091284520568e+02
2.116665666446618133e+00 4.666516800291991558e+02
2.116765688451458960e+00 4.666709947487070735e+02
2.116865710456300231e+00 4.666904539553533482e+02
2.116965732461141059e+00 4.667100582867690832e+02
2.117065754465982330e+00 4.667298083497567518e+02
2.117165776470823602e+00 4.667497047202100475e+02
2.117265798475664429e+00 4.667697479430445924e+02
2.117365820480505700e+00 4.667899385321301224e+02
2.117465842485346528e+00 4.668102769702292676e+02
2.117565864490187799e+00 4.668307637089441755e+02
2.117665886495028627e+00 4.668513991686655800e+02
2.117765908499869898e+00 4.668721837385310778e+02
2.117865930504710725e+00 4.668931177763855658e+02
2.117965952509551997e+00 4.669142016087492948e+02
2.118065974514393268e+00 4.669354355307916080e+02
2.118165996519234096e+00 4.669568198063101931e+02
2.118266018524074923e+00 4.669783546677160189e+02
2.118366040528916194e+00 4.670000403160230462e+02
2.118466062533757466e+00 4.670218769208447611e+02
2.118566084538598293e+00 4.670438646203963344e+02
2.118666106543439565e+00 4.670660035215021821e+02
2.118766128548280392e+00 4.670882936996074477e+02
2.118866150553121663e+00 4.671107351988004552e+02
2.118966172557962491e+00 4.671333280318321499e+02
2.119066194562803762e+00 4.671560721801508862e+02
2.119166216567644589e+00 4.671789675939348854e+02
2.119266238572485861e+00 4.672020141921349250e+02
2.119366260577327132e+00 4.672252118625202115e+02
2.119466282582167960e+00 4.672485604617330068e+02
2.119566304587008787e+00 4.672720598153432547e+02
2.119666326591850058e+00 4.672957097179156563e+02
2.119766348596691330e+00 4.673195099330748121e+02
2.119866370601532157e+00 4.673434601935841215e+02
2.119966392606373429e+00 4.673675602014224069e+02
2.120066414611214256e+00 4.673918096278709413e+02
2.120166436616055083e+00 4.674162081136045117e+02
2.120266458620896355e+00 4.674407552687870293e+02
2.120366480625737626e+00 4.674654506731735637e+02
2.120466502630578454e+00 4.674902938762186295e+02
2.120566524635419725e+00 4.675152843971871448e+02
2.120666546640260997e+00 4.675404217252731769e+02
2.120766568645101824e+00 4.675657053197228379e+02
2.120866590649942651e+00 4.675911346099629213e+02
2.120966612654783923e+00 4.676167089957345979e+02
2.121066634659624750e+00 4.676424278472322840e+02
2.121166656664466021e+00 4.676682905052477963e+02
2.121266678669307293e+00 4.676942962813193390e+02
2.121366700674148120e+00 4.677204444578872540e+02
2.121466722678989392e+00 4.677467342884506820e+02
2.121566744683830219e+00 4.677731649977354778e+02
2.121666766688671046e+00 4.677997357818621822e+02
2.121766788693512318e+00 4.678264458085204183e+02
2.121866810698353589e+00 4.678532942171480045e+02
2.121966832703194417e+00 4.678802801191183107e+02
2.122066854708035688e+00 4.679074025979267617e+02
2.122166876712876959e+00 4.679346607093845023e+02
2.122266898717717787e+00 4.679620534818219539e+02
2.122366920722558614e+00 4.679895799162864023e+02
2.122466942727399886e+00 4.680172389867562970e+02
2.122566964732240713e+00 4.680450296403504922e+02
2.122666986737081984e+00 4.680729507975491970e+02
2.122767008741923256e+00 4.681010013524135047e+02
2.122867030746764083e+00 4.681291801728149267e+02
2.122967052751604911e+00 4.681574861006648121e+02
2.123067074756446182e+00 4.681859179521540000e+02
2.123167096761287453e+00 4.682144745179884922e+02
2.123267118766128281e+00 4.682431545636385977e+02
2.123367140770969552e+00 4.682719568295853492e+02
2.123467162775810380e+00 4.683008800315760141e+02
2.123567184780651651e+00 4.683299228608802878e+02
2.123667206785492478e+00 4.683590839845534219e+02
2.123767228790333750e+00 4.683883620457013990e+02
2.123867250795174577e+00 4.684177556637525868e+02
2.123967272800015849e+00 4.684472634347287681e+02
2.124067294804857120e+00 4.684768839315288460e+02
2.124167316809697947e+00 4.685066157042049326e+02
2.124267338814539219e+00 4.685364572802524208e+02
2.124367360819380046e+00 4.685664071648984645e+02
2.124467382824221318e+00 4.685964638413963712e+02
2.124567404829062145e+00 4.686266257713215850e+02
2.124667426833903416e+00 4.686568913948741510e+02
2.124767448838744244e+00 4.686872591311831684e+02
2.124867470843585515e+00 4.687177273786141996e+02
2.124967492848426787e+00 4.687482945150815681e+02
2.125067514853267614e+00 4.687789588983636122e+02
2.125167536858108441e+00 4.688097188664213490e+02
2.125267558862949713e+00 4.688405727377199810e+02
2.125367580867790984e+00 4.688715188115535852e+02
2.125467602872631812e+00 4.689025553683750900e+02
2.125567624877473083e+00 4.689336806701259093e+02
2.125667646882313910e+00 4.689648929605714898e+02
2.125767668887154738e+00 4.689961904656389038e+02
2.125867690891996009e+00 4.690275713937572846e+02
2.125967712896837281e+00 4.690590339362012173e+02
2.126067734901678108e+00 4.690905762674371999e+02
2.126167756906519379e+00 4.691221965454728320e+02
2.126267778911360651e+00 4.691538929122077661e+02
2.126367800916201478e+00 4.691856634937896047e+02
2.126467822921042305e+00 4.692175064009692278e+02
2.126567844925883577e+00 4.692494197294622609e+02
2.126667866930724404e+00 4.692814015603104849e+02
2.126767888935565676e+00 4.693134499602440428e+02
2.126867910940406947e+00 4.693455629820515469e+02
2.126967932945247775e+00 4.693777386649470600e+02
2.127067954950089046e+00 4.694099750349411124e+02
2.127167976954929873e+00 4.694422701052156981e+02
2.127267998959770701e+00 4.694746218764976220e+02
2.127368020964611972e+00 4.695070283374375890e+02
2.127468042969453244e+00 4.695394874649882695e+02
2.127568064974294071e+00 4.695719972247862870e+02
2.127668086979135342e+00 4.696045555715341493e+02
2.127768108983976614e+00 4.696371604493855330e+02
2.127868130988817441e+00 4.696698097923323871e+02
2.127968152993658268e+00 4.697025015245911845e+02
2.128068174998499540e+00 4.697352335609936631e+02
2.128168197003340367e+00 4.697680038073774540e+02
2.128268219008181639e+00 4.698008101609770506e+02
2.128368241013022910e+00 4.698336505108198935e+02
2.128468263017863737e+00 4.698665227381177374e+02
2.128568285022704565e+00 4.698994247166665446e+02
2.128668307027545836e+00 4.699323543132402961e+02
2.128768329032387108e+00 4.699653093879903736e+02
2.128868351037227935e+00 4.699982877948451687e+02
2.128968373042069206e+00 4.700312873819091237e+02
2.129068395046910034e+00 4.700643059918636482e+02
2.129168417051751305e+00 4.700973414623683198e+02
2.129268439056592133e+00 4.701303916264643590e+02
2.129368461061433404e+00 4.701634543129763415e+02
2.129468483066274231e+00 4.701965273469149906e+02
2.129568505071115503e+00 4.702296085498831530e+02
2.129668527075956774e+00 4.702626957404772838e+02
2.129768549080797602e+00 4.702957867346939906e+02
2.129868571085638873e+00 4.703288793463332809e+02
2.129968593090479700e+00 4.703619713874058448e+02
2.130068615095320972e+00 4.703950606685345974e+02
2.130168637100161799e+00 4.704281449993634396e+02
2.130268659105003071e+00 4.704612221889597663e+02
2.130368681109843898e+00 4.704942900462210673e+02
2.130468703114685169e+00 4.705273463802780611e+02
2.130568725119526441e+00 4.705603890009020915e+02
2.130668747124367268e+00 4.705934157189054758e+02
2.130768769129208096e+00 4.706264243465492427e+02
2.130868791134049367e+00 4.706594126979438215e+02
2.130968813138890638e+00 4.706923785894533125e+02
2.131068835143731466e+00 4.707253198400978818e+02
2.131168857148572737e+00 4.707582342719547341e+02
2.131268879153413565e+00 4.707911197105597125e+02
2.131368901158254392e+00 4.708239739853074184e+02
2.131468923163095663e+00 4.708567949298490021e+02
2.131568945167936935e+00 4.708895803824931932e+02
2.131668967172777762e+00 4.709223281866025559e+02
2.131768989177619034e+00 4.709550361909884941e+02
2.131869011182460305e+00 4.709877022503073363e+02
2.131969033187301132e+00 4.710203242254559086e+02
2.132069055192141960e+00 4.710528999839601738e+02
2.132169077196983231e+00 4.710854274003713726e+02
2.132269099201824059e+00 4.711179043566529572e+02
2.132369121206665330e+00 4.711503287425688313e+02
2.132469143211506601e+00 4.711826984560721598e+02
2.132569165216347429e+00 4.712150114036897435e+02
2.132669187221188700e+00 4.712472655009048026e+02
2.132769209226029528e+00 4.712794586725402723e+02
2.132869231230870355e+00 4.713115888531369819e+02
2.132969253235711626e+00 4.713436539873351876e+02
2.133069275240552898e+00 4.713756520302469539e+02
2.133169297245393725e+00 4.714075809478338215e+02
2.133269319250234997e+00 4.714394387172752658e+02
2.133369341255076268e+00 4.714712233273435231e+02
2.133469363259917095e+00 4.715029327787669331e+02
2.133569385264757923e+00 4.715345650845986825e+02
2.133669407269599194e+00 4.715661182705790679e+02
2.133769429274440022e+00 4.715975903754961109e+02
2.133869451279281293e+00 4.716289794515446943e+02
2.133969473284122564e+00 4.716602835646819472e+02
2.134069495288963392e+00 4.716915007949821756e+02
2.134169517293804219e+00 4.717226292369852558e+02
2.134269539298645491e+00 4.717536670000482673e+02
2.134369561303486762e+00 4.717846122086868945e+02
2.134469583308327589e+00 4.718154630029214331e+02
2.134569605313168861e+00 4.718462175386160879e+02
2.134669627318009688e+00 4.718768739878133829e+02
2.134769649322850960e+00 4.719074305390707309e+02
2.134869671327691787e+00 4.719378853977906942e+02
2.134969693332533058e+00 4.719682367865487436e+02
2.135069715337373886e+00 4.719984829454182318e+02
2.135169737342215157e+00 4.720286221322909341e+02
2.135269759347056429e+00 4.720586526231965081e+02
2.135369781351897256e+00 4.720885727126172924e+02
2.135469803356738527e+00 4.721183807137990698e+02
2.135569825361579355e+00 4.721480749590612618e+02
2.135669847366420626e+00 4.721776538000999608e+02
2.135769869371261453e+00 4.722071156082889161e+02
2.135869891376102725e+00 4.722364587749802922e+02
2.135969913380943552e+00 4.722656817117950823e+02
2.136069935385784824e+00 4.722947828509164765e+02
2.136169957390625651e+00 4.723237606453757280e+02
2.136269979395466923e+00 4.723526135693342098e+02
2.136370001400307750e+00 4.723813401183645624e+02
2.136470023405149021e+00 4.724099388097255314e+02
2.136570045409990293e+00 4.724384081826322017e+02
2.136670067414831120e+00 4.724667467985262306e+02
2.136770089419672392e+00 4.724949532413376119e+02
2.136870111424513219e+00 4.725230261177448483e+02
2.136970133429354046e+00 4.725509640574304626e+02
2.137070155434195318e+00 4.725787657133337234e+02
2.137170177439036589e+00 4.726064297618963224e+02
2.137270199443877416e+00 4.726339549033059484e+02
2.137370221448718688e+00 4.726613398617367920e+02
2.137470243453559959e+00 4.726885833855823194e+02
2.137570265458400343e+00 4.727156842476873635e+02
2.137670287463241614e+00 4.727426412455726563e+02
2.137770309468082885e+00 4.727694532016581661e+02
2.137870331472923713e+00 4.727961189634785342e+02
2.137970353477764984e+00 4.728226374038982271e+02
2.138070375482606256e+00 4.728490074213188450e+02
2.138170397487447083e+00 4.728752279398817677e+02
2.138270419492287910e+00 4.729012979096695517e+02
2.138370441497129182e+00 4.729272163068997656e+02
2.138470463501970009e+00 4.729529821341154729e+02
2.138570485506811281e+00 4.729785944203699728e+02
2.138670507511652552e+00 4.730040522214086991e+02
2.138770529516493379e+00 4.730293546198449803e+02
2.138870551521334651e+00 4.730545007253309109e+02
2.138970573526175478e+00 4.730794896747256075e+02
2.139070595531016750e+00 4.731043206322549963e+02
2.139170617535857577e+00 4.731289927896706331e+02
2.139270639540698848e+00 4.731535053664012480e+02
2.139370661545539676e+00 4.731778576096997426e+02
2.139470683550380947e+00 4.732020487947872880e+02
2.139570705555222219e+00 4.732260782249891236e+02
2.139670727560063046e+00 4.732499452318687645e+02
2.139770749564903873e+00 4.732736491753544783e+02
2.139870771569745145e+00 4.732971894438636014e+02
2.139970793574586416e+00 4.733205654544186700e+02
