1.900056013443226277e+00 5.130760242262800830e+02
1.900156037448987645e+00 5.130706516639952497e+02
1.900256061454749013e+00 5.130652550206787055e+02
1.900356085460510380e+00 5.130598346017459335e+02
1.900456109466271748e+00 5.130543907132380355e+02
1.900556133472033338e+00 5.130489236618095674e+02
1.900656157477794705e+00 5.130434337547150108e+02
1.900756181483556073e+00 5.130379212997952436e+02
1.900856205489317441e+00 5.130323866054654900e+02
1.900956229495078809e+00 5.130268299807015637e+02
1.901056253500840176e+00 5.130212517350277039e+02
1.901156277506601544e+00 5.130156521785013410e+02
1.901256301512362912e+00 5.130100316217022964e+02
1.901356325518124279e+00 5.130043903757191401e+02
1.901456349523885647e+00 5.129987287521341841e+02
1.901556373529647015e+00 5.129930470630123409e+02
1.901656397535408383e+00 5.129873456208872540e+02
1.901756421541169750e+00 5.129816247387482235e+02
1.901856445546931118e+00 5.129758847300256548e+02
1.901956469552692486e+00 5.129701259085800302e+02
1.902056493558453854e+00 5.129643485886856524e+02
1.902156517564215221e+00 5.129585530850220039e+02
1.902256541569976589e+00 5.129527397126545338e+02
1.902356565575737957e+00 5.129469087870255635e+02
1.902456589581499546e+00 5.129410606239391655e+02
1.902556613587260914e+00 5.129351955395487721e+02
1.902656637593022282e+00 5.129293138503433056e+02
1.902756661598783650e+00 5.129234158731329671e+02
1.902856685604545017e+00 5.129175019250367313e+02
1.902956709610306385e+00 5.129115723234691586e+02
1.903056733616067753e+00 5.129056273861262980e+02
1.903156757621829120e+00 5.128996674309721584e+02
1.903256781627590488e+00 5.128936927762263167e+02
1.903356805633351856e+00 5.128877037403483428e+02
1.903456829639113224e+00 5.128817006420272264e+02
1.903556853644874591e+00 5.128756838001650067e+02
1.903656877650635959e+00 5.128696535338648346e+02
1.903756901656397327e+00 5.128636101624178991e+02
1.903856925662158694e+00 5.128575540052880797e+02
1.903956949667920062e+00 5.128514853821005772e+02
1.904056973673681430e+00 5.128454046126263393e+02
1.904156997679442798e+00 5.128393120167693269e+02
1.904257021685204609e+00 5.128332079145551461e+02
1.904357045690965755e+00 5.128270926261127443e+02
1.904457069696727345e+00 5.128209664716655425e+02
1.904557093702488491e+00 5.128148297715143826e+02
1.904657117708250080e+00 5.128086828460269544e+02
1.904757141714011226e+00 5.128025260156224476e+02
1.904857165719772816e+00 5.127963596007571141e+02
1.904957189725533961e+00 5.127901839219134672e+02
1.905057213731295551e+00 5.127839992995841385e+02
1.905157237737056697e+00 5.127778060542588037e+02
1.905257261742818287e+00 5.127716045064125865e+02
1.905357285748579432e+00 5.127653949764899153e+02
1.905457309754341022e+00 5.127591777848926995e+02
1.905557333760102168e+00 5.127529532519649820e+02
1.905657357765863757e+00 5.127467216979815703e+02
1.905757381771624903e+00 5.127404834431332574e+02
1.905857405777386493e+00 5.127342388075122699e+02
1.905957429783147639e+00 5.127279881111010127e+02
1.906057453788909228e+00 5.127217316737568353e+02
1.906157477794670818e+00 5.127154698151990715e+02
1.906257501800432186e+00 5.127092028549951692e+02
1.906357525806193554e+00 5.127029311125472759e+02
1.906457549811954921e+00 5.126966549070788233e+02
1.906557573817716289e+00 5.126903745576207712e+02
1.906657597823477657e+00 5.126840903830000116e+02
1.906757621829239024e+00 5.126778027018214061e+02
1.906857645835000392e+00 5.126715118324583500e+02
1.906957669840761760e+00 5.126652180930377654e+02
1.907057693846523128e+00 5.126589218014271410e+02
1.907157717852284495e+00 5.126526232752203214e+02
1.907257741858045863e+00 5.126463228317234098e+02
1.907357765863807231e+00 5.126400207879447635e+02
1.907457789869568598e+00 5.126337174605760083e+02
1.907557813875329966e+00 5.126274131659854447e+02
1.907657837881091334e+00 5.126211082201965610e+02
1.907757861886852702e+00 5.126148029388829173e+02
1.907857885892614069e+00 5.126084976373472273e+02
1.907957909898375659e+00 5.126021926305144234e+02
1.908057933904137027e+00 5.125958882329146036e+02
1.908157957909898395e+00 5.125895847586700711e+02
1.908257981915659762e+00 5.125832825214816921e+02
1.908358005921421130e+00 5.125769818346182092e+02
1.908458029927182498e+00 5.125706830108995291e+02
1.908558053932943865e+00 5.125643863626856955e+02
1.908658077938705233e+00 5.125580922018630190e+02
1.908758101944466601e+00 5.125518008398308893e+02
1.908858125950227969e+00 5.125455125874867690e+02
1.908958149955989336e+00 5.125392277552168707e+02
1.909058173961750704e+00 5.125329466528792182e+02
1.909158197967512072e+00 5.125266695897922773e+02
1.909258221973273439e+00 5.125203968747229055e+02
1.909358245979034807e+00 5.125141288158696398e+02
1.909458269984796175e+00 5.125078657208537152e+02
1.909558293990557543e+00 5.125016078967029216e+02
1.909658317996318910e+00 5.124953556498400076e+02
1.909758342002080278e+00 5.124891092860699473e+02
1.909858366007841868e+00 5.124828691105658436e+02
1.909958390013603236e+00 5.124766354278566496e+02
1.910058414019364603e+00 5.124704085418142085e+02
1.910158438025125971e+00 5.124641887556400661e+02
1.910258462030887339e+00 5.124579763718523964e+02
1.910358486036648706e+00 5.124517716922744057e+02
1.910458510042410074e+00 5.124455750180190989e+02
1.910558534048171442e+00 5.124393866494797294e+02
1.910658558053932810e+00 5.124332068863129734e+02
1.910758582059694177e+00 5.124270360274304039e+02
1.910858606065455545e+00 5.124208743709824603e+02
1.910958630071216913e+00 5.124147222143479894e+02
1.911058654076978280e+00 5.124085798541196937e+02
1.911158678082739648e+00 5.124024475860929897e+02
1.911258702088501016e+00 5.123963257052527069e+02
1.911358726094262384e+00 5.123902145057606958e+02
1.911458750100023751e+00 5.123841142809433222e+02
1.911558774105785119e+00 5.123780253232789619e+02
1.911658798111546709e+00 5.123719479243857222e+02
1.911758822117308299e+00 5.123658823750070042e+02
1.911858846123069444e+00 5.123598289650037714e+02
1.911958870128831034e+00 5.123537879833370425e+02
1.912058894134592180e+00 5.123477597180592511e+02
1.912158918140353769e+00 5.123417444562987839e+02
1.912258942146114915e+00 5.123357424842513410e+02
1.912358966151876505e+00 5.123297540871644742e+02
1.912458990157637650e+00 5.123237795493270141e+02
1.912559014163399240e+00 5.123178191540567923e+02
1.912659038169160386e+00 5.123118731836893858e+02
1.912759062174921976e+00 5.123059419195629971e+02
1.912859086180683121e+00 5.123000256420101550e+02
1.912959110186444711e+00 5.122941246303437310e+02
1.913059134192205857e+00 5.122882391628454570e+02
1.913159158197967447e+00 5.122823695167530786e+02
1.913259182203728592e+00 5.122765159682501235e+02
1.913359206209490182e+00 5.122706787924531682e+02
1.913459230215251328e+00 5.122648582634001286e+02
1.913559254221013139e+00 5.122590546540384366e+02
1.913659278226774507e+00 5.122532682362145806e+02
1.913759302232535875e+00 5.122474992806587579e+02
1.913859326238297243e+00 5.122417480569793042e+02
1.913959350244058610e+00 5.122360148336452994e+02
1.914059374249819978e+00 5.122302998779776999e+02
1.914159398255581346e+00 5.122246034561396755e+02
1.914259422261342714e+00 5.122189258331200108e+02
1.914359446267104081e+00 5.122132672727278759e+02
1.914459470272865449e+00 5.122076280375764554e+02
1.914559494278626817e+00 5.122020083890753313e+02
1.914659518284388184e+00 5.121964085874160446e+02
1.914759542290149552e+00 5.121908288915643652e+02
1.914859566295910920e+00 5.121852695592458531e+02
1.914959590301672288e+00 5.121797308469368772e+02
1.915059614307433655e+00 5.121742130098532471e+02
1.915159638313195023e+00 5.121687163019387299e+02
1.915259662318956391e+00 5.121632409758535687e+02
1.915359686324717980e+00 5.121577872829660691e+02
1.915459710330479348e+00 5.121523554733388437e+02
1.915559734336240716e+00 5.121469457957197164e+02
1.915659758342002084e+00 5.121415584975302409e+02
1.915759782347763451e+00 5.121361938248559227e+02
1.915859806353524819e+00 5.121308520224347376e+02
1.915959830359286187e+00 5.121255333336474678e+02
1.916059854365047554e+00 5.121202380005056511e+02
1.916159878370808922e+00 5.121149662636430548e+02
1.916259902376570290e+00 5.121097183623033970e+02
1.916359926382331658e+00 5.121044945343317067e+02
1.916459950388093025e+00 5.120992950161634099e+02
1.916559974393854393e+00 5.120941200428128468e+02
1.916659998399615761e+00 5.120889698478663377e+02
1.916760022405377129e+00 5.120838446634672891e+02
1.916860046411138496e+00 5.120787447203110787e+02
1.916960070416899864e+00 5.120736702476320943e+02
1.917060094422661232e+00 5.120686214731936161e+02
1.917160118428422599e+00 5.120635986232797450e+02
1.917260142434184189e+00 5.120586019226851704e+02
1.917360166439945557e+00 5.120536315947033472e+02
1.917460190445706925e+00 5.120486878611201291e+02
1.917560214451468292e+00 5.120437709422012631e+02
1.917660238457229660e+00 5.120388810566838629e+02
1.917760262462991028e+00 5.120340184217675414e+02
1.917860286468752395e+00 5.120291832531045202e+02
1.917960310474513763e+00 5.120243757647888287e+02
1.918060334480275131e+00 5.120195961693499385e+02
1.918160358486036499e+00 5.120148446777401432e+02
1.918260382491797866e+00 5.120101214993284202e+02
1.918360406497559234e+00 5.120054268418895163e+02
1.918460430503320602e+00 5.120007609115940568e+02
1.918560454509081969e+00 5.119961239130025206e+02
1.918660478514843337e+00 5.119915160490536437e+02
1.918760502520604705e+00 5.119869375210561202e+02
1.918860526526366073e+00 5.119823885286804170e+02
1.918960550532127440e+00 5.119778692699491671e+02
1.919060574537889252e+00 5.119733799412301778e+02
1.919160598543650398e+00 5.119689207372256305e+02
1.919260622549411988e+00 5.119644918509648051e+02
1.919360646555173133e+00 5.119600934737947000e+02
1.919460670560934723e+00 5.119557257953741214e+02
1.919560694566695869e+00 5.119513890036614612e+02
1.919660718572457458e+00 5.119470832849092972e+02
1.919760742578218604e+00 5.119428088236554117e+02
1.919860766583980194e+00 5.119385658027136969e+02
1.919960790589741340e+00 5.119343544031682995e+02
1.920060814595502929e+00 5.119301748043632756e+02
1.920160838601264075e+00 5.119260271838960534e+02
1.920260862607025665e+00 5.119219117176093619e+02
1.920360886612786810e+00 5.119178285795823626e+02
1.920460910618548400e+00 5.119137779421247956e+02
1.920560934624309546e+00 5.119097599757683952e+02
1.920660958630071136e+00 5.119057748492583642e+02
1.920760982635832281e+00 5.119018227295476891e+02
1.920861006641593871e+00 5.118979037817886706e+02
1.920961030647355461e+00 5.118940181693249087e+02
1.921061054653116829e+00 5.118901660536859595e+02
1.921161078658878196e+00 5.118863475945783534e+02
1.921261102664639564e+00 5.118825629498790022e+02
1.921361126670400932e+00 5.118788122756292864e+02
1.921461150676162299e+00 5.118750957260257906e+02
1.921561174681923667e+00 5.118714134534146183e+02
1.921661198687685035e+00 5.118677656082857084e+02
1.921761222693446403e+00 5.118641523392637396e+02
1.921861246699207770e+00 5.118605737931030717e+02
1.921961270704969138e+00 5.118570301146807537e+02
1.922061294710730506e+00 5.118535214469891912e+02
1.922161318716491873e+00 5.118500479311322238e+02
1.922261342722253241e+00 5.118466097063146663e+02
1.922361366728014609e+00 5.118432069098400348e+02
1.922461390733775977e+00 5.118398396771010539e+02
1.922561414739537344e+00 5.118365081415761324e+02
1.922661438745298712e+00 5.118332124348215189e+02
1.922761462751060302e+00 5.118299526864662994e+02
1.922861486756821670e+00 5.118267290242055765e+02
1.922961510762583037e+00 5.118235415737956941e+02
1.923061534768344405e+00 5.118203904590478146e+02
1.923161558774105773e+00 5.118172758018216086e+02
1.923261582779867140e+00 5.118141977220217882e+02
1.923361606785628508e+00 5.118111563375892956e+02
1.923461630791389876e+00 5.118081517645000531e+02
1.923561654797151244e+00 5.118051841167549583e+02
1.923661678802912611e+00 5.118022535063782925e+02
1.923761702808673979e+00 5.117993600434108430e+02
1.923861726814435347e+00 5.117965038359047867e+02
1.923961750820196714e+00 5.117936849899186313e+02
1.924061774825958082e+00 5.117909036095141460e+02
1.924161798831719450e+00 5.117881597967479479e+02
1.924261822837480818e+00 5.117854536516696839e+02
1.924361846843242185e+00 5.117827852723150954e+02
1.924461870849003553e+00 5.117801547547041991e+02
1.924561894854764921e+00 5.117775621928334999e+02
1.924661918860526510e+00 5.117750076786737736e+02
1.924761942866287878e+00 5.117724913021651787e+02
1.924861966872049246e+00 5.117700131512121402e+02
1.924961990877810614e+00 5.117675733116797119e+02
1.925062014883571981e+00 5.117651718673899950e+02
1.925162038889333349e+00 5.117628089001165108e+02
1.925262062895094717e+00 5.117604844895822112e+02
1.925362086900856085e+00 5.117581987134539077e+02
1.925462110906617452e+00 5.117559516473386338e+02
1.925562134912378820e+00 5.117537433647818830e+02
1.925662158918140188e+00 5.117515739372611279e+02
1.925762182923901555e+00 5.117494434341839451e+02
1.925862206929662923e+00 5.117473519228842633e+02
1.925962230935424291e+00 5.117452994686186685e+02
1.926062254941185659e+00 5.117432861345631068e+02
1.926162278946947026e+00 5.117413119818112364e+02
1.926262302952708394e+00 5.117393770693672082e+02
1.926362326958469762e+00 5.117374814541481669e+02
1.926462350964231351e+00 5.117356251909761795e+02
1.926562374969992941e+00 5.117338083325789739e+02
1.926662398975754087e+00 5.117320309295847096e+02
1.926762422981515677e+00 5.117302930305214659e+02
1.926862446987276822e+00 5.117285946818121829e+02
1.926962470993038412e+00 5.117269359277735816e+02
1.927062494998799558e+00 5.117253168106138901e+02
1.927162519004561148e+00 5.117237373704297738e+02
1.927262543010322293e+00 5.117221976452046306e+02
1.927362567016083883e+00 5.117206976708056914e+02
1.927462591021845029e+00 5.117192374809820308e+02
1.927562615027606618e+00 5.117178171073635440e+02
1.927662639033367764e+00 5.117164365794576497e+02
1.927762663039129354e+00 5.117150959246482671e+02
1.927862687044890500e+00 5.117137951681935419e+02
1.927962711050652089e+00 5.117125343332242551e+02
1.928062735056413235e+00 5.117113134407429129e+02
1.928162759062174825e+00 5.117101325096221558e+02
1.928262783067935970e+00 5.117089915566011200e+02
1.928362807073697782e+00 5.117078905962867452e+02
1.928462831079459150e+00 5.117068296411522965e+02
1.928562855085220518e+00 5.117058087015346928e+02
1.928662879090981885e+00 5.117048277856349614e+02
1.928762903096743253e+00 5.117038868995152825e+02
1.928862927102504621e+00 5.117029860471006941e+02
1.928962951108265989e+00 5.117021252301764775e+02
1.929062975114027356e+00 5.117013044483873045e+02
1.929162999119788724e+00 5.117005236992375785e+02
1.929263023125550092e+00 5.116997829780910934e+02
1.929363047131311459e+00 5.116990822781686461e+02
1.929463071137072827e+00 5.116984215905503106e+02
1.929563095142834195e+00 5.116978009041725954e+02
1.929663119148595563e+00 5.116972202058297512e+02
1.929763143154356930e+00 5.116966794801741685e+02
1.929863167160118298e+00 5.116961787097139904e+02
1.929963191165879666e+00 5.116957178748158981e+02
1.930063215171641033e+00 5.116952969537039735e+02
1.930163239177402623e+00 5.116949159224585060e+02
1.930263263183163991e+00 5.116945747550201986e+02
1.930363287188925359e+00 5.116942734231857912e+02
1.930463311194686726e+00 5.116940118966128352e+02
1.930563335200448094e+00 5.116937901428166242e+02
1.930663359206209462e+00 5.116936081271747412e+02
1.930763383211970829e+00 5.116934658129234776e+02
1.930863407217732197e+00 5.116933631611618125e+02
1.930963431223493565e+00 5.116933001308518101e+02
1.931063455229254933e+00 5.116932766788195863e+02
1.931163479235016300e+00 5.116932927597541720e+02
1.931263503240777668e+00 5.116933483262120035e+02
1.931363527246539036e+00 5.116934433286171497e+02
1.931463551252300404e+00 5.116935777152619380e+02
1.931563575258061771e+00 5.116937514323078062e+02
1.931663599263823139e+00 5.116939644237891684e+02
1.931763623269584507e+00 5.116942166316133580e+02
1.931863647275345874e+00 5.116945079955625033e+02
1.931963671281107464e+00 5.116948384532955743e+02
1.932063695286868832e+00 5.116952079403502580e+02
1.932163719292630200e+00 5.116956163901452328e+02
1.932263743298391567e+00 5.116960637339814753e+02
1.932363767304152935e+00 5.116965499010450458e+02
1.932463791309914303e+00 5.116970748184091349e+02
1.932563815315675670e+00 5.116976384110364506e+02
1.932663839321437038e+00 5.116982406017813219e+02
1.932763863327198406e+00 5.116988813113925403e+02
1.932863887332959774e+00 5.116995604585163733e+02
1.932963911338721141e+00 5.117002779596982691e+02
1.933063935344482509e+00 5.117010337293857560e+02
1.933163959350243877e+00 5.117018276799315686e+02
1.933263983356005244e+00 5.117026597215976835e+02
1.933364007361766612e+00 5.117035297625565136e+02
1.933464031367527980e+00 5.117044377088946021e+02
1.933564055373289348e+00 5.117053834646159771e+02
1.933664079379050715e+00 5.117063669316454479e+02
1.933764103384812083e+00 5.117073880098321297e+02
1.933864127390573895e+00 5.117084465969531948e+02
1.933964151396335041e+00 5.117095425887159195e+02
1.934064175402096630e+00 5.117106758787617764e+02
1.934164199407857776e+00 5.117118463586724033e+02
1.934264223413619366e+00 5.117130539179713082e+02
1.934364247419380511e+00 5.117142984441261433e+02
1.934464271425142101e+00 5.117155798225564354e+02
1.934564295430903247e+00 5.117168979366352914e+02
1.934664319436664837e+00 5.117182526676937755e+02
1.934764343442425982e+00 5.117196438950254560e+02
1.934864367448187572e+00 5.117210714958909534e+02
1.934964391453948718e+00 5.117225353455208960e+02
1.935064415459710307e+00 5.117240353171225138e+02
1.935164439465471453e+00 5.117255712818824236e+02
1.935264463471233043e+00 5.117271431089725979e+02
1.935364487476994189e+00 5.117287506655533207e+02
1.935464511482755778e+00 5.117303938167797810e+02
1.935564535488516924e+00 5.117320724258064502e+02
1.935664559494278736e+00 5.117337863537910607e+02
1.935764583500040104e+00 5.117355354599007455e+02
1.935864607505801471e+00 5.117373196013176084e+02
1.935964631511562839e+00 5.117391386332418506e+02
1.936064655517324207e+00 5.117409924088992739e+02
1.936164679523085574e+00 5.117428807795452030e+02
1.936264703528846942e+00 5.117448035944702269e+02
1.936364727534608310e+00 5.117467607010066786e+02
1.936464751540369678e+00 5.117487519445332964e+02
1.936564775546131045e+00 5.117507771684813633e+02
1.936664799551892413e+00 5.117528362143394247e+02
1.936764823557653781e+00 5.117549289216608486e+02
1.936864847563415148e+00 5.117570551280684299e+02
1.936964871569176516e+00 5.117592146692610413e+02
1.937064895574937884e+00 5.117614073790203975e+02
1.937164919580699252e+00 5.117636330892146930e+02
1.937264943586460619e+00 5.117658916298082659e+02
1.937364967592221987e+00 5.117681828288649513e+02
1.937464991597983355e+00 5.117705065125562669e+02
1.937565015603744945e+00 5.117728625051682911e+02
1.937665039609506312e+00 5.117752506291056420e+02
1.937765063615267680e+00 5.117776707049013112e+02
1.937865087621029048e+00 5.117801225512217229e+02
1.937965111626790415e+00 5.117826059848729301e+02
1.938065135632551783e+00 5.117851208208086291e+02
1.938165159638313151e+00 5.117876668721374926e+02
1.938265183644074519e+00 5.117902439501291951e+02
1.938365207649835886e+00 5.117928518642214044e+02
1.938465231655597254e+00 5.117954904220275125e+02
1.938565255661358622e+00 5.117981594293441958e+02
1.938665279667119989e+00 5.118008586901590888e+02
1.938765303672881357e+00 5.118035880066551613e+02
1.938865327678642725e+00 5.118063471792231667e+02
1.938965351684404093e+00 5.118091360064646551e+02
1.939065375690165460e+00 5.118119542852024892e+02
1.939165399695926828e+00 5.118148018104877792e+02
1.939265423701688196e+00 5.118176783756065902e+02
1.939365447707449785e+00 5.118205837720894351e+02
1.939465471713211153e+00 5.118235177897190624e+02
1.939565495718972521e+00 5.118264802165358560e+02
1.939665519724733889e+00 5.118294708388506251e+02
1.939765543730495256e+00 5.118324894412479580e+02
1.939865567736256624e+00 5.118355358065978180e+02
1.939965591742017992e+00 5.118386097160627060e+02
1.940065615747779360e+00 5.118417109491045949e+02
1.940165639753540727e+00 5.118448392834963556e+02
1.940265663759302095e+00 5.118479944953277254e+02
1.940365687765063463e+00 5.118511763590154260e+02
1.940465711770824830e+00 5.118543846473104963e+02
1.940565735776586198e+00 5.118576191313082404e+02
1.940665759782347566e+00 5.118608795804566398e+02
1.940765783788108934e+00 5.118641657625650510e+02
1.940865807793870301e+00 5.118674774438122768e+02
1.940965831799631669e+00 5.118708143887589586e+02
1.941065855805393037e+00 5.118741763603505888e+02
1.941165879811154404e+00 5.118775631199339955e+02
1.941265903816915994e+00 5.118809744272592752e+02
1.941365927822677584e+00 5.118844100404959363e+02
1.941465951828438730e+00 5.118878697162364233e+02
1.941565975834200319e+00 5.118913532095094183e+02
1.941665999839961465e+00 5.118948602737872307e+02
1.941766023845723055e+00 5.118983906609963128e+02
1.941866047851484200e+00 5.119019441215263555e+02
1.941966071857245790e+00 5.119055204042399509e+02
1.942066095863006936e+00 5.119091192564839048e+02
1.942166119868768526e+00 5.119127404240958867e+02
1.942266143874529671e+00 5.119163836514173909e+02
1.942366167880291261e+00 5.119200486813018642e+02
1.942466191886052407e+00 5.119237352551251092e+02
1.942566215891813997e+00 5.119274431127959701e+02
1.942666239897575142e+00 5.119311719927653712e+02
1.942766263903336732e+00 5.119349216320371738e+02
1.942866287909097878e+00 5.119386917661787493e+02
1.942966311914859467e+00 5.119424821293304149e+02
1.943066335920621057e+00 5.119462924542165183e+02
1.943166359926382425e+00 5.119501224721547032e+02
1.943266383932143793e+00 5.119539719130684716e+02
1.943366407937905160e+00 5.119578405054959376e+02
1.943466431943666528e+00 5.119617279766007982e+02
1.943566455949427896e+00 5.119656340521837024e+02
1.943666479955189264e+00 5.119695584566920274e+02
1.943766503960950631e+00 5.119735009132312484e+02
1.943866527966711999e+00 5.119774611435761926e+02
1.943966551972473367e+00 5.119814388681806463e+02
1.944066575978234734e+00 5.119854338061891212e+02
1.944166599983996102e+00 5.119894456754480530e+02
1.944266623989757470e+00 5.119934741925166577e+02
1.944366647995518838e+00 5.119975190726777328e+02
1.944466672001280205e+00 5.120015800299487410e+02
1.944566696007041573e+00 5.120056567770951688e+02
1.944666720012802941e+00 5.120097490256374613e+02
1.944766744018564308e+00 5.120138564858668815e+02
1.944866768024325676e+00 5.120179788668538094e+02
1.944966792030087266e+00 5.120221158764611573e+02
1.945066816035848634e+00 5.120262672213543738e+02
1.945166840041610001e+00 5.120304326070144043e+02
1.945266864047371369e+00 5.120346117377480368e+02
1.945366888053132737e+00 5.120388043167001797e+02
1.945466912058894104e+00 5.120430100458652305e+02
1.945566936064655472e+00 5.120472286260991268e+02
1.945666960070416840e+00 5.120514597571311697e+02
1.945766984076178208e+00 5.120557031375764154e+02
1.945867008081939575e+00 5.120599584649460212e+02
1.945967032087700943e+00 5.120642254356605463e+02
1.946067056093462311e+00 5.120685037450607524e+02
1.946167080099223679e+00 5.120727930874223830e+02
1.946267104104985046e+00 5.120770931559634391e+02
1.946367128110746414e+00 5.120814036428619147e+02
1.946467152116507782e+00 5.120857242392635271e+02
1.946567176122269149e+00 5.120900546352961555e+02
1.946667200128030517e+00 5.120943945200816643e+02
1.946767224133792107e+00 5.120987435817482947e+02
1.946867248139553475e+00 5.121031015074429433e+02
1.946967272145314842e+00 5.121074679833428718e+02
1.947067296151076210e+00 5.121118426946698037e+02
1.947167320156837578e+00 5.121162253257003840e+02
1.947267344162598945e+00 5.121206155597808447e+02
1.947367368168360313e+00 5.121250130793376911e+02
1.947467392174121681e+00 5.121294175658915719e+02
1.947567416179883049e+00 5.121338287000697846e+02
1.947667440185644416e+00 5.121382461616174169e+02
1.947767464191405784e+00 5.121426696294138310e+02
1.947867488197167152e+00 5.121470987814800537e+02
1.947967512202928519e+00 5.121515332949959429e+02
1.948067536208689887e+00 5.121559728463125793e+02
1.948167560214451255e+00 5.121604171109619301e+02
1.948267584220212623e+00 5.121648657636748112e+02
1.948367608225973990e+00 5.121693184783888455e+02
1.948467632231735358e+00 5.121737749282646064e+02
1.948567656237496726e+00 5.121782347856981232e+02
1.948667680243258538e+00 5.121826977223330459e+02
1.948767704249019683e+00 5.121871634090744010e+02
1.948867728254781273e+00 5.121916315161017792e+02
1.948967752260542419e+00 5.121961017128824096e+02
1.949067776266304008e+00 5.122005736681844610e+02
1.949167800272065154e+00 5.122050470500905703e+02
1.949267824277826744e+00 5.122095215260096666e+02
1.949367848283587890e+00 5.122139967626920907e+02
1.949467872289349479e+00 5.122184724262425561e+02
1.949567896295110625e+00 5.122229481821319723e+02
1.949667920300872215e+00 5.122274236952134743e+02
1.949767944306633360e+00 5.122318986297335641e+02
1.949867968312394950e+00 5.122363726493460945e+02
1.949967992318156096e+00 5.122408454171271615e+02
1.950068016323917686e+00 5.122453165955868144e+02
1.950168040329678831e+00 5.122497858466826983e+02
1.950268064335440421e+00 5.122542528318361974e+02
1.950368088341201567e+00 5.122587172119428942e+02
1.950468112346963379e+00 5.122631786473864395e+02
1.950568136352724746e+00 5.122676367980551504e+02
1.950668160358486114e+00 5.122720913233520150e+02
1.950768184364247482e+00 5.122765418822111769e+02
1.950868208370008849e+00 5.122809881331105544e+02
1.950968232375770217e+00 5.122854297340842322e+02
1.951068256381531585e+00 5.122898663427394013e+02
1.951168280387292953e+00 5.122942976162663626e+02
1.951268304393054320e+00 5.122987232114567178e+02
1.951368328398815688e+00 5.123031427847120085e+02
1.951468352404577056e+00 5.123075559920633850e+02
1.951568376410338423e+00 5.123119624891788817e+02
1.951668400416099791e+00 5.123163619313841082e+02
1.951768424421861159e+00 5.123207539736713443e+02
1.951868448427622527e+00 5.123251382707148878e+02
1.951968472433383894e+00 5.123295144768864020e+02
1.952068496439145262e+00 5.123338822462661710e+02
1.952168520444906630e+00 5.123382412326594704e+02
1.952268544450667997e+00 5.123425910896090727e+02
1.952368568456429587e+00 5.123469314704104818e+02
1.952468592462190955e+00 5.123512620281243244e+02
1.952568616467952323e+00 5.123555824155932896e+02
1.952668640473713690e+00 5.123598922854511102e+02
1.952768664479475058e+00 5.123641912901431397e+02
1.952868688485236426e+00 5.123684790819348791e+02
1.952968712490997794e+00 5.123727553129292573e+02
1.953068736496759161e+00 5.123770196350801598e+02
1.953168760502520529e+00 5.123812717002040245e+02
1.953268784508281897e+00 5.123855111599986003e+02
1.953368808514043264e+00 5.123897376660536338e+02
1.953468832519804632e+00 5.123939508698656482e+02
1.953568856525566000e+00 5.123981504228524955e+02
1.953668880531327368e+00 5.124023359763680219e+02
1.953768904537088735e+00 5.124065071817146872e+02
1.953868928542850103e+00 5.124106636901602769e+02
1.953968952548611471e+00 5.124148051529485883e+02
1.954068976554372838e+00 5.124189312213169387e+02
1.954169000560134428e+00 5.124230415465087844e+02
1.954269024565895796e+00 5.124271357797877045e+02
1.954369048571657164e+00 5.124312135724528616e+02
1.954469072577418531e+00 5.124352745758505989e+02
1.954569096583179899e+00 5.124393184413931976e+02
1.954669120588941267e+00 5.124433448205680861e+02
1.954769144594702635e+00 5.124473533649547790e+02
1.954869168600464002e+00 5.124513437262401112e+02
1.954969192606225370e+00 5.124553155562293796e+02
1.955069216611986738e+00 5.124592685068623723e+02
1.955169240617748105e+00 5.124632022302275800e+02
1.955269264623509473e+00 5.124671163785767476e+02
1.955369288629270841e+00 5.124710106043380620e+02
1.955469312635032209e+00 5.124748845601320681e+02
1.955569336640793576e+00 5.124787378987824695e+02
1.955669360646554944e+00 5.124825702733351136e+02
1.955769384652316312e+00 5.124863813370673142e+02
1.955869408658077679e+00 5.124901707435061553e+02
1.955969432663839047e+00 5.124939381464407688e+02
1.956069456669600637e+00 5.124976831999365459e+02
1.956169480675362227e+00 5.125014055583490062e+02
1.956269504681123372e+00 5.125051048763389190e+02
1.956369528686884962e+00 5.125087808088867405e+02
1.956469552692646108e+00 5.125124330113046653e+02
1.956569576698407698e+00 5.125160611392539067e+02
1.956669600704168843e+00 5.125196648487560651e+02
1.956769624709930433e+00 5.125232437962083623e+02
1.956869648715691579e+00 5.125267976383991027e+02
1.956969672721453168e+00 5.125303260325193833e+02
1.957069696727214314e+00 5.125338286361782139e+02
1.957169720732975904e+00 5.125373051074177511e+02
1.957269744738737050e+00 5.125407551047256902e+02
1.957369768744498639e+00 5.125441782870500447e+02
1.957469792750259785e+00 5.125475743138144935e+02
1.957569816756021375e+00 5.125509428449287270e+02
1.957669840761782520e+00 5.125542835408072051e+02
1.957769864767544110e+00 5.125575960623800711e+02
1.957869888773305700e+00 5.125608800711081585e+02
1.957969912779067068e+00 5.125641352289964061e+02
1.958069936784828435e+00 5.125673611986093192e+02
1.958169960790589803e+00 5.125705576430829069e+02
1.958269984796351171e+00 5.125737242261396887e+02
1.958370008802112539e+00 5.125768606121037010e+02
1.958470032807873906e+00 5.125799664659118662e+02
1.958570056813635274e+00 5.125830414531297947e+02
1.958670080819396642e+00 5.125860852399659962e+02
1.958770104825158009e+00 5.125890974932827930e+02
1.958870128830919377e+00 5.125920778806147382e+02
1.958970152836680745e+00 5.125950260701787329e+02
1.959070176842442113e+00 5.125979417308888060e+02
1.959170200848203480e+00 5.126008245323698702e+02
1.959270224853964848e+00 5.126036741449732972e+02
1.959370248859726216e+00 5.126064902397871492e+02
1.959470272865487583e+00 5.126092724886523229e+02
1.959570296871248951e+00 5.126120205641768734e+02
1.959670320877010319e+00 5.126147341397465880e+02
1.959770344882771909e+00 5.126174128895415834e+02
1.959870368888533276e+00 5.126200564885484710e+02
1.959970392894294644e+00 5.126226646125746811e+02
1.960070416900056012e+00 5.126252369382606275e+02
1.960170440905817379e+00 5.126277731430946005e+02
1.960270464911578747e+00 5.126302729054266365e+02
1.960370488917340115e+00 5.126327359044802279e+02
1.960470512923101483e+00 5.126351618203664202e+02
1.960570536928862850e+00 5.126375503340980231e+02
1.960670560934624218e+00 5.126399011276024567e+02
1.960770584940385586e+00 5.126422138837347120e+02
1.960870608946146953e+00 5.126444882862914483e+02
1.960970632951908321e+00 5.126467240200234983e+02
1.961070656957669689e+00 5.126489207706492834e+02
1.961170680963431057e+00 5.126510782248678879e+02
1.961270704969192424e+00 5.126531960703741788e+02
1.961370728974953792e+00 5.126552739958676739e+02
1.961470752980715160e+00 5.126573116910699355e+02
1.961570776986476750e+00 5.126593088467362804e+02
1.961670800992238117e+00 5.126612651546672623e+02
1.961770824997999485e+00 5.126631803077232235e+02
1.961870849003760853e+00 5.126650539998379372e+02
1.961970873009522220e+00 5.126668859260286126e+02
1.962070897015283588e+00 5.126686757824123788e+02
1.962170921021044956e+00 5.126704232662174263e+02
1.962270945026806324e+00 5.126721280757942623e+02
1.962370969032567691e+00 5.126737899106316263e+02
1.962470993038329059e+00 5.126754084713666089e+02
1.962571017044090427e+00 5.126769834597996578e+02
1.962671041049851794e+00 5.126785145789042417e+02
1.962771065055613162e+00 5.126800015328428799e+02
1.962871089061374530e+00 5.126814440269761235e+02
1.962971113067135898e+00 5.126828417678793812e+02
1.963071137072897265e+00 5.126841944633504227e+02
1.963171161078658633e+00 5.126855018224264313e+02
1.963271185084420001e+00 5.126867635553924174e+02
1.963371209090181368e+00 5.126879793737979298e+02
1.963471233095943180e+00 5.126891489904636501e+02
1.963571257101704326e+00 5.126902721195004915e+02
1.963671281107465916e+00 5.126913484763157385e+02
1.963771305113227061e+00 5.126923777776287352e+02
1.963871329118988651e+00 5.126933597414817996e+02
1.963971353124749797e+00 5.126942940872520467e+02
1.964071377130511387e+00 5.126951805356645764e+02
1.964171401136272532e+00 5.126960188088036148e+02
1.964271425142034122e+00 5.126968086301242238e+02
1.964371449147795268e+00 5.126975497244646931e+02
1.964471473153556857e+00 5.126982418180575678e+02
1.964571497159318003e+00 5.126988846385432907e+02
1.964671521165079593e+00 5.126994779149803207e+02
1.964771545170840739e+00 5.127000213778561601e+02
1.964871569176602328e+00 5.127005147591012246e+02
1.964971593182363474e+00 5.127009577920987340e+02
1.965071617188125064e+00 5.127013502116973314e+02
1.965171641193886209e+00 5.127016917542199508e+02
1.965271665199648021e+00 5.127019821574799607e+02
1.965371689205409389e+00 5.127022211607877580e+02
1.965471713211170757e+00 5.127024085049646374e+02
1.965571737216932124e+00 5.127025439323547289e+02
1.965671761222693492e+00 5.127026271868321601e+02
1.965771785228454860e+00 5.127026580138182226e+02
1.965871809234216228e+00 5.127026361602867155e+02
1.965971833239977595e+00 5.127025613747791795e+02
1.966071857245738963e+00 5.127024334074133094e+02
1.966171881251500331e+00 5.127022520098951190e+02
1.966271905257261698e+00 5.127020169355296275e+02
1.966371929263023066e+00 5.127017279392308637e+02
1.966471953268784434e+00 5.127013847775333488e+02
1.966571977274545802e+00 5.127009872086034648e+02
1.966672001280307169e+00 5.127005349922478672e+02
1.966772025286068537e+00 5.127000278899270143e+02
1.966872049291829905e+00 5.126994656647626698e+02
1.966972073297591272e+00 5.126988480815502953e+02
1.967072097303352640e+00 5.126981749067689407e+02
1.967172121309114230e+00 5.126974459085921580e+02
1.967272145314875598e+00 5.126966608568966421e+02
1.967372169320636965e+00 5.126958195232742810e+02
1.967472193326398333e+00 5.126949216810396592e+02
1.967572217332159701e+00 5.126939671052437006e+02
1.967672241337921069e+00 5.126929555726812850e+02
1.967772265343682436e+00 5.126918868619021623e+02
1.967872289349443804e+00 5.126907607532193651e+02
1.967972313355205172e+00 5.126895770287198957e+02
1.968072337360966539e+00 5.126883354722771173e+02
1.968172361366727907e+00 5.126870358695546201e+02
1.968272385372489275e+00 5.126856780080216822e+02
1.968372409378250643e+00 5.126842616769582719e+02
1.968472433384012010e+00 5.126827866674681218e+02
1.968572457389773378e+00 5.126812527724860047e+02
1.968672481395534746e+00 5.126796597867883065e+02
1.968772505401296113e+00 5.126780075069995064e+02
1.968872529407057481e+00 5.126762957316058191e+02
1.968972553412819071e+00 5.126745242609613342e+02
1.969072577418580439e+00 5.126726928972968835e+02
1.969172601424341806e+00 5.126708014447308415e+02
1.969272625430103174e+00 5.126688497092770831e+02
1.969372649435864542e+00 5.126668374988531696e+02
1.969472673441625910e+00 5.126647646232906936e+02
1.969572697447387277e+00 5.126626308943428967e+02
1.969672721453148645e+00 5.126604361256930815e+02
1.969772745458910013e+00 5.126581801329642758e+02
1.969872769464671380e+00 5.126558627337269627e+02
1.969972793470432748e+00 5.126534837475069253e+02
1.970072817476194116e+00 5.126510429957962742e+02
1.970172841481955484e+00 5.126485403020571994e+02
1.970272865487716851e+00 5.126459754917350438e+02
1.970372889493478219e+00 5.126433483922628511e+02
1.970472913499239587e+00 5.126406588330718250e+02
1.970572937505000954e+00 5.126379066455964448e+02
1.970672961510762322e+00 5.126350916632865165e+02
1.970772985516523690e+00 5.126322137216105830e+02
1.970873009522285280e+00 5.126292726580664976e+02
1.970973033528046869e+00 5.126262683121889268e+02
1.971073057533808015e+00 5.126232005255563990e+02
1.971173081539569605e+00 5.126200691417975577e+02
1.971273105545330750e+00 5.126168740066009377e+02
1.971373129551092340e+00 5.126136149677217873e+02
1.971473153556853486e+00 5.126102918749871833e+02
1.971573177562615076e+00 5.126069045803069457e+02
1.971673201568376221e+00 5.126034529376771616e+02
1.971773225574137811e+00 5.125999368031897347e+02
1.971873249579898957e+00 5.125963560350387525e+02
1.971973273585660547e+00 5.125927104935256011e+02
1.972073297591421692e+00 5.125890000410698804e+02
1.972173321597183282e+00 5.125852245422113356e+02
1.972273345602944428e+00 5.125813838636196351e+02
1.972373369608706017e+00 5.125774778741007367e+02
1.972473393614467163e+00 5.125735064446017759e+02
1.972573417620228753e+00 5.125694694482197065e+02
1.972673441625990343e+00 5.125653667602055066e+02
1.972773465631751710e+00 5.125611982579710002e+02
1.972873489637513078e+00 5.125569638210970425e+02
1.972973513643274446e+00 5.125526633313370439e+02
1.973073537649035814e+00 5.125482966726240193e+02
1.973173561654797181e+00 5.125438637310757031e+02
1.973273585660558549e+00 5.125393643950027354e+02
1.973373609666319917e+00 5.125347985549121859e+02
1.973473633672081284e+00 5.125301661035138068e+02
1.973573657677842652e+00 5.125254669357258308e+02
1.973673681683604020e+00 5.125207009486807692e+02
1.973773705689365388e+00 5.125158680417301866e+02
1.973873729695126755e+00 5.125109681164506128e+02
1.973973753700888123e+00 5.125060010766482037e+02
1.974073777706649491e+00 5.125009668283652218e+02
1.974173801712410858e+00 5.124958652798835601e+02
1.974273825718172226e+00 5.124906963417304269e+02
1.974373849723933594e+00 5.124854599266842570e+02
1.974473873729694962e+00 5.124801559497763037e+02
1.974573897735456551e+00 5.124747843283009843e+02
1.974673921741217919e+00 5.124693449818148565e+02
1.974773945746979287e+00 5.124638378321450318e+02
1.974873969752740654e+00 5.124582628033915626e+02
1.974973993758502022e+00 5.124526198219319895e+02
1.975074017764263390e+00 5.124469088164285040e+02
1.975174041770024758e+00 5.124411297178273799e+02
1.975274065775786125e+00 5.124352824593678406e+02
1.975374089781547493e+00 5.124293669765828554e+02
1.975474113787308861e+00 5.124233832073047097e+02
1.975574137793070228e+00 5.124173310916684159e+02
1.975674161798831596e+00 5.124112105721160333e+02
1.975774185804592964e+00 5.124050215933989421e+02
1.975874209810354332e+00 5.123987641025842095e+02
1.975974233816115699e+00 5.123924380490545900e+02
1.976074257821877067e+00 5.123860433845154603e+02
1.976174281827638435e+00 5.123795800629958421e+02
1.976274305833399803e+00 5.123730480408523817e+02
1.976374329839161392e+00 5.123664472767725329e+02
1.976474353844922760e+00 5.123597777317780810e+02
1.976574377850684128e+00 5.123530393692279858e+02
1.976674401856445495e+00 5.123462321548206546e+02
1.976774425862206863e+00 5.123393560565973530e+02
1.976874449867968231e+00 5.123324110449455020e+02
1.976974473873729599e+00 5.123253970925995873e+02
1.977074497879490966e+00 5.123183141746465026e+02
1.977174521885252334e+00 5.123111622685240718e+02
1.977274545891013702e+00 5.123039413540282112e+02
1.977374569896775069e+00 5.122966514133116789e+02
1.977474593902536437e+00 5.122892924308871443e+02
1.977574617908297805e+00 5.122818643936305989e+02
1.977674641914059173e+00 5.122743672907803330e+02
1.977774665919820540e+00 5.122668011139435293e+02
1.977874689925581908e+00 5.122591658570941036e+02
1.977974713931343276e+00 5.122514615165755458e+02
1.978074737937104643e+00 5.122436880911039907e+02
1.978174761942866011e+00 5.122358455817682170e+02
1.978274785948627823e+00 5.122279339920305574e+02
1.978374809954388969e+00 5.122199533277319006e+02
1.978474833960150558e+00 5.122119035970881669e+02
1.978574857965911704e+00 5.122037848106955380e+02
1.978674881971673294e+00 5.121955969815282970e+02
1.978774905977434440e+00 5.121873401249423523e+02
1.978874929983196029e+00 5.121790142586763750e+02
1.978974953988957175e+00 5.121706194028495247e+02
1.979074977994718765e+00 5.121621555799661110e+02
1.979175002000479910e+00 5.121536228149129784e+02
1.979275026006241500e+00 5.121450211349618939e+02
1.979375050012002646e+00 5.121363505697710252e+02
1.979475074017764236e+00 5.121276111513825526e+02
1.979575098023525381e+00 5.121188029142249434e+02
1.979675122029286971e+00 5.121099258951123829e+02
1.979775146035048117e+00 5.121009801332456846e+02
1.979875170040809707e+00 5.120919656702114935e+02
1.979975194046570852e+00 5.120828825499825143e+02
1.980075218052332664e+00 5.120737308189179657e+02
1.980175242058094032e+00 5.120645105257617615e+02
1.980275266063855399e+00 5.120552217216442159e+02
1.980375290069616767e+00 5.120458644600801108e+02
1.980475314075378135e+00 5.120364387969684685e+02
1.980575338081139503e+00 5.120269447905925517e+02
1.980675362086900870e+00 5.120173825016184992e+02
1.980775386092662238e+00 5.120077519930950984e+02
1.980875410098423606e+00 5.119980533304523078e+02
1.980975434104184973e+00 5.119882865815008586e+02
1.981075458109946341e+00 5.119784518164310043e+02
1.981175482115707709e+00 5.119685491078099631e+02
1.981275506121469077e+00 5.119585785305844752e+02
1.981375530127230444e+00 5.119485401620745506e+02
1.981475554132991812e+00 5.119384340819759132e+02
1.981575578138753180e+00 5.119282603723561920e+02
1.981675602144514547e+00 5.119180191176545804e+02
1.981775626150275915e+00 5.119077104046801878e+02
1.981875650156037283e+00 5.118973343226082307e+02
1.981975674161798873e+00 5.118868909629815107e+02
1.982075698167560240e+00 5.118763804197056402e+02
1.982175722173321608e+00 5.118658027890476205e+02
1.982275746179082976e+00 5.118551581696347057e+02
1.982375770184844344e+00 5.118444466624506504e+02
1.982475794190605711e+00 5.118336683708353689e+02
1.982575818196367079e+00 5.118228234004798196e+02
1.982675842202128447e+00 5.118119118594257202e+02
1.982775866207889814e+00 5.118009338580628764e+02
1.982875890213651182e+00 5.117898895091242935e+02
1.982975914219412550e+00 5.117787789276860053e+02
1.983075938225173918e+00 5.117676022311620727e+02
1.983175962230935285e+00 5.117563595393033893e+02
1.983275986236696653e+00 5.117450509741935321e+02
1.983376010242458021e+00 5.117336766602460898e+02
1.983476034248219388e+00 5.117222367242005703e+02
1.983576058253980756e+00 5.117107312951204108e+02
1.983676082259742124e+00 5.116991605043884306e+02
1.983776106265503714e+00 5.116875244857038751e+02
1.983876130271265081e+00 5.116758233750788349e+02
1.983976154277026449e+00 5.116640573108338685e+02
1.984076178282787817e+00 5.116522264335950467e+02
1.984176202288549185e+00 5.116403308862898598e+02
1.984276226294310552e+00 5.116283708141433522e+02
1.984376250300071920e+00 5.116163463646732907e+02
1.984476274305833288e+00 5.116042576876864132e+02
1.984576298311594655e+00 5.115921049352762111e+02
1.984676322317356023e+00 5.115798882618138350e+02
1.984776346323117391e+00 5.115676078239500271e+02
1.984876370328878759e+00 5.115552637806044345e+02
1.984976394334640126e+00 5.115428562929657801e+02
1.985076418340401494e+00 5.115303855244833926e+02
1.985176442346162862e+00 5.115178516408665814e+02
1.985276466351924229e+00 5.115052548100762237e+02
1.985376490357685597e+00 5.114925952023203308e+02
1.985476514363446965e+00 5.114798729900520584e+02
1.985576538369208333e+00 5.114670883479604413e+02
1.985676562374969922e+00 5.114542414529679490e+02
1.985776586380731512e+00 5.114413324842249722e+02
1.985876610386492658e+00 5.114283616231025462e+02
1.985976634392254248e+00 5.114153290531888842e+02
1.986076658398015393e+00 5.114022349602841473e+02
1.986176682403776983e+00 5.113890795323925431e+02
1.986276706409538129e+00 5.113758629597181198e+02
1.986376730415299718e+00 5.113625854346596498e+02
1.986476754421060864e+00 5.113492471518028992e+02
1.986576778426822454e+00 5.113358483079161942e+02
1.986676802432583600e+00 5.113223891019442817e+02
1.986776826438345189e+00 5.113088697350011103e+02
1.986876850444106335e+00 5.112952904103642027e+02
1.986976874449867925e+00 5.112816513334689716e+02
1.987076898455629070e+00 5.112679527119006480e+02
1.987176922461390660e+00 5.112541947553904151e+02
1.987276946467151806e+00 5.112403776758072240e+02
1.987376970472913396e+00 5.112265016871489252e+02
1.987476994478674985e+00 5.112125670055414730e+02
1.987577018484436353e+00 5.111985738492255678e+02
1.987677042490197721e+00 5.111845224385546658e+02
1.987777066495959088e+00 5.111704129959862257e+02
1.987877090501720456e+00 5.111562457460726705e+02
1.987977114507481824e+00 5.111420209154572944e+02
1.988077138513243192e+00 5.111277387328665895e+02
1.988177162519004559e+00 5.111133994291008094e+02
1.988277186524765927e+00 5.110990032370295921e+02
1.988377210530527295e+00 5.110845503915818426e+02
1.988477234536288663e+00 5.110700411297389110e+02
1.988577258542050030e+00 5.110554756905288514e+02
1.988677282547811398e+00 5.110408543150162473e+02
1.988777306553572766e+00 5.110261772462955037e+02
1.988877330559334133e+00 5.110114447294830029e+02
1.988977354565095501e+00 5.109966570117088622e+02
1.989077378570856869e+00 5.109818143421096579e+02
1.989177402576618237e+00 5.109669169718194439e+02
1.989277426582379604e+00 5.109519651539614529e+02
1.989377450588141194e+00 5.109369591436425253e+02
1.989477474593902562e+00 5.109218991979390125e+02
1.989577498599663929e+00 5.109067855758946735e+02
1.989677522605425297e+00 5.108916185385092490e+02
1.989777546611186665e+00 5.108763983487287987e+02
1.989877570616948033e+00 5.108611252714395050e+02
1.989977594622709400e+00 5.108457995734580095e+02
1.990077618628470768e+00 5.108304215235215224e+02
1.990177642634232136e+00 5.108149913922795804e+02
1.990277666639993503e+00 5.107995094522882482e+02
1.990377690645754871e+00 5.107839759779947713e+02
1.990477714651516239e+00 5.107683912457345627e+02
1.990577738657277607e+00 5.107527555337177887e+02
1.990677762663038974e+00 5.107370691220230583e+02
1.990777786668800342e+00 5.107213322925865668e+02
1.990877810674561710e+00 5.107055453291928870e+02
1.990977834680323078e+00 5.106897085174650783e+02
1.991077858686084445e+00 5.106738221448579793e+02
1.991177882691846035e+00 5.106578865006435421e+02
1.991277906697607403e+00 5.106419018759063420e+02
1.991377930703368770e+00 5.106258685635295365e+02
1.991477954709130138e+00 5.106097868581895227e+02
1.991577978714891506e+00 5.105936570563413284e+02
1.991678002720652874e+00 5.105774794562116199e+02
1.991778026726414241e+00 5.105612543577890392e+02
1.991878050732175609e+00 5.105449820628105044e+02
1.991978074737936977e+00 5.105286628747567192e+02
1.992078098743698344e+00 5.105122970988369389e+02
1.992178122749459712e+00 5.104958850419813530e+02
1.992278146755221080e+00 5.104794270128285802e+02
1.992378170760982448e+00 5.104629233217185629e+02
1.992478194766743815e+00 5.104463742806781283e+02
1.992578218772505183e+00 5.104297802034141114e+02
1.992678242778266551e+00 5.104131414053001663e+02
1.992778266784027918e+00 5.103964582033667625e+02
1.992878290789789286e+00 5.103797309162906686e+02
1.992978314795550654e+00 5.103629598643846066e+02
1.993078338801312466e+00 5.103461453695850878e+02
1.993178362807073611e+00 5.103292877554417828e+02
1.993278386812835201e+00 5.103123873471079719e+02
1.993378410818596347e+00 5.102954444713280964e+02
1.993478434824357937e+00 5.102784594564257077e+02
1.993578458830119082e+00 5.102614326322949410e+02
1.993678482835880672e+00 5.102443643303868157e+02
1.993778506841641818e+00 5.102272548836990609e+02
1.993878530847403407e+00 5.102101046267639504e+02
1.993978554853164553e+00 5.101929138956387533e+02
1.994078578858926143e+00 5.101756830278908978e+02
1.994178602864687289e+00 5.101584123625896154e+02
1.994278626870448878e+00 5.101411022402930371e+02
1.994378650876210024e+00 5.101237530030354037e+02
1.994478674881971614e+00 5.101063649943173459e+02
1.994578698887732759e+00 5.100889385590925258e+02
1.994678722893494349e+00 5.100714740437570640e+02
1.994778746899255495e+00 5.100539717961358974e+02
1.994878770905017307e+00 5.100364321654728315e+02
1.994978794910778674e+00 5.100188555024161019e+02
1.995078818916540042e+00 5.100012421590085410e+02
1.995178842922301410e+00 5.099835924886750718e+02
1.995278866928062778e+00 5.099659068462082701e+02
1.995378890933824145e+00 5.099481855877583030e+02
1.995478914939585513e+00 5.099304290708217877e+02
1.995578938945346881e+00 5.099126376542249091e+02
1.995678962951108248e+00 5.098948116981162002e+02
1.995778986956869616e+00 5.098769515639496603e+02
1.995879010962630984e+00 5.098590576144749207e+02
1.995979034968392352e+00 5.098411302137253642e+02
1.996079058974153719e+00 5.098231697270016411e+02
1.996179082979915087e+00 5.098051765208634833e+02
1.996279106985676455e+00 5.097871509631132767e+02
1.996379130991437822e+00 5.097690934227854314e+02
1.996479154997199190e+00 5.097510042701339898e+02
1.996579179002960558e+00 5.097328838766171657e+02
1.996679203008721926e+00 5.097147326148872253e+02
1.996779227014483515e+00 5.096965508587753675e+02
1.996879251020244883e+00 5.096783389832804687e+02
1.996979275026006251e+00 5.096600973645543604e+02
1.997079299031767619e+00 5.096418263798899488e+02
1.997179323037528986e+00 5.096235264077070610e+02
1.997279347043290354e+00 5.096051978275409624e+02
1.997379371049051722e+00 5.095868410200267817e+02
1.997479395054813089e+00 5.095684563668874034e+02
1.997579419060574457e+00 5.095500442509199388e+02
1.997679443066335825e+00 5.095316050559833911e+02
1.997779467072097193e+00 5.095131391669830805e+02
1.997879491077858560e+00 5.094946469698588771e+02
1.997979515083619928e+00 5.094761288515712181e+02
1.998079539089381296e+00 5.094575852000875216e+02
1.998179563095142663e+00 5.094390164043676350e+02
1.998279587100904031e+00 5.094204228543524096e+02
1.998379611106665399e+00 5.094018049409480113e+02
1.998479635112426767e+00 5.093831630560122790e+02
1.998579659118188356e+00 5.093644975923434686e+02
1.998679683123949724e+00 5.093458089436620639e+02
1.998779707129711092e+00 5.093270975046012268e+02
1.998879731135472460e+00 5.093083636706902553e+02
1.998979755141233827e+00 5.092896078383418512e+02
1.999079779146995195e+00 5.092708304048381365e+02
1.999179803152756563e+00 5.092520317683151916e+02
1.999279827158517930e+00 5.092332123277519145e+02
1.999379851164279298e+00 5.092143724829531948e+02
1.999479875170040666e+00 5.091955126345368967e+02
1.999579899175802034e+00 5.091766331839200461e+02
1.999679923181563401e+00 5.091577345333042217e+02
1.999779947187324769e+00 5.091388170856613442e+02
1.999879971193086137e+00 5.091198812447207729e+02
1.999979995198847504e+00 5.091009274149520820e+02
2.000080019204609094e+00 4.453710808562909733e+02
2.000180043210370240e+00 4.451268512087935392e+02
2.000280067216131830e+00 4.448825317637227954e+02
2.000380091221892975e+00 4.446381264881636071e+02
2.000480115227654565e+00 4.443936393529813245e+02
2.000580139233416155e+00 4.441490743327193513e+02
2.000680163239177300e+00 4.439044354054922223e+02
2.000780187244938890e+00 4.436597265528793059e+02
2.000880211250700036e+00 4.434149517598198713e+02
2.000980235256461626e+00 4.431701150145068482e+02
2.001080259262222771e+00 4.429252203082812116e+02
2.001180283267984361e+00 4.426802716355243206e+02
2.001280307273745507e+00 4.424352729935542357e+02
2.001380331279507097e+00 4.421902283825158406e+02
2.001480355285268242e+00 4.419451418052776717e+02
2.001580379291029832e+00 4.417000172673232328e+02
2.001680403296790978e+00 4.414548587766449259e+02
2.001780427302552567e+00 4.412096703436370717e+02
2.001880451308313713e+00 4.409644559809889302e+02
2.001980475314075303e+00 4.407192197035789718e+02
2.002080499319836449e+00 4.404739655283651132e+02
2.002180523325598038e+00 4.402286974742796701e+02
2.002280547331359628e+00 4.399834195621220942e+02
2.002380571337120774e+00 4.397381358144507431e+02
2.002480595342882363e+00 4.394928502554761849e+02
2.002580619348643509e+00 4.392475669109522300e+02
2.002680643354405099e+00 4.390022898080707705e+02
2.002780667360166245e+00 4.387570229753528110e+02
2.002880691365927834e+00 4.385117704425407510e+02
2.002980715371688980e+00 4.382665362404906091e+02
2.003080739377450570e+00 4.380213244010651579e+02
2.003180763383211715e+00 4.377761389570255233e+02
2.003280787388973305e+00 4.375309839419221589e+02
2.003380811394734451e+00 4.372858633899900269e+02
2.003480835400496041e+00 4.370407813360371847e+02
2.003580859406257186e+00 4.367957418153397384e+02
2.003680883412018776e+00 4.365507488635309983e+02
2.003780907417779922e+00 4.363058065164966592e+02
2.003880931423541512e+00 4.360609188102635017e+02
2.003980955429302657e+00 4.358160897808944583e+02
2.004080979435064247e+00 4.355713234643772580e+02
2.004181003440825837e+00 4.353266238965198340e+02
2.004281027446586982e+00 4.350819951128387970e+02
2.004381051452348572e+00 4.348374411484542179e+02
2.004481075458110162e+00 4.345929660379791244e+02
2.004581099463871308e+00 4.343485738154141700e+02
2.004681123469632453e+00 4.341042685140357662e+02
2.004781147475394043e+00 4.338600541662910928e+02
2.004881171481155633e+00 4.336159348036897541e+02
2.004981195486916778e+00 4.333719144566939008e+02
2.005081219492677924e+00 4.331279971546111938e+02
2.005181243498439514e+00 4.328841869254876542e+02
2.005281267504201104e+00 4.326404877959976716e+02
2.005381291509962249e+00 4.323969037913375359e+02
2.005481315515723395e+00 4.321534389351173218e+02
2.005581339521484985e+00 4.319100972492527717e+02
2.005681363527246575e+00 4.316668827538568394e+02
2.005781387533007720e+00 4.314237994671324259e+02
2.005881411538768866e+00 4.311808514052652299e+02
2.005981435544530900e+00 4.309380425823141536e+02
2.006081459550292045e+00 4.306953770101055738e+02
2.006181483556053635e+00 4.304528586981247145e+02
2.006281507561814781e+00 4.302104916534083259e+02
2.006381531567576371e+00 4.299682798804368531e+02
2.006481555573337516e+00 4.297262273810270585e+02
2.006581579579099106e+00 4.294843381542257248e+02
2.006681603584860252e+00 4.292426161962000037e+02
2.006781627590621842e+00 4.290010655001327677e+02
2.006881651596382987e+00 4.287596900561141524e+02
2.006981675602144577e+00 4.285184938510340089e+02
2.007081699607905723e+00 4.282774808684760046e+02
2.007181723613667312e+00 4.280366550886105301e+02
2.007281747619428458e+00 4.277960204880877200e+02
2.007381771625190048e+00 4.275555810399298480e+02
2.007481795630951193e+00 4.273153407134267923e+02
2.007581819636712783e+00 4.270753034740273506e+02
2.007681843642473929e+00 4.268354732832342506e+02
2.007781867648235519e+00 4.265958540984984211e+02
2.007881891653997108e+00 4.263564498731097956e+02
2.007981915659758254e+00 4.261172645560959040e+02
2.008081939665519844e+00 4.258783020921111415e+02
2.008181963671280990e+00 4.256395664213348482e+02
2.008281987677042579e+00 4.254010614793638752e+02
2.008382011682803725e+00 4.251627911971064009e+02
2.008482035688565315e+00 4.249247595006780216e+02
2.008582059694326460e+00 4.246869703112966477e+02
2.008682083700088050e+00 4.244494275451742737e+02
2.008782107705849196e+00 4.242121351134171050e+02
2.008882131711610786e+00 4.239750969219157355e+02
2.008982155717371931e+00 4.237383168712443648e+02
2.009082179723133521e+00 4.235017988565535916e+02
2.009182203728894667e+00 4.232655467674675833e+02
2.009282227734656257e+00 4.230295644879790871e+02
2.009382251740417402e+00 4.227938558963455762e+02
2.009482275746178992e+00 4.225584248649861365e+02
2.009582299751940138e+00 4.223232752603764197e+02
2.009682323757701727e+00 4.220884109429466662e+02
2.009782347763463317e+00 4.218538357669768857e+02
2.009882371769224463e+00 4.216195535804945393e+02
2.009982395774986053e+00 4.213855682251721646e+02
2.010082419780747198e+00 4.211518835362218169e+02
2.010182443786508788e+00 4.209185033422970719e+02
2.010282467792269934e+00 4.206854314653867277e+02
2.010382491798031523e+00 4.204526717207134539e+02
2.010482515803792669e+00 4.202202279166331778e+02
2.010582539809554259e+00 4.199881038545331648e+02
2.010682563815315405e+00 4.197563033287276539e+02
2.010782587821076994e+00 4.195248301263600297e+02
2.010882611826838140e+00 4.192936880272999360e+02
2.010982635832599730e+00 4.190628808040422655e+02
2.011082659838360875e+00 4.188324122216067735e+02
2.011182683844122465e+00 4.186022860374379206e+02
2.011282707849883611e+00 4.183725060013040320e+02
2.011382731855645201e+00 4.181430758551981057e+02
2.011482755861406346e+00 4.179139993332359495e+02
2.011582779867167936e+00 4.176852801615594899e+02
2.011682803872929526e+00 4.174569220582359321e+02
2.011782827878691116e+00 4.172289287331574315e+02
2.011882851884452261e+00 4.170013038879458804e+02
2.011982875890213407e+00 4.167740512158505339e+02
2.012082899895974997e+00 4.165471744016516595e+02
2.012182923901736586e+00 4.163206771215622553e+02
2.012282947907497732e+00 4.160945630431293694e+02
2.012382971913258878e+00 4.158688358251373529e+02
2.012482995919020468e+00 4.156434991175122491e+02
2.012583019924782057e+00 4.154185565612204982e+02
2.012683043930543203e+00 4.151940117881761694e+02
2.012783067936304349e+00 4.149698684211427917e+02
2.012883091942065938e+00 4.147461300736372323e+02
2.012983115947827528e+00 4.145228003498340854e+02
2.013083139953588674e+00 4.142998828444700052e+02
2.013183163959349820e+00 4.140773811427479245e+02
2.013283187965111409e+00 4.138552988202429788e+02
2.013383211970872999e+00 4.136336394428071799e+02
2.013483235976634589e+00 4.134124065664747150e+02
2.013583259982395735e+00 4.131916037373674726e+02
2.013683283988157324e+00 4.129712344916030133e+02
2.013783307993918470e+00 4.127513023551991864e+02
2.013883331999680060e+00 4.125318108439818729e+02
2.013983356005441205e+00 4.123127634634898300e+02
2.014083380011202795e+00 4.120941637088877769e+02
2.014183404016963941e+00 4.118760150648659533e+02
2.014283428022725531e+00 4.116583210055557629e+02
2.014383452028486676e+00 4.114410849944331403e+02
2.014483476034248266e+00 4.112243104842294770e+02
2.014583500040009412e+00 4.110080009168401034e+02
2.014683524045771001e+00 4.107921597232340218e+02
2.014783548051532147e+00 4.105767903233617062e+02
2.014883572057293737e+00 4.103618961260685296e+02
2.014983596063054883e+00 4.101474805290021095e+02
2.015083620068816472e+00 4.099335469185243142e+02
2.015183644074577618e+00 4.097200986696215637e+02
2.015283668080339208e+00 4.095071391458177459e+02
2.015383692086100798e+00 4.092946716990845744e+02
2.015483716091861943e+00 4.090826996697537083e+02
2.015583740097623533e+00 4.088712263864298393e+02
2.015683764103384679e+00 4.086602551659036067e+02
2.015783788109146268e+00 4.084497893130637749e+02
2.015883812114907414e+00 4.082398321208120819e+02
2.015983836120669004e+00 4.080303868699762688e+02
2.016083860126430150e+00 4.078214568292241893e+02
2.016183884132191739e+00 4.076130452549802499e+02
2.016283908137952885e+00 4.074051553913373027e+02
2.016383932143714475e+00 4.071977904699754163e+02
2.016483956149475620e+00 4.069909537100754733e+02
2.016583980155237210e+00 4.067846483182357247e+02
2.016684004160998356e+00 4.065788774883902192e+02
2.016784028166759946e+00 4.063736444017217195e+02
2.016884052172521091e+00 4.061689522265838832e+02
2.016984076178282681e+00 4.059648041184154295e+02
2.017084100184044271e+00 4.057612032196605014e+02
2.017184124189805416e+00 4.055581526596848221e+02
2.017284148195567006e+00 4.053556555546980462e+02
2.017384172201328152e+00 4.051537150076697458e+02
2.017484196207089742e+00 4.049523341082512502e+02
2.017584220212850887e+00 4.047515159326954972e+02
2.017684244218612477e+00 4.045512635437768836e+02
2.017784268224373623e+00 4.043515799907125938e+02
2.017884292230135213e+00 4.041524683090847248e+02
2.017984316235896358e+00 4.039539315207613868e+02
2.018084340241657948e+00 4.037559726338197947e+02
2.018184364247419094e+00 4.035585946424673693e+02
2.018284388253180683e+00 4.033618005269661353e+02
2.018384412258941829e+00 4.031655932535570628e+02
2.018484436264703419e+00 4.029699757743818509e+02
2.018584460270464565e+00 4.027749510274087470e+02
2.018684484276226154e+00 4.025805219363577407e+02
2.018784508281987300e+00 4.023866914106249624e+02
2.018884532287748890e+00 4.021934623452088999e+02
2.018984556293510479e+00 4.020008376206369576e+02
2.019084580299272069e+00 4.018088201028909907e+02
2.019184604305033215e+00 4.016174126433351148e+02
2.019284628310794361e+00 4.014266180786440827e+02
2.019384652316555950e+00 4.012364392307287062e+02
2.019484676322317540e+00 4.010468789066683257e+02
2.019584700328078686e+00 4.008579398986353226e+02
2.019684724333839831e+00 4.006696249838280437e+02
2.019784748339601421e+00 4.004819369243987808e+02
2.019884772345363011e+00 4.002948784673839668e+02
2.019984796351124157e+00 4.001084523446353387e+02
2.020084820356885302e+00 3.999226612727525776e+02
2.020184844362646892e+00 3.997375079530127095e+02
2.020284868368408482e+00 3.995529950713038261e+02
2.020384892374169628e+00 3.993691252980568720e+02
2.020484916379930773e+00 3.991859012881795934e+02
2.020584940385692363e+00 3.990033256809891213e+02
2.020684964391453953e+00 3.988214011001476820e+02
2.020784988397215542e+00 3.986401301535946686e+02
2.020885012402976688e+00 3.984595154334853078e+02
2.020985036408738278e+00 3.982795595161223901e+02
2.021085060414499424e+00 3.981002649618947089e+02
2.021185084420261013e+00 3.979216343152131685e+02
2.021285108426022159e+00 3.977436701044474603e+02
2.021385132431783749e+00 3.975663748418635919e+02
2.021485156437544894e+00 3.973897510235630079e+02
2.021585180443306484e+00 3.972138011294190392e+02
2.021685204449067630e+00 3.970385276230177851e+02
2.021785228454829220e+00 3.968639329515963254e+02
2.021885252460590365e+00 3.966900195459848533e+02
2.021985276466351955e+00 3.965167898205439201e+02
2.022085300472113101e+00 3.963442461731096955e+02
2.022185324477874691e+00 3.961723909849303595e+02
2.022285348483635836e+00 3.960012266206136928e+02
2.022385372489397426e+00 3.958307554280657428e+02
2.022485396495158572e+00 3.956609797384350031e+02
2.022585420500920161e+00 3.954919018660570487e+02
2.022685444506681751e+00 3.953235241083972937e+02
2.022785468512442897e+00 3.951558487459972753e+02
2.022885492518204487e+00 3.949888780424174684e+02
2.022985516523965632e+00 3.948226142441850470e+02
2.023085540529727222e+00 3.946570595807405653e+02
2.023185564535488368e+00 3.944922162643814545e+02
2.023285588541249957e+00 3.943280864902131384e+02
2.023385612547011103e+00 3.941646724360954863e+02
2.023485636552772693e+00 3.940019762625897783e+02
2.023585660558533839e+00 3.938400001129098769e+02
2.023685684564295428e+00 3.936787461128698169e+02
2.023785708570056574e+00 3.935182163708345797e+02
2.023885732575818164e+00 3.933584129776714349e+02
2.023985756581579309e+00 3.931993380067001453e+02
2.024085780587340899e+00 3.930409935136431727e+02
2.024185804593102045e+00 3.928833815365803162e+02
2.024285828598863635e+00 3.927265040959006228e+02
2.024385852604624780e+00 3.925703631942548668e+02
2.024485876610386370e+00 3.924149608165092218e+02
2.024585900616147960e+00 3.922602989297016052e+02
2.024685924621909106e+00 3.921063794829938729e+02
2.024785948627670695e+00 3.919532044076287320e+02
2.024885972633431841e+00 3.918007756168858009e+02
2.024985996639193431e+00 3.916490950060378964e+02
2.025086020644954576e+00 3.914981644523074351e+02
2.025186044650716166e+00 3.913479858148255062e+02
2.025286068656477312e+00 3.911985609345891817e+02
2.025386092662238902e+00 3.910498916344195095e+02
2.025486116668000047e+00 3.909019797189230303e+02
2.025586140673761637e+00 3.907548269744499407e+02
2.025686164679522783e+00 3.906084351690540188e+02
2.025786188685284372e+00 3.904628060524560738e+02
2.025886212691045518e+00 3.903179413560029047e+02
2.025986236696807108e+00 3.901738427926317172e+02
2.026086260702568254e+00 3.900305120568310713e+02
2.026186284708329843e+00 3.898879508246050136e+02
2.026286308714090989e+00 3.897461607534360724e+02
2.026386332719853023e+00 3.896051434822512078e+02
2.026486356725614169e+00 3.894649006313860582e+02
2.026586380731375314e+00 3.893254338025495258e+02
2.026686404737136904e+00 3.891867445787918314e+02
2.026786428742898494e+00 3.890488345244696120e+02
2.026886452748659639e+00 3.889117051852137479e+02
2.026986476754420785e+00 3.887753580878971889e+02
2.027086500760182375e+00 3.886397947406042022e+02
2.027186524765943965e+00 3.885050166325981991e+02
2.027286548771705110e+00 3.883710252342914941e+02
2.027386572777466256e+00 3.882378219972163720e+02
2.027486596783227846e+00 3.881054083539949033e+02
2.027586620788989435e+00 3.879737857183110350e+02
2.027686644794750581e+00 3.878429554848818839e+02
2.027786668800511727e+00 3.877129190294309637e+02
2.027886692806273317e+00 3.875836777086592519e+02
2.027986716812034906e+00 3.874552328602225657e+02
2.028086740817796052e+00 3.873275858027025720e+02
2.028186764823557642e+00 3.872007378355825722e+02
2.028286788829319232e+00 3.870746902392234574e+02
2.028386812835080377e+00 3.869494442748395500e+02
2.028486836840841967e+00 3.868250011844739333e+02
2.028586860846603113e+00 3.867013621909780454e+02
2.028686884852364702e+00 3.865785284979877474e+02
2.028786908858125848e+00 3.864565012899014960e+02
2.028886932863887438e+00 3.863352817318602774e+02
2.028986956869648584e+00 3.862148709697271443e+02
2.029086980875410173e+00 3.860952701300657282e+02
2.029187004881171319e+00 3.859764803201239829e+02
2.029287028886932909e+00 3.858585026278122427e+02
2.029387052892694054e+00 3.857413381216869084e+02
2.029487076898455644e+00 3.856249878509333371e+02
2.029587100904216790e+00 3.855094528453473686e+02
2.029687124909978380e+00 3.853947341153203752e+02
2.029787148915739525e+00 3.852808326518223225e+02
2.029887172921501115e+00 3.851677494263893209e+02
2.029987196927262261e+00 3.850554853911048667e+02
2.030087220933023850e+00 3.849440414785890425e+02
2.030187244938785440e+00 3.848334186019849312e+02
2.030287268944546586e+00 3.847236176549441780e+02
2.030387292950308176e+00 3.846146395116165877e+02
2.030487316956069321e+00 3.845064850266375061e+02
2.030587340961830911e+00 3.843991550351184401e+02
2.030687364967592057e+00 3.842926503526335864e+02
2.030787388973353647e+00 3.841869717752131805e+02
2.030887412979114792e+00 3.840821200793326398e+02
2.030987436984876382e+00 3.839780960219049462e+02
2.031087460990637528e+00 3.838749003402712674e+02
2.031187484996399117e+00 3.837725337521952156e+02
2.031287509002160263e+00 3.836709969558552871e+02
2.031387533007921853e+00 3.835702906298384391e+02
2.031487557013682999e+00 3.834704154331336667e+02
2.031587581019444588e+00 3.833713720051304676e+02
2.031687605025205734e+00 3.832731609656098613e+02
2.031787629030967324e+00 3.831757829147433085e+02
2.031887653036728913e+00 3.830792384330896994e+02
2.031987677042490059e+00 3.829835280815906913e+02
2.032087701048251649e+00 3.828886524015709369e+02
2.032187725054012795e+00 3.827946119147349577e+02
2.032287749059774384e+00 3.827014071231674279e+02
2.032387773065535530e+00 3.826090385093322084e+02
2.032487797071297120e+00 3.825175065360729718e+02
2.032587821077058265e+00 3.824268116466145671e+02
2.032687845082819855e+00 3.823369542645635875e+02
2.032787869088581001e+00 3.822479347939114973e+02
2.032887893094342591e+00 3.821597536190365076e+02
2.032987917100103736e+00 3.820724111047080669e+02
2.033087941105865326e+00 3.819859075960891914e+02
2.033187965111626472e+00 3.819002434187421500e+02
2.033287989117388062e+00 3.818154188786336931e+02
2.033388013123149207e+00 3.817314342621394303e+02
2.033488037128910797e+00 3.816482898360517879e+02
2.033588061134671943e+00 3.815659858475855231e+02
2.033688085140433532e+00 3.814845225243861364e+02
2.033788109146195122e+00 3.814039000745360681e+02
2.033888133151956268e+00 3.813241186865678856e+02
2.033988157157717858e+00 3.812451785294674096e+02
2.034088181163479447e+00 3.811670797526882666e+02
2.034188205169240593e+00 3.810898224861599601e+02
2.034288229175001739e+00 3.810134068402994671e+02
2.034388253180763328e+00 3.809378329060226633e+02
2.034488277186524918e+00 3.808631007547584204e+02
2.034588301192286064e+00 3.807892104384572463e+02
2.034688325198047210e+00 3.807161619896079401e+02
2.034788349203808799e+00 3.806439554212518601e+02
2.034888373209570389e+00 3.805725907269943491e+02
2.034988397215331535e+00 3.805020678810225832e+02
2.035088421221092680e+00 3.804323868381209763e+02
2.035188445226854270e+00 3.803635475336852210e+02
2.035288469232615860e+00 3.802955498837421828e+02
2.035388493238377006e+00 3.802283937849648510e+02
2.035488517244138151e+00 3.801620791146927445e+02
2.035588541249900185e+00 3.800966057309467487e+02
2.035688565255661331e+00 3.800319734724534442e+02
2.035788589261422921e+00 3.799681821586601131e+02
2.035888613267184066e+00 3.799052315897573635e+02
2.035988637272945656e+00 3.798431215467003312e+02
2.036088661278706802e+00 3.797818517912280640e+02
2.036188685284468392e+00 3.797214220658883619e+02
2.036288709290229537e+00 3.796618320940583544e+02
2.036388733295991127e+00 3.796030815799677498e+02
2.036488757301752273e+00 3.795451702087236754e+02
2.036588781307513862e+00 3.794880976463347224e+02
2.036688805313275008e+00 3.794318635397351045e+02
2.036788829319036598e+00 3.793764675168104077e+02
2.036888853324797743e+00 3.793219091864235679e+02
2.036988877330559333e+00 3.792681881384430653e+02
2.037088901336320479e+00 3.792153039437660027e+02
2.037188925342082069e+00 3.791632561543511883e+02
2.037288949347843214e+00 3.791120443032429534e+02
2.037388973353604804e+00 3.790616679046024160e+02
2.037488997359366394e+00 3.790121264537353909e+02
2.037589021365127540e+00 3.789634194271244496e+02
2.037689045370889129e+00 3.789155462824558640e+02
2.037789069376650275e+00 3.788685064586564408e+02
2.037889093382411865e+00 3.788222993759172823e+02
2.037989117388173010e+00 3.787769244357338039e+02
2.038089141393934600e+00 3.787323810209327348e+02
2.038189165399695746e+00 3.786886684957088391e+02
2.038289189405457336e+00 3.786457862056567478e+02
2.038389213411218481e+00 3.786037334778056902e+02
2.038489237416980071e+00 3.785625096206563853e+02
2.038589261422741217e+00 3.785221139242131585e+02
2.038689285428502806e+00 3.784825456600219695e+02
2.038789309434263952e+00 3.784438040812076451e+02
2.038889333440025542e+00 3.784058884225086103e+02
2.038989357445786688e+00 3.783687979003176451e+02
2.039089381451548277e+00 3.783325317127162748e+02
2.039189405457309423e+00 3.782970890395173456e+02
2.039289429463071013e+00 3.782624690423002676e+02
2.039389453468832603e+00 3.782286708644552391e+02
2.039489477474593748e+00 3.781956936312197968e+02
2.039589501480355338e+00 3.781635364497210503e+02
2.039689525486116484e+00 3.781321984090179740e+02
2.039789549491878073e+00 3.781016785801412539e+02
2.039889573497639219e+00 3.780719760161375689e+02
2.039989597503400809e+00 3.780430897521117686e+02
2.040089621509161955e+00 3.780150188052699605e+02
2.040189645514923544e+00 3.779877621749642458e+02
2.040289669520684690e+00 3.779613188427366026e+02
2.040389693526446280e+00 3.779356877723643038e+02
2.040489717532207425e+00 3.779108679099050505e+02
2.040589741537969015e+00 3.778868581837434704e+02
2.040689765543730161e+00 3.778636575046375015e+02
2.040789789549491751e+00 3.778412647657655725e+02
2.040889813555252896e+00 3.778196788427728734e+02
2.040989837561014486e+00 3.777988985938225142e+02
2.041089861566775632e+00 3.777789228596402609e+02
2.041189885572537221e+00 3.777597504635664336e+02
2.041289909578298811e+00 3.777413802116046782e+02
2.041389933584060401e+00 3.777238108924721587e+02
2.041489957589821547e+00 3.777070412776488979e+02
2.041589981595582692e+00 3.776910701214305845e+02
2.041690005601344282e+00 3.776758961609800167e+02
2.041790029607105872e+00 3.776615181163776356e+02
2.041890053612867018e+00 3.776479346906756405e+02
2.041990077618628163e+00 3.776351445699498868e+02
2.042090101624389753e+00 3.776231464233547968e+02
2.042190125630151343e+00 3.776119389031758260e+02
2.042290149635912488e+00 3.776015206448851131e+02
2.042390173641673634e+00 3.775918902671958222e+02
2.042490197647435224e+00 3.775830463721174510e+02
2.042590221653196814e+00 3.775749875450126183e+02
2.042690245658957959e+00 3.775677123546528264e+02
2.042790269664719105e+00 3.775612193532749075e+02
2.042890293670480695e+00 3.775555070766394010e+02
2.042990317676242285e+00 3.775505740440880800e+02
2.043090341682003874e+00 3.775464187586008507e+02
2.043190365687765020e+00 3.775430397068564616e+02
2.043290389693526610e+00 3.775404353592912230e+02
2.043390413699287755e+00 3.775386041701572708e+02
2.043490437705049345e+00 3.775375445775836170e+02
2.043590461710810491e+00 3.775372550036385064e+02
2.043690485716572081e+00 3.775377338543860333e+02
2.043790509722333226e+00 3.775389795199521359e+02
2.043890533728094816e+00 3.775409903745838847e+02
2.043990557733855962e+00 3.775437647767134877e+02
2.044090581739617551e+00 3.775473010690189994e+02
2.044190605745378697e+00 3.775515975784886678e+02
2.044290629751140287e+00 3.775566526164850529e+02
2.044390653756901433e+00 3.775624644788094884e+02
2.044490677762663022e+00 3.775690314457643808e+02
2.044590701768424168e+00 3.775763517822210247e+02
2.044690725774185758e+00 3.775844237376828687e+02
2.044790749779946903e+00 3.775932455463516249e+02
2.044890773785708493e+00 3.776028154271956510e+02
2.044990797791470083e+00 3.776131315840129901e+02
2.045090821797231229e+00 3.776241922055020837e+02
2.045190845802992818e+00 3.776359954653265731e+02
2.045290869808753964e+00 3.776485395221846488e+02
2.045390893814515554e+00 3.776618225198772620e+02
2.045490917820276700e+00 3.776758425873763372e+02
2.045590941826038289e+00 3.776905978388935523e+02
2.045690965831799435e+00 3.777060863739523029e+02
2.045790989837561025e+00 3.777223062774541518e+02
2.045891013843322170e+00 3.777392556197510771e+02
2.045991037849083760e+00 3.777569324567172657e+02
2.046091061854844906e+00 3.777753348298183482e+02
2.046191085860606496e+00 3.777944607661829082e+02
2.046291109866367641e+00 3.778143082786759805e+02
2.046391133872129231e+00 3.778348753659703902e+02
2.046491157877890377e+00 3.778561600126196254e+02
2.046591181883651966e+00 3.778781601891301989e+02
2.046691205889413556e+00 3.779008738520362840e+02
2.046791229895174702e+00 3.779242989439726443e+02
2.046891253900936292e+00 3.779484333937501788e+02
2.046991277906697437e+00 3.779732751164268620e+02
2.047091301912459027e+00 3.779988220133890309e+02
2.047191325918220173e+00 3.780250719724201076e+02
2.047291349923981763e+00 3.780520228677800105e+02
2.047391373929742908e+00 3.780796725602804145e+02
2.047491397935504498e+00 3.781080188973604095e+02
2.047591421941265644e+00 3.781370597131641489e+02
2.047691445947027233e+00 3.781667928286181564e+02
2.047791469952788379e+00 3.781972160515074393e+02
2.047891493958549969e+00 3.782283271765539894e+02
2.047991517964311114e+00 3.782601239854949995e+02
2.048091541970072704e+00 3.782926042471618757e+02
2.048191565975833850e+00 3.783257657175572604e+02
2.048291589981595440e+00 3.783596061399367159e+02
2.048391613987356585e+00 3.783941232448854066e+02
2.048491637993118175e+00 3.784293147503999535e+02
2.048591661998879765e+00 3.784651783619678440e+02
2.048691686004641355e+00 3.785017117726476386e+02
2.048791710010402500e+00 3.785389126631507679e+02
2.048891734016163646e+00 3.785767787019208299e+02
2.048991758021925236e+00 3.786153075452155008e+02
2.049091782027686826e+00 3.786544968371911750e+02
2.049191806033447971e+00 3.786943442099797039e+02
2.049291830039209117e+00 3.787348472837756503e+02
2.049391854044970707e+00 3.787760036669148462e+02
2.049491878050732296e+00 3.788178109559609652e+02
2.049591902056493442e+00 3.788602667357867517e+02
2.049691926062254588e+00 3.789033685796566147e+02
2.049791950068016178e+00 3.789471140493129724e+02
2.049891974073777767e+00 3.789915006950582779e+02
2.049991998079538913e+00 3.790365260558406817e+02
2.050092022085300059e+00 3.790821876593371940e+02
2.050192046091061648e+00 3.791284830220410527e+02
2.050292070096823238e+00 3.791754096493440329e+02
2.050392094102584828e+00 3.792229650356242701e+02
2.050492118108345974e+00 3.792711466643303879e+02
2.050592142114107563e+00 3.793199520080685829e+02
2.050692166119868709e+00 3.793693785286889124e+02
2.050792190125630299e+00 3.794194236773709008e+02
2.050892214131391444e+00 3.794700848947115333e+02
2.050992238137153034e+00 3.795213596108113165e+02
2.051092262142914180e+00 3.795732452453623296e+02
2.051192286148675770e+00 3.796257392077347959e+02
2.051292310154436915e+00 3.796788388970666688e+02
2.051392334160198505e+00 3.797325417023498630e+02
2.051492358165959651e+00 3.797868450025194988e+02
2.051592382171721241e+00 3.798417461665417250e+02
2.051692406177482386e+00 3.798972425535041566e+02
2.051792430183243976e+00 3.799533315127021069e+02
2.051892454189005122e+00 3.800100103837309575e+02
2.051992478194766711e+00 3.800672764965726742e+02
2.052092502200527857e+00 3.801251271716874385e+02
2.052192526206289447e+00 3.801835597201035171e+02
2.052292550212051037e+00 3.802425714435053692e+02
2.052392574217812182e+00 3.803021596343269266e+02
2.052492598223573772e+00 3.803623215758390188e+02
2.052592622229334918e+00 3.804230545422428804e+02
2.052692646235096507e+00 3.804843557987591112e+02
2.052792670240857653e+00 3.805462226017197054e+02
2.052892694246619243e+00 3.806086521986590014e+02
2.052992718252380389e+00 3.806716418284059955e+02
2.053092742258141978e+00 3.807351887211738131e+02
2.053192766263903124e+00 3.807992900986555469e+02
2.053292790269664714e+00 3.808639431741121371e+02
2.053392814275425859e+00 3.809291451524670720e+02
2.053492838281187449e+00 3.809948932303983042e+02
2.053592862286948595e+00 3.810611845964305076e+02
2.053692886292710185e+00 3.811280164310282998e+02
2.053792910298471330e+00 3.811953859066892960e+02
2.053892934304232920e+00 3.812632901880357394e+02
2.053992958309994066e+00 3.813317264319109086e+02
2.054092982315755656e+00 3.814006917874680198e+02
2.054193006321517245e+00 3.814701833962685669e+02
2.054293030327278391e+00 3.815401983923723037e+02
2.054393054333039981e+00 3.816107339024337648e+02
2.054493078338801126e+00 3.816817870457940671e+02
2.054593102344562716e+00 3.817533549345773167e+02
2.054693126350323862e+00 3.818254346737830360e+02
2.054793150356085452e+00 3.818980233613805808e+02
2.054893174361846597e+00 3.819711180884061150e+02
2.054993198367608187e+00 3.820447159390542424e+02
2.055093222373369333e+00 3.821188139907746404e+02
2.055193246379130922e+00 3.821934093143667042e+02
2.055293270384892068e+00 3.822684989740737365e+02
2.055393294390653658e+00 3.823440800276803202e+02
2.055493318396414804e+00 3.824201495266040070e+02
2.055593342402176393e+00 3.824967045159948498e+02
2.055693366407937539e+00 3.825737420348269779e+02
2.055793390413699129e+00 3.826512591159977319e+02
2.055893414419460719e+00 3.827292527864207159e+02
2.055993438425222308e+00 3.828077200671226592e+02
2.056093462430983454e+00 3.828866579733395383e+02
2.056193486436744600e+00 3.829660635146117897e+02
2.056293510442506189e+00 3.830459336948813416e+02
2.056393534448267779e+00 3.831262655125865422e+02
2.056493558454028925e+00 3.832070559607596465e+02
2.056593582459790071e+00 3.832883020271220289e+02
2.056693606465551660e+00 3.833700006941813854e+02
2.056793630471313250e+00 3.834521489393282536e+02
2.056893654477074396e+00 3.835347437349306006e+02
2.056993678482835541e+00 3.836177820484334688e+02
2.057093702488597131e+00 3.837012608424531095e+02
2.057193726494358721e+00 3.837851770748746958e+02
2.057293750500119867e+00 3.838695276989489571e+02
2.057393774505881012e+00 3.839543096633893242e+02
2.057493798511642602e+00 3.840395199124675401e+02
2.057593822517404192e+00 3.841251553861119987e+02
2.057693846523165337e+00 3.842112130200037541e+02
2.057793870528926927e+00 3.842976897456739493e+02
2.057893894534688517e+00 3.843845824905998825e+02
2.057993918540449663e+00 3.844718881783034021e+02
2.058093942546211252e+00 3.845596037284473709e+02
2.058193966551972398e+00 3.846477260569319014e+02
2.058293990557733988e+00 3.847362520759921267e+02
2.058394014563495134e+00 3.848251786942959711e+02
2.058494038569256723e+00 3.849145028170403293e+02
2.058594062575017869e+00 3.850042213460476432e+02
2.058694086580779459e+00 3.850943311798654918e+02
2.058794110586540604e+00 3.851848292138602687e+02
2.058894134592302194e+00 3.852757123403166588e+02
2.058994158598063340e+00 3.853669774485352377e+02
2.059094182603824930e+00 3.854586214249269460e+02
2.059194206609586075e+00 3.855506411531126787e+02
2.059294230615347665e+00 3.856430335140196348e+02
2.059394254621108811e+00 3.857357953859776671e+02
2.059494278626870400e+00 3.858289236448173369e+02
2.059594302632631990e+00 3.859224151639662637e+02
2.059694326638393136e+00 3.860162668145467819e+02
2.059794350644154726e+00 3.861104754654721773e+02
2.059894374649915871e+00 3.862050379835446847e+02
2.059994398655677461e+00 3.862999512335507006e+02
2.060094422661438607e+00 3.863952120783590658e+02
2.060194446667200197e+00 3.864908173790183810e+02
2.060294470672961342e+00 3.865867639948521628e+02
2.060394494678722932e+00 3.866830487835562735e+02
2.060494518684484078e+00 3.867796686012948726e+02
2.060594542690245667e+00 3.868766203028002337e+02
2.060694566696006813e+00 3.869739007414648313e+02
2.060794590701768403e+00 3.870715067694407026e+02
2.060894614707529549e+00 3.871694352377357404e+02
2.060994638713291138e+00 3.872676829963078831e+02
2.061094662719052284e+00 3.873662468941641350e+02
2.061194686724813874e+00 3.874651237794560075e+02
2.061294710730575019e+00 3.875643104995745034e+02
2.061394734736336609e+00 3.876638039012472632e+02
2.061494758742098199e+00 3.877636008306346866e+02
2.061594782747859345e+00 3.878636981334248048e+02
2.061694806753620934e+00 3.879640926549303686e+02
2.061794830759382080e+00 3.880647812401838337e+02
2.061894854765143670e+00 3.881657607340321761e+02
2.061994878770904815e+00 3.882670279812347758e+02
2.062094902776666405e+00 3.883685798265566405e+02
2.062194926782427551e+00 3.884704131148640158e+02
2.062294950788189141e+00 3.885725246912209627e+02
2.062394974793950286e+00 3.886749114009826371e+02
2.062494998799711876e+00 3.887775700898918103e+02
2.062595022805473022e+00 3.888804976041722057e+02
2.062695046811234612e+00 3.889836907906252463e+02
2.062795070816995757e+00 3.890871464967224256e+02
2.062895094822757347e+00 3.891908615707010881e+02
2.062995118828518493e+00 3.892948328616585627e+02
2.063095142834280082e+00 3.893990572196469202e+02
2.063195166840041228e+00 3.895035314957654577e+02
2.063295190845803262e+00 3.896082525422559115e+02
2.063395214851564408e+00 3.897132172125965326e+02
2.063495238857325553e+00 3.898184223615944006e+02
2.063595262863087143e+00 3.899238648454801250e+02
2.063695286868848733e+00 3.900295415220008977e+02
2.063795310874609878e+00 3.901354492505124654e+02
2.063895334880371024e+00 3.902415848920745134e+02
2.063995358886132614e+00 3.903479453095413305e+02
2.064095382891894204e+00 3.904545273676557713e+02
2.064195406897655349e+00 3.905613279331410581e+02
2.064295430903416495e+00 3.906683438747937203e+02
2.064395454909178085e+00 3.907755720635757370e+02
2.064495478914939675e+00 3.908830093727054305e+02
2.064595502920700820e+00 3.909906526777514841e+02
2.064695526926461966e+00 3.910984988567221308e+02
2.064795550932223556e+00 3.912065447901586595e+02
2.064895574937985145e+00 3.913147873612248304e+02
2.064995598943746291e+00 3.914232234557997572e+02
2.065095622949507437e+00 3.915318499625671507e+02
2.065195646955269471e+00 3.916406637731080309e+02
2.065295670961030616e+00 3.917496617819882658e+02
2.065395694966792206e+00 3.918588408868522492e+02
2.065495718972553352e+00 3.919681979885097007e+02
2.065595742978314941e+00 3.920777299910281499e+02
2.065695766984076087e+00 3.921874338018209869e+02
2.065795790989837677e+00 3.922973063317380138e+02
2.065895814995598823e+00 3.924073444951525289e+02
2.065995839001360412e+00 3.925175452100545499e+02
2.066095863007121558e+00 3.926279053981340326e+02
2.066195887012883148e+00 3.927384219848743783e+02
2.066295911018644293e+00 3.928490918996369032e+02
2.066395935024405883e+00 3.929599120757520154e+02
2.066495959030167029e+00 3.930708794506053891e+02
2.066595983035928619e+00 3.931819909657252765e+02
2.066696007041689764e+00 3.932932435668710127e+02
2.066796031047451354e+00 3.934046342041190769e+02
2.066896055053212500e+00 3.935161598319514269e+02
2.066996079058974090e+00 3.936278174093395137e+02
2.067096103064735679e+00 3.937396038998343784e+02
2.067196127070496825e+00 3.938515162716490750e+02
2.067296151076258415e+00 3.939635514977471757e+02
2.067396175082019560e+00 3.940757065559265584e+02
2.067496199087781150e+00 3.941879784289054101e+02
2.067596223093542296e+00 3.943003641044089136e+02
2.067696247099303886e+00 3.944128605752502494e+02
2.067796271105065031e+00 3.945254648394198966e+02
2.067896295110826621e+00 3.946381739001657820e+02
2.067996319116587767e+00 3.947509847660787159e+02
2.068096343122349356e+00 3.948638944511774866e+02
2.068196367128110502e+00 3.949768999749903742e+02
2.068296391133872092e+00 3.950899983626388803e+02
2.068396415139633238e+00 3.952031866449211748e+02
2.068496439145394827e+00 3.953164618583935521e+02
2.068596463151155973e+00 3.954298210454537639e+02
2.068696487156917563e+00 3.955432612544221911e+02
2.068796511162678708e+00 3.956567795396239262e+02
2.068896535168440298e+00 3.957703729614710824e+02
2.068996559174201888e+00 3.958840385865406688e+02
2.069096583179963034e+00 3.959977734876598561e+02
2.069196607185724623e+00 3.961115747439827146e+02
2.069296631191485769e+00 3.962254394410720124e+02
2.069396655197247359e+00 3.963393646709793643e+02
2.069496679203008505e+00 3.964533475323236758e+02
2.069596703208770094e+00 3.965673851303708943e+02
2.069696727214531240e+00 3.966814745771130220e+02
2.069796751220292830e+00 3.967956129913471841e+02
2.069896775226053975e+00 3.969097974987521980e+02
2.069996799231815565e+00 3.970240252319675847e+02
2.070096823237576711e+00 3.971382933306718428e+02
2.070196847243338301e+00 3.972525989416585617e+02
2.070296871249099446e+00 3.973669392189135579e+02
2.070396895254861036e+00 3.974813113236918980e+02
2.070496919260622182e+00 3.975957124245929890e+02
2.070596943266383771e+00 3.977101396976389083e+02
2.070696967272145361e+00 3.978245903263472769e+02
2.070796991277906507e+00 3.979390615018077142e+02
2.070897015283668097e+00 3.980535504227564161e+02
2.070997039289429686e+00 3.981680542956517002e+02
2.071097063295190832e+00 3.982825703347460831e+02
2.071197087300951978e+00 3.983970957621624507e+02
2.071297111306713568e+00 3.985116278079655672e+02
2.071397135312475157e+00 3.986261637102357440e+02
2.071497159318236303e+00 3.987407007151423386e+02
2.071597183323997449e+00 3.988552360770161158e+02
2.071697207329759038e+00 3.989697670584194498e+02
2.071797231335520628e+00 3.990842909302195949e+02
2.071897255341281774e+00 3.991988049716591149e+02
2.071997279347042920e+00 3.993133064704282447e+02
2.072097303352804509e+00 3.994277927227333294e+02
2.072197327358566099e+00 3.995422610333689022e+02
2.072297351364327245e+00 3.996567087157854985e+02
2.072397375370088390e+00 3.997711330921607669e+02
2.072497399375849980e+00 3.998855314934666580e+02
2.072597423381611570e+00 3.999999012595408772e+02
2.072697447387373160e+00 4.001142397391521968e+02
2.072797471393134305e+00 4.002285442900687826e+02
2.072897495398895895e+00 4.003428122791278270e+02
2.072997519404657041e+00 4.004570410822995541e+02
2.073097543410418631e+00 4.005712280847567968e+02
2.073197567416179776e+00 4.006853706809385471e+02
2.073297591421941366e+00 4.007994662746179415e+02
2.073397615427702512e+00 4.009135122789662660e+02
2.073497639433464101e+00 4.010275061166187243e+02
2.073597663439225247e+00 4.011414452197400351e+02
2.073697687444986837e+00 4.012553270300855388e+02
2.073797711450747983e+00 4.013691489990686705e+02
2.073897735456509572e+00 4.014829085878228625e+02
2.073997759462270718e+00 4.015966032672636175e+02
2.074097783468032308e+00 4.017102305181521729e+02
2.074197807473793453e+00 4.018237878311579152e+02
2.074297831479555043e+00 4.019372727069204529e+02
2.074397855485316633e+00 4.020506826561086768e+02
2.074497879491077779e+00 4.021640151994833445e+02
2.074597903496839368e+00 4.022772678679597789e+02
2.074697927502600514e+00 4.023904382026628923e+02
2.074797951508362104e+00 4.025035237549919884e+02
2.074897975514123249e+00 4.026165220866750474e+02
2.074997999519884839e+00 4.027294307698327316e+02
2.075098023525645985e+00 4.028422473870325575e+02
2.075198047531407575e+00 4.029549695313485245e+02
2.075298071537168720e+00 4.030675948064198337e+02
2.075398095542930310e+00 4.031801208265047194e+02
2.075498119548691456e+00 4.032925452165401339e+02
2.075598143554453046e+00 4.034048656121963745e+02
2.075698167560214191e+00 4.035170796599343248e+02
2.075798191565975781e+00 4.036291850170573525e+02
2.075898215571736927e+00 4.037411793517707679e+02
2.075998239577498516e+00 4.038530603432330963e+02
2.076098263583259662e+00 4.039648256816111029e+02
2.076198287589021252e+00 4.040764730681326569e+02
2.076298311594782842e+00 4.041880002151409030e+02
2.076398335600543987e+00 4.042994048461462739e+02
2.076498359606305577e+00 4.044106846958780466e+02
2.076598383612066723e+00 4.045218375103377753e+02
2.076698407617828313e+00 4.046328610468478360e+02
2.076798431623589458e+00 4.047437530741059390e+02
2.076898455629351048e+00 4.048545113722320821e+02
2.076998479635112194e+00 4.049651337328194245e+02
2.077098503640873783e+00 4.050756179589857879e+02
2.077198527646634929e+00 4.051859618654190740e+02
2.077298551652396519e+00 4.052961632784281392e+02
2.077398575658157664e+00 4.054062200359917369e+02
2.077498599663919254e+00 4.055161299878021737e+02
2.077598623669680400e+00 4.056258909953176612e+02
2.077698647675441990e+00 4.057355009318034718e+02
2.077798671681203135e+00 4.058449576823830967e+02
2.077898695686964725e+00 4.059542591440809929e+02
2.077998719692725871e+00 4.060634032258672619e+02
2.078098743698487461e+00 4.061723878487066486e+02
2.078198767704249050e+00 4.062812109455964560e+02
2.078298791710010640e+00 4.063898704616166810e+02
2.078398815715771786e+00 4.064983643539679292e+02
2.078498839721532931e+00 4.066066905920197314e+02
2.078598863727294521e+00 4.067148471573469806e+02
2.078698887733056111e+00 4.068228320437773959e+02
2.078798911738817257e+00 4.069306432574286987e+02
2.078898935744578402e+00 4.070382788167521539e+02
2.078998959750339992e+00 4.071457367525723043e+02
2.079098983756101582e+00 4.072530151081259078e+02
2.079199007761862728e+00 4.073601119391032626e+02
2.079299031767623873e+00 4.074670253136857809e+02
2.079399055773385463e+00 4.075737533125854952e+02
2.079499079779147053e+00 4.076802940290826882e+02
2.079599103784908198e+00 4.077866455690628982e+02
2.079699127790669344e+00 4.078928060510548903e+02
2.079799151796430934e+00 4.079987736062665817e+02
2.079899175802192524e+00 4.081045463786221603e+02
2.079999199807954113e+00 4.082101225247957359e+02
2.080099223813715259e+00 4.083155002142488001e+02
2.080199247819476849e+00 4.084206776292628547e+02
2.080299271825237994e+00 4.085256529649753361e+02
2.080399295830999584e+00 4.086304244294115620e+02
2.080499319836760730e+00 4.087349902435186095e+02
2.080599343842522320e+00 4.088393486411982281e+02
2.080699367848283465e+00 4.089434978693389553e+02
2.080799391854045055e+00 4.090474361878465857e+02
2.080899415859806201e+00 4.091511618696777646e+02
2.080999439865567791e+00 4.092546732008678418e+02
2.081099463871328936e+00 4.093579684805631018e+02
2.081199487877090526e+00 4.094610460210495830e+02
2.081299511882851672e+00 4.095639041477819546e+02
2.081399535888613261e+00 4.096665411994133592e+02
2.081499559894374407e+00 4.097689555278214470e+02
2.081599583900135997e+00 4.098711454981391853e+02
2.081699607905897143e+00 4.099731094887790732e+02
2.081799631911658732e+00 4.100748458914611092e+02
2.081899655917420322e+00 4.101763531112393366e+02
2.081999679923181468e+00 4.102776295665261159e+02
2.082099703928943057e+00 4.103786736891194664e+02
2.082199727934704203e+00 4.104794839242246667e+02
2.082299751940465793e+00 4.105800587304818805e+02
2.082399775946226939e+00 4.106803965799870753e+02
2.082499799951988528e+00 4.107804959583166919e+02
2.082599823957749674e+00 4.108803553645492457e+02
2.082699847963511264e+00 4.109799733112882905e+02
2.082799871969272409e+00 4.110793483246842470e+02
2.082899895975033999e+00 4.111784789444537864e+02
2.082999919980795145e+00 4.112773637239036475e+02
2.083099943986556735e+00 4.113760012299472919e+02
2.083199967992317880e+00 4.114743900431257657e+02
2.083299991998079470e+00 4.115725287576287315e+02
2.083400016003840616e+00 4.116704159813101569e+02
2.083500040009602206e+00 4.117680503357078123e+02
2.083600064015363351e+00 4.118654304560616310e+02
2.083700088021124941e+00 4.119625549913284317e+02
2.083800112026886531e+00 4.120594226042010177e+02
2.083900136032647676e+00 4.121560319711232410e+02
2.084000160038409266e+00 4.122523817823051786e+02
2.084100184044170412e+00 4.123484707417384243e+02
2.084200208049932002e+00 4.124442975672108673e+02
2.084300232055693147e+00 4.125398609903210172e+02
2.084400256061454737e+00 4.126351597564906228e+02
2.084500280067215883e+00 4.127301926249782582e+02
2.084600304072977472e+00 4.128249583688922257e+02
2.084700328078738618e+00 4.129194557752020955e+02
2.084800352084500208e+00 4.130136836447495625e+02
2.084900376090261354e+00 4.131076407922615772e+02
2.085000400096022943e+00 4.132013260463578490e+02
2.085100424101784089e+00 4.132947382495639772e+02
2.085200448107545679e+00 4.133878762583184994e+02
2.085300472113306824e+00 4.134807389429827253e+02
2.085400496119068414e+00 4.135733251878506849e+02
2.085500520124830004e+00 4.136656338911537318e+02
2.085600544130591594e+00 4.137576639650711741e+02
2.085700568136352739e+00 4.138494143357361281e+02
2.085800592142113885e+00 4.139408839432414879e+02
2.085900616147875475e+00 4.140320717416462912e+02
2.086000640153637065e+00 4.141229766989824839e+02
2.086100664159398210e+00 4.142135977972562841e+02
2.086200688165159356e+00 4.143039340324567661e+02
2.086300712170920946e+00 4.143939844145579059e+02
2.086400736176682535e+00 4.144837479675217082e+02
2.086500760182443681e+00 4.145732237293012190e+02
2.086600784188204827e+00 4.146624107518438223e+02
2.086700808193966417e+00 4.147513081010928317e+02
2.086800832199728006e+00 4.148399148569885142e+02
2.086900856205489152e+00 4.149282301134694535e+02
2.087000880211250298e+00 4.150162529784722665e+02
2.087100904217011887e+00 4.151039825739332514e+02
2.087200928222773477e+00 4.151914180357862278e+02
2.087300952228534623e+00 4.152785585139616273e+02
2.087400976234296213e+00 4.153654031723852995e+02
2.087501000240057802e+00 4.154519511889780574e+02
2.087601024245818948e+00 4.155382017556489131e+02
2.087701048251580538e+00 4.156241540782970674e+02
2.087801072257341684e+00 4.157098073768045765e+02
2.087901096263103273e+00 4.157951608850345337e+02
2.088001120268864419e+00 4.158802138508258395e+02
2.088101144274626009e+00 4.159649655359876306e+02
2.088201168280387154e+00 4.160494152162945056e+02
2.088301192286148744e+00 4.161335621814804426e+02
2.088401216291909890e+00 4.162174057352328305e+02
2.088501240297671480e+00 4.163009451951834308e+02
2.088601264303432625e+00 4.163841798929037168e+02
2.088701288309194215e+00 4.164671091738954942e+02
2.088801312314955361e+00 4.165497323975816926e+02
2.088901336320716950e+00 4.166320489372994302e+02
2.089001360326478096e+00 4.167140581802883617e+02
2.089101384332239686e+00 4.167957595276828329e+02
2.089201408338001276e+00 4.168771523945011381e+02
2.089301432343762421e+00 4.169582362096322754e+02
2.089401456349524011e+00 4.170390104158283862e+02
2.089501480355285157e+00 4.171194744696901466e+02
2.089601504361046747e+00 4.171996278416553423e+02
2.089701528366807892e+00 4.172794700159865897e+02
2.089801552372569482e+00 4.173590004907577509e+02
2.089901576378330628e+00 4.174382187778391540e+02
2.090001600384092217e+00 4.175171244028856563e+02
2.090101624389853363e+00 4.175957169053185112e+02
2.090201648395614953e+00 4.176739958383153635e+02
2.090301672401376099e+00 4.177519607687892176e+02
2.090401696407137688e+00 4.178296112773751361e+02
2.090501720412898834e+00 4.179069469584141530e+02
2.090601744418660424e+00 4.179839674199349133e+02
2.090701768424421569e+00 4.180606722836361087e+02
2.090801792430183159e+00 4.181370611848695376e+02
2.090901816435944305e+00 4.182131337726212905e+02
2.091001840441705895e+00 4.182888897094921390e+02
2.091101864447467484e+00 4.183643286716792318e+02
2.091201888453228630e+00 4.184394503489552335e+02
2.091301912458990220e+00 4.185142544446490547e+02
2.091401936464751365e+00 4.185887406756246492e+02
2.091501960470512955e+00 4.186629087722594704e+02
2.091601984476274101e+00 4.187367584784231553e+02
2.091702008482035691e+00 4.188102895514558099e+02
2.091802032487796836e+00 4.188835017621441921e+02
2.091902056493558426e+00 4.189563948947002814e+02
2.092002080499319572e+00 4.190289687467362683e+02
2.092102104505081162e+00 4.191012231292427259e+02
2.092202128510842307e+00 4.191731578665614961e+02
2.092302152516603897e+00 4.192447727963618149e+02
2.092402176522365043e+00 4.193160677696179732e+02
2.092502200528126632e+00 4.193870426505783371e+02
2.092602224533887778e+00 4.194576973167436336e+02
2.092702248539649368e+00 4.195280316588376195e+02
2.092802272545410514e+00 4.195980455807825251e+02
2.092902296551172547e+00 4.196677389996685861e+02
2.093002320556933693e+00 4.197371118457289185e+02
2.093102344562694839e+00 4.198061640623087101e+02
2.093202368568456428e+00 4.198748956058387876e+02
2.093302392574218018e+00 4.199433064458046374e+02
2.093402416579979164e+00 4.200113965647175860e+02
2.093502440585740310e+00 4.200791659580842747e+02
2.093602464591501899e+00 4.201466146343767036e+02
2.093702488597263489e+00 4.202137426150006263e+02
2.093802512603024635e+00 4.202805499342650819e+02
2.093902536608785780e+00 4.203470366393494828e+02
2.094002560614547370e+00 4.204132027902722939e+02
2.094102584620308960e+00 4.204790484598579496e+02
2.094202608626070106e+00 4.205445737337040555e+02
2.094302632631831251e+00 4.206097787101480776e+02
2.094402656637592841e+00 4.206746635002325547e+02
2.094502680643354431e+00 4.207392282276725837e+02
2.094602704649115577e+00 4.208034730288187006e+02
2.094702728654876722e+00 4.208673980526242531e+02
2.094802752660638756e+00 4.209310034606072577e+02
2.094902776666399902e+00 4.209942894268176588e+02
2.095002800672161491e+00 4.210572561377987881e+02
2.095102824677922637e+00 4.211199037925503035e+02
2.095202848683684227e+00 4.211822326024922631e+02
2.095302872689445373e+00 4.212442427914273253e+02
2.095402896695206962e+00 4.213059345955032882e+02
2.095502920700968108e+00 4.213673082631733564e+02
2.095602944706729698e+00 4.214283640551582266e+02
2.095702968712490843e+00 4.214891022444071496e+02
2.095802992718252433e+00 4.215495231160588219e+02
2.095903016724013579e+00 4.216096269674006862e+02
2.096003040729775169e+00 4.216694141078285156e+02
2.096103064735536314e+00 4.217288848588069641e+02
2.096203088741297904e+00 4.217880395538262519e+02
2.096303112747059050e+00 4.218468785383644217e+02
2.096403136752820640e+00 4.219054021698416932e+02
2.096503160758581785e+00 4.219636108175807294e+02
2.096603184764343375e+00 4.220215048627631518e+02
2.096703208770104965e+00 4.220790846983863958e+02
2.096803232775866110e+00 4.221363507292216468e+02
2.096903256781627700e+00 4.221933033717696162e+02
2.097003280787388846e+00 4.222499430542142136e+02
2.097103304793150436e+00 4.223062702163830409e+02
2.097203328798911581e+00 4.223622853096978247e+02
2.097303352804673171e+00 4.224179887971321818e+02
2.097403376810434317e+00 4.224733811531655192e+02
2.097503400816195906e+00 4.225284628637361948e+02
2.097603424821957052e+00 4.225832344261968387e+02
2.097703448827718642e+00 4.226376963492668324e+02
2.097803472833479788e+00 4.226918491529865491e+02
2.097903496839241377e+00 4.227456933686675029e+02
2.098003520845002523e+00 4.227992295388492039e+02
2.098103544850764113e+00 4.228524582172468627e+02
2.098203568856525258e+00 4.229053799687048354e+02
2.098303592862286848e+00 4.229579953691493870e+02
2.098403616868047994e+00 4.230103050055384983e+02
2.098503640873809584e+00 4.230623094758116736e+02
2.098603664879571173e+00 4.231140093888412252e+02
2.098703688885332319e+00 4.231654053643841848e+02
2.098803712891093909e+00 4.232164980330289268e+02
2.098903736896855055e+00 4.232672880361468515e+02
2.099003760902616644e+00 4.233177760258399758e+02
2.099103784908377790e+00 4.233679626648911380e+02
2.099203808914139380e+00 4.234178486267111907e+02
2.099303832919900525e+00 4.234674345952884096e+02
2.099403856925662115e+00 4.235167212651354021e+02
2.099503880931423261e+00 4.235657093412366407e+02
2.099603904937184851e+00 4.236143995389963948e+02
2.099703928942945996e+00 4.236627925841849560e+02
2.099803952948707586e+00 4.237108892128862863e+02
2.099903976954468732e+00 4.237586901714424812e+02
2.100004000960230321e+00 4.238061962164012471e+02
2.100104024965991467e+00 4.238534081144618426e+02
2.100204048971753057e+00 4.239003266424194294e+02
2.100304072977514647e+00 4.239469525871108999e+02
2.100404096983275792e+00 4.239932867453596259e+02
2.100504120989037382e+00 4.240393299239186149e+02
2.100604144994798972e+00 4.240850829394181005e+02
2.100704169000560118e+00 4.241305466183064823e+02
2.100804193006321263e+00 4.241757217967955285e+02
2.100904217012082853e+00 4.242206093208025095e+02
2.101004241017844443e+00 4.242652100458938094e+02
2.101104265023605588e+00 4.243095248372301285e+02
2.101204289029366734e+00 4.243535545695059454e+02
2.101304313035128324e+00 4.243973001268928442e+02
2.101404337040889914e+00 4.244407624029817043e+02
2.101504361046651059e+00 4.244839423007263690e+02
2.101604385052412205e+00 4.245268407323804354e+02
2.101704409058173795e+00 4.245694586194443900e+02
2.101804433063935384e+00 4.246117968926022854e+02
2.101904457069696530e+00 4.246538564916651239e+02
2.102004481075457676e+00 4.246956383655084437e+02
2.102104505081219266e+00 4.247371434720171806e+02
2.102204529086980855e+00 4.247783727780211507e+02
2.102304553092742445e+00 4.248193272592376957e+02
2.102404577098503591e+00 4.248600079002089842e+02
2.102504601104265181e+00 4.249004156942455666e+02
2.102604625110026326e+00 4.249405516433585603e+02
2.102704649115787916e+00 4.249804167582059335e+02
2.102804673121549062e+00 4.250200120580265093e+02
2.102904697127310651e+00 4.250593385705792571e+02
2.103004721133071797e+00 4.250983973320824703e+02
2.103104745138833387e+00 4.251371893871501015e+02
2.103204769144594533e+00 4.251757157887318499e+02
2.103304793150356122e+00 4.252139775980481318e+02
2.103404817156117268e+00 4.252519758845295428e+02
2.103504841161878858e+00 4.252897117257518289e+02
2.103604865167640003e+00 4.253271862073750071e+02
2.103704889173401593e+00 4.253644004230784503e+02
2.103804913179162739e+00 4.254013554744980752e+02
2.103904937184924329e+00 4.254380524711614839e+02
2.104004961190685918e+00 4.254744925304272556e+02
2.104104985196447064e+00 4.255106767774160517e+02
2.104205009202208654e+00 4.255466063449501917e+02
2.104305033207969799e+00 4.255822823734876010e+02
2.104405057213731389e+00 4.256177060110570665e+02
2.104505081219492535e+00 4.256528784131939460e+02
2.104605105225254125e+00 4.256878007428752539e+02
2.104705129231015270e+00 4.257224741704517328e+02
2.104805153236776860e+00 4.257568998735874288e+02
2.104905177242538006e+00 4.257910790371900021e+02
2.105005201248299596e+00 4.258250128533468342e+02
2.105105225254060741e+00 4.258587025212574986e+02
2.105205249259822331e+00 4.258921492471700958e+02
2.105305273265583477e+00 4.259253542443129277e+02
2.105405297271345066e+00 4.259583187328291842e+02
2.105505321277106212e+00 4.259910439397100390e+02
2.105605345282867802e+00 4.260235310987272896e+02
2.105705369288628948e+00 4.260557814503682152e+02
2.105805393294390537e+00 4.260877962417665117e+02
2.105905417300152127e+00 4.261195767266366943e+02
2.106005441305913273e+00 4.261511241652050330e+02
2.106105465311674863e+00 4.261824398241446374e+02
2.106205489317436008e+00 4.262135249765057097e+02
2.106305513323197598e+00 4.262443809016485261e+02
2.106405537328958744e+00 4.262750088851758505e+02
2.106505561334720333e+00 4.263054102188636989e+02
2.106605585340481479e+00 4.263355862005960830e+02
2.106705609346243069e+00 4.263655381342928194e+02
2.106805633352004214e+00 4.263952673298442164e+02
2.106905657357765804e+00 4.264247751030416680e+02
2.107005681363526950e+00 4.264540627755091009e+02
2.107105705369288540e+00 4.264831316746326593e+02
2.107205729375049685e+00 4.265119831334956189e+02
2.107305753380811275e+00 4.265406184908049454e+02
2.107405777386572421e+00 4.265690390908262088e+02
2.107505801392334011e+00 4.265972462833115060e+02
2.107605825398095156e+00 4.266252414234320440e+02
2.107705849403856746e+00 4.266530258717073139e+02
2.107805873409618336e+00 4.266806009939379578e+02
2.107905897415379926e+00 4.267079681611330670e+02
2.108005921421141071e+00 4.267351287494436747e+02
2.108105945426902217e+00 4.267620841400909626e+02
2.108205969432663807e+00 4.267888357192973672e+02
2.108305993438425396e+00 4.268153848782163777e+02
2.108406017444186542e+00 4.268417330128625053e+02
2.108506041449947688e+00 4.268678815240416498e+02
2.108606065455709278e+00 4.268938318172812956e+02
2.108706089461470867e+00 4.269195853027590601e+02
2.108806113467232013e+00 4.269451433952341404e+02
2.108906137472993159e+00 4.269705075139754626e+02
2.109006161478754748e+00 4.269956790826927318e+02
2.109106185484516338e+00 4.270206595294647514e+02
2.109206209490277484e+00 4.270454502866696771e+02
2.109306233496038629e+00 4.270700527909141897e+02
2.109406257501800219e+00 4.270944684829642028e+02
2.109506281507561809e+00 4.271186988076715920e+02
2.109606305513323399e+00 4.271427452139059824e+02
2.109706329519084544e+00 4.271666091544830124e+02
2.109806353524846134e+00 4.271902920860939048e+02
2.109906377530607280e+00 4.272137954692340145e+02
2.110006401536368870e+00 4.272371207681333658e+02
2.110106425542130015e+00 4.272602694506842340e+02
2.110206449547891605e+00 4.272832429883710574e+02
2.110306473553652751e+00 4.273060428562004063e+02
2.110406497559414341e+00 4.273286705326281094e+02
2.110506521565175486e+00 4.273511274994899622e+02
2.110606545570937076e+00 4.273734152419302177e+02
2.110706569576698222e+00 4.273955352483305887e+02
2.110806593582459811e+00 4.274174890102394215e+02
2.110906617588220957e+00 4.274392780223001864e+02
2.111006641593982547e+00 4.274609037821813331e+02
2.111106665599743692e+00 4.274823677905044974e+02
2.111206689605505282e+00 4.275036715507745839e+02
2.111306713611266428e+00 4.275248165693078590e+02
2.111406737617028018e+00 4.275458043551603851e+02
2.111506761622789607e+00 4.275666364200592398e+02
2.111606785628550753e+00 4.275873142783289609e+02
2.111706809634312343e+00 4.276078394468230499e+02
2.111806833640073489e+00 4.276282134448503029e+02
2.111906857645835078e+00 4.276484377941075081e+02
2.112006881651596224e+00 4.276685140186045260e+02
2.112106905657357814e+00 4.276884436445961342e+02
2.112206929663118959e+00 4.277082282005111438e+02
2.112306953668880549e+00 4.277278692168792986e+02
2.112406977674641695e+00 4.277473682262640295e+02
2.112507001680403285e+00 4.277667267631877621e+02
2.112607025686164430e+00 4.277859463640651256e+02
2.112707049691926020e+00 4.278050285671296251e+02
2.112807073697687166e+00 4.278239749123630418e+02
2.112907097703448756e+00 4.278427869414267661e+02
2.113007121709209901e+00 4.278614661975903459e+02
2.113107145714971491e+00 4.278800142256595223e+02
2.113207169720732637e+00 4.278984325719085859e+02
2.113307193726494226e+00 4.279167227840074474e+02
2.113407217732255816e+00 4.279348864109529131e+02
2.113507241738016962e+00 4.279529250029985405e+02
2.113607265743778552e+00 4.279708401115832430e+02
2.113707289749539697e+00 4.279886332892621681e+02
2.113807313755301287e+00 4.280063060896364391e+02
2.113907337761062433e+00 4.280238600672832945e+02
2.114007361766824022e+00 4.280412967776858295e+02
2.114107385772585168e+00 4.280586177771636471e+02
2.114207409778346758e+00 4.280758246228025428e+02
2.114307433784107904e+00 4.280929188723866332e+02
2.114407457789869493e+00 4.281099020843254266e+02
2.114507481795630639e+00 4.281267758175879408e+02
2.114607505801392229e+00 4.281435416316318197e+02
2.114707529807153374e+00 4.281602010863330179e+02
2.114807553812914964e+00 4.281767557419182140e+02
2.114907577818676110e+00 4.281932071588956887e+02
2.115007601824437700e+00 4.282095568979854079e+02
2.115107625830199289e+00 4.282258065200500141e+02
2.115207649835960879e+00 4.282419575860277519e+02
2.115307673841722025e+00 4.282580116568619815e+02
2.115407697847483171e+00 4.282739702934336492e+02
2.115507721853244760e+00 4.282898350564926204e+02
2.115607745859006350e+00 4.283056075065891832e+02
2.115707769864767496e+00 4.283212892040067459e+02
2.115807793870528641e+00 4.283368817086915215e+02
2.115907817876290231e+00 4.283523865801878401e+02
2.116007841882051821e+00 4.283678053775678336e+02
2.116107865887812967e+00 4.283831396593645877e+02
2.116207889893574112e+00 4.283983909835048394e+02
2.116307913899335702e+00 4.284135609072403668e+02
2.116407937905097292e+00 4.284286509870833584e+02
2.116507961910858437e+00 4.284436627787362113e+02
2.116607985916619583e+00 4.284585978370261614e+02
2.116708009922381173e+00 4.284734577158388902e+02
2.116808033928142763e+00 4.284882439680500852e+02
2.116908057933903908e+00 4.285029581454610934e+02
2.117008081939665498e+00 4.285176017987302544e+02
2.117108105945427088e+00 4.285321764773082691e+02
2.117208129951188234e+00 4.285466837293719209e+02
2.117308153956949823e+00 4.285611251017572272e+02
2.117408177962710969e+00 4.285755021398950930e+02
2.117508201968472559e+00 4.285898163877445199e+02
2.117608225974233704e+00 4.286040693877275771e+02
2.117708249979995294e+00 4.286182626806638609e+02
2.117808273985756440e+00 4.286323978057067734e+02
2.117908297991518030e+00 4.286464763002765039e+02
2.118008321997279175e+00 4.286604996999967625e+02
2.118108346003040765e+00 4.286744695386298076e+02
2.118208370008801911e+00 4.286883873480122702e+02
2.118308394014563500e+00 4.287022546579904656e+02
2.118408418020324646e+00 4.287160729963565018e+02
2.118508442026086236e+00 4.287298438887852399e+02
2.118608466031847382e+00 4.287435688587699474e+02
2.118708490037608971e+00 4.287572494275588610e+02
2.118808514043370561e+00 4.287708871140915790e+02
2.118908538049131707e+00 4.287844834349376697e+02
2.119008562054893297e+00 4.287980399042321551e+02
2.119108586060654442e+00 4.288115580336128687e+02
2.119208610066416032e+00 4.288250393321597471e+02
2.119308634072177178e+00 4.288384853063299147e+02
2.119408658077938767e+00 4.288518974598981686e+02
2.119508682083699913e+00 4.288652772938947919e+02
2.119608706089461503e+00 4.288786263065416620e+02
2.119708730095222649e+00 4.288919459931939855e+02
2.119808754100984238e+00 4.289052378462769752e+02
2.119908778106745384e+00 4.289185033552257664e+02
2.120008802112506974e+00 4.289317440064249922e+02
2.120108826118268119e+00 4.289449612831469949e+02
2.120208850124029709e+00 4.289581566654933340e+02
2.120308874129790855e+00 4.289713316303331681e+02
2.120408898135552445e+00 4.289844876512444785e+02
2.120508922141313590e+00 4.289976261984543839e+02
2.120608946147075180e+00 4.290107487387783749e+02
2.120708970152836770e+00 4.290238567355642090e+02
2.120808994158597915e+00 4.290369516486290422e+02
2.120909018164359505e+00 4.290500349342045183e+02
2.121009042170120651e+00 4.290631080448764578e+02
2.121109066175882241e+00 4.290761724295271051e+02
2.121209090181643386e+00 4.290892295332769208e+02
2.121309114187404976e+00 4.291022807974269995e+02
2.121409138193166122e+00 4.291153276594027943e+02
2.121509162198927712e+00 4.291283715526952847e+02
2.121609186204688857e+00 4.291414139068051554e+02
2.121709210210450447e+00 4.291544561471862380e+02
2.121809234216211593e+00 4.291674996951884395e+02
2.121909258221973182e+00 4.291805459680011836e+02
2.122009282227734328e+00 4.291935963786003185e+02
2.122109306233495918e+00 4.292066523356893413e+02
2.122209330239257064e+00 4.292197152436452825e+02
2.122309354245018653e+00 4.292327865024644780e+02
2.122409378250779799e+00 4.292458675077052703e+02
2.122509402256541833e+00 4.292589596504375322e+02
2.122609426262302978e+00 4.292720643171849702e+02
2.122709450268064124e+00 4.292851828898727717e+02
2.122809474273825714e+00 4.292983167457727518e+02
2.122909498279587304e+00 4.293114672574518522e+02
2.123009522285348449e+00 4.293246357927171175e+02
2.123109546291109595e+00 4.293378237145642515e+02
2.123209570296871185e+00 4.293510323811233320e+02
2.123309594302632775e+00 4.293642631456098684e+02
2.123409618308393920e+00 4.293775173562679015e+02
2.123509642314155066e+00 4.293907963563233920e+02
2.123609666319916656e+00 4.294041014839294235e+02
2.123709690325678245e+00 4.294174340721163503e+02
2.123809714331439391e+00 4.294307954487410939e+02
2.123909738337200537e+00 4.294441869364363242e+02
2.124009762342962127e+00 4.294576098525599832e+02
2.124109786348723716e+00 4.294710655091465696e+02
2.124209810354484862e+00 4.294845552128558097e+02
2.124309834360246008e+00 4.294980802649247948e+02
2.124409858366008041e+00 4.295116419611182437e+02
2.124509882371769187e+00 4.295252415916803557e+02
2.124609906377530777e+00 4.295388804412859827e+02
2.124709930383291923e+00 4.295525597889922551e+02
2.124809954389053512e+00 4.295662809081918567e+02
2.124909978394814658e+00 4.295800450665652193e+02
2.125010002400576248e+00 4.295938535260323761e+02
2.125110026406337393e+00 4.296077075427073737e+02
2.125210050412098983e+00 4.296216083668516035e+02
2.125310074417860129e+00 4.296355572428274172e+02
2.125410098423621719e+00 4.296495554090516293e+02
2.125510122429382864e+00 4.296636040979519180e+02
2.125610146435144454e+00 4.296777045359189628e+02
2.125710170440905600e+00 4.296918579432635283e+02
2.125810194446667190e+00 4.297060655341716142e+02
2.125910218452428335e+00 4.297203285166596629e+02
2.126010242458189925e+00 4.297346480925311312e+02
2.126110266463951071e+00 4.297490254573324364e+02
2.126210290469712660e+00 4.297634618003103810e+02
2.126310314475474250e+00 4.297779583043692355e+02
2.126410338481235396e+00 4.297925161460266850e+02
2.126510362486996986e+00 4.298071364953744933e+02
2.126610386492758131e+00 4.298218205160337106e+02
2.126710410498519721e+00 4.298365693651152242e+02
2.126810434504280867e+00 4.298513841931768980e+02
2.126910458510042456e+00 4.298662661441839532e+02
2.127010482515803602e+00 4.298812163554676431e+02
2.127110506521565192e+00 4.298962359576859171e+02
2.127210530527326338e+00 4.299113260747832328e+02
2.127310554533087927e+00 4.299264878239497989e+02
2.127410578538849073e+00 4.299417223155851389e+02
2.127510602544610663e+00 4.299570306532572204e+02
2.127610626550371808e+00 4.299724139336639155e+02
2.127710650556133398e+00 4.299878732465964504e+02
2.127810674561894544e+00 4.300034096749002970e+02
2.127910698567656134e+00 4.300190242944381680e+02
2.128010722573417279e+00 4.300347181740534097e+02
2.128110746579178869e+00 4.300504923755335653e+02
2.128210770584940459e+00 4.300663479535727447e+02
2.128310794590701605e+00 4.300822859557367792e+02
2.128410818596463194e+00 4.300983074224274105e+02
2.128510842602224340e+00 4.301144133868463086e+02
2.128610866607985930e+00 4.301306048749621596e+02
2.128710890613747075e+00 4.301468829054739444e+02
2.128810914619508665e+00 4.301632484897780273e+02
2.128910938625269811e+00 4.301797026319336510e+02
2.129010962631031401e+00 4.301962463286311049e+02
2.129110986636792546e+00 4.302128805691560842e+02
2.129211010642554136e+00 4.302296063353588806e+02
2.129311034648315282e+00 4.302464246016224934e+02
2.129411058654076871e+00 4.302633363348281250e+02
2.129511082659838017e+00 4.302803424943276696e+02
2.129611106665599607e+00 4.302974440319077871e+02
2.129711130671360753e+00 4.303146418917624487e+02
2.129811154677122342e+00 4.303319370104618429e+02
2.129911178682883932e+00 4.303493303169211686e+02
2.130011202688645078e+00 4.303668227323721567e+02
2.130111226694406668e+00 4.303844151703324314e+02
2.130211250700168257e+00 4.304021085365784529e+02
2.130311274705929403e+00 4.304199037291150489e+02
2.130411298711690549e+00 4.304378016381478460e+02
2.130511322717452138e+00 4.304558031460560983e+02
2.130611346723213728e+00 4.304739091273650047e+02
2.130711370728974874e+00 4.304921204487160367e+02
2.130811394734736020e+00 4.305104379688461904e+02
2.130911418740497609e+00 4.305288625385550176e+02
2.131011442746259199e+00 4.305473950006827408e+02
2.131111466752020345e+00 4.305660361900831390e+02
2.131211490757781490e+00 4.305847869336000713e+02
2.131311514763543080e+00 4.306036480500399080e+02
2.131411538769304670e+00 4.306226203501504415e+02
2.131511562775065816e+00 4.306417046365932606e+02
2.131611586780826961e+00 4.306609017039225478e+02
2.131711610786588551e+00 4.306802123385627965e+02
2.131811634792350141e+00 4.306996373187824361e+02
2.131911658798111731e+00 4.307191774146739363e+02
2.132011682803872876e+00 4.307388333881318658e+02
2.132111706809634466e+00 4.307586059928292457e+02
2.132211730815395612e+00 4.307784959741979947e+02
2.132311754821157201e+00 4.307985040694073859e+02
2.132411778826918347e+00 4.308186310073433560e+02
2.132511802832679937e+00 4.308388775085891211e+02
2.132611826838441083e+00 4.308592442854040314e+02
2.132711850844202672e+00 4.308797320417055516e+02
2.132811874849963818e+00 4.309003414730486838e+02
2.132911898855725408e+00 4.309210732666099943e+02
2.133011922861486553e+00 4.309419281011665817e+02
2.133111946867248143e+00 4.309629066470801035e+02
2.133211970873009289e+00 4.309840095662786439e+02
2.133311994878770879e+00 4.310052375122394892e+02
2.133412018884532024e+00 4.310265911299728145e+02
2.133512042890293614e+00 4.310480710560058810e+02
2.133612066896055204e+00 4.310696779183663807e+02
2.133712090901816349e+00 4.310914123365672594e+02
2.133812114907577939e+00 4.311132749215915396e+02
2.133912138913339085e+00 4.311352662758783367e+02
2.134012162919100675e+00 4.311573869933075684e+02
2.134112186924861820e+00 4.311796376591867102e+02
2.134212210930623410e+00 4.312020188502367546e+02
2.134312234936384556e+00 4.312245311345803316e+02
2.134412258942146146e+00 4.312471750717273835e+02
2.134512282947907291e+00 4.312699512125635124e+02
2.134612306953668881e+00 4.312928600993394639e+02
2.134712330959430027e+00 4.313159022656566322e+02
2.134812354965191616e+00 4.313390782364577944e+02
2.134912378970952762e+00 4.313623885280173909e+02
2.135012402976714352e+00 4.313858336479286777e+02
2.135112426982475498e+00 4.314094140950959400e+02
2.135212450988237087e+00 4.314331303597232363e+02
2.135312474993998233e+00 4.314569829233065548e+02
2.135412498999759823e+00 4.314809722586244334e+02
2.135512523005521413e+00 4.315050988297294907e+02
2.135612547011282558e+00 4.315293630919407519e+02
2.135712571017044148e+00 4.315537654918356338e+02
2.135812595022805294e+00 4.315783064672436922e+02
2.135912619028566883e+00 4.316029864472379245e+02
2.136012643034328029e+00 4.316278058521311891e+02
2.136112667040089619e+00 4.316527650934674512e+02
2.136212691045850764e+00 4.316778645740175193e+02
2.136312715051612354e+00 4.317031046877735889e+02
2.136412739057373500e+00 4.317284858199446376e+02
2.136512763063135090e+00 4.317540083469514229e+02
2.136612787068896235e+00 4.317796726364223332e+02
2.136712811074657825e+00 4.318054790471912270e+02
2.136812835080418971e+00 4.318314279292923175e+02
2.136912859086180561e+00 4.318575196239577281e+02
2.137012883091941706e+00 4.318837544636156736e+02
2.137112907097703296e+00 4.319101327718880725e+02
2.137212931103464442e+00 4.319366548635887284e+02
2.137312955109226031e+00 4.319633210447213401e+02
2.137412979114987621e+00 4.319901316124799564e+02
2.137513003120749211e+00 4.320170868552472712e+02
2.137613027126510357e+00 4.320441870525952481e+02
2.137713051132271502e+00 4.320714324752848938e+02
2.137813075138033092e+00 4.320988233852666554e+02
2.137913099143794682e+00 4.321263600356815573e+02
2.138013123149555827e+00 4.321540426708636460e+02
2.138113147155316973e+00 4.321818715263406148e+02
2.138213171161078563e+00 4.322098468288355093e+02
2.138313195166840153e+00 4.322379687962706498e+02
2.138413219172601298e+00 4.322662376377699616e+02
2.138513243178362444e+00 4.322946535536619308e+02
2.138613267184124034e+00 4.323232167354838111e+02
2.138713291189885624e+00 4.323519273659854889e+02
2.138813315195646769e+00 4.323807856191342012e+02
2.138913339201407915e+00 4.324097916601182874e+02
2.139013363207169505e+00 4.324389456453552043e+02
2.139113387212931094e+00 4.324682477224926060e+02
2.139213411218692684e+00 4.324976980304188032e+02
2.139313435224453830e+00 4.325272966992670831e+02
2.139413459230215420e+00 4.325570438504221329e+02
2.139513483235976565e+00 4.325869395965279978e+02
2.139613507241738155e+00 4.326169840414952432e+02
2.139713531247499301e+00 4.326471772805086289e+02
2.139813555253260891e+00 4.326775194000358056e+02
2.139913579259022036e+00 4.327080104778357281e+02
2.140013603264783626e+00 4.327386505829673524e+02
