1.900018003960871393e+00 5.090568075180384540e+02
1.900118025965712443e+00 5.090716674707705351e+02
1.900218047970553270e+00 5.090865125022470465e+02
1.900318069975394319e+00 5.091013423367845689e+02
1.900418091980235591e+00 5.091161566988351410e+02
1.900518113985076640e+00 5.091309553129920573e+02
1.900618135989917690e+00 5.091457379039982811e+02
1.900718157994758739e+00 5.091605041967502530e+02
1.900818179999599788e+00 5.091752539163067581e+02
1.900918202004440616e+00 5.091899867878919963e+02
1.901018224009281887e+00 5.092047025369056428e+02
1.901118246014122937e+00 5.092194008889256907e+02
1.901218268018963986e+00 5.092340815697176595e+02
1.901318290023805258e+00 5.092487443052389153e+02
1.901418312028646307e+00 5.092633888216449805e+02
1.901518334033487356e+00 5.092780148452973776e+02
1.901618356038328184e+00 5.092926221027686324e+02
1.901718378043169233e+00 5.093072103208481849e+02
1.901818400048010282e+00 5.093217792265500634e+02
1.901918422052851554e+00 5.093363285471186259e+02
1.902018444057692603e+00 5.093508580100325389e+02
1.902118466062533653e+00 5.093653673430160325e+02
1.902218488067374924e+00 5.093798562740395823e+02
1.902318510072215751e+00 5.093943245313303123e+02
1.902418532077056801e+00 5.094087718433750638e+02
1.902518554081897850e+00 5.094231979389296043e+02
1.902618576086738900e+00 5.094376025470226637e+02
1.902718598091579949e+00 5.094519853969628116e+02
1.902818620096421220e+00 5.094663462183446541e+02
1.902918642101262270e+00 5.094806847410557111e+02
1.903018664106103097e+00 5.094950006952801687e+02
1.903118686110944147e+00 5.095092938115088259e+02
1.903218708115785418e+00 5.095235638205423356e+02
1.903318730120626467e+00 5.095378104534974000e+02
1.903418752125467517e+00 5.095520334418158654e+02
1.903518774130308566e+00 5.095662325172664850e+02
1.903618796135149616e+00 5.095804074119544111e+02
1.903718818139990443e+00 5.095945578583266524e+02
1.903818840144831714e+00 5.096086835891767350e+02
1.903918862149672764e+00 5.096227843376524334e+02
1.904018884154513813e+00 5.096368598372606016e+02
1.904118906159355085e+00 5.096509098218743929e+02
1.904218928164196134e+00 5.096649340257396261e+02
1.904318950169037183e+00 5.096789321834781958e+02
1.904418972173878011e+00 5.096929040300963720e+02
1.904518994178719060e+00 5.097068493009921326e+02
1.904619016183560110e+00 5.097207677319575510e+02
1.904719038188401381e+00 5.097346590591869244e+02
1.904819060193242430e+00 5.097485230192839367e+02
1.904919082198083480e+00 5.097623593492648411e+02
1.905019104202924751e+00 5.097761677865667025e+02
1.905119126207765579e+00 5.097899480690517748e+02
1.905219148212606628e+00 5.098036999350148335e+02
1.905319170217447677e+00 5.098174231231889735e+02
1.905419192222288727e+00 5.098311173727499863e+02
1.905519214227129776e+00 5.098447824233234087e+02
1.905619236231971048e+00 5.098584180149915710e+02
1.905719258236812097e+00 5.098720238882975764e+02
1.905819280241652924e+00 5.098855997842513830e+02
1.905919302246493974e+00 5.098991454443369662e+02
1.906019324251335245e+00 5.099126606105171504e+02
1.906119346256176295e+00 5.099261450252398618e+02
1.906219368261017344e+00 5.099395984314436419e+02
1.906319390265858393e+00 5.099530205725633323e+02
1.906419412270699443e+00 5.099664111925363841e+02
1.906519434275540270e+00 5.099797700358082011e+02
1.906619456280381542e+00 5.099930968473393591e+02
1.906719478285222591e+00 5.100063913726079932e+02
1.906819500290063640e+00 5.100196533576191200e+02
1.906919522294904912e+00 5.100328825489083897e+02
1.907019544299745961e+00 5.100460786935482815e+02
1.907119566304587011e+00 5.100592415391547547e+02
1.907219588309427838e+00 5.100723708338902043e+02
1.907319610314268887e+00 5.100854663264721580e+02
1.907419632319109937e+00 5.100985277661770851e+02
1.907519654323951208e+00 5.101115549028475016e+02
1.907619676328792258e+00 5.101245474868952670e+02
1.907719698333633307e+00 5.101375052693105658e+02
1.907819720338474578e+00 5.101504280016631014e+02
1.907919742343315406e+00 5.101633154361113611e+02
1.908019764348156455e+00 5.101761673254075617e+02
1.908119786352997505e+00 5.101889834229021972e+02
1.908219808357838554e+00 5.102017634825477899e+02
1.908319830362679603e+00 5.102145072589090091e+02
1.908419852367520875e+00 5.102272145071646605e+02
1.908519874372361924e+00 5.102398849831140524e+02
1.908619896377202751e+00 5.102525184431824528e+02
1.908719918382043801e+00 5.102651146444263759e+02
1.908819940386885072e+00 5.102776733445390391e+02
1.908919962391726122e+00 5.102901943018566158e+02
1.909019984396567171e+00 5.103026772753618729e+02
1.909120006401408220e+00 5.103151220246904813e+02
1.909220028406249048e+00 5.103275283101378363e+02
1.909320050411090097e+00 5.103398958926607634e+02
1.909420072415931369e+00 5.103522245338859875e+02
1.909520094420772418e+00 5.103645139961147379e+02
1.909620116425613467e+00 5.103767640423263856e+02
1.909720138430454739e+00 5.103889744361861744e+02
1.909820160435295788e+00 5.104011449420482336e+02
1.909920182440136616e+00 5.104132753249620578e+02
1.910020204444977665e+00 5.104253653506775663e+02
1.910120226449818714e+00 5.104374147856491390e+02
1.910220248454659764e+00 5.104494233970426649e+02
1.910320270459501035e+00 5.104613909527386113e+02
1.910420292464342085e+00 5.104733172213390731e+02
1.910520314469183134e+00 5.104852019721709553e+02
1.910620336474023961e+00 5.104970449752923969e+02
1.910720358478865233e+00 5.105088460014978864e+02
1.910820380483706282e+00 5.105206048223215021e+02
1.910920402488547332e+00 5.105323212100439036e+02
1.911020424493388381e+00 5.105439949376965956e+02
1.911120446498229430e+00 5.105556257790665882e+02
1.911220468503070702e+00 5.105672135087010020e+02
1.911320490507911529e+00 5.105787579019133773e+02
1.911420512512752579e+00 5.105902587347871417e+02
1.911520534517593628e+00 5.106017157841810672e+02
1.911620556522434899e+00 5.106131288277345561e+02
1.911720578527275949e+00 5.106244976438701428e+02
1.911820600532116998e+00 5.106358220118026452e+02
1.911920622536958048e+00 5.106471017115389941e+02
1.912020644541798875e+00 5.106583365238867600e+02
1.912120666546639924e+00 5.106695262304565404e+02
1.912220688551481196e+00 5.106806706136682124e+02
1.912320710556322245e+00 5.106917694567546846e+02
1.912420732561163295e+00 5.107028225437663309e+02
1.912520754566004566e+00 5.107138296595762199e+02
1.912620776570845615e+00 5.107247905898855151e+02
1.912720798575686443e+00 5.107357051212258625e+02
1.912820820580527492e+00 5.107465730409654725e+02
1.912920842585368542e+00 5.107573941373140656e+02
1.913020864590209591e+00 5.107681681993251459e+02
1.913120886595050862e+00 5.107788950169037321e+02
1.913220908599891912e+00 5.107895743808078350e+02
1.913320930604732961e+00 5.108002060826545403e+02
1.913420952609573789e+00 5.108107899149242144e+02
1.913520974614415060e+00 5.108213256709632333e+02
1.913620996619256109e+00 5.108318131449930206e+02
1.913721018624097159e+00 5.108422521321070349e+02
1.913821040628938208e+00 5.108526424282820244e+02
1.913921062633779258e+00 5.108629838303783686e+02
1.914021084638620529e+00 5.108732761361451367e+02
1.914121106643461356e+00 5.108835191442263408e+02
1.914221128648302406e+00 5.108937126541601401e+02
1.914321150653143455e+00 5.109038564663890156e+02
1.914421172657984727e+00 5.109139503822597135e+02
1.914521194662825776e+00 5.109239942040294409e+02
1.914621216667666825e+00 5.109339877348694472e+02
1.914721238672507875e+00 5.109439307788682640e+02
1.914821260677348702e+00 5.109538231410369917e+02
1.914921282682189752e+00 5.109636646273126530e+02
1.915021304687031023e+00 5.109734550445617742e+02
1.915121326691872072e+00 5.109831942005860128e+02
1.915221348696713122e+00 5.109928819041234647e+02
1.915321370701554393e+00 5.110025179648554285e+02
1.915421392706395443e+00 5.110121021934080545e+02
1.915521414711236270e+00 5.110216344013574030e+02
1.915621436716077319e+00 5.110311144012328555e+02
1.915721458720918369e+00 5.110405420065208659e+02
1.915821480725759418e+00 5.110499170316685422e+02
1.915921502730600690e+00 5.110592392920893303e+02
1.916021524735441739e+00 5.110685086041628438e+02
1.916121546740282788e+00 5.110777247852421397e+02
1.916221568745123616e+00 5.110868876536557082e+02
1.916321590749964887e+00 5.110959970287115084e+02
1.916421612754805937e+00 5.111050527307005495e+02
1.916521634759646986e+00 5.111140545808999605e+02
1.916621656764488035e+00 5.111230024015777644e+02
1.916721678769329085e+00 5.111318960159948688e+02
1.916821700774170356e+00 5.111407352484100102e+02
1.916921722779011183e+00 5.111495199240820284e+02
1.917021744783852233e+00 5.111582498692740160e+02
1.917121766788693282e+00 5.111669249112565012e+02
1.917221788793534554e+00 5.111755448783105749e+02
1.917321810798375603e+00 5.111841095997316415e+02
1.917421832803216653e+00 5.111926189058326031e+02
1.917521854808057702e+00 5.112010726279471555e+02
1.917621876812898529e+00 5.112094705984330290e+02
1.917721898817739579e+00 5.112178126506751141e+02
1.917821920822580850e+00 5.112260986190887593e+02
1.917921942827421899e+00 5.112343283391224418e+02
1.918021964832262949e+00 5.112425016472627135e+02
1.918121986837104220e+00 5.112506183810343714e+02
1.918222008841945270e+00 5.112586783790062555e+02
1.918322030846786097e+00 5.112666814807934088e+02
1.918422052851627146e+00 5.112746275270582146e+02
1.918522074856468196e+00 5.112825163595171034e+02
1.918622096861309245e+00 5.112903478209401555e+02
1.918722118866150517e+00 5.112981217551564441e+02
1.918822140870991566e+00 5.113058380070541489e+02
1.918922162875832615e+00 5.113134964225867520e+02
1.919022184880673443e+00 5.113210968487733226e+02
1.919122206885514714e+00 5.113286391337032342e+02
1.919222228890355764e+00 5.113361231265366200e+02
1.919322250895196813e+00 5.113435486775090340e+02
1.919422272900037862e+00 5.113509156379348042e+02
1.919522294904878912e+00 5.113582238602062944e+02
1.919622316909720183e+00 5.113654731978004406e+02
1.919722338914561011e+00 5.113726635052790925e+02
1.919822360919402060e+00 5.113797946382919122e+02
1.919922382924243109e+00 5.113868664535802395e+02
1.920022404929084381e+00 5.113938788089780019e+02
1.920122426933925430e+00 5.114008315634144424e+02
1.920222448938766480e+00 5.114077245769182696e+02
1.920322470943607529e+00 5.114145577106173732e+02
1.920422492948448356e+00 5.114213308267438265e+02
1.920522514953289406e+00 5.114280437886350228e+02
1.920622536958130677e+00 5.114346964607345853e+02
1.920722558962971727e+00 5.114412887085986767e+02
1.920822580967812776e+00 5.114478203988944642e+02
1.920922602972654047e+00 5.114542913994033597e+02
1.921022624977495097e+00 5.114607015790245441e+02
1.921122646982335924e+00 5.114670508077760473e+02
1.921222668987176974e+00 5.114733389567963968e+02
1.921322690992018023e+00 5.114795658983485964e+02
1.921422712996859072e+00 5.114857315058202403e+02
1.921522735001700344e+00 5.114918356537261843e+02
1.921622757006541393e+00 5.114978782177116159e+02
1.921722779011382443e+00 5.115038590745531337e+02
1.921822801016223270e+00 5.115097781021602259e+02
1.921922823021064541e+00 5.115156351795782257e+02
1.922022845025905591e+00 5.115214301869887663e+02
1.922122867030746640e+00 5.115271630057151242e+02
1.922222889035587690e+00 5.115328335182190358e+02
1.922322911040428739e+00 5.115384416081063250e+02
1.922422933045270010e+00 5.115439871601275286e+02
1.922522955050110838e+00 5.115494700601785780e+02
1.922622977054951887e+00 5.115548901953048357e+02
1.922722999059792937e+00 5.115602474537004127e+02
1.922823021064634208e+00 5.115655417247110108e+02
1.922923043069475257e+00 5.115707728988355711e+02
1.923023065074316307e+00 5.115759408677274678e+02
1.923123087079157356e+00 5.115810455241964974e+02
1.923223109083998184e+00 5.115860867622093338e+02
1.923323131088839233e+00 5.115910644768931661e+02
1.923423153093680504e+00 5.115959785645346756e+02
1.923523175098521554e+00 5.116008289225826502e+02
1.923623197103362603e+00 5.116056154496503154e+02
1.923723219108203875e+00 5.116103380455138563e+02
1.923823241113044924e+00 5.116149966111173057e+02
1.923923263117885751e+00 5.116195910485714080e+02
1.924023285122726801e+00 5.116241212611554943e+02
1.924123307127567850e+00 5.116285871533190175e+02
1.924223329132408900e+00 5.116329886306825756e+02
1.924323351137250171e+00 5.116373256000380252e+02
1.924423373142091220e+00 5.116415979693521194e+02
1.924523395146932270e+00 5.116458056477649734e+02
1.924623417151773097e+00 5.116499485455934177e+02
1.924723439156614369e+00 5.116540265743287819e+02
1.924823461161455418e+00 5.116580396466425782e+02
1.924923483166296467e+00 5.116619876763826369e+02
1.925023505171137517e+00 5.116658705785778238e+02
1.925123527175978566e+00 5.116696882694367332e+02
1.925223549180819838e+00 5.116734406663485970e+02
1.925323571185660665e+00 5.116771276878865820e+02
1.925423593190501714e+00 5.116807492538044926e+02
1.925523615195342764e+00 5.116843052850414892e+02
1.925623637200184035e+00 5.116877957037210649e+02
1.925723659205025085e+00 5.116912204331505336e+02
1.925823681209866134e+00 5.116945793978244410e+02
1.925923703214707183e+00 5.116978725234225749e+02
1.926023725219548011e+00 5.117010997368137168e+02
1.926123747224389060e+00 5.117042609660522317e+02
1.926223769229230331e+00 5.117073561403815916e+02
1.926323791234071381e+00 5.117103851902338079e+02
1.926423813238912430e+00 5.117133480472306246e+02
1.926523835243753702e+00 5.117162446441824954e+02
1.926623857248594529e+00 5.117190749150905731e+02
1.926723879253435578e+00 5.117218387951468230e+02
1.926823901258276628e+00 5.117245362207330572e+02
1.926923923263117677e+00 5.117271671294229236e+02
1.927023945267958727e+00 5.117297314599816218e+02
1.927123967272799998e+00 5.117322291523651643e+02
1.927223989277641047e+00 5.117346601477222521e+02
1.927324011282481875e+00 5.117370243883939338e+02
1.927424033287322924e+00 5.117393218179120709e+02
1.927524055292164196e+00 5.117415523810026912e+02
1.927624077297005245e+00 5.117437160235834313e+02
1.927724099301846294e+00 5.117458126927646163e+02
1.927824121306687344e+00 5.117478423368493168e+02
1.927924143311528393e+00 5.117498049053320415e+02
1.928024165316369221e+00 5.117517003489025456e+02
1.928124187321210492e+00 5.117535286194402033e+02
1.928224209326051541e+00 5.117552896700181577e+02
1.928324231330892591e+00 5.117569834549022403e+02
1.928424253335733862e+00 5.117586099295491522e+02
1.928524275340574912e+00 5.117601690506082264e+02
1.928624297345415961e+00 5.117616607759214844e+02
1.928724319350256788e+00 5.117630850645203964e+02
1.928824341355097838e+00 5.117644418766290073e+02
1.928924363359938887e+00 5.117657311736621182e+02
1.929024385364780159e+00 5.117669529182243195e+02
1.929124407369621208e+00 5.117681070741109011e+02
1.929224429374462257e+00 5.117691936063075673e+02
1.929324451379303529e+00 5.117702124809875386e+02
1.929424473384144356e+00 5.117711636655145639e+02
1.929524495388985406e+00 5.117720471284397945e+02
1.929624517393826455e+00 5.117728628395021815e+02
1.929724539398667504e+00 5.117736107696285899e+02
1.929824561403508554e+00 5.117742908909311836e+02
1.929924583408349825e+00 5.117749031767091310e+02
1.930024605413190875e+00 5.117754476014475813e+02
1.930124627418031702e+00 5.117759241408135722e+02
1.930224649422872751e+00 5.117763327716618846e+02
1.930324671427714023e+00 5.117766734720270279e+02
1.930424693432555072e+00 5.117769462211282416e+02
1.930524715437396122e+00 5.117771509993644372e+02
1.930624737442237171e+00 5.117772877883172669e+02
1.930724759447078220e+00 5.117773565707463490e+02
1.930824781451919048e+00 5.117773573305914852e+02
1.930924803456760319e+00 5.117772900529694198e+02
1.931024825461601369e+00 5.117771547241754320e+02
1.931124847466442418e+00 5.117769513316792427e+02
1.931224869471283689e+00 5.117766798641265495e+02
1.931324891476124739e+00 5.117763403113364120e+02
1.931424913480965788e+00 5.117759326643016493e+02
1.931524935485806616e+00 5.117754569151855435e+02
1.931624957490647665e+00 5.117749130573225784e+02
1.931724979495488714e+00 5.117743010852175303e+02
1.931825001500329986e+00 5.117736209945418295e+02
1.931925023505171035e+00 5.117728727821345842e+02
1.932025045510012085e+00 5.117720564460008745e+02
1.932125067514853356e+00 5.117711719853100476e+02
1.932225089519694183e+00 5.117702194003943532e+02
1.932325111524535233e+00 5.117691986927472954e+02
1.932425133529376282e+00 5.117681098650235754e+02
1.932525155534217332e+00 5.117669529210367614e+02
1.932625177539058381e+00 5.117657278657574693e+02
1.932725199543899652e+00 5.117644347053118850e+02
1.932825221548740702e+00 5.117630734469815934e+02
1.932925243553581529e+00 5.117616440992011917e+02
1.933025265558422578e+00 5.117601466715557876e+02
1.933125287563263850e+00 5.117585811747809430e+02
1.933225309568104899e+00 5.117569476207603429e+02
1.933325331572945949e+00 5.117552460225241475e+02
1.933425353577786998e+00 5.117534763942472864e+02
1.933525375582628048e+00 5.117516387512482083e+02
1.933625397587468875e+00 5.117497331099863231e+02
1.933725419592310146e+00 5.117477594880610354e+02
1.933825441597151196e+00 5.117457179042098119e+02
1.933925463601992245e+00 5.117436083783062486e+02
1.934025485606833517e+00 5.117414309313570016e+02
1.934125507611674566e+00 5.117391855855022982e+02
1.934225529616515615e+00 5.117368723640131520e+02
1.934325551621356443e+00 5.117344912912878385e+02
1.934425573626197492e+00 5.117320423928518949e+02
1.934525595631038541e+00 5.117295256953552780e+02
1.934625617635879813e+00 5.117269412265709434e+02
1.934725639640720862e+00 5.117242890153915482e+02
1.934825661645561912e+00 5.117215690918293944e+02
1.934925683650403183e+00 5.117187814870119382e+02
1.935025705655244010e+00 5.117159262331817331e+02
1.935125727660085060e+00 5.117130033636934741e+02
1.935225749664926109e+00 5.117100129130108144e+02
1.935325771669767159e+00 5.117069549167063656e+02
1.935425793674608208e+00 5.117038294114576615e+02
1.935525815679449479e+00 5.117006364350454533e+02
1.935625837684290529e+00 5.116973760263515487e+02
1.935725859689131356e+00 5.116940482253565392e+02
1.935825881693972406e+00 5.116906530731371276e+02
1.935925903698813677e+00 5.116871906118651054e+02
1.936025925703654726e+00 5.116836608848013839e+02
1.936125947708495776e+00 5.116800639362990637e+02
1.936225969713336825e+00 5.116763998117950791e+02
1.936325991718177875e+00 5.116726685578137790e+02
1.936426013723018702e+00 5.116688702219584002e+02
1.936526035727859973e+00 5.116650048529135120e+02
1.936626057732701023e+00 5.116610725004390474e+02
1.936726079737542072e+00 5.116570732153703034e+02
1.936826101742383344e+00 5.116530070496130520e+02
1.936926123747224393e+00 5.116488740561430291e+02
1.937026145752065442e+00 5.116446742890022961e+02
1.937126167756906270e+00 5.116404078032958864e+02
1.937226189761747319e+00 5.116360746551899297e+02
1.937326211766588369e+00 5.116316749019098324e+02
1.937426233771429640e+00 5.116272086017355605e+02
1.937526255776270689e+00 5.116226758140002175e+02
1.937626277781111739e+00 5.116180765990866917e+02
1.937726299785953010e+00 5.116134110184253814e+02
1.937826321790793838e+00 5.116086791344918083e+02
1.937926343795634887e+00 5.116038810108012171e+02
1.938026365800475936e+00 5.115990167119082344e+02
1.938126387805316986e+00 5.115940863034046515e+02
1.938226409810158035e+00 5.115890898519133430e+02
1.938326431814999307e+00 5.115840274250876405e+02
1.938426453819840356e+00 5.115788990916077523e+02
1.938526475824681183e+00 5.115737049211773524e+02
1.938626497829522233e+00 5.115684449845227846e+02
1.938726519834363504e+00 5.115631193533854457e+02
1.938826541839204554e+00 5.115577281005240025e+02
1.938926563844045603e+00 5.115522712997073427e+02
1.939026585848886652e+00 5.115467490257134386e+02
1.939126607853727702e+00 5.115411613543257090e+02
1.939226629858568529e+00 5.115355083623305177e+02
1.939326651863409801e+00 5.115297901275114896e+02
1.939426673868250850e+00 5.115240067286511021e+02
1.939526695873091899e+00 5.115181582455211355e+02
1.939626717877933171e+00 5.115122447588863110e+02
1.939726739882774220e+00 5.115062663504951388e+02
1.939826761887615270e+00 5.115002231030795770e+02
1.939926783892456097e+00 5.114941151003523601e+02
1.940026805897297146e+00 5.114879424270010873e+02
1.940126827902138196e+00 5.114817051686871991e+02
1.940226849906979467e+00 5.114754034120415440e+02
1.940326871911820517e+00 5.114690372446615356e+02
1.940426893916661566e+00 5.114626067551067763e+02
1.940526915921502837e+00 5.114561120328966126e+02
1.940626937926343665e+00 5.114495531685067249e+02
1.940726959931184714e+00 5.114429302533649775e+02
1.940826981936025764e+00 5.114362433798477241e+02
1.940927003940866813e+00 5.114294926412782161e+02
1.941027025945707862e+00 5.114226781319200654e+02
1.941127047950549134e+00 5.114157999469772449e+02
1.941227069955390183e+00 5.114088581825859592e+02
1.941327091960231011e+00 5.114018529358168053e+02
1.941427113965072060e+00 5.113947843046659045e+02
1.941527135969913331e+00 5.113876523880542209e+02
1.941627157974754381e+00 5.113804572858232973e+02
1.941727179979595430e+00 5.113731990987311065e+02
1.941827201984436480e+00 5.113658779284495495e+02
1.941927223989277529e+00 5.113584938775582600e+02
1.942027245994118356e+00 5.113510470495452296e+02
1.942127267998959628e+00 5.113435375487981105e+02
1.942227290003800677e+00 5.113359654806045000e+02
1.942327312008641726e+00 5.113283309511447214e+02
1.942427334013482998e+00 5.113206340674917101e+02
1.942527356018324047e+00 5.113128749376040219e+02
1.942627378023165097e+00 5.113050536703239004e+02
1.942727400028005924e+00 5.112971703753730708e+02
1.942827422032846973e+00 5.112892251633480782e+02
1.942927444037688023e+00 5.112812181457176166e+02
1.943027466042529294e+00 5.112731494348178671e+02
1.943127488047370344e+00 5.112650191438486900e+02
1.943227510052211393e+00 5.112568273868699862e+02
1.943327532057052665e+00 5.112485742787979461e+02
1.943427554061893492e+00 5.112402599353999904e+02
1.943527576066734541e+00 5.112318844732926664e+02
1.943627598071575591e+00 5.112234480099356801e+02
1.943727620076416640e+00 5.112149506636290539e+02
1.943827642081257689e+00 5.112063925535093745e+02
1.943927664086098961e+00 5.111977737995453595e+02
1.944027686090939788e+00 5.111890945225326277e+02
1.944127708095780838e+00 5.111803548440922782e+02
1.944227730100621887e+00 5.111715548866642393e+02
1.944327752105463158e+00 5.111626947735051090e+02
1.944427774110304208e+00 5.111537746286825836e+02
1.944527796115145257e+00 5.111447945770723891e+02
1.944627818119986307e+00 5.111357547443544149e+02
1.944727840124827134e+00 5.111266552570066324e+02
1.944827862129668183e+00 5.111174962423024226e+02
1.944927884134509455e+00 5.111082778283077346e+02
1.945027906139350504e+00 5.110990001438743775e+02
1.945127928144191554e+00 5.110896633186365534e+02
1.945227950149032825e+00 5.110802674830079582e+02
1.945327972153873874e+00 5.110708127681763244e+02
1.945427994158714702e+00 5.110612993060987037e+02
1.945528016163555751e+00 5.110517272294988516e+02
1.945628038168396801e+00 5.110420966718619979e+02
1.945728060173237850e+00 5.110324077674308683e+02
1.945828082178079121e+00 5.110226606512012495e+02
1.945928104182920171e+00 5.110128554589175565e+02
1.946028126187761220e+00 5.110029923270681138e+02
1.946128148192602048e+00 5.109930713928829391e+02
1.946228170197443319e+00 5.109830927943270353e+02
1.946328192202284368e+00 5.109730566700965255e+02
1.946428214207125418e+00 5.109629631596155832e+02
1.946528236211966467e+00 5.109528124030315439e+02
1.946628258216807517e+00 5.109426045412084818e+02
1.946728280221648788e+00 5.109323397157267550e+02
1.946828302226489615e+00 5.109220180688752748e+02
1.946928324231330665e+00 5.109116397436482657e+02
1.947028346236171714e+00 5.109012048837419115e+02
1.947128368241012986e+00 5.108907136335479322e+02
1.947228390245854035e+00 5.108801661381500594e+02
1.947328412250695084e+00 5.108695625433206260e+02
1.947428434255536134e+00 5.108589029955148249e+02
1.947528456260376961e+00 5.108481876418669003e+02
1.947628478265218011e+00 5.108374166301848049e+02
1.947728500270059282e+00 5.108265901089472436e+02
1.947828522274900331e+00 5.108157082272974208e+02
1.947928544279741381e+00 5.108047711350398004e+02
1.948028566284582652e+00 5.107937789826363542e+02
1.948128588289423702e+00 5.107827319211988879e+02
1.948228610294264529e+00 5.107716301024894392e+02
1.948328632299105578e+00 5.107604736789101594e+02
1.948428654303946628e+00 5.107492628035033704e+02
1.948528676308787677e+00 5.107379976299449140e+02
1.948628698313628949e+00 5.107266783125396614e+02
1.948728720318469998e+00 5.107153050062178750e+02
1.948828742323311047e+00 5.107038778665288419e+02
1.948928764328151875e+00 5.106923970496393395e+02
1.949028786332993146e+00 5.106808627123260180e+02
1.949128808337834196e+00 5.106692750119727862e+02
1.949228830342675245e+00 5.106576341065647853e+02
1.949328852347516294e+00 5.106459401546854338e+02
1.949428874352357344e+00 5.106341933155101742e+02
1.949528896357198615e+00 5.106223937488032334e+02
1.949628918362039443e+00 5.106105416149129042e+02
1.949728940366880492e+00 5.105986370747653496e+02
1.949828962371721541e+00 5.105866802898620449e+02
1.949928984376562813e+00 5.105746714222741502e+02
1.950029006381403862e+00 5.105626106346375082e+02
1.950129028386244912e+00 5.105504980901496310e+02
1.950229050391085961e+00 5.105383339525629935e+02
1.950329072395926788e+00 5.105261183861822474e+02
1.950429094400767838e+00 5.105138515558573431e+02
1.950529116405609109e+00 5.105015336269821660e+02
1.950629138410450159e+00 5.104891647654862368e+02
1.950729160415291208e+00 5.104767451378331771e+02
1.950829182420132479e+00 5.104642749110147406e+02
1.950929204424973529e+00 5.104517542525450153e+02
1.951029226429814356e+00 5.104391833304580359e+02
1.951129248434655405e+00 5.104265623133009626e+02
1.951229270439496455e+00 5.104138913701319780e+02
1.951329292444337504e+00 5.104011706705122720e+02
1.951429314449178776e+00 5.103884003845048483e+02
1.951529336454019825e+00 5.103755806826670209e+02
1.951629358458860874e+00 5.103627117360478564e+02
1.951729380463701702e+00 5.103497937161818641e+02
1.951829402468542973e+00 5.103368267950859831e+02
1.951929424473384023e+00 5.103238111452530461e+02
1.952029446478225072e+00 5.103107469396478564e+02
1.952129468483066121e+00 5.102976343517042324e+02
1.952229490487907171e+00 5.102844735553172200e+02
1.952329512492748442e+00 5.102712647248407052e+02
1.952429534497589270e+00 5.102580080350819571e+02
1.952529556502430319e+00 5.102447036612974784e+02
1.952629578507271368e+00 5.102313517791860704e+02
1.952729600512112640e+00 5.102179525648882645e+02
1.952829622516953689e+00 5.102045061949778528e+02
1.952929644521794739e+00 5.101910128464593868e+02
1.953029666526635788e+00 5.101774726967631182e+02
1.953129688531476615e+00 5.101638859237377233e+02
1.953229710536317665e+00 5.101502527056505869e+02
1.953329732541158936e+00 5.101365732211803561e+02
1.953429754545999986e+00 5.101228476494098345e+02
1.953529776550841035e+00 5.101090761698258689e+02
1.953629798555682306e+00 5.100952589623126414e+02
1.953729820560523356e+00 5.100813962071459855e+02
1.953829842565364183e+00 5.100674880849909414e+02
1.953929864570205233e+00 5.100535347768947645e+02
1.954029886575046282e+00 5.100395364642835148e+02
1.954129908579887331e+00 5.100254933289572818e+02
1.954229930584728603e+00 5.100114055530867745e+02
1.954329952589569652e+00 5.099972733192057603e+02
1.954429974594410702e+00 5.099830968102075985e+02
1.954529996599251529e+00 5.099688762093429091e+02
1.954630018604092800e+00 5.099546117002126948e+02
1.954730040608933850e+00 5.099403034667615202e+02
1.954830062613774899e+00 5.099259516932796714e+02
1.954930084618615949e+00 5.099115565643893433e+02
1.955030106623456998e+00 5.098971182650483343e+02
1.955130128628298269e+00 5.098826369805411787e+02
1.955230150633139097e+00 5.098681128964745426e+02
1.955330172637980146e+00 5.098535461987738699e+02
1.955430194642821196e+00 5.098389370736788351e+02
1.955530216647662467e+00 5.098242857077365215e+02
1.955630238652503516e+00 5.098095922878006832e+02
1.955730260657344566e+00 5.097948570010217963e+02
1.955830282662185615e+00 5.097800800348489361e+02
1.955930304667026443e+00 5.097652615770193165e+02
1.956030326671867492e+00 5.097504018155574386e+02
1.956130348676708763e+00 5.097355009387687232e+02
1.956230370681549813e+00 5.097205591352355896e+02
1.956330392686390862e+00 5.097055765938118839e+02
1.956430414691232134e+00 5.096905535036208903e+02
1.956530436696073183e+00 5.096754900540482822e+02
1.956630458700914010e+00 5.096603864347372337e+02
1.956730480705755060e+00 5.096452428355860889e+02
1.956830502710596109e+00 5.096300594467428482e+02
1.956930524715437159e+00 5.096148364586000525e+02
1.957030546720278430e+00 5.095995740617900083e+02
1.957130568725119479e+00 5.095842724471826841e+02
1.957230590729960529e+00 5.095689318058774688e+02
1.957330612734801356e+00 5.095535523292018070e+02
1.957430634739642628e+00 5.095381342087057419e+02
1.957530656744483677e+00 5.095226776361556631e+02
1.957630678749324726e+00 5.095071828035328281e+02
1.957730700754165776e+00 5.094916499030276213e+02
1.957830722759006825e+00 5.094760791270332447e+02
1.957930744763848097e+00 5.094604706681444668e+02
1.958030766768688924e+00 5.094448247191509722e+02
1.958130788773529973e+00 5.094291414730335532e+02
1.958230810778371023e+00 5.094134211229593348e+02
1.958330832783212294e+00 5.093976638622783639e+02
1.958430854788053344e+00 5.093818698845179824e+02
1.958530876792894393e+00 5.093660393833786202e+02
1.958630898797735442e+00 5.093501725527313511e+02
1.958730920802576270e+00 5.093342695866088548e+02
1.958830942807417319e+00 5.093183306792075768e+02
1.958930964812258591e+00 5.093023560248772128e+02
1.959030986817099640e+00 5.092863458181200258e+02
1.959131008821940689e+00 5.092703002535847645e+02
1.959231030826781961e+00 5.092542195260638209e+02
1.959331052831623010e+00 5.092381038304872050e+02
1.959431074836463837e+00 5.092219533619194181e+02
1.959531096841304887e+00 5.092057683155555878e+02
1.959631118846145936e+00 5.091895488867144195e+02
1.959731140850986986e+00 5.091732952708383095e+02
1.959831162855828257e+00 5.091570076634841371e+02
1.959931184860669307e+00 5.091406862603229797e+02
1.960031206865510356e+00 5.091243312571342017e+02
1.960131228870351183e+00 5.091079428498010202e+02
1.960231250875192455e+00 5.090915212343060148e+02
1.960331272880033504e+00 5.090750666067299903e+02
1.960431294884874553e+00 5.090585791632411201e+02
1.960531316889715603e+00 5.090420591000986974e+02
1.960631338894556652e+00 5.090255066136429605e+02
1.960731360899397924e+00 5.090089219002940695e+02
1.960831382904238751e+00 5.089923051565463652e+02
1.960931404909079800e+00 5.089756565789651859e+02
1.961031426913920850e+00 5.089589763641824334e+02
1.961131448918762121e+00 5.089422647088915710e+02
1.961231470923603171e+00 5.089255218098455202e+02
1.961331492928444220e+00 5.089087478638505786e+02
1.961431514933285047e+00 5.088919430677625542e+02
1.961531536938126097e+00 5.088751076184844919e+02
1.961631558942967146e+00 5.088582417129608189e+02
1.961731580947808418e+00 5.088413455481738197e+02
1.961831602952649467e+00 5.088244193211392030e+02
1.961931624957490516e+00 5.088074632289028045e+02
1.962031646962331788e+00 5.087904774685361531e+02
1.962131668967172615e+00 5.087734622371336286e+02
1.962231690972013665e+00 5.087564177318056977e+02
1.962331712976854714e+00 5.087393441496777768e+02
1.962431734981695763e+00 5.087222416878847184e+02
1.962531756986536813e+00 5.087051105435675709e+02
1.962631778991378084e+00 5.086879509138695425e+02
1.962731800996219134e+00 5.086707629959320229e+02
1.962831823001059961e+00 5.086535469868898076e+02
1.962931845005901010e+00 5.086363030838690520e+02
1.963031867010742282e+00 5.086190314839822122e+02
1.963131889015583331e+00 5.086017323843238955e+02
1.963231911020424381e+00 5.085844059819677341e+02
1.963331933025265430e+00 5.085670524739628604e+02
1.963431955030106479e+00 5.085496720573284506e+02
1.963531977034947307e+00 5.085322649290525305e+02
1.963631999039788578e+00 5.085148312860857800e+02
1.963732021044629628e+00 5.084973713253392020e+02
1.963832043049470677e+00 5.084798852436795187e+02
1.963932065054311948e+00 5.084623732379255330e+02
1.964032087059152998e+00 5.084448355048459121e+02
1.964132109063994047e+00 5.084272722411531618e+02
1.964232131068834875e+00 5.084096836435021487e+02
1.964332153073675924e+00 5.083920699084843022e+02
1.964432175078516973e+00 5.083744312326253976e+02
1.964532197083358245e+00 5.083567678123822589e+02
1.964632219088199294e+00 5.083390798441378138e+02
1.964732241093040344e+00 5.083213675241980809e+02
1.964832263097881615e+00 5.083036310487893843e+02
1.964932285102722442e+00 5.082858706140530103e+02
1.965032307107563492e+00 5.082680864160441843e+02
1.965132329112404541e+00 5.082502786507246810e+02
1.965232351117245591e+00 5.082324475139649280e+02
1.965332373122086640e+00 5.082145932015345124e+02
1.965432395126927911e+00 5.081967159091027497e+02
1.965532417131768961e+00 5.081788158322348181e+02
1.965632439136609788e+00 5.081608931663848807e+02
1.965732461141450838e+00 5.081429481068980749e+02
1.965832483146292109e+00 5.081249808490023838e+02
1.965932505151133158e+00 5.081069915878080110e+02
1.966032527155974208e+00 5.080889805183027192e+02
1.966132549160815257e+00 5.080709478353494433e+02
1.966232571165656307e+00 5.080528937336823674e+02
1.966332593170497134e+00 5.080348184079027760e+02
1.966432615175338405e+00 5.080167220524776326e+02
1.966532637180179455e+00 5.079986048617348615e+02
1.966632659185020504e+00 5.079804670298602787e+02
1.966732681189861776e+00 5.079623087508953745e+02
1.966832703194702825e+00 5.079441302187323117e+02
1.966932725199543874e+00 5.079259316271123907e+02
1.967032747204384702e+00 5.079077131696220704e+02
1.967132769209225751e+00 5.078894750396902964e+02
1.967232791214066800e+00 5.078712174305846361e+02
1.967332813218908072e+00 5.078529405354079245e+02
1.967432835223749121e+00 5.078346445470963317e+02
1.967532857228590171e+00 5.078163296584156683e+02
1.967632879233431442e+00 5.077979960619583721e+02
1.967732901238272269e+00 5.077796439501403256e+02
1.967832923243113319e+00 5.077612735151972174e+02
1.967932945247954368e+00 5.077428849491830078e+02
1.968032967252795418e+00 5.077244784439664045e+02
1.968132989257636467e+00 5.077060541912265990e+02
1.968233011262477739e+00 5.076876123824516753e+02
1.968333033267318788e+00 5.076691532089355974e+02
1.968433055272159615e+00 5.076506768617744569e+02
1.968533077277000665e+00 5.076321835318648255e+02
1.968633099281841936e+00 5.076136734099006844e+02
1.968733121286682985e+00 5.075951466863677979e+02
1.968833143291524035e+00 5.075766035515452472e+02
1.968933165296365084e+00 5.075580441954996331e+02
1.969033187301206134e+00 5.075394688080836545e+02
1.969133209306046961e+00 5.075208775789319020e+02
1.969233231310888232e+00 5.075022706974604034e+02
1.969333253315729282e+00 5.074836483528612234e+02
1.969433275320570331e+00 5.074650107341013836e+02
1.969533297325411603e+00 5.074463580299208729e+02
1.969633319330252652e+00 5.074276904288273613e+02
1.969733341335093701e+00 5.074090081190956312e+02
1.969833363339934529e+00 5.073903112887651332e+02
1.969933385344775578e+00 5.073716001256354957e+02
1.970033407349616628e+00 5.073528748172657856e+02
1.970133429354457899e+00 5.073341355509714958e+02
1.970233451359298948e+00 5.073153825138209640e+02
1.970333473364139998e+00 5.072966158926341222e+02
1.970433495368981269e+00 5.072778358739801092e+02
1.970533517373822097e+00 5.072590426441724958e+02
1.970633539378663146e+00 5.072402363892695121e+02
1.970733561383504195e+00 5.072214172950715465e+02
1.970833583388345245e+00 5.072025855471146656e+02
1.970933605393186294e+00 5.071837413306753319e+02
1.971033627398027566e+00 5.071648848307609114e+02
1.971133649402868615e+00 5.071460162321116059e+02
1.971233671407709442e+00 5.071271357191966445e+02
1.971333693412550492e+00 5.071082434762120670e+02
1.971433715417391763e+00 5.070893396870791321e+02
1.971533737422232813e+00 5.070704245354403952e+02
1.971633759427073862e+00 5.070514982046602199e+02
1.971733781431914911e+00 5.070325608778188098e+02
1.971833803436755961e+00 5.070136127377140269e+02
1.971933825441596788e+00 5.069946539668547985e+02
1.972033847446438060e+00 5.069756847474642996e+02
1.972133869451279109e+00 5.069567052614725071e+02
1.972233891456120158e+00 5.069377156905171091e+02
1.972333913460961430e+00 5.069187162159412878e+02
1.972433935465802479e+00 5.068997070187904228e+02
1.972533957470643529e+00 5.068806882798113520e+02
1.972633979475484356e+00 5.068616601794491885e+02
1.972734001480325405e+00 5.068426228978448762e+02
1.972834023485166455e+00 5.068235766148358152e+02
1.972934045490007726e+00 5.068045215099510870e+02
1.973034067494848776e+00 5.067854577624109425e+02
1.973134089499689825e+00 5.067663855511238467e+02
1.973234111504531096e+00 5.067473050546866489e+02
1.973334133509371924e+00 5.067282164513792395e+02
1.973434155514212973e+00 5.067091199191670512e+02
1.973534177519054023e+00 5.066900156356942944e+02
1.973634199523895072e+00 5.066709037782874816e+02
1.973734221528736121e+00 5.066517845239483222e+02
1.973834243533577393e+00 5.066326580493561096e+02
1.973934265538418442e+00 5.066135245308637991e+02
1.974034287543259270e+00 5.065943841444966438e+02
1.974134309548100319e+00 5.065752370659508301e+02
1.974234331552941590e+00 5.065560834705918296e+02
1.974334353557782640e+00 5.065369235334518407e+02
1.974434375562623689e+00 5.065177574292296754e+02
1.974534397567464739e+00 5.064985853322878029e+02
1.974634419572305788e+00 5.064794074166508153e+02
1.974734441577146615e+00 5.064602238560049727e+02
1.974834463581987887e+00 5.064410348236958725e+02
1.974934485586828936e+00 5.064218404927259485e+02
1.975034507591669986e+00 5.064026410357550390e+02
1.975134529596511257e+00 5.063834366250977155e+02
1.975234551601352306e+00 5.063642274327209520e+02
1.975334573606193356e+00 5.063450136302446367e+02
1.975434595611034183e+00 5.063257953889390137e+02
1.975534617615875232e+00 5.063065728797228076e+02
1.975634639620716282e+00 5.062873462731632230e+02
1.975734661625557553e+00 5.062681157394727620e+02
1.975834683630398603e+00 5.062488814485099056e+02
1.975934705635239652e+00 5.062296435697763286e+02
1.976034727640080924e+00 5.062104022724163883e+02
1.976134749644921751e+00 5.061911577252149073e+02
1.976234771649762800e+00 5.061719100965970028e+02
1.976334793654603850e+00 5.061526595546268936e+02
1.976434815659444899e+00 5.061334062670052276e+02
1.976534837664285948e+00 5.061141504010693097e+02
1.976634859669127220e+00 5.060948921237919080e+02
1.976734881673968269e+00 5.060756316017782410e+02
1.976834903678809097e+00 5.060563690012691040e+02
1.976934925683650146e+00 5.060371044881338776e+02
1.977034947688491417e+00 5.060178382278744493e+02
1.977134969693332467e+00 5.059985703856214059e+02
1.977234991698173516e+00 5.059793011261347715e+02
1.977335013703014566e+00 5.059600306138011661e+02
1.977435035707855615e+00 5.059407590126338619e+02
1.977535057712696442e+00 5.059214864862730110e+02
1.977635079717537714e+00 5.059022131979809274e+02
1.977735101722378763e+00 5.058829393106454404e+02
1.977835123727219813e+00 5.058636649867771098e+02
1.977935145732061084e+00 5.058443903885072359e+02
1.978035167736902133e+00 5.058251156775892809e+02
1.978135189741743183e+00 5.058058410153965951e+02
1.978235211746584010e+00 5.057865665629212231e+02
1.978335233751425060e+00 5.057672924807749268e+02
1.978435255756266109e+00 5.057480189291867418e+02
1.978535277761107380e+00 5.057287460680025788e+02
1.978635299765948430e+00 5.057094740566841438e+02
1.978735321770789479e+00 5.056902030543100750e+02
1.978835343775630307e+00 5.056709332195732713e+02
1.978935365780471578e+00 5.056516647107806648e+02
1.979035387785312627e+00 5.056323976858528795e+02
1.979135409790153677e+00 5.056131323023239474e+02
1.979235431794994726e+00 5.055938687173396602e+02
1.979335453799835776e+00 5.055746070876576823e+02
1.979435475804677047e+00 5.055553475696477221e+02
1.979535497809517874e+00 5.055360903192890873e+02
1.979635519814358924e+00 5.055168354921714240e+02
1.979735541819199973e+00 5.054975832434947733e+02
1.979835563824041245e+00 5.054783337280676960e+02
1.979935585828882294e+00 5.054590871003077268e+02
1.980035607833723343e+00 5.054398435142405788e+02
1.980135629838564393e+00 5.054206031235000864e+02
1.980235651843405220e+00 5.054013660813268416e+02
1.980335673848246270e+00 5.053821325405697280e+02
1.980435695853087541e+00 5.053629026536829087e+02
1.980535717857928590e+00 5.053436765727280999e+02
1.980635739862769640e+00 5.053244544493725243e+02
1.980735761867610911e+00 5.053052364348893661e+02
1.980835783872451961e+00 5.052860226801578847e+02
1.980935805877292788e+00 5.052668133356611975e+02
1.981035827882133837e+00 5.052476085514893498e+02
1.981135849886974887e+00 5.052284084773350514e+02
1.981235871891815936e+00 5.052092132624979968e+02
1.981335893896657208e+00 5.051900230558800899e+02
1.981435915901498257e+00 5.051708380059892534e+02
1.981535937906339306e+00 5.051516582609363013e+02
1.981635959911180134e+00 5.051324839684374410e+02
1.981735981916021405e+00 5.051133152758116012e+02
1.981836003920862455e+00 5.050941523299821370e+02
1.981936025925703504e+00 5.050749952774762050e+02
1.982036047930544553e+00 5.050558442644256729e+02
1.982136069935385603e+00 5.050366994365643336e+02
1.982236091940226874e+00 5.050175609392309752e+02
1.982336113945067702e+00 5.049984289173681873e+02
1.982436135949908751e+00 5.049793035155225880e+02
1.982536157954749800e+00 5.049601848778435169e+02
1.982636179959591072e+00 5.049410731480856498e+02
1.982736201964432121e+00 5.049219684696077479e+02
1.982836223969273171e+00 5.049028709853723740e+02
1.982936245974114220e+00 5.048837808379457783e+02
1.983036267978955047e+00 5.048646981695000022e+02
1.983136289983796097e+00 5.048456231218109451e+02
1.983236311988637368e+00 5.048265558362599563e+02
1.983336333993478418e+00 5.048074964538338918e+02
1.983436355998319467e+00 5.047884451151232952e+02
1.983536378003160738e+00 5.047694019603258084e+02
1.983636400008001788e+00 5.047503671292446370e+02
1.983736422012842615e+00 5.047313407612892320e+02
1.983836444017683664e+00 5.047123229954748922e+02
1.983936466022524714e+00 5.046933139704248106e+02
1.984036488027365763e+00 5.046743138243685394e+02
1.984136510032207035e+00 5.046553226951430702e+02
1.984236532037048084e+00 5.046363407201939140e+02
1.984336554041889134e+00 5.046173680365743053e+02
1.984436576046729961e+00 5.045984047809460549e+02
1.984536598051571232e+00 5.045794510895811982e+02
1.984636620056412282e+00 5.045605070983599489e+02
1.984736642061253331e+00 5.045415729427738825e+02
1.984836664066094380e+00 5.045226487579237187e+02
1.984936686070935430e+00 5.045037346785228465e+02
1.985036708075776701e+00 5.044848308388948226e+02
1.985136730080617529e+00 5.044659373729762137e+02
1.985236752085458578e+00 5.044470544143161987e+02
1.985336774090299627e+00 5.044281820960758296e+02
1.985436796095140899e+00 5.044093205510322377e+02
1.985536818099981948e+00 5.043904699115752237e+02
1.985636840104822998e+00 5.043716303097107243e+02
1.985736862109664047e+00 5.043528018770596191e+02
1.985836884114504874e+00 5.043339847448593218e+02
1.985936906119345924e+00 5.043151790439649176e+02
1.986036928124187195e+00 5.042963849048484803e+02
1.986136950129028245e+00 5.042776024576000964e+02
1.986236972133869294e+00 5.042588318319307632e+02
1.986336994138710565e+00 5.042400731571695474e+02
1.986437016143551615e+00 5.042213265622668246e+02
1.986537038148392442e+00 5.042025921757942797e+02
1.986637060153233492e+00 5.041838701259464415e+02
1.986737082158074541e+00 5.041651605405403984e+02
1.986837104162915590e+00 5.041464635470163103e+02
1.986937126167756862e+00 5.041277792724397386e+02
1.987037148172597911e+00 5.041091078435017607e+02
1.987137170177438961e+00 5.040904493865200493e+02
1.987237192182279788e+00 5.040718040274388159e+02
1.987337214187121059e+00 5.040531718918306296e+02
1.987437236191962109e+00 5.040345531048972134e+02
1.987537258196803158e+00 5.040159477914700688e+02
1.987637280201644208e+00 5.039973560760118971e+02
1.987737302206485257e+00 5.039787780826176800e+02
1.987837324211326528e+00 5.039602139350140533e+02
1.987937346216167356e+00 5.039416637565618089e+02
1.988037368221008405e+00 5.039231276702571449e+02
1.988137390225849455e+00 5.039046057987314953e+02
1.988237412230690726e+00 5.038860982642534054e+02
1.988337434235531775e+00 5.038676051887292715e+02
1.988437456240372825e+00 5.038491266937039654e+02
1.988537478245213874e+00 5.038306629003631656e+02
1.988637500250054702e+00 5.038122139295330726e+02
1.988737522254895751e+00 5.037937799016814893e+02
1.988837544259737022e+00 5.037753609369209471e+02
1.988937566264578072e+00 5.037569571550068872e+02
1.989037588269419121e+00 5.037385686753414120e+02
1.989137610274260393e+00 5.037201956169723758e+02
1.989237632279101442e+00 5.037018380985959993e+02
1.989337654283942269e+00 5.036834962385577228e+02
1.989437676288783319e+00 5.036651701548521487e+02
1.989537698293624368e+00 5.036468599651258273e+02
1.989637720298465418e+00 5.036285657866790189e+02
1.989737742303306689e+00 5.036102877364635901e+02
1.989837764308147738e+00 5.035920259310883580e+02
1.989937786312988788e+00 5.035737804868174408e+02
1.990037808317829615e+00 5.035555515195726457e+02
1.990137830322670887e+00 5.035373391449342080e+02
1.990237852327511936e+00 5.035191434781441444e+02
1.990337874332352985e+00 5.035009646341039797e+02
1.990437896337194035e+00 5.034828027273780435e+02
1.990537918342035084e+00 5.034646578721965398e+02
1.990637940346876356e+00 5.034465301824527614e+02
1.990737962351717183e+00 5.034284197717079792e+02
1.990837984356558232e+00 5.034103267531913275e+02
1.990938006361399282e+00 5.033922512398009417e+02
1.991038028366240553e+00 5.033741933441066294e+02
1.991138050371081603e+00 5.033561531783492455e+02
1.991238072375922652e+00 5.033381308544430794e+02
1.991338094380763701e+00 5.033201264839786404e+02
1.991438116385604529e+00 5.033021401782224302e+02
1.991538138390445578e+00 5.032841720481181369e+02
1.991638160395286850e+00 5.032662222042887947e+02
1.991738182400127899e+00 5.032482907570386601e+02
1.991838204404968948e+00 5.032303778163532115e+02
1.991938226409810220e+00 5.032124834919019918e+02
1.992038248414651269e+00 5.031946078930409385e+02
1.992138270419492097e+00 5.031767511288098831e+02
1.992238292424333146e+00 5.031589133079387466e+02
1.992338314429174195e+00 5.031410945388462324e+02
1.992438336434015245e+00 5.031232949296417019e+02
1.992538358438856516e+00 5.031055145881285284e+02
1.992638380443697566e+00 5.030877536218025057e+02
1.992738402448538615e+00 5.030700121378560539e+02
1.992838424453379442e+00 5.030522902431786179e+02
1.992938446458220714e+00 5.030345880443581450e+02
1.993038468463061763e+00 5.030169056476835863e+02
1.993138490467902812e+00 5.029992431591440436e+02
1.993238512472743862e+00 5.029816006844340563e+02
1.993338534477584911e+00 5.029639783289522939e+02
1.993438556482426183e+00 5.029463761978039429e+02
1.993538578487267010e+00 5.029287943958029246e+02
1.993638600492108059e+00 5.029112330274721216e+02
1.993738622496949109e+00 5.028936921970470166e+02
1.993838644501790380e+00 5.028761720084751801e+02
1.993938666506631430e+00 5.028586725654200791e+02
1.994038688511472479e+00 5.028411939712596563e+02
1.994138710516313528e+00 5.028237363290913322e+02
1.994238732521154356e+00 5.028062997417328006e+02
1.994338754525995405e+00 5.027888843117207784e+02
1.994438776530836677e+00 5.027714901413164625e+02
1.994538798535677726e+00 5.027541173325053592e+02
1.994638820540518775e+00 5.027367659870002967e+02
1.994738842545360047e+00 5.027194362062400614e+02
1.994838864550201096e+00 5.027021280913953660e+02
1.994938886555041924e+00 5.026848417433656664e+02
1.995038908559882973e+00 5.026675772627859260e+02
1.995138930564724022e+00 5.026503347500254790e+02
1.995238952569565072e+00 5.026331143051889967e+02
1.995338974574406343e+00 5.026159160281191589e+02
1.995438996579247393e+00 5.025987400184010312e+02
1.995539018584088442e+00 5.025815863753592225e+02
1.995639040588929269e+00 5.025644551980617507e+02
1.995739062593770541e+00 5.025473465853223161e+02
1.995839084598611590e+00 5.025302606357015520e+02
1.995939106603452640e+00 5.025131974475085599e+02
1.996039128608293689e+00 5.024961571188028415e+02
1.996139150613134738e+00 5.024791397473958341e+02
1.996239172617975566e+00 5.024621454308528996e+02
1.996339194622816837e+00 5.024451742664948029e+02
1.996439216627657887e+00 5.024282263514010083e+02
1.996539238632498936e+00 5.024113017824074632e+02
1.996639260637340207e+00 5.023944006561133619e+02
1.996739282642181257e+00 5.023775230688803504e+02
1.996839304647022306e+00 5.023606691168334919e+02
1.996939326651863134e+00 5.023438388958645646e+02
1.997039348656704183e+00 5.023270325016335391e+02
1.997139370661545232e+00 5.023102500295703976e+02
1.997239392666386504e+00 5.022934915748764979e+02
1.997339414671227553e+00 5.022767572325266201e+02
1.997439436676068603e+00 5.022600470972697622e+02
1.997539458680909874e+00 5.022433612636339717e+02
1.997639480685750701e+00 5.022266998259244133e+02
1.997739502690591751e+00 5.022100628782268359e+02
1.997839524695432800e+00 5.021934505144109835e+02
1.997939546700273850e+00 5.021768628281292308e+02
1.998039568705114899e+00 5.021602999128195961e+02
1.998139590709956170e+00 5.021437618617093790e+02
1.998239612714797220e+00 5.021272487678148764e+02
1.998339634719638047e+00 5.021107607239430877e+02
1.998439656724479097e+00 5.020942978226954096e+02
1.998539678729320368e+00 5.020778601564673522e+02
1.998639700734161417e+00 5.020614478174514375e+02
1.998739722739002467e+00 5.020450608976389617e+02
1.998839744743843516e+00 5.020286994888215304e+02
1.998939766748684566e+00 5.020123636825933886e+02
1.999039788753525393e+00 5.019960535703523874e+02
1.999139810758366664e+00 5.019797692433026555e+02
1.999239832763207714e+00 5.019635107924555086e+02
1.999339854768048763e+00 5.019472783086321215e+02
1.999439876772890035e+00 5.019310718824643232e+02
1.999539898777731084e+00 5.019148916043990312e+02
1.999639920782572133e+00 5.018987375646951250e+02
1.999739942787412961e+00 5.018826098534305515e+02
1.999839964792254010e+00 5.018665085605009040e+02
1.999939986797095060e+00 5.018504337756222071e+02
2.000040008801936331e+00 4.937966006699186892e+02
2.000140030806777602e+00 4.937009998930892607e+02
2.000240052811618430e+00 4.936047741615163318e+02
2.000340074816459701e+00 4.935079240811134582e+02
2.000440096821300529e+00 4.934104502728697526e+02
2.000540118826141356e+00 4.933123533728464736e+02
2.000640140830982627e+00 4.932136340321666239e+02
2.000740162835823899e+00 4.931142929170092088e+02
2.000840184840664726e+00 4.930143307085998572e+02
2.000940206845505998e+00 4.929137481032031474e+02
2.001040228850347269e+00 4.928125458121126030e+02
2.001140250855187652e+00 4.927107245616410864e+02
2.001240272860028924e+00 4.926082850931125563e+02
2.001340294864870195e+00 4.925052281628479705e+02
2.001440316869711022e+00 4.924015545421583511e+02
2.001540338874552294e+00 4.922972650173309148e+02
2.001640360879393565e+00 4.921923603896181021e+02
2.001740382884234393e+00 4.920868414752248441e+02
2.001840404889075220e+00 4.919807091052958867e+02
2.001940426893916491e+00 4.918739641259041946e+02
2.002040448898757319e+00 4.917666073980341821e+02
2.002140470903598590e+00 4.916586397975705154e+02
2.002240492908439862e+00 4.915500622152824235e+02
2.002340514913280689e+00 4.914408755568089191e+02
2.002440536918121960e+00 4.913310807426428823e+02
2.002540558922962788e+00 4.912206787081157700e+02
2.002640580927804059e+00 4.911096704033811875e+02
2.002740602932644887e+00 4.909980567933987459e+02
2.002840624937486158e+00 4.908858388579153029e+02
2.002940646942326985e+00 4.907730175914488200e+02
2.003040668947168257e+00 4.906595940032698309e+02
2.003140690952009528e+00 4.905455691173822288e+02
2.003240712956850356e+00 4.904309439725047923e+02
2.003340734961691183e+00 4.903157196220531659e+02
2.003440756966532454e+00 4.901998971341173501e+02
2.003540778971373726e+00 4.900834775914436818e+02
2.003640800976214553e+00 4.899664620914121542e+02
2.003740822981055825e+00 4.898488517460174876e+02
2.003840844985896652e+00 4.897306476818450278e+02
2.003940866990737923e+00 4.896118510400514197e+02
2.004040888995578751e+00 4.894924629763389703e+02
2.004140911000420022e+00 4.893724846609359247e+02
2.004240933005260850e+00 4.892519172785708292e+02
2.004340955010102121e+00 4.891307620284490554e+02
2.004440977014943392e+00 4.890090201242297780e+02
2.004540999019784220e+00 4.888866927939999982e+02
2.004641021024625047e+00 4.887637812802502708e+02
2.004741043029466319e+00 4.886402868398479313e+02
2.004841065034307590e+00 4.885162107440136197e+02
2.004941087039148417e+00 4.883915542782911530e+02
2.005041109043989689e+00 4.882663187425244473e+02
2.005141131048830516e+00 4.881405054508279591e+02
2.005241153053671788e+00 4.880141157315594569e+02
2.005341175058512615e+00 4.878871509272917706e+02
2.005441197063353886e+00 4.877596123947849378e+02
2.005541219068194714e+00 4.876315015049566455e+02
2.005641241073035985e+00 4.875028196428527849e+02
2.005741263077877257e+00 4.873735682076176658e+02
2.005841285082718084e+00 4.872437486124637189e+02
2.005941307087559355e+00 4.871133622846408571e+02
2.006041329092400183e+00 4.869824106654058937e+02
2.006141351097241010e+00 4.868508952099901990e+02
2.006241373102082282e+00 4.867188173875669008e+02
2.006341395106923553e+00 4.865861786812215541e+02
2.006441417111764380e+00 4.864529805879161586e+02
2.006541439116605652e+00 4.863192246184572696e+02
2.006641461121446923e+00 4.861849122974629722e+02
2.006741483126287307e+00 4.860500451633270131e+02
2.006841505131128578e+00 4.859146247681863429e+02
2.006941527135969849e+00 4.857786526778844518e+02
2.007041549140810677e+00 4.856421304719382874e+02
2.007141571145651948e+00 4.855050597434996575e+02
2.007241593150493220e+00 4.853674420993219769e+02
2.007341615155334047e+00 4.852292791597207042e+02
2.007441637160174874e+00 4.850905725585400319e+02
2.007541659165016146e+00 4.849513239431119018e+02
2.007641681169856973e+00 4.848115349742209901e+02
2.007741703174698245e+00 4.846712073260653142e+02
2.007841725179539516e+00 4.845303426862167271e+02
2.007941747184380343e+00 4.843889427555848783e+02
2.008041769189221615e+00 4.842470092483741837e+02
2.008141791194062442e+00 4.841045438920468769e+02
2.008241813198903714e+00 4.839615484272814570e+02
2.008341835203744541e+00 4.838180246079327844e+02
2.008441857208585812e+00 4.836739742009899032e+02
2.008541879213426640e+00 4.835293989865369895e+02
2.008641901218267911e+00 4.833843007577075355e+02
2.008741923223109183e+00 4.832386813206483680e+02
2.008841945227950010e+00 4.830925424944701376e+02
2.008941967232790837e+00 4.829458861112096315e+02
2.009041989237632109e+00 4.827987140157839576e+02
2.009142011242473380e+00 4.826510280659472301e+02
2.009242033247314208e+00 4.825028301322473681e+02
2.009342055252155479e+00 4.823541220979791433e+02
2.009442077256996306e+00 4.822049058591433663e+02
2.009542099261837578e+00 4.820551833243970350e+02
2.009642121266678405e+00 4.819049564150110996e+02
2.009742143271519677e+00 4.817542270648228282e+02
2.009842165276360504e+00 4.816029972201901046e+02
2.009942187281201775e+00 4.814512688399441345e+02
2.010042209286043047e+00 4.812990438953416401e+02
2.010142231290883874e+00 4.811463243700194994e+02
2.010242253295724701e+00 4.809931122599448372e+02
2.010342275300565973e+00 4.808394095733675613e+02
2.010442297305407244e+00 4.806852183307710789e+02
2.010542319310248072e+00 4.805305405648243777e+02
2.010642341315089343e+00 4.803753783203313219e+02
2.010742363319930170e+00 4.802197336541818231e+02
2.010842385324771442e+00 4.800636086353018186e+02
2.010942407329612269e+00 4.799070053446018846e+02
2.011042429334453541e+00 4.797499258749269302e+02
2.011142451339294368e+00 4.795923723310056630e+02
2.011242473344135639e+00 4.794343468293972137e+02
2.011342495348976911e+00 4.792758514984410567e+02
2.011442517353817738e+00 4.791168884782045438e+02
2.011542539358659010e+00 4.789574599204289029e+02
2.011642561363499837e+00 4.787975679884773399e+02
2.011742583368340664e+00 4.786372148572806964e+02
2.011842605373181936e+00 4.784764027132868023e+02
2.011942627378023207e+00 4.783151337544016997e+02
2.012042649382864035e+00 4.781534101899391089e+02
2.012142671387705306e+00 4.779912342405649497e+02
2.012242693392546578e+00 4.778286081382401562e+02
2.012342715397386961e+00 4.776655341261671310e+02
2.012442737402228232e+00 4.775020144587354025e+02
2.012542759407069504e+00 4.773380514014616551e+02
2.012642781411910331e+00 4.771736472309374335e+02
2.012742803416751602e+00 4.770088042347695705e+02
2.012842825421592874e+00 4.768435247115234006e+02
2.012942847426433701e+00 4.766778109706681903e+02
2.013042869431274529e+00 4.765116653325151219e+02
2.013142891436115800e+00 4.763450901281624965e+02
2.013242913440956627e+00 4.761780876994360483e+02
2.013342935445797899e+00 4.760106603988302822e+02
2.013442957450639170e+00 4.758428105894500391e+02
2.013542979455479998e+00 4.756745406449502411e+02
2.013643001460320825e+00 4.755058529494772301e+02
2.013743023465162096e+00 4.753367498976081720e+02
2.013843045470003368e+00 4.751672338942910301e+02
2.013943067474844195e+00 4.749973073547831746e+02
2.014043089479685467e+00 4.748269727045928903e+02
2.014143111484526294e+00 4.746562323794141776e+02
2.014243133489367565e+00 4.744850888250697380e+02
2.014343155494208393e+00 4.743135444974457755e+02
2.014443177499049664e+00 4.741416018624311164e+02
2.014543199503890492e+00 4.739692633958553643e+02
2.014643221508731763e+00 4.737965315834251214e+02
2.014743243513573034e+00 4.736234089206612907e+02
2.014843265518413862e+00 4.734498979128368319e+02
2.014943287523255133e+00 4.732760010749111075e+02
2.015043309528095961e+00 4.731017209314682077e+02
2.015143331532937232e+00 4.729270600166506711e+02
2.015243353537778059e+00 4.727520208740975249e+02
2.015343375542619331e+00 4.725766060568768125e+02
2.015443397547460158e+00 4.724008181274226672e+02
2.015543419552301430e+00 4.722246596574693172e+02
2.015643441557142701e+00 4.720481332279848630e+02
2.015743463561983528e+00 4.718712414291066466e+02
2.015843485566824356e+00 4.716939868600738350e+02
2.015943507571665627e+00 4.715163721291627326e+02
2.016043529576506899e+00 4.713383998536180002e+02
2.016143551581347726e+00 4.711600726595877404e+02
2.016243573586188997e+00 4.709813931820546031e+02
2.016343595591029825e+00 4.708023640647693924e+02
2.016443617595870652e+00 4.706229879601834227e+02
2.016543639600711924e+00 4.704432675293798525e+02
2.016643661605553195e+00 4.702632054420063241e+02
2.016743683610394022e+00 4.700828043762046491e+02
2.016843705615235294e+00 4.699020670185456083e+02
2.016943727620076565e+00 4.697209960639553401e+02
2.017043749624917393e+00 4.695395942156502542e+02
2.017143771629758220e+00 4.693578641850644999e+02
2.017243793634599491e+00 4.691758086917831179e+02
2.017343815639440319e+00 4.689934304634694513e+02
2.017443837644281590e+00 4.688107322357964790e+02
2.017543859649122862e+00 4.686277167523758180e+02
2.017643881653963689e+00 4.684443867646865556e+02
2.017743903658804960e+00 4.682607450320064117e+02
2.017843925663645788e+00 4.680767943213374451e+02
2.017943947668486615e+00 4.678925374073380112e+02
2.018043969673327886e+00 4.677079770722493208e+02
2.018143991678169158e+00 4.675231161058222256e+02
2.018244013683009985e+00 4.673379573052492901e+02
2.018344035687851257e+00 4.671525034750887357e+02
2.018444057692692528e+00 4.669667574271934996e+02
2.018544079697533355e+00 4.667807219806388161e+02
2.018644101702374183e+00 4.665943999616487190e+02
2.018744123707215454e+00 4.664077942035234514e+02
2.018844145712056282e+00 4.662209075465657975e+02
2.018944167716897553e+00 4.660337428380071287e+02
2.019044189721738825e+00 4.658463029319353268e+02
2.019144211726579652e+00 4.656585906892191815e+02
2.019244233731420479e+00 4.654706089774352904e+02
2.019344255736261751e+00 4.652823606707923432e+02
2.019444277741103022e+00 4.650938486500594422e+02
2.019544299745943849e+00 4.649050758024881134e+02
2.019644321750785121e+00 4.647160450217401149e+02
2.019744343755625948e+00 4.645267592078107555e+02
2.019844365760467220e+00 4.643372212669536339e+02
2.019944387765308047e+00 4.641474341116062305e+02
2.020044409770149318e+00 4.639574006603143062e+02
2.020144431774990146e+00 4.637671238376553902e+02
2.020244453779831417e+00 4.635766065741627813e+02
2.020344475784672689e+00 4.633858518062500025e+02
2.020444497789513516e+00 4.631948624761337783e+02
2.020544519794354787e+00 4.630036415317592287e+02
2.020644541799195615e+00 4.628121919267209705e+02
2.020744563804036886e+00 4.626205166201879138e+02
2.020844585808877714e+00 4.624286185768257269e+02
2.020944607813718985e+00 4.622365007667201553e+02
2.021044629818559812e+00 4.620441661652993162e+02
2.021144651823401084e+00 4.618516177532565621e+02
2.021244673828242355e+00 4.616588585164731171e+02
2.021344695833083183e+00 4.614658914459392349e+02
2.021444717837924010e+00 4.612727195376788814e+02
2.021544739842765281e+00 4.610793457926683914e+02
2.021644761847606553e+00 4.608857732167614927e+02
2.021744783852447380e+00 4.606920048206084743e+02
2.021844805857288652e+00 4.604980436195797324e+02
2.021944827862129479e+00 4.603038926336864733e+02
2.022044849866970306e+00 4.601095548875023269e+02
2.022144871871811578e+00 4.599150334100828559e+02
2.022244893876652849e+00 4.597203312348900681e+02
2.022344915881493677e+00 4.595254513997102777e+02
2.022444937886334948e+00 4.593303969465763998e+02
2.022544959891176219e+00 4.591351709216887116e+02
2.022644981896017047e+00 4.589397763753341906e+02
2.022745003900857874e+00 4.587442163618096060e+02
2.022845025905699146e+00 4.585484939393386981e+02
2.022945047910539973e+00 4.583526121699950409e+02
2.023045069915381244e+00 4.581565741196218369e+02
2.023145091920222516e+00 4.579603828577497779e+02
2.023245113925063343e+00 4.577640414575200793e+02
2.023345135929904615e+00 4.575675529956030232e+02
2.023445157934745442e+00 4.573709205521169565e+02
2.023545179939586269e+00 4.571741472105494495e+02
2.023645201944427541e+00 4.569772360576765777e+02
2.023745223949268812e+00 4.567801901834808405e+02
2.023845245954109640e+00 4.565830126810731144e+02
2.023945267958950911e+00 4.563857066466107995e+02
2.024045289963792182e+00 4.561882751792167028e+02
2.024145311968633010e+00 4.559907213808982078e+02
2.024245333973473837e+00 4.557930483564683186e+02
2.024345355978315109e+00 4.555952592134626684e+02
2.024445377983155936e+00 4.553973570620582905e+02
2.024545399987997207e+00 4.551993450149945488e+02
2.024645421992838479e+00 4.550012261874904880e+02
2.024745443997679306e+00 4.548030036971641721e+02
2.024845466002520133e+00 4.546046806639509441e+02
2.024945488007361405e+00 4.544062602100232766e+02
2.025045510012202676e+00 4.542077454597074961e+02
2.025145532017043504e+00 4.540091395394043730e+02
2.025245554021884775e+00 4.538104455775066981e+02
2.025345576026725603e+00 4.536116667043173152e+02
2.025445598031566874e+00 4.534128060519687438e+02
2.025545620036407701e+00 4.532138667543416091e+02
2.025645642041248973e+00 4.530148519469804000e+02
2.025745664046089800e+00 4.528157647670157075e+02
2.025845686050931072e+00 4.526166083530804372e+02
2.025945708055772343e+00 4.524173858452272157e+02
2.026045730060613170e+00 4.522181003848488672e+02
2.026145752065454442e+00 4.520187551145952511e+02
2.026245774070295269e+00 4.518193531782909531e+02
2.026345796075136541e+00 4.516198977208553060e+02
2.026445818079977368e+00 4.514203918882190010e+02
2.026545840084818639e+00 4.512208388272434831e+02
2.026645862089659467e+00 4.510212416856370510e+02
2.026745884094500738e+00 4.508216036118753891e+02
2.026845906099342010e+00 4.506219277551186337e+02
2.026945928104182837e+00 4.504222172651283245e+02
2.027045950109023664e+00 4.502224752921885624e+02
2.027145972113864936e+00 4.500227049870206883e+02
2.027245994118706207e+00 4.498229095007037586e+02
2.027346016123547034e+00 4.496230919845915537e+02
2.027446038128388306e+00 4.494232555902319177e+02
2.027546060133229133e+00 4.492234034692828573e+02
2.027646082138069961e+00 4.490235387734331880e+02
2.027746104142911232e+00 4.488236646543187476e+02
2.027846126147752503e+00 4.486237842634412232e+02
2.027946148152593331e+00 4.484239007520871496e+02
2.028046170157434602e+00 4.482240172712448611e+02
2.028146192162275874e+00 4.480241369715243991e+02
2.028246214167116701e+00 4.478242630030736109e+02
2.028346236171957528e+00 4.476243985154986262e+02
2.028446258176798800e+00 4.474245466577807520e+02
2.028546280181639627e+00 4.472247105781960954e+02
2.028646302186480899e+00 4.470248934242334826e+02
2.028746324191322170e+00 4.468250983425122627e+02
2.028846346196162997e+00 4.466253284787013058e+02
2.028946368201004269e+00 4.464255869774391385e+02
2.029046390205845096e+00 4.462258769822493605e+02
2.029146412210685924e+00 4.460262016354623711e+02
2.029246434215527195e+00 4.458265640781333445e+02
2.029346456220368466e+00 4.456269674499595794e+02
2.029446478225209294e+00 4.454274148892010317e+02
2.029546500230050565e+00 4.452279095325977210e+02
2.029646522234891837e+00 4.450284545152915712e+02
2.029746544239732664e+00 4.448290529707409178e+02
2.029846566244573491e+00 4.446297080306453609e+02
2.029946588249414763e+00 4.444304228248588515e+02
2.030046610254255590e+00 4.442312004813140902e+02
2.030146632259096862e+00 4.440320441259387394e+02
2.030246654263938133e+00 4.438329568825770366e+02
2.030346676268778960e+00 4.436339418729066324e+02
2.030446698273619788e+00 4.434350022163608855e+02
2.030546720278461059e+00 4.432361410300480884e+02
2.030646742283302331e+00 4.430373614286688735e+02
2.030746764288143158e+00 4.428386665244393043e+02
2.030846786292984429e+00 4.426400594270089641e+02
2.030946808297825257e+00 4.424415432433816591e+02
2.031046830302666528e+00 4.422431210778347577e+02
2.031146852307507356e+00 4.420447960318408605e+02
2.031246874312348627e+00 4.418465712039878781e+02
2.031346896317189454e+00 4.416484496898981433e+02
2.031446918322030726e+00 4.414504345821501374e+02
2.031546940326871997e+00 4.412525289702000464e+02
2.031646962331712825e+00 4.410547359403008727e+02
2.031746984336553652e+00 4.408570585754241051e+02
2.031847006341394923e+00 4.406594999551815022e+02
2.031947028346236195e+00 4.404620631557448860e+02
2.032047050351077022e+00 4.402647512497684374e+02
2.032147072355918294e+00 4.400675673063109912e+02
2.032247094360759121e+00 4.398705143907548063e+02
2.032347116365600392e+00 4.396735955647307605e+02
2.032447138370441220e+00 4.394768138860371778e+02
2.032547160375282491e+00 4.392801724085635442e+02
2.032647182380123319e+00 4.390836741822130307e+02
2.032747204384964590e+00 4.388873222528235374e+02
2.032847226389805861e+00 4.386911196620897613e+02
2.032947248394646689e+00 4.384950694474875377e+02
2.033047270399487960e+00 4.382991746421956236e+02
2.033147292404328788e+00 4.381034382750179361e+02
2.033247314409169615e+00 4.379078633703077230e+02
2.033347336414010886e+00 4.377124529478898012e+02
2.033447358418852158e+00 4.375172100229846137e+02
2.033547380423692985e+00 4.373221376061315482e+02
2.033647402428534257e+00 4.371272387031123117e+02
2.033747424433375528e+00 4.369325163148740785e+02
2.033847446438215911e+00 4.367379734374565601e+02
2.033947468443057183e+00 4.365436130619113442e+02
2.034047490447898454e+00 4.363494381742317501e+02
2.034147512452739281e+00 4.361554517552719972e+02
2.034247534457580553e+00 4.359616567806755256e+02
2.034347556462421824e+00 4.357680562207985986e+02
2.034447578467262652e+00 4.355746530406358374e+02
2.034547600472103479e+00 4.353814501997455864e+02
2.034647622476944751e+00 4.351884506521730600e+02
2.034747644481785578e+00 4.349956573463801988e+02
2.034847666486626849e+00 4.348030732251680774e+02
2.034947688491468121e+00 4.346107012256036342e+02
2.035047710496308948e+00 4.344185442789481044e+02
2.035147732501150220e+00 4.342266053105786341e+02
2.035247754505991047e+00 4.340348872399208631e+02
2.035347776510832318e+00 4.338433929803704814e+02
2.035447798515673146e+00 4.336521254392249034e+02
2.035547820520514417e+00 4.334610875176054492e+02
2.035647842525355244e+00 4.332702821103898714e+02
2.035747864530196516e+00 4.330797121061362986e+02
2.035847886535037787e+00 4.328893803870125794e+02
2.035947908539878615e+00 4.326992898287247726e+02
2.036047930544719442e+00 4.325094433004445591e+02
2.036147952549560713e+00 4.323198436647381868e+02
2.036247974554401985e+00 4.321304937774957580e+02
2.036347996559242812e+00 4.319413964878577303e+02
2.036448018564084084e+00 4.317525546381489789e+02
2.036548040568924911e+00 4.315639710638031943e+02
2.036648062573766182e+00 4.313756485932956934e+02
2.036748084578607010e+00 4.311875900480711721e+02
2.036848106583448281e+00 4.309997982424762881e+02
2.036948128588289109e+00 4.308122759836884370e+02
2.037048150593130380e+00 4.306250260716455500e+02
2.037148172597971651e+00 4.304380512989794170e+02
2.037248194602812479e+00 4.302513544509459962e+02
2.037348216607653306e+00 4.300649383053538486e+02
2.037448238612494578e+00 4.298788056325003595e+02
2.037548260617335849e+00 4.296929591951011389e+02
2.037648282622176676e+00 4.295074017482209001e+02
2.037748304627017948e+00 4.293221360392095676e+02
2.037848326631858775e+00 4.291371648076308247e+02
2.037948348636700047e+00 4.289524907851980515e+02
2.038048370641540874e+00 4.287681166957054870e+02
2.038148392646382145e+00 4.285840452549630299e+02
2.038248414651222973e+00 4.284002791707286519e+02
2.038348436656064244e+00 4.282168211426435960e+02
2.038448458660905516e+00 4.280336738621660970e+02
2.038548480665746343e+00 4.278508400125056141e+02
2.038648502670587614e+00 4.276683222685570058e+02
2.038748524675428442e+00 4.274861232968380023e+02
2.038848546680269269e+00 4.273042457554210500e+02
2.038948568685110541e+00 4.271226922938723760e+02
2.039048590689951812e+00 4.269414655531845142e+02
2.039148612694792639e+00 4.267605681657163359e+02
2.039248634699633911e+00 4.265800027551246671e+02
2.039348656704475182e+00 4.263997719363056831e+02
2.039448678709315566e+00 4.262198783153300496e+02
2.039548700714156837e+00 4.260403244893780084e+02
2.039648722718998108e+00 4.258611130466813393e+02
2.039748744723838936e+00 4.256822465664578203e+02
2.039848766728680207e+00 4.255037276188505757e+02
2.039948788733521479e+00 4.253255587648677647e+02
2.040048810738362306e+00 4.251477425563188035e+02
2.040148832743203133e+00 4.249702815357558165e+02
2.040248854748044405e+00 4.247931782364113360e+02
2.040348876752885232e+00 4.246164351821399237e+02
2.040448898757726504e+00 4.244400548873559273e+02
2.040548920762567775e+00 4.242640398569756712e+02
2.040648942767408602e+00 4.240883925863566901e+02
2.040748964772249874e+00 4.239131155612400335e+02
2.040848986777090701e+00 4.237382112576906366e+02
2.040949008781931973e+00 4.235636821420386582e+02
2.041049030786772800e+00 4.233895306708223529e+02
2.041149052791614071e+00 4.232157592907294656e+02
2.041249074796454899e+00 4.230423704385405586e+02
2.041349096801296170e+00 4.228693665410707467e+02
2.041449118806137442e+00 4.226967500151137074e+02
2.041549140810978269e+00 4.225245232673849500e+02
2.041649162815819096e+00 4.223526886944659395e+02
2.041749184820660368e+00 4.221812486827483326e+02
2.041849206825501639e+00 4.220102056083771913e+02
2.041949228830342467e+00 4.218395618371980049e+02
2.042049250835183738e+00 4.216693197246997897e+02
2.042149272840024565e+00 4.214994816159622246e+02
2.042249294844865837e+00 4.213300498455997740e+02
2.042349316849706664e+00 4.211610267377095624e+02
2.042449338854547936e+00 4.209924146058172596e+02
2.042549360859388763e+00 4.208242157528235339e+02
2.042649382864230034e+00 4.206564324709516995e+02
2.042749404869071306e+00 4.204890670416953640e+02
2.042849426873912133e+00 4.203221217357657906e+02
2.042949448878752960e+00 4.201555988130411379e+02
2.043049470883594232e+00 4.199895005225134810e+02
2.043149492888435503e+00 4.198238291022394151e+02
2.043249514893276331e+00 4.196585867792888962e+02
2.043349536898117602e+00 4.194937757696935137e+02
2.043449558902958429e+00 4.193293982783990259e+02
2.043549580907799701e+00 4.191654564992139740e+02
2.043649602912640528e+00 4.190019526147600573e+02
2.043749624917481800e+00 4.188388887964248397e+02
2.043849646922322627e+00 4.186762672043115572e+02
2.043949668927163899e+00 4.185140899871928468e+02
2.044049690932005170e+00 4.183523592824611796e+02
2.044149712936845997e+00 4.181910772160819079e+02
2.044249734941687269e+00 4.180302459025459143e+02
2.044349756946528096e+00 4.178698674448240240e+02
2.044449778951368923e+00 4.177099439343197673e+02
2.044549800956210195e+00 4.175504774508233936e+02
2.044649822961051466e+00 4.173914700624666239e+02
2.044749844965892294e+00 4.172329238256766644e+02
2.044849866970733565e+00 4.170748407851327784e+02
2.044949888975574837e+00 4.169172229737199018e+02
2.045049910980415220e+00 4.167600724124860676e+02
2.045149932985256491e+00 4.166033911105987499e+02
2.045249954990097763e+00 4.164471810652995032e+02
2.045349976994938590e+00 4.162914442618637167e+02
2.045449998999779861e+00 4.161361826735566751e+02
2.045550021004621133e+00 4.159813982615896748e+02
2.045650043009461960e+00 4.158270929750825076e+02
2.045750065014302788e+00 4.156732687510177584e+02
2.045850087019144059e+00 4.155199275142017541e+02
2.045950109023984886e+00 4.153670711772238633e+02
2.046050131028826158e+00 4.152147016404160240e+02
2.046150153033667429e+00 4.150628207918130101e+02
2.046250175038508257e+00 4.149114305071112767e+02
2.046350197043349528e+00 4.147605326496334897e+02
2.046450219048190355e+00 4.146101290702861206e+02
2.046550241053031627e+00 4.144602216075228398e+02
2.046650263057872454e+00 4.143108120873075677e+02
2.046750285062713726e+00 4.141619023230740027e+02
2.046850307067554553e+00 4.140134941156920263e+02
2.046950329072395824e+00 4.138655892534275722e+02
2.047050351077237096e+00 4.137181895119097703e+02
2.047150373082077923e+00 4.135712966540921798e+02
2.047250395086918751e+00 4.134249124302179439e+02
2.047350417091760022e+00 4.132790385777861957e+02
2.047450439096601293e+00 4.131336768215149959e+02
2.047550461101442121e+00 4.129888288733087620e+02
2.047650483106283392e+00 4.128444964322235933e+02
2.047750505111124220e+00 4.127006811844343588e+02
2.047850527115965491e+00 4.125573848032005344e+02
2.047950549120806318e+00 4.124146089488345410e+02
2.048050571125647590e+00 4.122723552686688890e+02
2.048150593130488417e+00 4.121306253970242892e+02
2.048250615135329689e+00 4.119894209551790709e+02
2.048350637140170960e+00 4.118487435513358150e+02
2.048450659145011787e+00 4.117085947805942965e+02
2.048550681149852615e+00 4.115689762249175487e+02
2.048650703154693886e+00 4.114298894531046358e+02
2.048750725159535158e+00 4.112913360207602409e+02
2.048850747164375985e+00 4.111533174702653355e+02
2.048950769169217256e+00 4.110158353307485868e+02
2.049050791174058084e+00 4.108788911180602668e+02
2.049150813178898911e+00 4.107424863347404198e+02
2.049250835183740183e+00 4.106066224699957274e+02
2.049350857188581454e+00 4.104713009996700634e+02
2.049450879193422281e+00 4.103365233862188575e+02
2.049550901198263553e+00 4.102022910786827765e+02
2.049650923203104824e+00 4.100686055126616338e+02
2.049750945207945652e+00 4.099354681102900031e+02
2.049850967212786479e+00 4.098028802802126620e+02
2.049950989217627750e+00 4.096708434175581033e+02
2.050051011222468578e+00 4.095393589039168774e+02
2.050151033227309849e+00 4.094084281073170359e+02
2.050251055232151121e+00 4.092780523822005989e+02
2.050351077236991948e+00 4.091482330694017264e+02
2.050451099241833219e+00 4.090189714961238110e+02
2.050551121246674047e+00 4.088902689759171949e+02
2.050651143251514874e+00 4.087621268086587634e+02
2.050751165256356146e+00 4.086345462805307989e+02
2.050851187261197417e+00 4.085075286639993806e+02
2.050951209266038244e+00 4.083810752177948871e+02
2.051051231270879516e+00 4.082551871868922149e+02
2.051151253275720787e+00 4.081298658024918495e+02
2.051251275280561615e+00 4.080051122819994589e+02
2.051351297285402442e+00 4.078809278290089537e+02
2.051451319290243713e+00 4.077573136332845820e+02
2.051551341295084541e+00 4.076342708707416023e+02
2.051651363299925812e+00 4.075118007034317316e+02
2.051751385304767084e+00 4.073899042795219998e+02
2.051851407309607911e+00 4.072685827332843473e+02
2.051951429314448738e+00 4.071478371850741382e+02
2.052051451319290010e+00 4.070276687413185073e+02
2.052151473324131281e+00 4.069080784944995912e+02
2.052251495328972108e+00 4.067890675231396926e+02
2.052351517333813380e+00 4.066706368917882628e+02
2.052451539338654207e+00 4.065527876510071792e+02
2.052551561343495479e+00 4.064355208373571600e+02
2.052651583348336306e+00 4.063188374733859973e+02
2.052751605353177577e+00 4.062027385676161089e+02
2.052851627358018405e+00 4.060872251145300993e+02
2.052951649362859676e+00 4.059722980945622908e+02
2.053051671367700948e+00 4.058579584740855353e+02
2.053151693372541775e+00 4.057442072054016080e+02
2.053251715377383047e+00 4.056310452267292703e+02
2.053351737382223874e+00 4.055184734621961411e+02
2.053451759387065145e+00 4.054064928218284649e+02
2.053551781391905973e+00 4.052951042015417897e+02
2.053651803396747244e+00 4.051843084831327815e+02
2.053751825401588071e+00 4.050741065342712659e+02
2.053851847406429343e+00 4.049644992084911905e+02
2.053951869411270614e+00 4.048554873451863614e+02
2.054051891416111442e+00 4.047470717695983353e+02
2.054151913420952269e+00 4.046392532928156243e+02
2.054251935425793540e+00 4.045320327117634633e+02
2.054351957430634812e+00 4.044254108092015940e+02
2.054451979435475639e+00 4.043193883537153965e+02
2.054552001440316911e+00 4.042139660997149804e+02
2.054652023445157738e+00 4.041091447874267715e+02
2.054752045449998565e+00 4.040049251428947059e+02
2.054852067454839837e+00 4.039013078779711918e+02
2.054952089459681108e+00 4.037982936903184736e+02
2.055052111464521936e+00 4.036958832634041983e+02
2.055152133469363207e+00 4.035940772664986298e+02
2.055252155474204478e+00 4.034928763546742516e+02
2.055352177479045306e+00 4.033922811688050274e+02
2.055452199483886133e+00 4.032922923355618536e+02
2.055552221488727405e+00 4.031929104674168229e+02
2.055652243493568232e+00 4.030941361626404387e+02
2.055752265498409503e+00 4.029959700053022971e+02
2.055852287503250775e+00 4.028984125652724515e+02
2.055952309508091602e+00 4.028014643982230041e+02
2.056052331512932874e+00 4.027051260456278214e+02
2.056152353517773701e+00 4.026093980347674801e+02
2.056252375522614528e+00 4.025142808787293802e+02
2.056352397527455800e+00 4.024197750764121793e+02
2.056452419532297071e+00 4.023258811125289185e+02
2.056552441537137899e+00 4.022325994576094672e+02
2.056652463541979170e+00 4.021399305680071166e+02
2.056752485546820441e+00 4.020478748859014786e+02
2.056852507551661269e+00 4.019564328393036590e+02
2.056952529556502096e+00 4.018656048420626234e+02
2.057052551561343368e+00 4.017753912938703138e+02
2.057152573566184195e+00 4.016857925802685259e+02
2.057252595571025466e+00 4.015968090726556738e+02
2.057352617575866738e+00 4.015084411282928158e+02
2.057452639580707565e+00 4.014206890903130898e+02
2.057552661585548393e+00 4.013335532877284777e+02
2.057652683590389664e+00 4.012470340354378777e+02
2.057752705595230935e+00 4.011611316342381883e+02
2.057852727600071763e+00 4.010758463708306181e+02
2.057952749604913034e+00 4.009911785178318837e+02
2.058052771609753862e+00 4.009071283337859199e+02
2.058152793614595133e+00 4.008236960631702459e+02
2.058252815619435960e+00 4.007408819364109149e+02
2.058352837624277232e+00 4.006586861698914959e+02
2.058452859629118059e+00 4.005771089659665449e+02
2.058552881633959331e+00 4.004961505129713828e+02
2.058652903638800602e+00 4.004158109852379539e+02
2.058752925643641429e+00 4.003360905431047740e+02
2.058852947648482701e+00 4.002569893329313686e+02
2.058952969653323528e+00 4.001785074871134498e+02
2.059052991658164800e+00 4.001006451240950810e+02
2.059153013663005627e+00 4.000234023483847636e+02
2.059253035667846898e+00 3.999467792505691364e+02
2.059353057672687726e+00 3.998707759073303691e+02
2.059453079677528997e+00 3.997953923814596919e+02
2.059553101682370269e+00 3.997206287218751868e+02
2.059653123687211096e+00 3.996464849636387271e+02
2.059753145692051923e+00 3.995729611279716664e+02
2.059853167696893195e+00 3.995000572222735968e+02
2.059953189701734466e+00 3.994277732401387766e+02
2.060053211706575294e+00 3.993561091613761960e+02
2.060153233711416565e+00 3.992850649520266870e+02
2.060253255716257392e+00 3.992146405643836715e+02
2.060353277721098220e+00 3.991448359370100434e+02
2.060453299725939491e+00 3.990756509947598829e+02
2.060553321730780763e+00 3.990070856488000004e+02
2.060653343735621590e+00 3.989391397966271597e+02
2.060753365740462861e+00 3.988718133220920095e+02
2.060853387745304133e+00 3.988051060954191485e+02
2.060953409750144960e+00 3.987390179732286128e+02
2.061053431754985787e+00 3.986735487985600344e+02
2.061153453759827059e+00 3.986086984008931040e+02
2.061253475764667886e+00 3.985444665961717874e+02
2.061353497769509158e+00 3.984808531868272325e+02
2.061453519774350429e+00 3.984178579618015874e+02
2.061553541779191256e+00 3.983554806965732382e+02
2.061653563784032528e+00 3.982937211531782395e+02
2.061753585788873355e+00 3.982325790802396455e+02
2.061853607793714183e+00 3.981720542129890532e+02
2.061953629798555454e+00 3.981121462732946839e+02
2.062053651803396725e+00 3.980528549696862797e+02
2.062153673808237553e+00 3.979941799973817069e+02
2.062253695813078824e+00 3.979361210383139564e+02
2.062353717817920096e+00 3.978786777611582011e+02
2.062453739822760923e+00 3.978218498213602174e+02
2.062553761827601750e+00 3.977656368611625339e+02
2.062653783832443022e+00 3.977100385096345008e+02
2.062753805837283849e+00 3.976550543827001434e+02
2.062853827842125121e+00 3.976006840831670957e+02
2.062953849846966392e+00 3.975469272007567270e+02
2.063053871851807219e+00 3.974937833121344966e+02
2.063153893856648047e+00 3.974412519809367268e+02
2.063253915861489318e+00 3.973893327578057324e+02
2.063353937866330590e+00 3.973380251804178442e+02
2.063453959871171417e+00 3.972873287735151280e+02
2.063553981876012688e+00 3.972372430489381827e+02
2.063654003880853516e+00 3.971877675056561543e+02
2.063754025885694787e+00 3.971389016298007846e+02
2.063854047890535615e+00 3.970906448946985847e+02
2.063954069895376886e+00 3.970429967609031223e+02
2.064054091900217713e+00 3.969959566762298095e+02
2.064154113905058985e+00 3.969495240757886450e+02
2.064254135909900256e+00 3.969036983820180353e+02
2.064354157914741084e+00 3.968584790047210618e+02
2.064454179919582355e+00 3.968138653410982215e+02
2.064554201924423182e+00 3.967698567757835235e+02
2.064654223929264454e+00 3.967264526808798450e+02
2.064754245934105281e+00 3.966836524159955388e+02
2.064854267938946553e+00 3.966414553282787097e+02
2.064954289943787380e+00 3.965998607524558111e+02
2.065054311948628651e+00 3.965588680108673998e+02
2.065154333953469923e+00 3.965184764135058231e+02
2.065254355958310750e+00 3.964786852580521099e+02
2.065354377963151578e+00 3.964394938299144542e+02
2.065454399967992849e+00 3.964009014022668680e+02
2.065554421972834120e+00 3.963629072360860164e+02
2.065654443977674948e+00 3.963255105801916329e+02
2.065754465982516219e+00 3.962887106712861396e+02
2.065854487987357047e+00 3.962525067339917086e+02
2.065954509992197874e+00 3.962168979808929521e+02
2.066054531997039145e+00 3.961818836125758594e+02
2.066154554001880417e+00 3.961474628176671899e+02
2.066254576006721244e+00 3.961136347728784699e+02
2.066354598011562516e+00 3.960803986430425994e+02
2.066454620016403787e+00 3.960477535811597818e+02
2.066554642021244170e+00 3.960156987284371439e+02
2.066654664026085442e+00 3.959842332143294925e+02
2.066754686030926713e+00 3.959533561565846753e+02
2.066854708035767541e+00 3.959230666612847926e+02
2.066954730040608812e+00 3.958933638228879772e+02
2.067054752045450083e+00 3.958642467242755174e+02
2.067154774050290911e+00 3.958357144367907949e+02
2.067254796055131738e+00 3.958077660202863512e+02
2.067354818059973010e+00 3.957804005231672022e+02
2.067454840064813837e+00 3.957536169824350054e+02
2.067554862069655108e+00 3.957274144237341034e+02
2.067654884074496380e+00 3.957017918613948382e+02
2.067754906079337207e+00 3.956767482984810158e+02
2.067854928084178479e+00 3.956522827268343576e+02
2.067954950089019306e+00 3.956283941271201456e+02
2.068054972093860577e+00 3.956050814688751416e+02
2.068154994098701405e+00 3.955823437105527205e+02
2.068255016103542676e+00 3.955601797995701077e+02
2.068355038108383503e+00 3.955385886723566387e+02
2.068455060113224775e+00 3.955175692543988930e+02
2.068555082118066046e+00 3.954971204602906596e+02
2.068655104122906874e+00 3.954772411937803440e+02
2.068755126127747701e+00 3.954579303478183760e+02
2.068855148132588972e+00 3.954391868046067771e+02
2.068955170137430244e+00 3.954210094356475338e+02
2.069055192142271071e+00 3.954033971017919384e+02
2.069155214147112343e+00 3.953863486532894740e+02
2.069255236151953170e+00 3.953698629298382343e+02
2.069355258156794442e+00 3.953539387606344349e+02
2.069455280161635269e+00 3.953385749644219231e+02
2.069555302166476540e+00 3.953237703495443611e+02
2.069655324171317368e+00 3.953095237139930305e+02
2.069755346176158639e+00 3.952958338454622549e+02
2.069855368180999911e+00 3.952826995213955570e+02
2.069955390185840738e+00 3.952701195090403417e+02
2.070055412190681565e+00 3.952580925654991688e+02
2.070155434195522837e+00 3.952466174377805714e+02
2.070255456200364108e+00 3.952356928628531705e+02
2.070355478205204935e+00 3.952253175676953560e+02
2.070455500210046207e+00 3.952154902693505392e+02
2.070555522214887034e+00 3.952062096749800162e+02
2.070655544219728306e+00 3.951974744819139005e+02
2.070755566224569133e+00 3.951892833777068859e+02
2.070855588229410404e+00 3.951816350401897466e+02
2.070955610234251232e+00 3.951745281375266927e+02
2.071055632239092503e+00 3.951679613282647665e+02
2.071155654243933775e+00 3.951619332613928464e+02
2.071255676248774602e+00 3.951564425763933741e+02
2.071355698253615873e+00 3.951514879032967542e+02
2.071455720258456701e+00 3.951470678627391067e+02
2.071555742263297528e+00 3.951431810660159840e+02
2.071655764268138800e+00 3.951398261151367137e+02
2.071755786272980071e+00 3.951370016028819236e+02
2.071855808277820898e+00 3.951347061128581117e+02
2.071955830282662170e+00 3.951329382195555695e+02
2.072055852287503441e+00 3.951316964884019853e+02
2.072155874292343825e+00 3.951309794758226417e+02
2.072255896297185096e+00 3.951307857292931089e+02
2.072355918302026367e+00 3.951311137873989878e+02
2.072455940306867195e+00 3.951319621798921844e+02
2.072555962311708466e+00 3.951333294277482082e+02
2.072655984316549738e+00 3.951352140432247211e+02
2.072756006321390565e+00 3.951376145299174141e+02
2.072856028326231392e+00 3.951405293828191247e+02
2.072956050331072664e+00 3.951439570883782721e+02
2.073056072335913491e+00 3.951478961245567234e+02
2.073156094340754763e+00 3.951523449608880014e+02
2.073256116345596034e+00 3.951573020585368567e+02
2.073356138350436861e+00 3.951627658703572479e+02
2.073456160355278133e+00 3.951687348409517426e+02
2.073556182360118960e+00 3.951752074067320564e+02
2.073656204364960232e+00 3.951821819959753839e+02
2.073756226369801059e+00 3.951896570288870976e+02
2.073856248374642330e+00 3.951976309176595237e+02
2.073956270379483158e+00 3.952061020665311730e+02
2.074056292384324429e+00 3.952150688718468814e+02
2.074156314389165701e+00 3.952245297221204510e+02
2.074256336394006528e+00 3.952344829980915506e+02
2.074356358398847355e+00 3.952449270727881299e+02
2.074456380403688627e+00 3.952558603115880373e+02
2.074556402408529898e+00 3.952672810722786494e+02
2.074656424413370726e+00 3.952791877051178062e+02
2.074756446418211997e+00 3.952915785528968513e+02
2.074856468423052824e+00 3.953044519509982138e+02
2.074956490427894096e+00 3.953178062274625404e+02
2.075056512432734923e+00 3.953316397030449707e+02
2.075156534437576195e+00 3.953459506912802794e+02
2.075256556442417022e+00 3.953607374985440401e+02
2.075356578447258293e+00 3.953759984241138454e+02
2.075456600452099565e+00 3.953917317602327444e+02
2.075556622456940392e+00 3.954079357921709743e+02
2.075656644461781219e+00 3.954246087982889435e+02
2.075756666466622491e+00 3.954417490500989061e+02
2.075856688471463762e+00 3.954593548123286268e+02
2.075956710476304590e+00 3.954774243429843636e+02
2.076056732481145861e+00 3.954959558934141342e+02
2.076156754485986689e+00 3.955149477083682541e+02
2.076256776490827960e+00 3.955343980260666399e+02
2.076356798495668787e+00 3.955543050782597447e+02
2.076456820500510059e+00 3.955746670902915412e+02
2.076556842505350886e+00 3.955954822811652889e+02
2.076656864510192158e+00 3.956167488636053804e+02
2.076756886515033429e+00 3.956384650441220288e+02
2.076856908519874256e+00 3.956606290230753871e+02
2.076956930524715528e+00 3.956832389947379625e+02
2.077056952529556355e+00 3.957062931473618619e+02
2.077156974534397182e+00 3.957297896632400125e+02
2.077256996539238454e+00 3.957537267187708494e+02
2.077357018544079725e+00 3.957781024845257321e+02
2.077457040548920553e+00 3.958029151253091413e+02
2.077557062553761824e+00 3.958281628002267212e+02
2.077657084558603096e+00 3.958538436627479769e+02
2.077757106563443479e+00 3.958799558607722133e+02
2.077857128568284750e+00 3.959064975366930526e+02
2.077957150573126022e+00 3.959334668274615296e+02
2.078057172577966849e+00 3.959608618646561808e+02
2.078157194582808120e+00 3.959886807745415354e+02
2.078257216587649392e+00 3.960169216781383170e+02
2.078357238592490219e+00 3.960455826912864268e+02
2.078457260597331047e+00 3.960746619247104263e+02
2.078557282602172318e+00 3.961041574840855333e+02
2.078657304607013145e+00 3.961340674701036164e+02
2.078757326611854417e+00 3.961643899785362919e+02
2.078857348616695688e+00 3.961951231003031353e+02
2.078957370621536516e+00 3.962262649215357442e+02
2.079057392626377787e+00 3.962578135236442449e+02
2.079157414631218614e+00 3.962897669833819236e+02
2.079257436636059886e+00 3.963221233729125856e+02
2.079357458640900713e+00 3.963548807598751864e+02
2.079457480645741985e+00 3.963880372074502247e+02
2.079557502650582812e+00 3.964215907744253400e+02
2.079657524655424083e+00 3.964555395152613073e+02
2.079757546660265355e+00 3.964898814801575782e+02
2.079857568665106182e+00 3.965246147151212881e+02
2.079957590669947010e+00 3.965597372620277383e+02
2.080057612674788281e+00 3.965952471586921320e+02
2.080157634679629552e+00 3.966311424389318745e+02
2.080257656684470380e+00 3.966674211326350701e+02
2.080357678689311651e+00 3.967040812658250388e+02
2.080457700694152479e+00 3.967411208607273352e+02
2.080557722698993750e+00 3.967785379358362547e+02
2.080657744703834577e+00 3.968163305059806589e+02
2.080757766708675849e+00 3.968544965823900839e+02
2.080857788713516676e+00 3.968930341727614746e+02
2.080957810718357948e+00 3.969319412813248960e+02
2.081057832723199219e+00 3.969712159089103807e+02
2.081157854728040046e+00 3.970108560530144928e+02
2.081257876732880874e+00 3.970508597078649586e+02
2.081357898737722145e+00 3.970912248644898455e+02
2.081457920742563417e+00 3.971319495107798048e+02
2.081557942747404244e+00 3.971730316315595815e+02
2.081657964752245515e+00 3.972144692086501436e+02
2.081757986757086343e+00 3.972562602209354168e+02
2.081858008761927614e+00 3.972984026444318033e+02
2.081958030766768442e+00 3.973408944523500850e+02
2.082058052771609713e+00 3.973837336151652266e+02
2.082158074776450540e+00 3.974269181006796430e+02
2.082258096781291812e+00 3.974704458740927748e+02
2.082358118786133083e+00 3.975143148980644128e+02
2.082458140790973911e+00 3.975585231327820566e+02
2.082558162795815182e+00 3.976030685360268535e+02
2.082658184800656009e+00 3.976479490632408442e+02
2.082758206805496837e+00 3.976931626675910820e+02
2.082858228810338108e+00 3.977387073000365945e+02
2.082958250815179380e+00 3.977845809093954017e+02
2.083058272820020207e+00 3.978307814424096023e+02
2.083158294824861478e+00 3.978773068438100040e+02
2.083258316829702750e+00 3.979241550563856435e+02
2.083358338834543133e+00 3.979713240210458594e+02
2.083458360839384405e+00 3.980188116768883901e+02
2.083558382844225676e+00 3.980666159612645174e+02
2.083658404849066503e+00 3.981147348098446628e+02
2.083758426853907775e+00 3.981631661566839284e+02
2.083858448858749046e+00 3.982119079342891723e+02
2.083958470863589874e+00 3.982609580736822181e+02
2.084058492868430701e+00 3.983103145044675557e+02
2.084158514873271972e+00 3.983599751548958352e+02
2.084258536878112800e+00 3.984099379519315676e+02
2.084358558882954071e+00 3.984602008213167323e+02
2.084458580887795343e+00 3.985107616876356929e+02
2.084558602892636170e+00 3.985616184743822146e+02
2.084658624897476997e+00 3.986127691040234140e+02
2.084758646902318269e+00 3.986642114980643896e+02
2.084858668907159540e+00 3.987159435771153539e+02
2.084958690912000367e+00 3.987679632609527403e+02
2.085058712916841639e+00 3.988202684685878694e+02
2.085158734921682466e+00 3.988728571183298754e+02
2.085258756926523738e+00 3.989257271278499957e+02
2.085358778931364565e+00 3.989788764142472814e+02
2.085458800936205837e+00 3.990323028941123766e+02
2.085558822941046664e+00 3.990860044835917506e+02
2.085658844945887935e+00 3.991399790984529545e+02
2.085758866950729207e+00 3.991942246541476038e+02
2.085858888955570034e+00 3.992487390658754407e+02
2.085958910960411306e+00 3.993035202486507842e+02
2.086058932965252133e+00 3.993585661173627841e+02
2.086158954970093404e+00 3.994138745868413594e+02
2.086258976974934232e+00 3.994694435719213743e+02
2.086358998979775503e+00 3.995252709875051096e+02
2.086459020984616330e+00 3.995813547486252446e+02
2.086559042989457602e+00 3.996376927705097160e+02
2.086659064994298873e+00 3.996942829686445862e+02
2.086759086999139701e+00 3.997511232588354915e+02
2.086859109003980528e+00 3.998082115572736939e+02
2.086959131008821799e+00 3.998655457805960509e+02
2.087059153013663071e+00 3.999231238459497604e+02
2.087159175018503898e+00 3.999809436710544333e+02
2.087259197023345170e+00 4.000390031742633141e+02
2.087359219028185997e+00 4.000973002746278553e+02
2.087459241033026824e+00 4.001558328919595624e+02
2.087559263037868096e+00 4.002145989468893958e+02
2.087659285042709367e+00 4.002735963609346754e+02
2.087759307047550195e+00 4.003328230565556964e+02
2.087859329052391466e+00 4.003922769572214406e+02
2.087959351057232738e+00 4.004519559874695460e+02
2.088059373062073565e+00 4.005118580729674136e+02
2.088159395066914392e+00 4.005719811405740529e+02
2.088259417071755664e+00 4.006323231184007909e+02
2.088359439076596491e+00 4.006928819358739133e+02
2.088459461081437762e+00 4.007536555237929861e+02
2.088559483086279034e+00 4.008146418143932692e+02
2.088659505091119861e+00 4.008758387414061986e+02
2.088759527095961133e+00 4.009372442401181615e+02
2.088859549100801960e+00 4.009988562474333094e+02
2.088959571105642787e+00 4.010606727019315940e+02
2.089059593110484059e+00 4.011226915439295908e+02
2.089159615115325330e+00 4.011849107155403544e+02
2.089259637120166158e+00 4.012473281607316835e+02
2.089359659125007429e+00 4.013099418253872273e+02
2.089459681129848700e+00 4.013727496573654321e+02
2.089559703134689528e+00 4.014357496065574651e+02
2.089659725139530355e+00 4.014989396249471270e+02
2.089759747144371627e+00 4.015623176666697987e+02
2.089859769149212454e+00 4.016258816880697395e+02
2.089959791154053725e+00 4.016896296477602846e+02
2.090059813158894997e+00 4.017535595066793235e+02
2.090159835163735824e+00 4.018176692281511464e+02
2.090259857168576652e+00 4.018819567779411273e+02
2.090359879173417923e+00 4.019464201243133630e+02
2.090459901178259194e+00 4.020110572380913823e+02
2.090559923183100022e+00 4.020758660927108394e+02
2.090659945187941293e+00 4.021408446642804506e+02
2.090759967192782121e+00 4.022059909316367339e+02
2.090859989197623392e+00 4.022713028764016485e+02
2.090960011202464219e+00 4.023367784830386427e+02
2.091060033207305491e+00 4.024024157389087577e+02
2.091160055212146318e+00 4.024682126343269601e+02
2.091260077216987590e+00 4.025341671626188713e+02
2.091360099221828861e+00 4.026002773201751097e+02
2.091460121226669688e+00 4.026665411065071680e+02
2.091560143231510960e+00 4.027329565243034608e+02
2.091660165236351787e+00 4.027995215794828709e+02
2.091760187241193059e+00 4.028662342812514225e+02
2.091860209246033886e+00 4.029330926421556569e+02
2.091960231250875157e+00 4.030000946781376570e+02
2.092060253255715985e+00 4.030672384085886506e+02
2.092160275260557256e+00 4.031345218564043762e+02
2.092260297265398528e+00 4.032019430480359006e+02
2.092360319270239355e+00 4.032695000135475993e+02
2.092460341275080182e+00 4.033371907866668380e+02
2.092560363279921454e+00 4.034050134048382006e+02
2.092660385284762725e+00 4.034729659092768657e+02
2.092760407289603553e+00 4.035410463450210727e+02
2.092860429294444824e+00 4.036092527609839635e+02
2.092960451299285651e+00 4.036775832100069579e+02
2.093060473304126479e+00 4.037460357489108560e+02
2.093160495308967750e+00 4.038146084385467702e+02
2.093260517313809022e+00 4.038832993438497851e+02
2.093360539318649849e+00 4.039521065338889798e+02
2.093460561323491120e+00 4.040210280819180753e+02
2.093560583328332392e+00 4.040900620654264230e+02
2.093660605333173219e+00 4.041592065661909601e+02
2.093760627338014046e+00 4.042284596703249804e+02
2.093860649342855318e+00 4.042978194683280435e+02
2.093960671347696145e+00 4.043672840551375316e+02
2.094060693352537417e+00 4.044368515301762272e+02
2.094160715357378688e+00 4.045065199974028474e+02
2.094260737362219515e+00 4.045762875653609285e+02
2.094360759367060787e+00 4.046461523472277122e+02
2.094460781371901614e+00 4.047161124608624050e+02
2.094560803376742442e+00 4.047861660288551207e+02
2.094660825381583713e+00 4.048563111785734350e+02
2.094760847386424985e+00 4.049265460422122374e+02
2.094860869391265812e+00 4.049968687568409678e+02
2.094960891396107083e+00 4.050672774644488641e+02
2.095060913400948355e+00 4.051377703119947000e+02
2.095160935405789182e+00 4.052083454514516347e+02
2.095260957410630009e+00 4.052790010398549612e+02
2.095360979415471281e+00 4.053497352393476945e+02
2.095461001420312108e+00 4.054205462172267858e+02
2.095561023425153380e+00 4.054914321459887674e+02
2.095661045429994651e+00 4.055623912033744318e+02
2.095761067434835478e+00 4.056334215724165233e+02
2.095861089439676306e+00 4.057045214414818020e+02
2.095961111444517577e+00 4.057756890043174280e+02
2.096061133449358849e+00 4.058469224600948451e+02
2.096161155454199676e+00 4.059182200134522418e+02
2.096261177459040947e+00 4.059895798745423576e+02
2.096361199463881775e+00 4.060610002590719887e+02
2.096461221468723046e+00 4.061324793883475195e+02
2.096561243473563874e+00 4.062040154893176691e+02
2.096661265478405145e+00 4.062756067946149301e+02
2.096761287483245972e+00 4.063472515425992810e+02
2.096861309488087244e+00 4.064189479774006486e+02
2.096961331492928515e+00 4.064906943489584137e+02
2.097061353497769343e+00 4.065624889130671704e+02
2.097161375502610614e+00 4.066343299314132764e+02
2.097261397507451441e+00 4.067062156716183381e+02
2.097361419512292713e+00 4.067781444072820705e+02
2.097461441517133540e+00 4.068501144180173696e+02
2.097561463521974812e+00 4.069221239894945370e+02
2.097661485526815639e+00 4.069941714134814106e+02
2.097761507531656910e+00 4.070662549878793470e+02
2.097861529536498182e+00 4.071383730167656267e+02
2.097961551541339009e+00 4.072105238104327896e+02
2.098061573546179837e+00 4.072827056854239913e+02
2.098161595551021108e+00 4.073549169645743859e+02
2.098261617555862379e+00 4.074271559770479598e+02
2.098361639560703207e+00 4.074994210583762424e+02
2.098461661565544478e+00 4.075717105504948563e+02
2.098561683570385306e+00 4.076440228017800109e+02
2.098661705575226133e+00 4.077163561670880654e+02
2.098761727580067404e+00 4.077887090077894641e+02
2.098861749584908676e+00 4.078610796918057986e+02
2.098961771589749503e+00 4.079334665936465854e+02
2.099061793594590775e+00 4.080058680944437697e+02
2.099161815599432046e+00 4.080782825819883328e+02
2.099261837604272873e+00 4.081507084507635454e+02
2.099361859609113701e+00 4.082231441019821432e+02
2.099461881613954972e+00 4.082955879436187843e+02
2.099561903618795800e+00 4.083680383904448377e+02
2.099661925623637071e+00 4.084404938640622618e+02
2.099761947628478342e+00 4.085129527929377105e+02
2.099861969633319170e+00 4.085854136124345359e+02
2.099961991638160441e+00 4.086578747648460421e+02
2.100062013643001269e+00 4.087303346994287949e+02
2.100162035647842096e+00 4.088027918724347956e+02
2.100262057652683367e+00 4.088752447471422897e+02
2.100362079657524639e+00 4.089476917938885663e+02
2.100462101662365466e+00 4.090201314901003116e+02
2.100562123667206738e+00 4.090925623203261807e+02
2.100662145672048009e+00 4.091649827762657878e+02
2.100762167676888836e+00 4.092373913568013677e+02
2.100862189681729664e+00 4.093097865680260838e+02
2.100962211686570935e+00 4.093821669232762019e+02
2.101062233691411762e+00 4.094545309431587157e+02
2.101162255696253034e+00 4.095268771555807916e+02
2.101262277701094305e+00 4.095992040957794416e+02
2.101362299705935133e+00 4.096715103063476704e+02
2.101462321710775960e+00 4.097437943372668769e+02
2.101562343715617232e+00 4.098160547459287386e+02
2.101662365720458503e+00 4.098882900971684080e+02
2.101762387725299330e+00 4.099604989632878755e+02
2.101862409730140602e+00 4.100326799240853006e+02
2.101962431734981429e+00 4.101048315668786017e+02
2.102062453739822701e+00 4.101769524865353560e+02
2.102162475744663528e+00 4.102490412854953661e+02
2.102262497749504799e+00 4.103210965737980018e+02
2.102362519754345627e+00 4.103931169691065861e+02
2.102462541759186898e+00 4.104651010967352249e+02
2.102562563764028170e+00 4.105370475896684752e+02
2.102662585768868997e+00 4.106089550885924950e+02
2.102762607773709824e+00 4.106808222419128356e+02
2.102862629778551096e+00 4.107526477057819534e+02
2.102962651783392367e+00 4.108244301441202424e+02
2.103062673788233194e+00 4.108961682286392261e+02
2.103162695793074466e+00 4.109678606388660569e+02
2.103262717797915293e+00 4.110395060621624452e+02
2.103362739802756565e+00 4.111111031937506937e+02
2.103462761807597392e+00 4.111826507367308636e+02
2.103562783812438663e+00 4.112541474021055024e+02
2.103662805817279491e+00 4.113255919087986285e+02
2.103762827822120762e+00 4.113969829836775602e+02
2.103862849826962034e+00 4.114683193615715595e+02
2.103962871831802861e+00 4.115395997852946266e+02
2.104062893836644133e+00 4.116108230056607908e+02
2.104162915841484960e+00 4.116819877815077575e+02
2.104262937846325787e+00 4.117530928797132219e+02
2.104362959851167059e+00 4.118241370752143098e+02
2.104462981856008330e+00 4.118951191510250851e+02
2.104563003860849157e+00 4.119660378982566726e+02
2.104663025865690429e+00 4.120368921161303888e+02
2.104763047870531700e+00 4.121076806120007632e+02
2.104863069875372084e+00 4.121784022013687263e+02
2.104963091880213355e+00 4.122490557078982647e+02
2.105063113885054626e+00 4.123196399634339855e+02
2.105163135889895454e+00 4.123901538080159526e+02
2.105263157894736725e+00 4.124605960898974217e+02
2.105363179899577997e+00 4.125309656655567210e+02
2.105463201904418824e+00 4.126012613997146445e+02
2.105563223909259651e+00 4.126714821653484933e+02
2.105663245914100923e+00 4.127416268437063422e+02
2.105763267918941750e+00 4.128116943243202854e+02
2.105863289923783022e+00 4.128816835050207601e+02
2.105963311928624293e+00 4.129515932919490524e+02
2.106063333933465120e+00 4.130214225995711672e+02
2.106163355938306392e+00 4.130911703506906179e+02
2.106263377943147219e+00 4.131608354764586011e+02
2.106363399947988491e+00 4.132304169163880943e+02
2.106463421952829318e+00 4.132999136183643145e+02
2.106563443957670589e+00 4.133693245386562580e+02
2.106663465962511417e+00 4.134386486419279549e+02
2.106763487967352688e+00 4.135078849012476212e+02
2.106863509972193960e+00 4.135770322981003915e+02
2.106963531977034787e+00 4.136460898223950267e+02
2.107063553981875614e+00 4.137150564724767605e+02
2.107163575986716886e+00 4.137839312551345188e+02
2.107263597991558157e+00 4.138527131856090477e+02
2.107363619996398985e+00 4.139214012876038851e+02
2.107463642001240256e+00 4.139899945932926357e+02
2.107563664006081083e+00 4.140584921433253953e+02
2.107663686010922355e+00 4.141268929868378450e+02
2.107763708015763182e+00 4.141951961814589254e+02
2.107863730020604454e+00 4.142634007933154408e+02
2.107963752025445281e+00 4.143315058970419500e+02
2.108063774030286552e+00 4.143995105757837791e+02
2.108163796035127824e+00 4.144674139212043542e+02
2.108263818039968651e+00 4.145352150334911130e+02
2.108363840044809479e+00 4.146029130213599956e+02
2.108463862049650750e+00 4.146705070020604467e+02
2.108563884054492021e+00 4.147379961013812135e+02
2.108663906059332849e+00 4.148053794536522219e+02
2.108763928064174120e+00 4.148726562017502602e+02
2.108863950069014948e+00 4.149398254971022197e+02
2.108963972073856219e+00 4.150068864996884486e+02
2.109063994078697046e+00 4.150738383780452523e+02
2.109164016083538318e+00 4.151406803092668270e+02
2.109264038088379145e+00 4.152074114790091812e+02
2.109364060093220417e+00 4.152740310814918416e+02
2.109464082098061688e+00 4.153405383194975684e+02
2.109564104102902515e+00 4.154069324043755387e+02
2.109664126107743787e+00 4.154732125560411760e+02
2.109764148112584614e+00 4.155393780029784807e+02
2.109864170117425441e+00 4.156054279822369608e+02
2.109964192122266713e+00 4.156713617394366338e+02
2.110064214127107984e+00 4.157371785287625130e+02
2.110164236131948812e+00 4.158028776129664834e+02
2.110264258136790083e+00 4.158684582633674722e+02
2.110364280141631355e+00 4.159339197598462192e+02
2.110464302146471738e+00 4.159992613908485737e+02
2.110564324151313009e+00 4.160644824533797532e+02
2.110664346156154281e+00 4.161295822530036048e+02
2.110764368160995108e+00 4.161945601038398195e+02
2.110864390165836380e+00 4.162594153285601237e+02
2.110964412170677651e+00 4.163241472583870291e+02
2.111064434175518478e+00 4.163887552330883750e+02
2.111164456180359306e+00 4.164532386009736342e+02
2.111264478185200577e+00 4.165175967188911841e+02
2.111364500190041404e+00 4.165818289522223381e+02
2.111464522194882676e+00 4.166459346748762300e+02
2.111564544199723947e+00 4.167099132692869716e+02
2.111664566204564775e+00 4.167737641264048989e+02
2.111764588209406046e+00 4.168374866456927066e+02
2.111864610214246873e+00 4.169010802351207872e+02
2.111964632219088145e+00 4.169645443111571694e+02
2.112064654223928972e+00 4.170278782987628574e+02
2.112164676228770244e+00 4.170910816313860323e+02
2.112264698233611071e+00 4.171541537509519912e+02
2.112364720238452342e+00 4.172170941078577471e+02
2.112464742243293614e+00 4.172799021609623082e+02
2.112564764248134441e+00 4.173425773775798575e+02
2.112664786252975269e+00 4.174051192334704865e+02
2.112764808257816540e+00 4.174675272128312713e+02
2.112864830262657811e+00 4.175298008082867227e+02
2.112964852267498639e+00 4.175919395208803166e+02
2.113064874272339910e+00 4.176539428600640349e+02
2.113164896277180738e+00 4.177158103436878491e+02
2.113264918282022009e+00 4.177775414979902280e+02
2.113364940286862836e+00 4.178391358575865979e+02
2.113464962291704108e+00 4.179005929654588272e+02
2.113564984296544935e+00 4.179619123729438570e+02
2.113665006301386207e+00 4.180230936397218784e+02
2.113765028306227478e+00 4.180841363338041674e+02
2.113865050311068305e+00 4.181450400315219440e+02
2.113965072315909133e+00 4.182058043175123885e+02
2.114065094320750404e+00 4.182664287847070455e+02
2.114165116325591676e+00 4.183269130343179540e+02
2.114265138330432503e+00 4.183872566758244034e+02
2.114365160335273774e+00 4.184474593269599154e+02
2.114465182340114602e+00 4.185075206136975794e+02
2.114565204344955873e+00 4.185674401702358978e+02
2.114665226349796701e+00 4.186272176389838933e+02
2.114765248354637972e+00 4.186868526705466707e+02
2.114865270359478799e+00 4.187463449237109785e+02
2.114965292364320071e+00 4.188056940654283267e+02
2.115065314369161342e+00 4.188648997708002071e+02
2.115165336374002170e+00 4.189239617230616659e+02
2.115265358378843441e+00 4.189828796135654443e+02
2.115365380383684268e+00 4.190416531417657779e+02
2.115465402388525096e+00 4.191002820151996957e+02
2.115565424393366367e+00 4.191587659494717855e+02
2.115665446398207639e+00 4.192171046682378233e+02
2.115765468403048466e+00 4.192752979031820360e+02
2.115865490407889737e+00 4.193333453940056756e+02
2.115965512412731009e+00 4.193912468884046802e+02
2.116065534417571392e+00 4.194490021420510857e+02
2.116165556422412664e+00 4.195066109185771666e+02
2.116265578427253935e+00 4.195640729895534378e+02
2.116365600432094762e+00 4.196213881344702941e+02
2.116465622436936034e+00 4.196785561407197633e+02
2.116565644441777305e+00 4.197355768035730534e+02
2.116665666446618133e+00 4.197924499261628171e+02
2.116765688451458960e+00 4.198491753194612670e+02
2.116865710456300231e+00 4.199057528022603947e+02
2.116965732461141059e+00 4.199621822011499148e+02
2.117065754465982330e+00 4.200184633504977683e+02
2.117165776470823602e+00 4.200745960924268161e+02
2.117265798475664429e+00 4.201305802767949444e+02
2.117365820480505700e+00 4.201864157611715882e+02
2.117465842485346528e+00 4.202421024108163010e+02
2.117565864490187799e+00 4.202976400986564158e+02
2.117665886495028627e+00 4.203530287052627159e+02
2.117765908499869898e+00 4.204082681188294259e+02
2.117865930504710725e+00 4.204633582351477799e+02
2.117965952509551997e+00 4.205182989575854435e+02
2.118065974514393268e+00 4.205730901970601394e+02
2.118165996519234096e+00 4.206277318720174208e+02
2.118266018524074923e+00 4.206822239084048647e+02
2.118366040528916194e+00 4.207365662396501875e+02
2.118466062533757466e+00 4.207907588066335052e+02
2.118566084538598293e+00 4.208448015576645957e+02
2.118666106543439565e+00 4.208986944484563537e+02
2.118766128548280392e+00 4.209524374420996651e+02
2.118866150553121663e+00 4.210060305090388511e+02
2.118966172557962491e+00 4.210594736270433032e+02
2.119066194562803762e+00 4.211127667811842343e+02
2.119166216567644589e+00 4.211659099638054613e+02
2.119266238572485861e+00 4.212189031744987346e+02
2.119366260577327132e+00 4.212717464200763970e+02
2.119466282582167960e+00 4.213244397145439279e+02
2.119566304587008787e+00 4.213769830790727724e+02
2.119666326591850058e+00 4.214293765419728857e+02
2.119766348596691330e+00 4.214816201386648800e+02
2.119866370601532157e+00 4.215337139116514891e+02
2.119966392606373429e+00 4.215856579104909656e+02
2.120066414611214256e+00 4.216374521917670108e+02
2.120166436616055083e+00 4.216890968190598414e+02
2.120266458620896355e+00 4.217405918629194730e+02
2.120366480625737626e+00 4.217919374008342857e+02
2.120466502630578454e+00 4.218431335172028867e+02
2.120566524635419725e+00 4.218941803033043243e+02
2.120666546640260997e+00 4.219450778572687568e+02
2.120766568645101824e+00 4.219958262840455063e+02
2.120866590649942651e+00 4.220464256953767972e+02
2.120966612654783923e+00 4.220968762097631952e+02
2.121066634659624750e+00 4.221471779524358112e+02
2.121166656664466021e+00 4.221973310553237866e+02
2.121266678669307293e+00 4.222473356570247915e+02
2.121366700674148120e+00 4.222971919027723970e+02
2.121466722678989392e+00 4.223468999444060046e+02
2.121566744683830219e+00 4.223964599403378770e+02
2.121666766688671046e+00 4.224458720555232958e+02
2.121766788693512318e+00 4.224951364614259433e+02
2.121866810698353589e+00 4.225442533359876052e+02
2.121966832703194417e+00 4.225932228635961110e+02
2.122066854708035688e+00 4.226420452350514552e+02
2.122166876712876959e+00 4.226907206475322027e+02
2.122266898717717787e+00 4.227392493045666697e+02
2.122366920722558614e+00 4.227876314159944400e+02
2.122466942727399886e+00 4.228358671979369774e+02
2.122566964732240713e+00 4.228839568727624965e+02
2.122666986737081984e+00 4.229319006690527090e+02
2.122767008741923256e+00 4.229796988215683200e+02
2.122867030746764083e+00 4.230273515712161725e+02
2.122967052751604911e+00 4.230748591650135495e+02
2.123067074756446182e+00 4.231222218560558304e+02
2.123167096761287453e+00 4.231694399034790877e+02
2.123267118766128281e+00 4.232165135724284255e+02
2.123367140770969552e+00 4.232634431340202354e+02
2.123467162775810380e+00 4.233102288653101937e+02
2.123567184780651651e+00 4.233568710492550053e+02
2.123667206785492478e+00 4.234033699746782418e+02
2.123767228790333750e+00 4.234497259362360069e+02
2.123867250795174577e+00 4.234959392343790796e+02
2.123967272800015849e+00 4.235420101753186373e+02
2.124067294804857120e+00 4.235879390709894778e+02
2.124167316809697947e+00 4.236337262390134129e+02
2.124267338814539219e+00 4.236793720026641950e+02
2.124367360819380046e+00 4.237248766908296034e+02
2.124467382824221318e+00 4.237702406379764852e+02
2.124567404829062145e+00 4.238154641841121588e+02
2.124667426833903416e+00 4.238605476747477496e+02
2.124767448838744244e+00 4.239054914608624927e+02
2.124867470843585515e+00 4.239502958988656474e+02
2.124967492848426787e+00 4.239949613505581283e+02
2.125067514853267614e+00 4.240394881830968643e+02
2.125167536858108441e+00 4.240838767689555766e+02
2.125267558862949713e+00 4.241281274858881147e+02
2.125367580867790984e+00 4.241722407168891209e+02
2.125467602872631812e+00 4.242162168501580481e+02
2.125567624877473083e+00 4.242600562790581193e+02
2.125667646882313910e+00 4.243037594020814822e+02
2.125767668887154738e+00 4.243473266228073157e+02
2.125867690891996009e+00 4.243907583498661324e+02
2.125967712896837281e+00 4.244340549968986807e+02
2.126067734901678108e+00 4.244772169825183710e+02
2.126167756906519379e+00 4.245202447302728501e+02
2.126267778911360651e+00 4.245631386686040400e+02
2.126367800916201478e+00 4.246058992308082338e+02
2.126467822921042305e+00 4.246485268549987495e+02
2.126567844925883577e+00 4.246910219840647187e+02
2.126667866930724404e+00 4.247333850656335130e+02
2.126767888935565676e+00 4.247756165520284526e+02
2.126867910940406947e+00 4.248177169002313462e+02
2.126967932945247775e+00 4.248596865718412801e+02
2.127067954950089046e+00 4.249015260330355090e+02
2.127167976954929873e+00 4.249432357545294394e+02
2.127267998959770701e+00 4.249848162115351897e+02
2.127368020964611972e+00 4.250262678837228236e+02
2.127468042969453244e+00 4.250675912551793090e+02
2.127568064974294071e+00 4.251087868143681590e+02
2.127668086979135342e+00 4.251498550540886754e+02
2.127768108983976614e+00 4.251907964714357604e+02
2.127868130988817441e+00 4.252316115677583639e+02
2.127968152993658268e+00 4.252723008486198069e+02
2.128068174998499540e+00 4.253128648237566267e+02
2.128168197003340367e+00 4.253533040070357174e+02
2.128268219008181639e+00 4.253936189164168695e+02
2.128368241013022910e+00 4.254338100739080346e+02
2.128468263017863737e+00 4.254738780055256484e+02
2.128568285022704565e+00 4.255138232412538741e+02
2.128668307027545836e+00 4.255536463150024247e+02
2.128768329032387108e+00 4.255933477645649532e+02
2.128868351037227935e+00 4.256329281315781259e+02
2.128968373042069206e+00 4.256723879614797852e+02
2.129068395046910034e+00 4.257117278034668288e+02
2.129168417051751305e+00 4.257509482104538847e+02
2.129268439056592133e+00 4.257900497390320425e+02
2.129368461061433404e+00 4.258290329494256525e+02
2.129468483066274231e+00 4.258678984054521948e+02
2.129568505071115503e+00 4.259066466744778268e+02
2.129668527075956774e+00 4.259452783273779346e+02
2.129768549080797602e+00 4.259837939384935339e+02
2.129868571085638873e+00 4.260221940855890921e+02
2.129968593090479700e+00 4.260604793498114304e+02
2.130068615095320972e+00 4.260986503156458980e+02
2.130168637100161799e+00 4.261367075708754442e+02
2.130268659105003071e+00 4.261746517065374746e+02
2.130368681109843898e+00 4.262124833168819578e+02
2.130468703114685169e+00 4.262502029993279962e+02
2.130568725119526441e+00 4.262878113544235816e+02
2.130668747124367268e+00 4.263253089857993814e+02
2.130768769129208096e+00 4.263626965001305393e+02
2.130868791134049367e+00 4.263999745070904623e+02
2.130968813138890638e+00 4.264371436193104046e+02
2.131068835143731466e+00 4.264742044523356412e+02
2.131168857148572737e+00 4.265111576245834044e+02
2.131268879153413565e+00 4.265480037572999663e+02
2.131368901158254392e+00 4.265847434745180067e+02
2.131468923163095663e+00 4.266213774030135824e+02
2.131568945167936935e+00 4.266579061722629831e+02
2.131668967172777762e+00 4.266943304144020885e+02
2.131768989177619034e+00 4.267306507641803819e+02
2.131869011182460305e+00 4.267668678589200226e+02
2.131969033187301132e+00 4.268029823384730435e+02
2.132069055192141960e+00 4.268389948451770124e+02
2.132169077196983231e+00 4.268749060238141624e+02
2.132269099201824059e+00 4.269107165215675650e+02
2.132369121206665330e+00 4.269464269879774747e+02
2.132469143211506601e+00 4.269820380748994921e+02
2.132569165216347429e+00 4.270175504364613062e+02
2.132669187221188700e+00 4.270529647290201183e+02
2.132769209226029528e+00 4.270882816111183615e+02
2.132869231230870355e+00 4.271235017434426595e+02
2.132969253235711626e+00 4.271586257887801139e+02
2.133069275240552898e+00 4.271936544119750465e+02
2.133169297245393725e+00 4.272285882798860257e+02
2.133269319250234997e+00 4.272634280613442002e+02
2.133369341255076268e+00 4.272981744271094726e+02
2.133469363259917095e+00 4.273328280498271283e+02
2.133569385264757923e+00 4.273673896039854299e+02
2.133669407269599194e+00 4.274018597658742351e+02
2.133769429274440022e+00 4.274362392135398068e+02
2.133869451279281293e+00 4.274705286267436009e+02
2.133969473284122564e+00 4.275047286869182699e+02
2.134069495288963392e+00 4.275388400771267925e+02
2.134169517293804219e+00 4.275728634820175103e+02
2.134269539298645491e+00 4.276067995877829162e+02
2.134369561303486762e+00 4.276406490821164539e+02
2.134469583308327589e+00 4.276744126541701689e+02
2.134569605313168861e+00 4.277080909945120197e+02
2.134669627318009688e+00 4.277416847950826764e+02
2.134769649322850960e+00 4.277751947491534565e+02
2.134869671327691787e+00 4.278086215512840340e+02
2.134969693332533058e+00 4.278419658972799766e+02
2.135069715337373886e+00 4.278752284841497726e+02
2.135169737342215157e+00 4.279084100100625392e+02
2.135269759347056429e+00 4.279415111743065836e+02
2.135369781351897256e+00 4.279745326772458611e+02
2.135469803356738527e+00 4.280074752202784794e+02
2.135569825361579355e+00 4.280403395057940088e+02
2.135669847366420626e+00 4.280731262371320440e+02
2.135769869371261453e+00 4.281058361185391163e+02
2.135869891376102725e+00 4.281384698551280508e+02
2.135969913380943552e+00 4.281710281528343103e+02
2.136069935385784824e+00 4.282035117183750685e+02
2.136169957390625651e+00 4.282359212592074869e+02
2.136269979395466923e+00 4.282682574834861953e+02
2.136370001400307750e+00 4.283005211000218537e+02
2.136470023405149021e+00 4.283327128182403385e+02
2.136570045409990293e+00 4.283648333481386317e+02
2.136670067414831120e+00 4.283968834002470771e+02
2.136770089419672392e+00 4.284288636855839627e+02
2.136870111424513219e+00 4.284607749156170371e+02
2.136970133429354046e+00 4.284926178022200816e+02
2.137070155434195318e+00 4.285243930576337448e+02
2.137170177439036589e+00 4.285561013944227398e+02
2.137270199443877416e+00 4.285877435254341776e+02
2.137370221448718688e+00 4.286193201637597099e+02
2.137470243453559959e+00 4.286508320226904516e+02
2.137570265458400343e+00 4.286822798156791805e+02
2.137670287463241614e+00 4.287136642562984434e+02
2.137770309468082885e+00 4.287449860581998564e+02
2.137870331472923713e+00 4.287762459350722679e+02
2.137970353477764984e+00 4.288074446006052654e+02
2.138070375482606256e+00 4.288385827684434730e+02
2.138170397487447083e+00 4.288696611521497175e+02
2.138270419492287910e+00 4.289006804651641573e+02
2.138370441497129182e+00 4.289316414207626167e+02
2.138470463501970009e+00 4.289625447320192961e+02
2.138570485506811281e+00 4.289933911117638559e+02
2.138670507511652552e+00 4.290241812725440695e+02
2.138770529516493379e+00 4.290549159265844423e+02
2.138870551521334651e+00 4.290855957857459089e+02
2.138970573526175478e+00 4.291162215614905904e+02
2.139070595531016750e+00 4.291467939648354672e+02
2.139170617535857577e+00 4.291773137063196941e+02
2.139270639540698848e+00 4.292077814959611146e+02
2.139370661545539676e+00 4.292381980432189721e+02
2.139470683550380947e+00 4.292685640569548582e+02
2.139570705555222219e+00 4.292988802453925246e+02
2.139670727560063046e+00 4.293291473160809346e+02
2.139770749564903873e+00 4.293593659758549279e+02
2.139870771569745145e+00 4.293895369307956003e+02
2.139970793574586416e+00 4.294196608861932418e+02
