1.550041009021984717e+00 5.434388679826464568e+02
1.550141031026825766e+00 5.434207208878370921e+02
1.550241053031666816e+00 5.434024728999552281e+02
1.550341075036507865e+00 5.433841250614876799e+02
1.550441097041348915e+00 5.433656784097586296e+02
1.550541119046190186e+00 5.433471339768743746e+02
1.550641141051031235e+00 5.433284927896697809e+02
1.550741163055872063e+00 5.433097558696529177e+02
1.550841185060713112e+00 5.432909242329536710e+02
1.550941207065554384e+00 5.432719988902658770e+02
1.551041229070395433e+00 5.432529808467999146e+02
1.551141251075236482e+00 5.432338711022248390e+02
1.551241273080077532e+00 5.432146706506168812e+02
1.551341295084918581e+00 5.431953804804079482e+02
1.551441317089759409e+00 5.431760015743340091e+02
1.551541339094600680e+00 5.431565349093791610e+02
1.551641361099441729e+00 5.431369814567287904e+02
1.551741383104282779e+00 5.431173421817135250e+02
1.551841405109124050e+00 5.430976180437627363e+02
1.551941427113965100e+00 5.430778099963492878e+02
1.552041449118806149e+00 5.430579189869412176e+02
1.552141471123646976e+00 5.430379459569510345e+02
1.552241493128488026e+00 5.430178918416849001e+02
1.552341515133329075e+00 5.429977575702937429e+02
1.552441537138170347e+00 5.429775440657220997e+02
1.552541559143011396e+00 5.429572522446605944e+02
1.552641581147852445e+00 5.429368830174959157e+02
1.552741603152693717e+00 5.429164372882626139e+02
1.552841625157534544e+00 5.428959159545936473e+02
1.552941647162375594e+00 5.428753199076741112e+02
1.553041669167216643e+00 5.428546500321903068e+02
1.553141691172057692e+00 5.428339072062861987e+02
1.553241713176898742e+00 5.428130923015120288e+02
1.553341735181740013e+00 5.427922061827807738e+02
1.553441757186581063e+00 5.427712497083194876e+02
1.553541779191421890e+00 5.427502237296231442e+02
1.553641801196262939e+00 5.427291290914088222e+02
1.553741823201104211e+00 5.427079666315709119e+02
1.553841845205945260e+00 5.426867371811327985e+02
1.553941867210786310e+00 5.426654415642066169e+02
1.554041889215627359e+00 5.426440805979419792e+02
1.554141911220468408e+00 5.426226550924873209e+02
1.554241933225309236e+00 5.426011658509420386e+02
1.554341955230150507e+00 5.425796136693147673e+02
1.554441977234991557e+00 5.425579993364776783e+02
1.554541999239832606e+00 5.425363236341258926e+02
1.554642021244673877e+00 5.425145873367317790e+02
1.554742043249514927e+00 5.424927912115040272e+02
1.554842065254355976e+00 5.424709360183451281e+02
1.554942087259196803e+00 5.424490225098093106e+02
1.555042109264037853e+00 5.424270514310612725e+02
1.555142131268878902e+00 5.424050235198326391e+02
1.555242153273720174e+00 5.423829395063854690e+02
1.555342175278561223e+00 5.423608001134679171e+02
1.555442197283402272e+00 5.423386060562743296e+02
1.555542219288243544e+00 5.423163580424075008e+02
1.555642241293084371e+00 5.422940567718364946e+02
1.555742263297925421e+00 5.422717029368589010e+02
1.555842285302766470e+00 5.422492972220621823e+02
1.555942307307607519e+00 5.422268403042834279e+02
1.556042329312448569e+00 5.422043328525726338e+02
1.556142351317289840e+00 5.421817755281549580e+02
1.556242373322130890e+00 5.421591689843914992e+02
1.556342395326971717e+00 5.421365138667445081e+02
1.556442417331812766e+00 5.421138108127383930e+02
1.556542439336654038e+00 5.420910604519244771e+02
1.556642461341495087e+00 5.420682634058450731e+02
1.556742483346336137e+00 5.420454202879968761e+02
1.556842505351177186e+00 5.420225317037954937e+02
1.556942527356018235e+00 5.419995982505419079e+02
1.557042549360859063e+00 5.419766205173866638e+02
1.557142571365700334e+00 5.419535990852956502e+02
1.557242593370541384e+00 5.419305345270158796e+02
1.557342615375382433e+00 5.419074274070430874e+02
1.557442637380223704e+00 5.418842782815872852e+02
1.557542659385064754e+00 5.418610876985412688e+02
1.557642681389905803e+00 5.418378561974456034e+02
1.557742703394746631e+00 5.418145843094608836e+02
1.557842725399587680e+00 5.417912725573320358e+02
1.557942747404428729e+00 5.417679214553588736e+02
1.558042769409270001e+00 5.417445315093641511e+02
1.558142791414111050e+00 5.417211032166646874e+02
1.558242813418952100e+00 5.416976370660395332e+02
1.558342835423793371e+00 5.416741335377007545e+02
1.558442857428634198e+00 5.416505931032651233e+02
1.558542879433475248e+00 5.416270162257214906e+02
1.558642901438316297e+00 5.416034033594079347e+02
1.558742923443157347e+00 5.415797549499784509e+02
1.558842945447998396e+00 5.415560714343771451e+02
1.558942967452839667e+00 5.415323532408111760e+02
1.559042989457680717e+00 5.415086007887217647e+02
1.559143011462521544e+00 5.414848144887605486e+02
1.559243033467362594e+00 5.414609947427604766e+02
1.559343055472203865e+00 5.414371419437110262e+02
1.559443077477044914e+00 5.414132564757329646e+02
1.559543099481885964e+00 5.413893387140526556e+02
1.559643121486727013e+00 5.413653890249782989e+02
1.559743143491568063e+00 5.413414077658748056e+02
1.559843165496408890e+00 5.413173952851398099e+02
1.559943187501250161e+00 5.412933519221797951e+02
1.560043209506091211e+00 5.412692780073891754e+02
1.560143231510932260e+00 5.412451738621251707e+02
1.560243253515773532e+00 5.412210397986872294e+02
1.560343275520614581e+00 5.411968761202926999e+02
1.560443297525455408e+00 5.411726831210586397e+02
1.560543319530296458e+00 5.411484610859782833e+02
1.560643341535137507e+00 5.411242102909017149e+02
1.560743363539978557e+00 5.410999310025151772e+02
1.560843385544819828e+00 5.410756234783210630e+02
1.560943407549660877e+00 5.410512879666180197e+02
1.561043429554501927e+00 5.410269247064833280e+02
1.561143451559342754e+00 5.410025339277539160e+02
1.561243473564184026e+00 5.409781158510064643e+02
1.561343495569025075e+00 5.409536706875419441e+02
1.561443517573866124e+00 5.409291986393677689e+02
1.561543539578707174e+00 5.409046998991793771e+02
1.561643561583548223e+00 5.408801746503447703e+02
1.561743583588389495e+00 5.408556230668892795e+02
1.561843605593230322e+00 5.408310453134785121e+02
1.561943627598071371e+00 5.408064415454040272e+02
1.562043649602912421e+00 5.407818119085671924e+02
1.562143671607753692e+00 5.407571565394664503e+02
1.562243693612594742e+00 5.407324755651826536e+02
1.562343715617435791e+00 5.407077691033642850e+02
1.562443737622276840e+00 5.406830372622176810e+02
1.562543759627117668e+00 5.406582801404891825e+02
1.562643781631958717e+00 5.406334978274587684e+02
1.562743803636799989e+00 5.406086904029227753e+02
1.562843825641641038e+00 5.405838579371862807e+02
1.562943847646482087e+00 5.405590004910499147e+02
1.563043869651323359e+00 5.405341181158014479e+02
1.563143891656164408e+00 5.405092108532014663e+02
1.563243913661005235e+00 5.404842787354800748e+02
1.563343935665846285e+00 5.404593217853212082e+02
1.563443957670687334e+00 5.404343400158575150e+02
1.563543979675528384e+00 5.404093334306614906e+02
1.563644001680369655e+00 5.403843020237363817e+02
1.563744023685210704e+00 5.403592457795090240e+02
1.563844045690051754e+00 5.403341646728231353e+02
1.563944067694892581e+00 5.403090586689334032e+02
1.564044089699733853e+00 5.402839277234959354e+02
1.564144111704574902e+00 5.402587717825666687e+02
1.564244133709415951e+00 5.402335907825930690e+02
1.564344155714257001e+00 5.402083846504104940e+02
1.564444177719098050e+00 5.401831533032373045e+02
1.564544199723939322e+00 5.401578966486704303e+02
1.564644221728780149e+00 5.401326145846819600e+02
1.564744243733621198e+00 5.401073069996168670e+02
1.564844265738462248e+00 5.400819737721873253e+02
1.564944287743303519e+00 5.400566147714749832e+02
1.565044309748144569e+00 5.400312298569243694e+02
1.565144331752985618e+00 5.400058188783447122e+02
1.565244353757826667e+00 5.399803816759067558e+02
1.565344375762667495e+00 5.399549180801441253e+02
1.565444397767508544e+00 5.399294279119504836e+02
1.565544419772349816e+00 5.399039109825841933e+02
1.565644441777190865e+00 5.398783670936625185e+02
1.565744463782031914e+00 5.398527960371702648e+02
1.565844485786873186e+00 5.398271975954543223e+02
1.565944507791714235e+00 5.398015715412317377e+02
1.566044529796555063e+00 5.397759176375881225e+02
1.566144551801396112e+00 5.397502356379817456e+02
1.566244573806237161e+00 5.397245252862468305e+02
1.566344595811078211e+00 5.396987863165983299e+02
1.566444617815919482e+00 5.396730184536345405e+02
1.566544639820760532e+00 5.396472214123433560e+02
1.566644661825601581e+00 5.396213948981055637e+02
1.566744683830442408e+00 5.395955386067015525e+02
1.566844705835283680e+00 5.395696522243173376e+02
1.566944727840124729e+00 5.395437354275499047e+02
1.567044749844965779e+00 5.395177878834167586e+02
1.567144771849806828e+00 5.394918092493587665e+02
1.567244793854647877e+00 5.394657991732526625e+02
1.567344815859489149e+00 5.394397572934144591e+02
1.567444837864329976e+00 5.394136832386128617e+02
1.567544859869171026e+00 5.393875766280743846e+02
1.567644881874012075e+00 5.393614370714950610e+02
1.567744903878853346e+00 5.393352641690496512e+02
1.567844925883694396e+00 5.393090575114018748e+02
1.567944947888535445e+00 5.392828166797145286e+02
1.568044969893376495e+00 5.392565412456626746e+02
1.568144991898217322e+00 5.392302307714433027e+02
1.568245013903058371e+00 5.392038848097888604e+02
1.568345035907899643e+00 5.391775029039781657e+02
1.568445057912740692e+00 5.391510845878509599e+02
1.568545079917581742e+00 5.391246293858205263e+02
1.568645101922423013e+00 5.390981368128872191e+02
1.568745123927264062e+00 5.390716063746536975e+02
1.568845145932104890e+00 5.390450375673385679e+02
1.568945167936945939e+00 5.390184298777919594e+02
1.569045189941786989e+00 5.389917827835115531e+02
1.569145211946628038e+00 5.389650957526573620e+02
1.569245233951469309e+00 5.389383682440696930e+02
1.569345255956310359e+00 5.389115997072842674e+02
1.569445277961151408e+00 5.388847895825505248e+02
1.569545299965992236e+00 5.388579373008500397e+02
1.569645321970833507e+00 5.388310422839128933e+02
1.569745343975674556e+00 5.388041039442379088e+02
1.569845365980515606e+00 5.387771216851099325e+02
1.569945387985356655e+00 5.387500949006209794e+02
1.570045409990197705e+00 5.387230229756892186e+02
1.570145431995038976e+00 5.386959052860785278e+02
1.570245453999879803e+00 5.386687411984222535e+02
1.570345476004720853e+00 5.386415300702383320e+02
1.570445498009561902e+00 5.386142712499577101e+02
1.570545520014403174e+00 5.385869640769425359e+02
1.570645542019244223e+00 5.385596078815078727e+02
1.570745564024085272e+00 5.385322019849479602e+02
1.570845586028926322e+00 5.385047456995548600e+02
1.570945608033767149e+00 5.384772383286467630e+02
1.571045630038608198e+00 5.384496791665881119e+02
1.571145652043449470e+00 5.384220674988171140e+02
1.571245674048290519e+00 5.383944026018695013e+02
1.571345696053131569e+00 5.383666837434019499e+02
1.571445718057972840e+00 5.383389101822214116e+02
1.571545740062813890e+00 5.383110811683095562e+02
1.571645762067654717e+00 5.382831959428477830e+02
1.571745784072495766e+00 5.382552537382474611e+02
1.571845806077336816e+00 5.382272537781736901e+02
1.571945828082177865e+00 5.381991952775762229e+02
1.572045850087019137e+00 5.381710774427164097e+02
1.572145872091860186e+00 5.381428994711959604e+02
1.572245894096701235e+00 5.381146605519857076e+02
1.572345916101542063e+00 5.380863598654547104e+02
1.572445938106383334e+00 5.380579965834010636e+02
1.572545960111224383e+00 5.380295698690822519e+02
1.572645982116065433e+00 5.380010788772450496e+02
1.572746004120906482e+00 5.379725227541564436e+02
1.572846026125747532e+00 5.379439006376353518e+02
1.572946048130588803e+00 5.379152116570861608e+02
1.573046070135429630e+00 5.378864549335278298e+02
1.573146092140270680e+00 5.378576295796289060e+02
1.573246114145111729e+00 5.378287346997404939e+02
1.573346136149953001e+00 5.377997693899275191e+02
1.573446158154794050e+00 5.377707327380065863e+02
1.573546180159635099e+00 5.377416238235764467e+02
1.573646202164476149e+00 5.377124417180536966e+02
1.573746224169316976e+00 5.376831854847091563e+02
1.573846246174158026e+00 5.376538541787023178e+02
1.573946268178999297e+00 5.376244468471172695e+02
1.574046290183840346e+00 5.375949625289975984e+02
1.574146312188681396e+00 5.375654002553862938e+02
1.574246334193522667e+00 5.375357590493592852e+02
1.574346356198363717e+00 5.375060379260651189e+02
1.574446378203204544e+00 5.374762358927600872e+02
1.574546400208045593e+00 5.374463519488508609e+02
1.574646422212886643e+00 5.374163850859276863e+02
1.574746444217727692e+00 5.373863342878081539e+02
1.574846466222568964e+00 5.373561985305714188e+02
1.574946488227410013e+00 5.373259767826029929e+02
1.575046510232251062e+00 5.372956680046314659e+02
1.575146532237091890e+00 5.372652711497692053e+02
1.575246554241933161e+00 5.372347851635548750e+02
1.575346576246774211e+00 5.372042089839925438e+02
1.575446598251615260e+00 5.371735415415939769e+02
1.575546620256456309e+00 5.371427817594217231e+02
1.575646642261297359e+00 5.371119285531289052e+02
1.575746664266138630e+00 5.370809808310035578e+02
1.575846686270979458e+00 5.370499374940116013e+02
1.575946708275820507e+00 5.370187974358393603e+02
1.576046730280661556e+00 5.369875595429374471e+02
1.576146752285502828e+00 5.369562226945652128e+02
1.576246774290343877e+00 5.369247857628354268e+02
1.576346796295184927e+00 5.368932476127571363e+02
1.576446818300025976e+00 5.368616071022837559e+02
1.576546840304866803e+00 5.368298630823557005e+02
1.576646862309707853e+00 5.367980143969479059e+02
1.576746884314549124e+00 5.367660598831159859e+02
1.576846906319390174e+00 5.367339983710411389e+02
1.576946928324231223e+00 5.367018286840784640e+02
1.577046950329072494e+00 5.366695496388051652e+02
1.577146972333913544e+00 5.366371600450645474e+02
1.577246994338754371e+00 5.366046587060170623e+02
1.577347016343595421e+00 5.365720444181881703e+02
1.577447038348436470e+00 5.365393159715143838e+02
1.577547060353277519e+00 5.365064721493960178e+02
1.577647082358118791e+00 5.364735117287427784e+02
1.577747104362959840e+00 5.364404334800258312e+02
1.577847126367800668e+00 5.364072361673261184e+02
1.577947148372641717e+00 5.363739185483848360e+02
1.578047170377482988e+00 5.363404793746556152e+02
1.578147192382324038e+00 5.363069173913520444e+02
1.578247214387165087e+00 5.362732313375032618e+02
1.578347236392006137e+00 5.362394199459997708e+02
1.578447258396847186e+00 5.362054819436511934e+02
1.578547280401688013e+00 5.361714160512340186e+02
1.578647302406529285e+00 5.361372209835465128e+02
1.578747324411370334e+00 5.361028954494595382e+02
1.578847346416211384e+00 5.360684381519724866e+02
1.578947368421052655e+00 5.360338477882620509e+02
1.579047390425893704e+00 5.359991230497406605e+02
1.579147412430734754e+00 5.359642626221077535e+02
1.579247434435575581e+00 5.359292651854042333e+02
1.579347456440416630e+00 5.358941294140680611e+02
1.579447478445257680e+00 5.358588539769884846e+02
1.579547500450098951e+00 5.358234375375608352e+02
1.579647522454940001e+00 5.357878787537425751e+02
1.579747544459781050e+00 5.357521762781083225e+02
1.579847566464622322e+00 5.357163287579070357e+02
1.579947588469463149e+00 5.356803348351173781e+02
1.580047610474304198e+00 5.356441931465046764e+02
1.580147632479145248e+00 5.356079023236768535e+02
1.580247654483986297e+00 5.355714609931443420e+02
1.580347676488827346e+00 5.355348677763735168e+02
1.580447698493668618e+00 5.354981212898480862e+02
1.580547720498509667e+00 5.354612201451242299e+02
1.580647742503350495e+00 5.354241629488917624e+02
1.580747764508191544e+00 5.353869483030287029e+02
1.580847786513032815e+00 5.353495748046650533e+02
1.580947808517873865e+00 5.353120410462365726e+02
1.581047830522714914e+00 5.352743456155492368e+02
1.581147852527555964e+00 5.352364870958344909e+02
1.581247874532397013e+00 5.351984640658116632e+02
1.581347896537237840e+00 5.351602750997476505e+02
1.581447918542079112e+00 5.351219187675148987e+02
1.581547940546920161e+00 5.350833936346572273e+02
1.581647962551761211e+00 5.350446982624454222e+02
1.581747984556602482e+00 5.350058312079403322e+02
1.581848006561443531e+00 5.349667910240556239e+02
1.581948028566284581e+00 5.349275762596167851e+02
1.582048050571125408e+00 5.348881854594245624e+02
1.582148072575966458e+00 5.348486171643164653e+02
1.582248094580807507e+00 5.348088699112298627e+02
1.582348116585648778e+00 5.347689422332637150e+02
1.582448138590489828e+00 5.347288326597401920e+02
1.582548160595330877e+00 5.346885397162707250e+02
1.582648182600172149e+00 5.346480619248173980e+02
1.582748204605012976e+00 5.346073978037550205e+02
1.582848226609854025e+00 5.345665458679370659e+02
1.582948248614695075e+00 5.345255046287594496e+02
1.583048270619536124e+00 5.344842725942228299e+02
1.583148292624377174e+00 5.344428482689977500e+02
1.583248314629218445e+00 5.344012301544900083e+02
1.583348336634059494e+00 5.343594167489052325e+02
1.583448358638900322e+00 5.343174065473119754e+02
1.583548380643741371e+00 5.342751980417092454e+02
1.583648402648582643e+00 5.342327897210901710e+02
1.583748424653423692e+00 5.341901800715080526e+02
1.583848446658264741e+00 5.341473675761425284e+02
1.583948468663105791e+00 5.341043507153656265e+02
1.584048490667946840e+00 5.340611279668064526e+02
1.584148512672787668e+00 5.340176978054184929e+02
1.584248534677628939e+00 5.339740587035463477e+02
1.584348556682469988e+00 5.339302091309924663e+02
1.584448578687311038e+00 5.338861475550824025e+02
1.584548600692152309e+00 5.338418724407343916e+02
1.584648622696993359e+00 5.337973822505247199e+02
1.584748644701834408e+00 5.337526754447543453e+02
1.584848666706675235e+00 5.337077504815204065e+02
1.584948688711516285e+00 5.336626058167781821e+02
1.585048710716357334e+00 5.336172399044145322e+02
1.585148732721198606e+00 5.335716511963120183e+02
1.585248754726039655e+00 5.335258381424182517e+02
1.585348776730880704e+00 5.334797991908159247e+02
1.585448798735721976e+00 5.334335327877880673e+02
1.585548820740562803e+00 5.333870373778902376e+02
1.585648842745403853e+00 5.333403114040166884e+02
1.585748864750244902e+00 5.332933533074699426e+02
1.585848886755085951e+00 5.332461615280315073e+02
1.585948908759927001e+00 5.331987345040287209e+02
1.586048930764768272e+00 5.331510706724058082e+02
1.586148952769609322e+00 5.331031684687920915e+02
1.586248974774450149e+00 5.330550263275735006e+02
1.586348996779291198e+00 5.330066426819612388e+02
1.586449018784132470e+00 5.329580159640605643e+02
1.586549040788973519e+00 5.329091446049426395e+02
1.586649062793814569e+00 5.328600270347145624e+02
1.586749084798655618e+00 5.328106616825880337e+02
1.586849106803496667e+00 5.327610469769522297e+02
1.586949128808337495e+00 5.327111813454411049e+02
1.587049150813178766e+00 5.326610632150078573e+02
1.587149172818019816e+00 5.326106910119918894e+02
1.587249194822860865e+00 5.325600631621927050e+02
1.587349216827702136e+00 5.325091780909386898e+02
1.587449238832543186e+00 5.324580342231595296e+02
1.587549260837384235e+00 5.324066299834561278e+02
1.587649282842225062e+00 5.323549637961734788e+02
1.587749304847066112e+00 5.323030340854704718e+02
1.587849326851907161e+00 5.322508392753919679e+02
1.587949348856748433e+00 5.321983777899401957e+02
1.588049370861589482e+00 5.321456480531464877e+02
1.588149392866430532e+00 5.320926484891430164e+02
1.588249414871271803e+00 5.320393775222335080e+02
1.588349436876112630e+00 5.319858335769669111e+02
1.588449458880953680e+00 5.319320150782079963e+02
1.588549480885794729e+00 5.318779204512093202e+02
1.588649502890635778e+00 5.318235481216840981e+02
1.588749524895476828e+00 5.317688965158765768e+02
1.588849546900318099e+00 5.317139640606369539e+02
1.588949568905159149e+00 5.316587491834911816e+02
1.589049590909999976e+00 5.316032503127136124e+02
1.589149612914841025e+00 5.315474658774010095e+02
1.589249634919682297e+00 5.314913943075428051e+02
1.589349656924523346e+00 5.314350340340940875e+02
1.589449678929364396e+00 5.313783834890497246e+02
1.589549700934205445e+00 5.313214411055142818e+02
1.589649722939046494e+00 5.312642053177763728e+02
1.589749744943887322e+00 5.312066745613807370e+02
1.589849766948728593e+00 5.311488472732007722e+02
1.589949788953569643e+00 5.310907218915114072e+02
1.590049810958410692e+00 5.310322968560603840e+02
1.590149832963251963e+00 5.309735706081447688e+02
1.590249854968093013e+00 5.309145415906792778e+02
1.590349876972934062e+00 5.308552082482698324e+02
1.590449898977774890e+00 5.307955690272900711e+02
1.590549920982615939e+00 5.307356223759495606e+02
1.590649942987456988e+00 5.306753667443681479e+02
1.590749964992298260e+00 5.306148005846500837e+02
1.590849986997139309e+00 5.305539223509554176e+02
1.590950009001980359e+00 5.304927304995729855e+02
1.591050031006821630e+00 5.304312234889929414e+02
1.591150053011662457e+00 5.303693997799803128e+02
1.591250075016503507e+00 5.303072578356471922e+02
1.591350097021344556e+00 5.302447961215268606e+02
1.591450119026185606e+00 5.301820131056438186e+02
1.591550141031026655e+00 5.301189072585890472e+02
1.591650163035867926e+00 5.300554770535911757e+02
1.591750185040708976e+00 5.299917209665906057e+02
1.591850207045549803e+00 5.299276374763112472e+02
1.591950229050390853e+00 5.298632250643324824e+02
1.592050251055232124e+00 5.297984822151646540e+02
1.592150273060073173e+00 5.297334074163177320e+02
1.592250295064914223e+00 5.296679991583761193e+02
1.592350317069755272e+00 5.296022559350723213e+02
1.592450339074596322e+00 5.295361762433561807e+02
1.592550361079437149e+00 5.294697585834705933e+02
1.592650383084278420e+00 5.294030014590207429e+02
1.592750405089119470e+00 5.293359033770504993e+02
1.592850427093960519e+00 5.292684628481104028e+02
1.592950449098801791e+00 5.292006783863322426e+02
1.593050471103642840e+00 5.291325485095015893e+02
1.593150493108483889e+00 5.290640717391289627e+02
1.593250515113324717e+00 5.289952466005204315e+02
1.593350537118165766e+00 5.289260716228540105e+02
1.593450559123006816e+00 5.288565453392462814e+02
1.593550581127848087e+00 5.287866662868289040e+02
1.593650603132689136e+00 5.287164330068160325e+02
1.593750625137530186e+00 5.286458440445802580e+02
1.593850647142371457e+00 5.285748979497210485e+02
1.593950669147212285e+00 5.285035932761375079e+02
1.594050691152053334e+00 5.284319285821002268e+02
1.594150713156894383e+00 5.283599024303211991e+02
1.594250735161735433e+00 5.282875133880269232e+02
1.594350757166576482e+00 5.282147600270279781e+02
1.594450779171417754e+00 5.281416409237915559e+02
1.594550801176258803e+00 5.280681546595109239e+02
1.594650823181099630e+00 5.279942998201768205e+02
1.594750845185940680e+00 5.279200749966483954e+02
1.594850867190781951e+00 5.278454787847248326e+02
1.594950889195623001e+00 5.277705097852136760e+02
1.595050911200464050e+00 5.276951666040031341e+02
1.595150933205305099e+00 5.276194478521309748e+02
1.595250955210145927e+00 5.275433521458560335e+02
1.595350977214986976e+00 5.274668781067280179e+02
1.595450999219828248e+00 5.273900243616562875e+02
1.595551021224669297e+00 5.273127895429799992e+02
1.595651043229510346e+00 5.272351722885393883e+02
1.595751065234351618e+00 5.271571712417437539e+02
1.595851087239192667e+00 5.270787850516411481e+02
1.595951109244033495e+00 5.270000123729870438e+02
1.596051131248874544e+00 5.269208518663156156e+02
1.596151153253715593e+00 5.268413021980054509e+02
1.596251175258556643e+00 5.267613620403517416e+02
1.596351197263397914e+00 5.266810300716319944e+02
1.596451219268238964e+00 5.266003049761770853e+02
1.596551241273080013e+00 5.265191854444376531e+02
1.596651263277920840e+00 5.264376701730531067e+02
1.596751285282762112e+00 5.263557578649196103e+02
1.596851307287603161e+00 5.262734472292589771e+02
1.596951329292444210e+00 5.261907369816838127e+02
1.597051351297285260e+00 5.261076258442678864e+02
1.597151373302126309e+00 5.260241125456113878e+02
1.597251395306967581e+00 5.259401958209095937e+02
1.597351417311808408e+00 5.258558744120186930e+02
1.597451439316649457e+00 5.257711470675237706e+02
1.597551461321490507e+00 5.256860125428039510e+02
1.597651483326331778e+00 5.256004696001006096e+02
1.597751505331172828e+00 5.255145170085827431e+02
1.597851527336013877e+00 5.254281535444119982e+02
1.597951549340854926e+00 5.253413779908115657e+02
1.598051571345695754e+00 5.252541891381280266e+02
1.598151593350536803e+00 5.251665857838996772e+02
1.598251615355378075e+00 5.250785667329207627e+02
1.598351637360219124e+00 5.249901307973069606e+02
1.598451659365060173e+00 5.249012767965597277e+02
1.598551681369901445e+00 5.248120035576306464e+02
1.598651703374742494e+00 5.247223099149878180e+02
1.598751725379583322e+00 5.246321947106771404e+02
1.598851747384424371e+00 5.245416567943894961e+02
1.598951769389265420e+00 5.244506950235219165e+02
1.599051791394106470e+00 5.243593082632421556e+02
1.599151813398947741e+00 5.242674953865525822e+02
1.599251835403788791e+00 5.241752552743523665e+02
1.599351857408629840e+00 5.240825868155012586e+02
1.599451879413470667e+00 5.239894889068815473e+02
1.599551901418311939e+00 5.238959604534605887e+02
1.599651923423152988e+00 5.238020003683528785e+02
1.599751945427994038e+00 5.237076075728833757e+02
1.599851967432835087e+00 5.236127809966467339e+02
1.599951989437676136e+00 5.235175195775707380e+02
1.600052011442517408e+00 5.234218222619761036e+02
1.600152033447358235e+00 5.233256880046391188e+02
1.600252055452199285e+00 5.232291157688513294e+02
1.600352077457040334e+00 5.231321045264796794e+02
1.600452099461881605e+00 5.230346532580258554e+02
1.600552121466722655e+00 5.229367609526896103e+02
1.600652143471563704e+00 5.228384266084248111e+02
1.600752165476404754e+00 5.227396492320013976e+02
1.600852187481245581e+00 5.226404278390609761e+02
1.600952209486086630e+00 5.225407614541801422e+02
1.601052231490927902e+00 5.224406491109265289e+02
1.601152253495768951e+00 5.223400898519167868e+02
1.601252275500610001e+00 5.222390827288767241e+02
1.601352297505451272e+00 5.221376268026959906e+02
1.601452319510292321e+00 5.220357211434887859e+02
1.601552341515133149e+00 5.219333648306482019e+02
1.601652363519974198e+00 5.218305569529048853e+02
1.601752385524815248e+00 5.217272966083836536e+02
1.601852407529656297e+00 5.216235829046587469e+02
1.601952429534497568e+00 5.215194149588097616e+02
1.602052451539338618e+00 5.214147918974798586e+02
1.602152473544179667e+00 5.213097128569269216e+02
1.602252495549020495e+00 5.212041769830839257e+02
1.602352517553861766e+00 5.210981834316077084e+02
1.602452539558702815e+00 5.209917313679396784e+02
1.602552561563543865e+00 5.208848199673540194e+02
1.602652583568384914e+00 5.207774484150174885e+02
1.602752605573225964e+00 5.206696159060380751e+02
1.602852627578067235e+00 5.205613216455217298e+02
1.602952649582908062e+00 5.204525648486221598e+02
1.603052671587749112e+00 5.203433447405961942e+02
1.603152693592590161e+00 5.202336605568555115e+02
1.603252715597431433e+00 5.201235115430170026e+02
1.603352737602272482e+00 5.200128969549564317e+02
1.603452759607113531e+00 5.199018160588583441e+02
1.603552781611954581e+00 5.197902681312684763e+02
1.603652803616795408e+00 5.196782524591421861e+02
1.603752825621636457e+00 5.195657683398977724e+02
1.603852847626477729e+00 5.194528150814634273e+02
1.603952869631318778e+00 5.193393920023299870e+02
1.604052891636159828e+00 5.192254984315967477e+02
1.604152913641001099e+00 5.191111337090235338e+02
1.604252935645842149e+00 5.189962971850778786e+02
1.604352957650682976e+00 5.188809882209834541e+02
1.604452979655524025e+00 5.187652061887678201e+02
1.604553001660365075e+00 5.186489504713116503e+02
1.604653023665206124e+00 5.185322204623919333e+02
1.604753045670047396e+00 5.184150155667339277e+02
1.604853067674888445e+00 5.182973352000540217e+02
1.604953089679729494e+00 5.181791787891083914e+02
1.605053111684570322e+00 5.180605457717352920e+02
1.605153133689411593e+00 5.179414355969050803e+02
1.605253155694252643e+00 5.178218477247617102e+02
1.605353177699093692e+00 5.177017816266688897e+02
1.605453199703934741e+00 5.175812367852547595e+02
1.605553221708775791e+00 5.174602126944541851e+02
1.605653243713617062e+00 5.173387088595553678e+02
1.605753265718457889e+00 5.172167247972389532e+02
1.605853287723298939e+00 5.170942600356249841e+02
1.605953309728139988e+00 5.169713141143117809e+02
1.606053331732981260e+00 5.168478865844219854e+02
1.606153353737822309e+00 5.167239770086396220e+02
1.606253375742663358e+00 5.165995849612559141e+02
1.606353397747504408e+00 5.164747100282073689e+02
1.606453419752345235e+00 5.163493518071161361e+02
1.606553441757186285e+00 5.162235099073332094e+02
1.606653463762027556e+00 5.160971839499743510e+02
1.606753485766868605e+00 5.159703735679624970e+02
1.606853507771709655e+00 5.158430784060651604e+02
1.606953529776550926e+00 5.157152981209325162e+02
1.607053551781391976e+00 5.155870323811383287e+02
1.607153573786232803e+00 5.154582808672148531e+02
1.607253595791073852e+00 5.153290432716908072e+02
1.607353617795914902e+00 5.151993192991301385e+02
1.607453639800755951e+00 5.150691086661664713e+02
1.607553661805597223e+00 5.149384111015407370e+02
1.607653683810438272e+00 5.148072263461357352e+02
1.607753705815279321e+00 5.146755541530129676e+02
1.607853727820120149e+00 5.145433942874464037e+02
1.607953749824961420e+00 5.144107465269574959e+02
1.608053771829802470e+00 5.142776106613500815e+02
1.608153793834643519e+00 5.141439864927417602e+02
1.608253815839484568e+00 5.140098738356005015e+02
1.608353837844325618e+00 5.138752725167739754e+02
1.608453859849166889e+00 5.137401823755255919e+02
1.608553881854007717e+00 5.136046032635645133e+02
1.608653903858848766e+00 5.134685350450768055e+02
1.608753925863689815e+00 5.133319775967581791e+02
1.608853947868531087e+00 5.131949308078434342e+02
1.608953969873372136e+00 5.130573945801385207e+02
1.609053991878213186e+00 5.129193688280486185e+02
1.609154013883054235e+00 5.127808534786088330e+02
1.609254035887895062e+00 5.126418484715122759e+02
1.609354057892736112e+00 5.125023537591405329e+02
1.609454079897577383e+00 5.123623693065893576e+02
1.609554101902418433e+00 5.122218950916985705e+02
1.609654123907259482e+00 5.120809311050784345e+02
1.609754145912100753e+00 5.119394773501369400e+02
1.609854167916941803e+00 5.117975338431049863e+02
1.609954189921782630e+00 5.116551006130656560e+02
1.610054211926623680e+00 5.115121777019758156e+02
1.610154233931464729e+00 5.113687651646936843e+02
1.610254255936305778e+00 5.112248630690035611e+02
1.610354277941147050e+00 5.110804714956374255e+02
1.610454299945988099e+00 5.109355905383042682e+02
1.610554321950829149e+00 5.107902203037073150e+02
1.610654343955669976e+00 5.106443609115707432e+02
1.610754365960511247e+00 5.104980124946608839e+02
1.610854387965352297e+00 5.103511751988086189e+02
1.610954409970193346e+00 5.102038491829308100e+02
1.611054431975034396e+00 5.100560346190505925e+02
1.611154453979875445e+00 5.099077316923211924e+02
1.611254475984716716e+00 5.097589406010411039e+02
1.611354497989557544e+00 5.096096615566786454e+02
1.611454519994398593e+00 5.094598947838883305e+02
1.611554541999239643e+00 5.093096405205312749e+02
1.611654564004080914e+00 5.091588990176915104e+02
1.611754586008921963e+00 5.090076705396975854e+02
1.611854608013763013e+00 5.088559553641366051e+02
1.611954630018604062e+00 5.087037537818725923e+02
1.612054652023444890e+00 5.085510660970630283e+02
1.612154674028285939e+00 5.083978926271752243e+02
1.612254696033127210e+00 5.082442337030011572e+02
1.612354718037968260e+00 5.080900896686740680e+02
1.612454740042809309e+00 5.079354608816809673e+02
1.612554762047650581e+00 5.077803477128791769e+02
1.612654784052491408e+00 5.076247505465091763e+02
1.612754806057332457e+00 5.074686697802072217e+02
1.612854828062173507e+00 5.073121058250188753e+02
1.612954850067014556e+00 5.071550591054122492e+02
1.613054872071855605e+00 5.069975300592879535e+02
1.613154894076696877e+00 5.068395191379922835e+02
1.613254916081537926e+00 5.066810268063270541e+02
1.613354938086378754e+00 5.065220535425612525e+02
1.613454960091219803e+00 5.063625998384399054e+02
1.613554982096061075e+00 5.062026661991945389e+02
1.613655004100902124e+00 5.060422531435507949e+02
1.613755026105743173e+00 5.058813612037396297e+02
1.613855048110584223e+00 5.057199909255028842e+02
1.613955070115425272e+00 5.055581428681028910e+02
1.614055092120266099e+00 5.053958176043275898e+02
1.614155114125107371e+00 5.052330157205000205e+02
1.614255136129948420e+00 5.050697378164816200e+02
1.614355158134789470e+00 5.049059845056796121e+02
1.614455180139630741e+00 5.047417564150530893e+02
1.614555202144471791e+00 5.045770541851163671e+02
1.614655224149312840e+00 5.044118784699428488e+02
1.614755246154153667e+00 5.042462299371702557e+02
1.614855268158994717e+00 5.040801092680046054e+02
1.614955290163835766e+00 5.039135171572207810e+02
1.615055312168677037e+00 5.037464543131667938e+02
1.615155334173518087e+00 5.035789214577648067e+02
1.615255356178359136e+00 5.034109193265138060e+02
1.615355378183200408e+00 5.032424486684889757e+02
1.615455400188041235e+00 5.030735102463428348e+02
1.615555422192882284e+00 5.029041048363058621e+02
1.615655444197723334e+00 5.027342332281863833e+02
1.615755466202564383e+00 5.025638962253666477e+02
1.615855488207405433e+00 5.023930946448057853e+02
1.615955510212246704e+00 5.022218293170350307e+02
1.616055532217087753e+00 5.020501010861556210e+02
1.616155554221928581e+00 5.018779108098363508e+02
1.616255576226769630e+00 5.017052593593107304e+02
1.616355598231610902e+00 5.015321476193725516e+02
1.616455620236451951e+00 5.013585764883713978e+02
1.616555642241293000e+00 5.011845468782084936e+02
1.616655664246134050e+00 5.010100597143315326e+02
1.616755686250975099e+00 5.008351159357270035e+02
1.616855708255815927e+00 5.006597164949172907e+02
1.616955730260657198e+00 5.004838623579503860e+02
1.617055752265498247e+00 5.003075545043959096e+02
1.617155774270339297e+00 5.001307939273350485e+02
1.617255796275180568e+00 4.999535816333532239e+02
1.617355818280021618e+00 4.997759186425328153e+02
1.617455840284862667e+00 4.995978059884407685e+02
1.617555862289703494e+00 4.994192447181225134e+02
1.617655884294544544e+00 4.992402358920891174e+02
1.617755906299385593e+00 4.990607805843093274e+02
1.617855928304226865e+00 4.988808798821958135e+02
1.617955950309067914e+00 4.987005348865955057e+02
1.618055972313908963e+00 4.985197467117772590e+02
1.618155994318750235e+00 4.983385164854186655e+02
1.618256016323591062e+00 4.981568453485932082e+02
1.618356038328432112e+00 4.979747344557583233e+02
1.618456060333273161e+00 4.977921849747384613e+02
1.618556082338114210e+00 4.976091980867142865e+02
1.618656104342955260e+00 4.974257749862051696e+02
1.618756126347796531e+00 4.972419168810540668e+02
1.618856148352637581e+00 4.970576249924133663e+02
1.618956170357478408e+00 4.968729005547264137e+02
1.619056192362319457e+00 4.966877448157127901e+02
1.619156214367160729e+00 4.965021590363484165e+02
1.619256236372001778e+00 4.963161444908504905e+02
1.619356258376842828e+00 4.961297024666574771e+02
1.619456280381683877e+00 4.959428342644115446e+02
1.619556302386524926e+00 4.957555411979383280e+02
1.619656324391365754e+00 4.955678245942282842e+02
1.619756346396207025e+00 4.953796857934149784e+02
1.619856368401048075e+00 4.951911261487568368e+02
1.619956390405889124e+00 4.950021470266136134e+02
1.620056412410730395e+00 4.948127498064262113e+02
1.620156434415571445e+00 4.946229358806947403e+02
1.620256456420412494e+00 4.944327066549556093e+02
1.620356478425253322e+00 4.942420635477578230e+02
1.620456500430094371e+00 4.940510079906416081e+02
1.620556522434935420e+00 4.938595414281116973e+02
1.620656544439776692e+00 4.936676653176157856e+02
1.620756566444617741e+00 4.934753811295174160e+02
1.620856588449458791e+00 4.932826903470713091e+02
1.620956610454300062e+00 4.930895944663986370e+02
1.621056632459140889e+00 4.928960949964596239e+02
1.621156654463981939e+00 4.927021934590264323e+02
1.621256676468822988e+00 4.925078913886580949e+02
1.621356698473664038e+00 4.923131903326701604e+02
1.621456720478505087e+00 4.921180918511079199e+02
1.621556742483346358e+00 4.919225975167182696e+02
1.621656764488187408e+00 4.917267089149200956e+02
1.621756786493028235e+00 4.915304276437747149e+02
1.621856808497869284e+00 4.913337553139547254e+02
1.621956830502710556e+00 4.911366935487171759e+02
1.622056852507551605e+00 4.909392439838688915e+02
1.622156874512392655e+00 4.907414082677369151e+02
1.622256896517233704e+00 4.905431880611361066e+02
1.622356918522074753e+00 4.903445850373374242e+02
1.622456940526915581e+00 4.901456008820351826e+02
1.622556962531756852e+00 4.899462372933130609e+02
1.622656984536597902e+00 4.897464959816118721e+02
1.622757006541438951e+00 4.895463786696942066e+02
1.622857028546280223e+00 4.893458870926102122e+02
1.622957050551121272e+00 4.891450229976635455e+02
1.623057072555962321e+00 4.889437881443747642e+02
1.623157094560803149e+00 4.887421843044459138e+02
1.623257116565644198e+00 4.885402132617246025e+02
1.623357138570485247e+00 4.883378768121664280e+02
1.623457160575326519e+00 4.881351767637987109e+02
1.623557182580167568e+00 4.879321149366822397e+02
1.623657204585008618e+00 4.877286931628734692e+02
1.623757226589849889e+00 4.875249132863852992e+02
1.623857248594690716e+00 4.873207771631495007e+02
1.623957270599531766e+00 4.871162866609759021e+02
1.624057292604372815e+00 4.869114436595137931e+02
1.624157314609213865e+00 4.867062500502098032e+02
1.624257336614054914e+00 4.865007077362700443e+02
1.624357358618896185e+00 4.862948186326156588e+02
1.624457380623737235e+00 4.860885846658446212e+02
1.624557402628578062e+00 4.858820077741866044e+02
1.624657424633419112e+00 4.856750899074629046e+02
1.624757446638260383e+00 4.854678330270416495e+02
1.624857468643101432e+00 4.852602391057970976e+02
1.624957490647942482e+00 4.850523101280626861e+02
1.625057512652783531e+00 4.848440480895895348e+02
1.625157534657624581e+00 4.846354549975010855e+02
1.625257556662465408e+00 4.844265328702473425e+02
1.625357578667306679e+00 4.842172837375603649e+02
1.625457600672147729e+00 4.840077096404089048e+02
1.625557622676988778e+00 4.837978126309498634e+02
1.625657644681830050e+00 4.835875947724842945e+02
1.625757666686671099e+00 4.833770581394101669e+02
1.625857688691512148e+00 4.831662048171721153e+02
1.625957710696352976e+00 4.829550369022171026e+02
1.626057732701194025e+00 4.827435565019434875e+02
1.626157754706035075e+00 4.825317657346546412e+02
1.626257776710876346e+00 4.823196667295071052e+02
1.626357798715717395e+00 4.821072616264634121e+02
1.626457820720558445e+00 4.818945525762409261e+02
1.626557842725399716e+00 4.816815417402624462e+02
1.626657864730240544e+00 4.814682312906055017e+02
1.626757886735081593e+00 4.812546234099494313e+02
1.626857908739922642e+00 4.810407202915261564e+02
1.626957930744763692e+00 4.808265241390669189e+02
1.627057952749604741e+00 4.806120371667505538e+02
1.627157974754446013e+00 4.803972615991514203e+02
1.627257996759287062e+00 4.801821996711838665e+02
1.627358018764127889e+00 4.799668536280533431e+02
1.627458040768968939e+00 4.797512257251972869e+02
1.627558062773810210e+00 4.795353182282348143e+02
1.627658084778651260e+00 4.793191334129101051e+02
1.627758106783492309e+00 4.791026735650383443e+02
1.627858128788333358e+00 4.788859409804496750e+02
1.627958150793174408e+00 4.786689379649342868e+02
1.628058172798015235e+00 4.784516668341864261e+02
1.628158194802856507e+00 4.782341299137466422e+02
1.628258216807697556e+00 4.780163295389459108e+02
1.628358238812538605e+00 4.777982680548484495e+02
1.628458260817379877e+00 4.775799478161934530e+02
1.628558282822220926e+00 4.773613711873382499e+02
1.628658304827061976e+00 4.771425405421988444e+02
1.628758326831902803e+00 4.769234582641927886e+02
1.628858348836743852e+00 4.767041267461773941e+02
1.628958370841584902e+00 4.764845483903941954e+02
1.629058392846426173e+00 4.762647256084057403e+02
1.629158414851267223e+00 4.760446608210372119e+02
1.629258436856108272e+00 4.758243564583160605e+02
1.629358458860949543e+00 4.756038149594104425e+02
1.629458480865790371e+00 4.753830387725689661e+02
1.629558502870631420e+00 4.751620303550587892e+02
1.629658524875472470e+00 4.749407921731026363e+02
1.629758546880313519e+00 4.747193267018197389e+02
1.629858568885154568e+00 4.744976364251597261e+02
1.629958590889995840e+00 4.742757238358423137e+02
1.630058612894836667e+00 4.740535914352928444e+02
1.630158634899677716e+00 4.738312417335798727e+02
1.630258656904518766e+00 4.736086772493500803e+02
1.630358678909360037e+00 4.733859005097655199e+02
1.630458700914201087e+00 4.731629140504369389e+02
1.630558722919042136e+00 4.729397204153625580e+02
1.630658744923883186e+00 4.727163221568588369e+02
1.630758766928724013e+00 4.724927218354981733e+02
1.630858788933565062e+00 4.722689220200417139e+02
1.630958810938406334e+00 4.720449252873736441e+02
1.631058832943247383e+00 4.718207342224343961e+02
1.631158854948088432e+00 4.715963514181547680e+02
1.631258876952929704e+00 4.713717794753882231e+02
1.631358898957770753e+00 4.711470210028444399e+02
1.631458920962611581e+00 4.709220786170201904e+02
1.631558942967452630e+00 4.706969549421323222e+02
1.631658964972293679e+00 4.704716526100511373e+02
1.631758986977134729e+00 4.702461742602287700e+02
1.631859008981976000e+00 4.700205225396326796e+02
1.631959030986817050e+00 4.697947001026760177e+02
1.632059052991658099e+00 4.695687096111475398e+02
1.632159074996498926e+00 4.693425537341431095e+02
1.632259097001340198e+00 4.691162351479949848e+02
1.632359119006181247e+00 4.688897565362017303e+02
1.632459141011022297e+00 4.686631205893584706e+02
1.632559163015863346e+00 4.684363300050847556e+02
1.632659185020704395e+00 4.682093874879548139e+02
1.632759207025545667e+00 4.679822957494249067e+02
1.632859229030386494e+00 4.677550575077630128e+02
1.632959251035227544e+00 4.675276754879762393e+02
1.633059273040068593e+00 4.673001524217395399e+02
1.633159295044909864e+00 4.670724910473222167e+02
1.633259317049750914e+00 4.668446941095153306e+02
1.633359339054591963e+00 4.666167643595604773e+02
1.633459361059433013e+00 4.663887045550745256e+02
1.633559383064273840e+00 4.661605174599773704e+02
1.633659405069114889e+00 4.659322058444180925e+02
1.633759427073956161e+00 4.657037724847012896e+02
1.633859449078797210e+00 4.654752201632124411e+02
1.633959471083638260e+00 4.652465516683433862e+02
1.634059493088479531e+00 4.650177697944189958e+02
1.634159515093320580e+00 4.647888773416209460e+02
1.634259537098161408e+00 4.645598771159129683e+02
1.634359559103002457e+00 4.643307719289658735e+02
1.634459581107843507e+00 4.641015645980818931e+02
1.634559603112684556e+00 4.638722579461194755e+02
1.634659625117525827e+00 4.636428548014152966e+02
1.634759647122366877e+00 4.634133579977099657e+02
1.634859669127207926e+00 4.631837703740715142e+02
1.634959691132048754e+00 4.629540947748182020e+02
1.635059713136890025e+00 4.627243340494414952e+02
1.635159735141731074e+00 4.624944910525287014e+02
1.635259757146572124e+00 4.622645686436878236e+02
1.635359779151413173e+00 4.620345696874670693e+02
1.635459801156254223e+00 4.618044970532799880e+02
1.635559823161095494e+00 4.615743536153240711e+02
1.635659845165936321e+00 4.613441422525069129e+02
1.635759867170777371e+00 4.611138658483657196e+02
1.635859889175618420e+00 4.608835272909876153e+02
1.635959911180459692e+00 4.606531294729331876e+02
1.636059933185300741e+00 4.604226752911580434e+02
1.636159955190141790e+00 4.601921676469305567e+02
1.636259977194982840e+00 4.599616094457560962e+02
1.636359999199823667e+00 4.597310035972960236e+02
1.636460021204664717e+00 4.595003530152881694e+02
1.636560043209505988e+00 4.592696606174680483e+02
1.636660065214347037e+00 4.590389293254874019e+02
1.636760087219188087e+00 4.588081620648357557e+02
1.636860109224029358e+00 4.585773617647595870e+02
1.636960131228870408e+00 4.583465313581815508e+02
1.637060153233711235e+00 4.581156737816201598e+02
1.637160175238552284e+00 4.578847919751107156e+02
1.637260197243393334e+00 4.576538888821203273e+02
1.637360219248234383e+00 4.574229674494724804e+02
1.637460241253075655e+00 4.571920306272609764e+02
1.637560263257916704e+00 4.569610813687718291e+02
1.637660285262757753e+00 4.567301226304003308e+02
1.637760307267598581e+00 4.564991573715706181e+02
1.637860329272439852e+00 4.562681885546522267e+02
1.637960351277280902e+00 4.560372191448799413e+02
1.638060373282121951e+00 4.558062521102718279e+02
1.638160395286963000e+00 4.555752904215456169e+02
1.638260417291804050e+00 4.553443370520382700e+02
1.638360439296645321e+00 4.551133949776227610e+02
1.638460461301486148e+00 4.548824671766254824e+02
1.638560483306327198e+00 4.546515566297442206e+02
1.638660505311168247e+00 4.544206663199655623e+02
1.638760527316009519e+00 4.541897992324820734e+02
1.638860549320850568e+00 4.539589583546077733e+02
1.638960571325691618e+00 4.537281466756993495e+02
1.639060593330532667e+00 4.534973671870675389e+02
1.639160615335373494e+00 4.532666228818985701e+02
1.639260637340214544e+00 4.530359167551683868e+02
1.639360659345055815e+00 4.528052518035606226e+02
1.639460681349896864e+00 4.525746310253817910e+02
1.639560703354737914e+00 4.523440574204796576e+02
1.639660725359579185e+00 4.521135339901576344e+02
1.639760747364420235e+00 4.518830637370923569e+02
1.639860769369261062e+00 4.516526496652491574e+02
1.639960791374102111e+00 4.514222947797993015e+02
1.640060813378943161e+00 4.511920020870344388e+02
1.640160835383784210e+00 4.509617745942848046e+02
1.640260857388625482e+00 4.507316153098336144e+02
1.640360879393466531e+00 4.505015272428333901e+02
1.640460901398307580e+00 4.502715134032205242e+02
1.640560923403148408e+00 4.500415768016336528e+02
1.640660945407989679e+00 4.498117204493282770e+02
1.640760967412830729e+00 4.495819473580912700e+02
1.640860989417671778e+00 4.493522605401572605e+02
1.640961011422512827e+00 4.491226630081255280e+02
1.641061033427353877e+00 4.488931577748738846e+02
1.641161055432195148e+00 4.486637478534740353e+02
1.641261077437035976e+00 4.484344362571092688e+02
1.641361099441877025e+00 4.482052259989870322e+02
1.641461121446718074e+00 4.479761200922570765e+02
1.641561143451559346e+00 4.477471215499238042e+02
1.641661165456400395e+00 4.475182333847646987e+02
1.641761187461241445e+00 4.472894586092442069e+02
1.641861209466082494e+00 4.470608002354289283e+02
1.641961231470923321e+00 4.468322612749021800e+02
1.642061253475764371e+00 4.466038447386823691e+02
1.642161275480605642e+00 4.463755536371349990e+02
1.642261297485446692e+00 4.461473909798892237e+02
1.642361319490287741e+00 4.459193597757536054e+02
1.642461341495129012e+00 4.456914630326307361e+02
1.642561363499970062e+00 4.454637037574321994e+02
1.642661385504810889e+00 4.452360849559958069e+02
1.642761407509651939e+00 4.450086096329976044e+02
1.642861429514492988e+00 4.447812807918714952e+02
1.642961451519334037e+00 4.445541014347202804e+02
1.643061473524175309e+00 4.443270745622343725e+02
1.643161495529016358e+00 4.441002031736035747e+02
1.643261517533857408e+00 4.438734902664377842e+02
1.643361539538698235e+00 4.436469388366776911e+02
1.643461561543539506e+00 4.434205518785108779e+02
1.643561583548380556e+00 4.431943323842907603e+02
1.643661605553221605e+00 4.429682833444483663e+02
1.643761627558062655e+00 4.427424077474090609e+02
1.643861649562903704e+00 4.425167085795087587e+02
1.643961671567744975e+00 4.422911888249096819e+02
1.644061693572585803e+00 4.420658514655154931e+02
1.644161715577426852e+00 4.418406994808857462e+02
1.644261737582267902e+00 4.416157358481556798e+02
1.644361759587109173e+00 4.413909635419482811e+02
1.644461781591950222e+00 4.411663855342908391e+02
1.644561803596791272e+00 4.409420047945332044e+02
1.644661825601632321e+00 4.407178242892609887e+02
1.644761847606473149e+00 4.404938469822143929e+02
1.644861869611314198e+00 4.402700758342013501e+02
1.644961891616155469e+00 4.400465138030177172e+02
1.645061913620996519e+00 4.398231638433595094e+02
1.645161935625837568e+00 4.396000289067426365e+02
1.645261957630678840e+00 4.393771119414178656e+02
1.645361979635519889e+00 4.391544158922870906e+02
1.645462001640360716e+00 4.389319437008213072e+02
1.645562023645201766e+00 4.387096983049773371e+02
1.645662045650042815e+00 4.384876826391119380e+02
1.645762067654883865e+00 4.382658996339043256e+02
1.645862089659725136e+00 4.380443522162677255e+02
1.645962111664566185e+00 4.378230433092689964e+02
1.646062133669407235e+00 4.376019758320473443e+02
1.646162155674248062e+00 4.373811526997283181e+02
1.646262177679089334e+00 4.371605768233451386e+02
1.646362199683930383e+00 4.369402511097530919e+02
1.646462221688771432e+00 4.367201784615493807e+02
1.646562243693612482e+00 4.365003617769902462e+02
1.646662265698453531e+00 4.362808039499092843e+02
1.646762287703294803e+00 4.360615078696353635e+02
1.646862309708135630e+00 4.358424764209110549e+02
1.646962331712976679e+00 4.356237124838104933e+02
1.647062353717817729e+00 4.354052189336593983e+02
1.647162375722659000e+00 4.351869986409519697e+02
1.647262397727500050e+00 4.349690544712714200e+02
1.647362419732341099e+00 4.347513892852067556e+02
1.647462441737182148e+00 4.345340059382749587e+02
1.647562463742022976e+00 4.343169072808377678e+02
1.647662485746864025e+00 4.341000961580219837e+02
1.647762507751705296e+00 4.338835754096387518e+02
1.647862529756546346e+00 4.336673478701047202e+02
1.647962551761387395e+00 4.334514163683594461e+02
1.648062573766228667e+00 4.332357837277876342e+02
1.648162595771069494e+00 4.330204527661392149e+02
1.648262617775910543e+00 4.328054262954478872e+02
1.648362639780751593e+00 4.325907071219542104e+02
1.648462661785592642e+00 4.323762980460246013e+02
1.648562683790433692e+00 4.321622018620734025e+02
1.648662705795274963e+00 4.319484213584829035e+02
1.648762727800116012e+00 4.317349593175259770e+02
1.648862749804956840e+00 4.315218185152867818e+02
1.648962771809797889e+00 4.313090017215816374e+02
1.649062793814639161e+00 4.310965116998835356e+02
1.649162815819480210e+00 4.308843512072414796e+02
1.649262837824321259e+00 4.306725229942040869e+02
1.649362859829162309e+00 4.304610298047414290e+02
1.649462881834003358e+00 4.302498743761695437e+02
1.649562903838844186e+00 4.300390594390710817e+02
1.649662925843685457e+00 4.298285877172187384e+02
1.649762947848526506e+00 4.296184619275009027e+02
1.649862969853367556e+00 4.294086847798415647e+02
1.649962991858208827e+00 4.291992589771268740e+02
1.650063013863049877e+00 4.289901872151289126e+02
1.650163035867890926e+00 4.287814721824282742e+02
1.650263057872731753e+00 4.285731165603396562e+02
1.650363079877572803e+00 4.283651230228361442e+02
1.650463101882413852e+00 4.281574942364748608e+02
1.650563123887255124e+00 4.279502328603219325e+02
1.650663145892096173e+00 4.277433415458751824e+02
1.650763167896937222e+00 4.275368229369951223e+02
1.650863189901778494e+00 4.273306796698246899e+02
1.650963211906619321e+00 4.271249143727207525e+02
1.651063233911460371e+00 4.269195296661769135e+02
1.651163255916301420e+00 4.267145281627508666e+02
1.651263277921142469e+00 4.265099124669917501e+02
1.651363299925983519e+00 4.263056851753681258e+02
1.651463321930824790e+00 4.261018488761928324e+02
1.651563343935665840e+00 4.258984061495529545e+02
1.651663365940506667e+00 4.256953595672361530e+02
1.651763387945347716e+00 4.254927116926602366e+02
1.651863409950188988e+00 4.252904650807998905e+02
1.651963431955030037e+00 4.250886222781168158e+02
1.652063453959871087e+00 4.248871858224881066e+02
1.652163475964712136e+00 4.246861582431344004e+02
1.652263497969553185e+00 4.244855420605526319e+02
1.652363519974394013e+00 4.242853397864413978e+02
1.652463541979235284e+00 4.240855539236343930e+02
1.652563563984076334e+00 4.238861869660294133e+02
1.652663585988917383e+00 4.236872413985192338e+02
1.652763607993758654e+00 4.234887196969229421e+02
1.652863629998599704e+00 4.232906243279157366e+02
1.652963652003440753e+00 4.230929577489625899e+02
1.653063674008281581e+00 4.228957224082478206e+02
1.653163696013122630e+00 4.226989207446090404e+02
1.653263718017963679e+00 4.225025551874687153e+02
1.653363740022804951e+00 4.223066281567669193e+02
1.653463762027646000e+00 4.221111420628943165e+02
1.653563784032487050e+00 4.219160993066262790e+02
1.653663806037328321e+00 4.217215022790548460e+02
1.653763828042169148e+00 4.215273533615242627e+02
1.653863850047010198e+00 4.213336549255651562e+02
1.653963872051851247e+00 4.211404093328283693e+02
1.654063894056692297e+00 4.209476189350193636e+02
1.654163916061533346e+00 4.207552860738356344e+02
1.654263938066374617e+00 4.205634130809006024e+02
1.654363960071215667e+00 4.203720022776988117e+02
1.654463982076056494e+00 4.201810559755148802e+02
1.654564004080897544e+00 4.199905764753671633e+02
1.654664026085738815e+00 4.198005660679461357e+02
1.654764048090579864e+00 4.196110270335512951e+02
1.654864070095420914e+00 4.194219616420290890e+02
1.654964092100261963e+00 4.192333721527102171e+02
1.655064114105103013e+00 4.190452608143480120e+02
1.655164136109943840e+00 4.188576298650572767e+02
1.655264158114785111e+00 4.186704815322532909e+02
1.655364180119626161e+00 4.184838180325909889e+02
1.655464202124467210e+00 4.182976415719036254e+02
1.655564224129308482e+00 4.181119543451457048e+02
1.655664246134149531e+00 4.179267585363292596e+02
1.655764268138990580e+00 4.177420563184672346e+02
1.655864290143831408e+00 4.175578498535146537e+02
1.655964312148672457e+00 4.173741412923083089e+02
1.656064334153513506e+00 4.171909327745099745e+02
1.656164356158354778e+00 4.170082264285484825e+02
1.656264378163195827e+00 4.168260243715618003e+02
1.656364400168036877e+00 4.166443287093400158e+02
1.656464422172878148e+00 4.164631415362675284e+02
1.656564444177718975e+00 4.162824649352701272e+02
1.656664466182560025e+00 4.161023009777550783e+02
1.656764488187401074e+00 4.159226517235576921e+02
1.656864510192242124e+00 4.157435192208846502e+02
1.656964532197083173e+00 4.155649055062611410e+02
1.657064554201924444e+00 4.153868126044756082e+02
1.657164576206765494e+00 4.152092425285241006e+02
1.657264598211606321e+00 4.150321972795588295e+02
1.657364620216447371e+00 4.148556788468336549e+02
1.657464642221288642e+00 4.146796892076519043e+02
1.657564664226129691e+00 4.145042303273122570e+02
1.657664686230970741e+00 4.143293041590583812e+02
1.657764708235811790e+00 4.141549126440280020e+02
1.657864730240652840e+00 4.139810577111975363e+02
1.657964752245493667e+00 4.138077412773363335e+02
1.658064774250334938e+00 4.136349652469525608e+02
1.658164796255175988e+00 4.134627315122432947e+02
1.658264818260017037e+00 4.132910419530475679e+02
1.658364840264858309e+00 4.131198984367936191e+02
1.658464862269699358e+00 4.129493028184531340e+02
1.658564884274540407e+00 4.127792569404889491e+02
1.658664906279381235e+00 4.126097626328118508e+02
1.658764928284222284e+00 4.124408217127277680e+02
1.658864950289063334e+00 4.122724359848954805e+02
1.658964972293904605e+00 4.121046072412751755e+02
1.659064994298745654e+00 4.119373372610860997e+02
1.659165016303586704e+00 4.117706278107574462e+02
1.659265038308427975e+00 4.116044806438846422e+02
1.659365060313268803e+00 4.114388975011829075e+02
1.659465082318109852e+00 4.112738801104443382e+02
1.659565104322950901e+00 4.111094301864914655e+02
1.659665126327791951e+00 4.109455494311359303e+02
1.659765148332633000e+00 4.107822395331315875e+02
1.659865170337474272e+00 4.106195021681347725e+02
1.659965192342315321e+00 4.104573389986599636e+02
1.660065214347156148e+00 4.102957516740383994e+02
1.660165236351997198e+00 4.101347418303761287e+02
1.660265258356838469e+00 4.099743110905126287e+02
1.660365280361679519e+00 4.098144610639797634e+02
1.660465302366520568e+00 4.096551933469617666e+02
1.660565324371361617e+00 4.094965095222557920e+02
1.660665346376202667e+00 4.093384111592316117e+02
1.660765368381043494e+00 4.091808998137919957e+02
1.660865390385884766e+00 4.090239770283359917e+02
1.660965412390725815e+00 4.088676443317189069e+02
1.661065434395566864e+00 4.087119032392159284e+02
1.661165456400408136e+00 4.085567552524836401e+02
1.661265478405249185e+00 4.084022018595240979e+02
1.661365500410090235e+00 4.082482445346482791e+02
1.661465522414931062e+00 4.080948847384398732e+02
1.661565544419772111e+00 4.079421239177197549e+02
1.661665566424613161e+00 4.077899635055115368e+02
1.661765588429454432e+00 4.076384049210071794e+02
1.661865610434295482e+00 4.074874495695313499e+02
1.661965632439136531e+00 4.073370988425090786e+02
1.662065654443977802e+00 4.071873541174331876e+02
1.662165676448818630e+00 4.070382167578295594e+02
1.662265698453659679e+00 4.068896881132271801e+02
1.662365720458500729e+00 4.067417695191234657e+02
1.662465742463341778e+00 4.065944622969566922e+02
1.662565764468182827e+00 4.064477677540717764e+02
1.662665786473024099e+00 4.063016871836915129e+02
1.662765808477865148e+00 4.061562218648868452e+02
1.662865830482705976e+00 4.060113730625452035e+02
1.662965852487547025e+00 4.058671420273451531e+02
1.663065874492388296e+00 4.057235299957245616e+02
1.663165896497229346e+00 4.055805381898545079e+02
1.663265918502070395e+00 4.054381678176112587e+02
1.663365940506911445e+00 4.052964200725475052e+02
1.663465962511752494e+00 4.051552961338686032e+02
1.663565984516593321e+00 4.050147971664046622e+02
1.663666006521434593e+00 4.048749243205845687e+02
1.663766028526275642e+00 4.047356787324116567e+02
1.663866050531116692e+00 4.045970615234391516e+02
1.663966072535957963e+00 4.044590738007445339e+02
1.664066094540799012e+00 4.043217166569068581e+02
1.664166116545640062e+00 4.041849911699837890e+02
1.664266138550480889e+00 4.040488984034872146e+02
1.664366160555321938e+00 4.039134394063627269e+02
1.664466182560162988e+00 4.037786152129663719e+02
1.664566204565004259e+00 4.036444268430445277e+02
1.664666226569845309e+00 4.035108753017110530e+02
1.664766248574686358e+00 4.033779615794292113e+02
1.664866270579527630e+00 4.032456866519897858e+02
1.664966292584368457e+00 4.031140514804932877e+02
1.665066314589209506e+00 4.029830570113290946e+02
1.665166336594050556e+00 4.028527041761591931e+02
1.665266358598891605e+00 4.027229938918978860e+02
1.665366380603732654e+00 4.025939270606969558e+02
1.665466402608573926e+00 4.024655045699252014e+02
1.665566424613414753e+00 4.023377272921555914e+02
1.665666446618255803e+00 4.022105960851453119e+02
1.665766468623096852e+00 4.020841117918249665e+02
1.665866490627938123e+00 4.019582752402792494e+02
1.665966512632779173e+00 4.018330872437336438e+02
1.666066534637620222e+00 4.017085486005420307e+02
1.666166556642461272e+00 4.015846600941705447e+02
1.666266578647302099e+00 4.014614224931865465e+02
1.666366600652143148e+00 4.013388365512445830e+02
1.666466622656984420e+00 4.012169030070752456e+02
1.666566644661825469e+00 4.010956225844724941e+02
1.666666666666666519e+00 4.009749959922838798e+02
1.666766688671507790e+00 4.008550239243982105e+02
1.666866710676348839e+00 4.007357070597373649e+02
1.666966732681189667e+00 4.006170460622444125e+02
1.667066754686030716e+00 4.004990415808773605e+02
1.667166776690871766e+00 4.003816942495964213e+02
1.667266798695712815e+00 4.002650046873604310e+02
1.667366820700554086e+00 4.001489734981150832e+02
1.667466842705395136e+00 4.000336012707884947e+02
1.667566864710236185e+00 3.999188885792834185e+02
1.667666886715077013e+00 3.998048359824701379e+02
1.667766908719918284e+00 3.996914440241839657e+02
1.667866930724759333e+00 3.995787132332156375e+02
1.667966952729600383e+00 3.994666441233098908e+02
1.668066974734441432e+00 3.993552371931595530e+02
1.668166996739282482e+00 3.992444929264025291e+02
1.668267018744123753e+00 3.991344117916191294e+02
1.668367040748964580e+00 3.990249942423274092e+02
1.668467062753805630e+00 3.989162407169829407e+02
1.668567084758646679e+00 3.988081516389755166e+02
1.668667106763487951e+00 3.987007274166292063e+02
1.668767128768329000e+00 3.985939684432003105e+02
1.668867150773170049e+00 3.984878750968786107e+02
1.668967172778011099e+00 3.983824477407856079e+02
1.669067194782851926e+00 3.982776867229775917e+02
1.669167216787692976e+00 3.981735923764445033e+02
1.669267238792534247e+00 3.980701650191131193e+02
1.669367260797375296e+00 3.979674049538485860e+02
1.669467282802216346e+00 3.978653124684576596e+02
1.669567304807057617e+00 3.977638878356920031e+02
1.669667326811898667e+00 3.976631313132502328e+02
1.669767348816739494e+00 3.975630431437844550e+02
1.669867370821580543e+00 3.974636235549035064e+02
1.669967392826421593e+00 3.973648727591777288e+02
1.670067414831262642e+00 3.972667909541456766e+02
1.670167436836103914e+00 3.971693783223194032e+02
1.670267458840944963e+00 3.970726350311931014e+02
1.670367480845786012e+00 3.969765612332456612e+02
1.670467502850626840e+00 3.968811570659539711e+02
1.670567524855468111e+00 3.967864226517969541e+02
1.670667546860309161e+00 3.966923580982657995e+02
1.670767568865150210e+00 3.965989634978721483e+02
1.670867590869991259e+00 3.965062389281591777e+02
1.670967612874832309e+00 3.964141844517088202e+02
1.671067634879673580e+00 3.963228001161571115e+02
1.671167656884514408e+00 3.962320859541988511e+02
1.671267678889355457e+00 3.961420419836054521e+02
1.671367700894196506e+00 3.960526682072314202e+02
1.671467722899037778e+00 3.959639646130315214e+02
1.671567744903878827e+00 3.958759311740707290e+02
1.671667766908719877e+00 3.957885678485382073e+02
1.671767788913560926e+00 3.957018745797620340e+02
1.671867810918401753e+00 3.956158512962231271e+02
1.671967832923242803e+00 3.955304979115705919e+02
1.672067854928084074e+00 3.954458143246359327e+02
1.672167876932925124e+00 3.953618004194498781e+02
1.672267898937766173e+00 3.952784560652593200e+02
1.672367920942607444e+00 3.951957811165424346e+02
1.672467942947448494e+00 3.951137754130272128e+02
1.672567964952289321e+00 3.950324387797090822e+02
1.672667986957130370e+00 3.949517710268693804e+02
1.672768008961971420e+00 3.948717719500923522e+02
1.672868030966812469e+00 3.947924413302870335e+02
1.672968052971653741e+00 3.947137789337054414e+02
1.673068074976494790e+00 3.946357845119625267e+02
1.673168096981335840e+00 3.945584578020566937e+02
1.673268118986176667e+00 3.944817985263932201e+02
1.673368140991017938e+00 3.944058063928021056e+02
1.673468162995858988e+00 3.943304810945626855e+02
1.673568185000700037e+00 3.942558223104259696e+02
1.673668207005541086e+00 3.941818297046364705e+02
1.673768229010382136e+00 3.941085029269568736e+02
1.673868251015223407e+00 3.940358416126908878e+02
1.673968273020064235e+00 3.939638453827083708e+02
1.674068295024905284e+00 3.938925138434699988e+02
1.674168317029746333e+00 3.938218465870525620e+02
1.674268339034587605e+00 3.937518431911749985e+02
1.674368361039428654e+00 3.936825032192234062e+02
1.674468383044269704e+00 3.936138262202789520e+02
1.674568405049110753e+00 3.935458117291464646e+02
1.674668427053951580e+00 3.934784592663778540e+02
1.674768449058792630e+00 3.934117683383040571e+02
1.674868471063633901e+00 3.933457384370618684e+02
1.674968493068474951e+00 3.932803690406227020e+02
1.675068515073316000e+00 3.932156596128245951e+02
1.675168537078157271e+00 3.931516096033967642e+02
1.675268559082998321e+00 3.930882184479960983e+02
1.675368581087839148e+00 3.930254855682338189e+02
1.675468603092680198e+00 3.929634103717077664e+02
1.675568625097521247e+00 3.929019922520355976e+02
1.675668647102362296e+00 3.928412305888843434e+02
1.675768669107203568e+00 3.927811247480043448e+02
1.675868691112044617e+00 3.927216740812627336e+02
1.675968713116885667e+00 3.926628779266762308e+02
1.676068735121726494e+00 3.926047356084451962e+02
1.676168757126567765e+00 3.925472464369882459e+02
1.676268779131408815e+00 3.924904097089757329e+02
1.676368801136249864e+00 3.924342247073673207e+02
1.676468823141090914e+00 3.923786907014456347e+02
1.676568845145931963e+00 3.923238069468526987e+02
1.676668867150773234e+00 3.922695726856269971e+02
1.676768889155614062e+00 3.922159871462405931e+02
1.676868911160455111e+00 3.921630495436360775e+02
1.676968933165296161e+00 3.921107590792639712e+02
1.677068955170137432e+00 3.920591149411217771e+02
1.677168977174978481e+00 3.920081163037921783e+02
1.677268999179819531e+00 3.919577623284818628e+02
1.677369021184660580e+00 3.919080521630627345e+02
1.677469043189501408e+00 3.918589849421086910e+02
1.677569065194342457e+00 3.918105597869392795e+02
1.677669087199183728e+00 3.917627758056574976e+02
1.677769109204024778e+00 3.917156320931948130e+02
1.677869131208865827e+00 3.916691277313473734e+02
1.677969153213707099e+00 3.916232617888234131e+02
1.678069175218548148e+00 3.915780333212825894e+02
1.678169197223388975e+00 3.915334413713788990e+02
1.678269219228230025e+00 3.914894849688051863e+02
1.678369241233071074e+00 3.914461631303357194e+02
1.678469263237912124e+00 3.914034748598718352e+02
1.678569285242753395e+00 3.913614191484830940e+02
1.678669307247594444e+00 3.913199949744566766e+02
1.678769329252435494e+00 3.912792013033380272e+02
1.678869351257276321e+00 3.912390370879796251e+02
1.678969373262117593e+00 3.911995012685869142e+02
1.679069395266958642e+00 3.911605927727620724e+02
1.679169417271799691e+00 3.911223105155538633e+02
1.679269439276640741e+00 3.910846533995030541e+02
1.679369461281481790e+00 3.910476203146914713e+02
1.679469483286323062e+00 3.910112101387883285e+02
1.679569505291163889e+00 3.909754217370995093e+02
1.679669527296004938e+00 3.909402539626165094e+02
1.679769549300845988e+00 3.909057056560650381e+02
1.679869571305687259e+00 3.908717756459548127e+02
1.679969593310528309e+00 3.908384627486290128e+02
1.680069615315369358e+00 3.908057657683161779e+02
1.680169637320210407e+00 3.907736834971779558e+02
1.680269659325051235e+00 3.907422147153636161e+02
1.680369681329892284e+00 3.907113581910581388e+02
1.680469703334733556e+00 3.906811126805353638e+02
1.680569725339574605e+00 3.906514769282113662e+02
1.680669747344415654e+00 3.906224496666948198e+02
1.680769769349256926e+00 3.905940296168408850e+02
1.680869791354097975e+00 3.905662154878039587e+02
1.680969813358938802e+00 3.905390059770922448e+02
1.681069835363779852e+00 3.905123997706209593e+02
1.681169857368620901e+00 3.904863955427652513e+02
1.681269879373461951e+00 3.904609919564175016e+02
1.681369901378303222e+00 3.904361876630405277e+02
1.681469923383144272e+00 3.904119813027233477e+02
1.681569945387985321e+00 3.903883715042360336e+02
1.681669967392826148e+00 3.903653568850874080e+02
1.681769989397667420e+00 3.903429360515796702e+02
1.681870011402508469e+00 3.903211075988663197e+02
1.681970033407349518e+00 3.902998701110083175e+02
1.682070055412190568e+00 3.902792221610323509e+02
1.682170077417031617e+00 3.902591623109862553e+02
1.682270099421872889e+00 3.902396891120005762e+02
1.682370121426713716e+00 3.902208011043439342e+02
1.682470143431554765e+00 3.902024968174825972e+02
1.682570165436395815e+00 3.901847747701401090e+02
1.682670187441237086e+00 3.901676334703562361e+02
1.682770209446078136e+00 3.901510714155451751e+02
1.682870231450919185e+00 3.901350870925580807e+02
1.682970253455760012e+00 3.901196789777403637e+02
1.683070275460601062e+00 3.901048455369959242e+02
1.683170297465442111e+00 3.900905852258439381e+02
1.683270319470283383e+00 3.900768964894826354e+02
1.683370341475124432e+00 3.900637777628504068e+02
1.683470363479965481e+00 3.900512274706863991e+02
1.683570385484806753e+00 3.900392440275945773e+02
1.683670407489647580e+00 3.900278258381049454e+02
1.683770429494488630e+00 3.900169712967344822e+02
1.683870451499329679e+00 3.900066787880533639e+02
1.683970473504170728e+00 3.899969466867470373e+02
1.684070495509011778e+00 3.899877733576781225e+02
1.684170517513853049e+00 3.899791571559524641e+02
1.684270539518694099e+00 3.899710964269815463e+02
1.684370561523534926e+00 3.899635895065483737e+02
1.684470583528375975e+00 3.899566347208705110e+02
1.684570605533217247e+00 3.899502303866667603e+02
1.684670627538058296e+00 3.899443748112207686e+02
1.684770649542899346e+00 3.899390662924473645e+02
1.684870671547740395e+00 3.899343031189586100e+02
1.684970693552581444e+00 3.899300835701279198e+02
1.685070715557422272e+00 3.899264059161599221e+02
1.685170737562263543e+00 3.899232684181528725e+02
1.685270759567104593e+00 3.899206693281682874e+02
1.685370781571945642e+00 3.899186068892977914e+02
1.685470803576786913e+00 3.899170793357272373e+02
1.685570825581627963e+00 3.899160848928102041e+02
1.685670847586469012e+00 3.899156217771287629e+02
1.685770869591309840e+00 3.899156881965678281e+02
1.685870891596150889e+00 3.899162823503793334e+02
1.685970913600991938e+00 3.899174024292523200e+02
1.686070935605833210e+00 3.899190466153818875e+02
1.686170957610674259e+00 3.899212130825367240e+02
1.686270979615515309e+00 3.899238999961307286e+02
1.686371001620356580e+00 3.899271055132901438e+02
1.686471023625197407e+00 3.899308277829243821e+02
1.686571045630038457e+00 3.899350649457971940e+02
1.686671067634879506e+00 3.899398151345925498e+02
1.686771089639720556e+00 3.899450764739900706e+02
1.686871111644561605e+00 3.899508470807331832e+02
1.686971133649402876e+00 3.899571250636981858e+02
1.687071155654243926e+00 3.899639085239698488e+02
1.687171177659084753e+00 3.899711955549075810e+02
1.687271199663925803e+00 3.899789842422207471e+02
1.687371221668767074e+00 3.899872726640367091e+02
1.687471243673608123e+00 3.899960588909768830e+02
1.687571265678449173e+00 3.900053409862250078e+02
1.687671287683290222e+00 3.900151170056004730e+02
1.687771309688131272e+00 3.900253849976322158e+02
1.687871331692972099e+00 3.900361430036293200e+02
1.687971353697813370e+00 3.900473890577544580e+02
1.688071375702654420e+00 3.900591211870973893e+02
1.688171397707495469e+00 3.900713374117467538e+02
1.688271419712336741e+00 3.900840357448656164e+02
1.688371441717177790e+00 3.900972141927627490e+02
1.688471463722018839e+00 3.901108707549669248e+02
1.688571485726859667e+00 3.901250034243016671e+02
1.688671507731700716e+00 3.901396101869584072e+02
1.688771529736541765e+00 3.901546890225702100e+02
1.688871551741383037e+00 3.901702379042869779e+02
1.688971573746224086e+00 3.901862547988496885e+02
1.689071595751065136e+00 3.902027376666654845e+02
1.689171617755906407e+00 3.902196844618811724e+02
1.689271639760747235e+00 3.902370931324595631e+02
1.689371661765588284e+00 3.902549616202529137e+02
1.689471683770429333e+00 3.902732878610807461e+02
1.689571705775270383e+00 3.902920697848024361e+02
1.689671727780111432e+00 3.903113053153947476e+02
1.689771749784952704e+00 3.903309923710264684e+02
1.689871771789793753e+00 3.903511288641341253e+02
1.689971793794634580e+00 3.903717127014990638e+02
1.690071815799475630e+00 3.903927417843216858e+02
1.690171837804316901e+00 3.904142140082996093e+02
1.690271859809157950e+00 3.904361272637023603e+02
1.690371881813999000e+00 3.904584794354482824e+02
1.690471903818840049e+00 3.904812684031815024e+02
1.690571925823681099e+00 3.905044920413488967e+02
1.690671947828521926e+00 3.905281482192746694e+02
1.690771969833363197e+00 3.905522348012402176e+02
1.690871991838204247e+00 3.905767496465591080e+02
1.690972013843045296e+00 3.906016906096547245e+02
1.691072035847886568e+00 3.906270555401379170e+02
1.691172057852727617e+00 3.906528422828827161e+02
1.691272079857568666e+00 3.906790486781054597e+02
1.691372101862409494e+00 3.907056725614420998e+02
1.691472123867250543e+00 3.907327117640242022e+02
1.691572145872091593e+00 3.907601641125587548e+02
1.691672167876932864e+00 3.907880274294033143e+02
1.691772189881773913e+00 3.908162995326468945e+02
1.691872211886614963e+00 3.908449782361844882e+02
1.691972233891456234e+00 3.908740613497974437e+02
1.692072255896297062e+00 3.909035466792317379e+02
1.692172277901138111e+00 3.909334320262734082e+02
1.692272299905979160e+00 3.909637151888290418e+02
1.692372321910820210e+00 3.909943939610038228e+02
1.692472343915661259e+00 3.910254661331784973e+02
1.692572365920502531e+00 3.910569294920882726e+02
1.692672387925343580e+00 3.910887818209025681e+02
1.692772409930184407e+00 3.911210208993016408e+02
1.692872431935025457e+00 3.911536445035562224e+02
1.692972453939866728e+00 3.911866504066044854e+02
1.693072475944707778e+00 3.912200363781323063e+02
1.693172497949548827e+00 3.912538001846515385e+02
1.693272519954389876e+00 3.912879395895785137e+02
1.693372541959230926e+00 3.913224523533112347e+02
1.693472563964071753e+00 3.913573362333112300e+02
1.693572585968913025e+00 3.913925889841797812e+02
1.693672607973754074e+00 3.914282083577364233e+02
1.693772629978595123e+00 3.914641921031001175e+02
1.693872651983436395e+00 3.915005379667654211e+02
1.693972673988277444e+00 3.915372436926845694e+02
1.694072695993118494e+00 3.915743070223422251e+02
1.694172717997959321e+00 3.916117256948365934e+02
1.694272740002800370e+00 3.916494974469592307e+02
1.694372762007641420e+00 3.916876200132712142e+02
1.694472784012482691e+00 3.917260911261847127e+02
1.694572806017323741e+00 3.917649085160402365e+02
1.694672828022164790e+00 3.918040699111859908e+02
1.694772850027006061e+00 3.918435730380559789e+02
1.694872872031846889e+00 3.918834156212499806e+02
1.694972894036687938e+00 3.919235953836121666e+02
1.695072916041528988e+00 3.919641100463089742e+02
1.695172938046370037e+00 3.920049573289089722e+02
1.695272960051211086e+00 3.920461349494602814e+02
1.695372982056052358e+00 3.920876406245723160e+02
1.695473004060893407e+00 3.921294720694894522e+02
1.695573026065734235e+00 3.921716269981749861e+02
1.695673048070575284e+00 3.922141031233867920e+02
1.695773070075416555e+00 3.922568981567557103e+02
1.695873092080257605e+00 3.923000098088660934e+02
1.695973114085098654e+00 3.923434357893329434e+02
1.696073136089939704e+00 3.923871738068806394e+02
1.696173158094780753e+00 3.924312215694210408e+02
1.696273180099621580e+00 3.924755767841331817e+02
1.696373202104462852e+00 3.925202371575398956e+02
1.696473224109303901e+00 3.925652003955874534e+02
1.696573246114144951e+00 3.926104642037228132e+02
1.696673268118986222e+00 3.926560262869729740e+02
1.696773290123827271e+00 3.927018843500210323e+02
1.696873312128668321e+00 3.927480360972870130e+02
1.696973334133509148e+00 3.927944792330021642e+02
1.697073356138350197e+00 3.928412114612925734e+02
1.697173378143191247e+00 3.928882304862496539e+02
1.697273400148032518e+00 3.929355340120142159e+02
1.697373422152873568e+00 3.929831197428493965e+02
1.697473444157714617e+00 3.930309853832225144e+02
1.697573466162555889e+00 3.930791286378790801e+02
1.697673488167396716e+00 3.931275472119216943e+02
1.697773510172237765e+00 3.931762388108877531e+02
1.697873532177078815e+00 3.932252011408251633e+02
1.697973554181919864e+00 3.932744319083704454e+02
1.698073576186760913e+00 3.933239288208275184e+02
1.698173598191602185e+00 3.933736895862393226e+02
1.698273620196443234e+00 3.934237119134708678e+02
1.698373642201284062e+00 3.934739935122823340e+02
1.698473664206125111e+00 3.935245320934054689e+02
1.698573686210966383e+00 3.935753253686211792e+02
1.698673708215807432e+00 3.936263710508366103e+02
1.698773730220648481e+00 3.936776668541598951e+02
1.698873752225489531e+00 3.937292104939762112e+02
1.698973774230330580e+00 3.937809996870248597e+02
1.699073796235171407e+00 3.938330321514740149e+02
1.699173818240012679e+00 3.938853056069975764e+02
1.699273840244853728e+00 3.939378177748501457e+02
1.699373862249694778e+00 3.939905663779409792e+02
1.699473884254536049e+00 3.940435491409123188e+02
1.699573906259377098e+00 3.940967637902123215e+02
1.699673928264218148e+00 3.941502080541711734e+02
1.699773950269058975e+00 3.942038796630752699e+02
1.699873972273900025e+00 3.942577763492406007e+02
1.699973994278741074e+00 3.943118958470918756e+02
1.700074016283582345e+00 3.943662358932311918e+02
1.700174038288423395e+00 3.944207942265163638e+02
1.700274060293264444e+00 3.944755685881332283e+02
1.700374082298105272e+00 3.945305567216703935e+02
1.700474104302946543e+00 3.945857563731916571e+02
1.700574126307787592e+00 3.946411652913117223e+02
1.700674148312628642e+00 3.946967812272670812e+02
1.700774170317469691e+00 3.947526019349917306e+02
1.700874192322310741e+00 3.948086251711882255e+02
1.700974214327152012e+00 3.948648486954021450e+02
1.701074236331992839e+00 3.949212702700926911e+02
1.701174258336833889e+00 3.949778876607082339e+02
1.701274280341674938e+00 3.950346986357564560e+02
1.701374302346516210e+00 3.950917009668761466e+02
1.701474324351357259e+00 3.951488924289110400e+02
1.701574346356198308e+00 3.952062707999799613e+02
1.701674368361039358e+00 3.952638338615491875e+02
1.701774390365880185e+00 3.953215793985032178e+02
1.701874412370721235e+00 3.953795051992169078e+02
1.701974434375562506e+00 3.954376090556255576e+02
1.702074456380403555e+00 3.954958887632948290e+02
1.702174478385244605e+00 3.955543421214940167e+02
1.702274500390085876e+00 3.956129669332639196e+02
1.702374522394926926e+00 3.956717610054867009e+02
1.702474544399767753e+00 3.957307221489585345e+02
1.702574566404608802e+00 3.957898481784562819e+02
1.702674588409449852e+00 3.958491369128090582e+02
1.702774610414290901e+00 3.959085861749645687e+02
1.702874632419132173e+00 3.959681937920627774e+02
1.702974654423973222e+00 3.960279575954992310e+02
1.703074676428814271e+00 3.960878754209992394e+02
1.703174698433655099e+00 3.961479451086804602e+02
1.703274720438496370e+00 3.962081645031248058e+02
1.703374742443337420e+00 3.962685314534458030e+02
1.703474764448178469e+00 3.963290438133548719e+02
1.703574786453019518e+00 3.963896994412288564e+02
1.703674808457860568e+00 3.964504962001785771e+02
1.703774830462701839e+00 3.965114319581136328e+02
1.703874852467542667e+00 3.965725045878110677e+02
1.703974874472383716e+00 3.966337119669794902e+02
1.704074896477224765e+00 3.966950519783273421e+02
1.704174918482066037e+00 3.967565225096266204e+02
1.704274940486907086e+00 3.968181214537804067e+02
1.704374962491748136e+00 3.968798467088857365e+02
1.704474984496589185e+00 3.969416961783018678e+02
1.704575006501430012e+00 3.970036677707129229e+02
1.704675028506271062e+00 3.970657594001914390e+02
1.704775050511112333e+00 3.971279689862647047e+02
1.704875072515953383e+00 3.971902944539782538e+02
1.704975094520794432e+00 3.972527337339582800e+02
1.705075116525635703e+00 3.973152847624764945e+02
1.705175138530476753e+00 3.973779454815123700e+02
1.705275160535317580e+00 3.974407138388162934e+02
1.705375182540158630e+00 3.975035877879707300e+02
1.705475204544999679e+00 3.975665652884565588e+02
1.705575226549840728e+00 3.976296443057102010e+02
1.705675248554682000e+00 3.976928228111871704e+02
1.705775270559523049e+00 3.977560987824240897e+02
1.705875292564364099e+00 3.978194702030997405e+02
1.705975314569204926e+00 3.978829350630945783e+02
1.706075336574046197e+00 3.979464913585522936e+02
1.706175358578887247e+00 3.980101370919401234e+02
1.706275380583728296e+00 3.980738702721072855e+02
1.706375402588569345e+00 3.981376889143470521e+02
1.706475424593410395e+00 3.982015910404525130e+02
1.706575446598251666e+00 3.982655746787791600e+02
1.706675468603092494e+00 3.983296378643019580e+02
1.706775490607933543e+00 3.983937786386724156e+02
1.706875512612774592e+00 3.984579950502782140e+02
1.706975534617615864e+00 3.985222851543007891e+02
1.707075556622456913e+00 3.985866470127726302e+02
1.707175578627297963e+00 3.986510786946334406e+02
1.707275600632139012e+00 3.987155782757873794e+02
1.707375622636979839e+00 3.987801438391601323e+02
1.707475644641820889e+00 3.988447734747539926e+02
1.707575666646662160e+00 3.989094652797042500e+02
1.707675688651503210e+00 3.989742173583338172e+02
1.707775710656344259e+00 3.990390278222102438e+02
1.707875732661185531e+00 3.991038947901965912e+02
1.707975754666026580e+00 3.991688163885115159e+02
1.708075776670867407e+00 3.992337907507766772e+02
1.708175798675708457e+00 3.992988160180763089e+02
1.708275820680549506e+00 3.993638903390072414e+02
1.708375842685390555e+00 3.994290118697330172e+02
1.708475864690231827e+00 3.994941787740365271e+02
1.708575886695072876e+00 3.995593892233715678e+02
1.708675908699913926e+00 3.996246413969165587e+02
1.708775930704754753e+00 3.996899334816238252e+02
1.708875952709596024e+00 3.997552636722732586e+02
1.708975974714437074e+00 3.998206301715217137e+02
1.709075996719278123e+00 3.998860311899542239e+02
1.709176018724119173e+00 3.999514649461335694e+02
1.709276040728960222e+00 4.000169296666499577e+02
1.709376062733801493e+00 4.000824235861730358e+02
1.709476084738642321e+00 4.001479449474968533e+02
1.709576106743483370e+00 4.002134920015930106e+02
1.709676128748324420e+00 4.002790630076555090e+02
1.709776150753165691e+00 4.003446562331491805e+02
1.709876172758006740e+00 4.004102699538614161e+02
1.709976194762847790e+00 4.004759024539433199e+02
1.710076216767688839e+00 4.005415520259609821e+02
1.710176238772529667e+00 4.006072169709405557e+02
1.710276260777370716e+00 4.006728955984151526e+02
1.710376282782211987e+00 4.007385862264679872e+02
1.710476304787053037e+00 4.008042871817825130e+02
1.710576326791894086e+00 4.008699967996824398e+02
1.710676348796735358e+00 4.009357134241801077e+02
1.710776370801576407e+00 4.010014354080190060e+02
1.710876392806417234e+00 4.010671611127171445e+02
1.710976414811258284e+00 4.011328889086127560e+02
1.711076436816099333e+00 4.011986171749044274e+02
1.711176458820940383e+00 4.012643442996967451e+02
1.711276480825781654e+00 4.013300686800404264e+02
1.711376502830622703e+00 4.013957887219753502e+02
1.711476524835463753e+00 4.014615028405715975e+02
1.711576546840304580e+00 4.015272094599711750e+02
1.711676568845145852e+00 4.015929070134277481e+02
1.711776590849986901e+00 4.016585939433480803e+02
1.711876612854827950e+00 4.017242687013318800e+02
1.711976634859669000e+00 4.017899297482102838e+02
1.712076656864510049e+00 4.018555755540857604e+02
1.712176678869351321e+00 4.019212045983716166e+02
1.712276700874192148e+00 4.019868153698287188e+02
1.712376722879033197e+00 4.020524063666044299e+02
1.712476744883874247e+00 4.021179760962702403e+02
1.712576766888715518e+00 4.021835230758584885e+02
1.712676788893556568e+00 4.022490458318990818e+02
1.712776810898397617e+00 4.023145429004561038e+02
1.712876832903238666e+00 4.023800128271635117e+02
1.712976854908079494e+00 4.024454541672613459e+02
1.713076876912920543e+00 4.025108654856289263e+02
1.713176898917761815e+00 4.025762453568211185e+02
1.713276920922602864e+00 4.026415923651030084e+02
1.713376942927443913e+00 4.027069051044820753e+02
1.713476964932285185e+00 4.027721821787428098e+02
1.713576986937126234e+00 4.028374222014792281e+02
1.713677008941967062e+00 4.029026237961278980e+02
1.713777030946808111e+00 4.029677855959993167e+02
1.713877052951649160e+00 4.030329062443106523e+02
1.713977074956490210e+00 4.030979843942164962e+02
1.714077096961331481e+00 4.031630187088400135e+02
1.714177118966172531e+00 4.032280078613021033e+02
1.714277140971013580e+00 4.032929505347537429e+02
1.714377162975854407e+00 4.033578454224045231e+02
1.714477184980695679e+00 4.034226912275514110e+02
1.714577206985536728e+00 4.034874866636080810e+02
1.714677228990377778e+00 4.035522304541326548e+02
1.714777250995218827e+00 4.036169213328565775e+02
1.714877273000059876e+00 4.036815580437115045e+02
1.714977295004901148e+00 4.037461393408567574e+02
1.715077317009741975e+00 4.038106639887047891e+02
1.715177339014583024e+00 4.038751307619495492e+02
1.715277361019424074e+00 4.039395384455900739e+02
1.715377383024265345e+00 4.040038858349569750e+02
1.715477405029106395e+00 4.040681717357368825e+02
1.715577427033947444e+00 4.041323949639977400e+02
1.715677449038788493e+00 4.041965543462122241e+02
1.715777471043629321e+00 4.042606487192806526e+02
1.715877493048470370e+00 4.043246769305551993e+02
1.715977515053311642e+00 4.043886378378630866e+02
1.716077537058152691e+00 4.044525303095271056e+02
1.716177559062993740e+00 4.045163532243889790e+02
1.716277581067835012e+00 4.045801054718300520e+02
1.716377603072676061e+00 4.046437859517928928e+02
1.716477625077516889e+00 4.047073935748009603e+02
1.716577647082357938e+00 4.047709272619792387e+02
1.716677669087198987e+00 4.048343859450748710e+02
1.716777691092040037e+00 4.048977685664738146e+02
1.716877713096881308e+00 4.049610740792226125e+02
1.716977735101722358e+00 4.050243014470440244e+02
1.717077757106563407e+00 4.050874496443573776e+02
1.717177779111404234e+00 4.051505176562940278e+02
1.717277801116245506e+00 4.052135044787160041e+02
1.717377823121086555e+00 4.052764091182309016e+02
1.717477845125927605e+00 4.053392305922101286e+02
1.717577867130768654e+00 4.054019679288021507e+02
1.717677889135609703e+00 4.054646201669496577e+02
1.717777911140450531e+00 4.055271863564033197e+02
1.717877933145291802e+00 4.055896655577369643e+02
1.717977955150132852e+00 4.056520568423607074e+02
1.718077977154973901e+00 4.057143592925349367e+02
1.718177999159815172e+00 4.057765720013829309e+02
1.718278021164656222e+00 4.058386940729039907e+02
1.718378043169497271e+00 4.059007246219845229e+02
1.718478065174338099e+00 4.059626627744115694e+02
1.718578087179179148e+00 4.060245076668819593e+02
1.718678109184020197e+00 4.060862584470144157e+02
1.718778131188861469e+00 4.061479142733599019e+02
1.718878153193702518e+00 4.062094743154107164e+02
1.718978175198543568e+00 4.062709377536110082e+02
1.719078197203384839e+00 4.063323037793641674e+02
1.719178219208225666e+00 4.063935715950436816e+02
1.719278241213066716e+00 4.064547404139986497e+02
1.719378263217907765e+00 4.065158094605649239e+02
1.719478285222748815e+00 4.065767779700685196e+02
1.719578307227589864e+00 4.066376451888341990e+02
1.719678329232431135e+00 4.066984103741924628e+02
1.719778351237272185e+00 4.067590727944847231e+02
1.719878373242113012e+00 4.068196317290679076e+02
1.719978395246954062e+00 4.068800864683217355e+02
1.720078417251795333e+00 4.069404363136501956e+02
1.720178439256636382e+00 4.070006805774883674e+02
1.720278461261477432e+00 4.070608185833054335e+02
1.720378483266318481e+00 4.071208496656065563e+02
1.720478505271159531e+00 4.071807731699367423e+02
1.720578527276000358e+00 4.072405884528833440e+02
1.720678549280841629e+00 4.073002948820783331e+02
1.720778571285682679e+00 4.073598918361973347e+02
1.720878593290523728e+00 4.074193787049636057e+02
1.720978615295365000e+00 4.074787548891473534e+02
1.721078637300206049e+00 4.075380198005656780e+02
1.721178659305047098e+00 4.075971728620817203e+02
1.721278681309887926e+00 4.076562135076056848e+02
1.721378703314728975e+00 4.077151411820917701e+02
1.721478725319570025e+00 4.077739553415377145e+02
1.721578747324411296e+00 4.078326554529811574e+02
1.721678769329252345e+00 4.078912409945003219e+02
1.721778791334093395e+00 4.079497114552069661e+02
1.721878813338934666e+00 4.080080663352448482e+02
1.721978835343775494e+00 4.080663051457871688e+02
1.722078857348616543e+00 4.081244274090312274e+02
1.722178879353457592e+00 4.081824326581918854e+02
1.722278901358298642e+00 4.082403204374986103e+02
1.722378923363139691e+00 4.082980903021897348e+02
1.722478945367980963e+00 4.083557418185053507e+02
1.722578967372822012e+00 4.084132745636817958e+02
1.722678989377662839e+00 4.084706881259440934e+02
1.722779011382503889e+00 4.085279821044981645e+02
1.722879033387345160e+00 4.085851561095251441e+02
1.722979055392186210e+00 4.086422097621700686e+02
1.723079077397027259e+00 4.086991426945362491e+02
1.723179099401868308e+00 4.087559545496732767e+02
1.723279121406709358e+00 4.088126449815696901e+02
1.723379143411550185e+00 4.088692136551430849e+02
1.723479165416391456e+00 4.089256602462272667e+02
1.723579187421232506e+00 4.089819844415643502e+02
1.723679209426073555e+00 4.090381859387912300e+02
1.723779231430914827e+00 4.090942644464298041e+02
1.723879253435755876e+00 4.091502196838731606e+02
1.723979275440596926e+00 4.092060513813747207e+02
1.724079297445437753e+00 4.092617592800335160e+02
1.724179319450278802e+00 4.093173431317817403e+02
1.724279341455119852e+00 4.093728026993714479e+02
1.724379363459961123e+00 4.094281377563592628e+02
1.724479385464802172e+00 4.094833480870923381e+02
1.724579407469643222e+00 4.095384334866923268e+02
1.724679429474484493e+00 4.095933937610413977e+02
1.724779451479325321e+00 4.096482287267660354e+02
1.724879473484166370e+00 4.097029382112193616e+02
1.724979495489007419e+00 4.097575220524652195e+02
1.725079517493848469e+00 4.098119800992611772e+02
1.725179539498689518e+00 4.098663122110405084e+02
1.725279561503530790e+00 4.099205182578950257e+02
1.725379583508371839e+00 4.099745981205548446e+02
1.725479605513212666e+00 4.100285516903719554e+02
1.725579627518053716e+00 4.100823788692989638e+02
1.725679649522894987e+00 4.101360795698701622e+02
1.725779671527736037e+00 4.101896537151815778e+02
1.725879693532577086e+00 4.102431012388705653e+02
1.725979715537418135e+00 4.102964220850938091e+02
1.726079737542259185e+00 4.103496162085081096e+02
1.726179759547100012e+00 4.104026835742463390e+02
1.726279781551941284e+00 4.104556241578973754e+02
1.726379803556782333e+00 4.105084379454817736e+02
1.726479825561623382e+00 4.105611249334299941e+02
1.726579847566464654e+00 4.106136851285589842e+02
1.726679869571305703e+00 4.106661185480476206e+02
1.726779891576146753e+00 4.107184252194134615e+02
1.726879913580987580e+00 4.107706051804894969e+02
1.726979935585828629e+00 4.108226584793939651e+02
1.727079957590669679e+00 4.108745851745126174e+02
1.727179979595510950e+00 4.109263853344670565e+02
1.727280001600352000e+00 4.109780590380907483e+02
1.727380023605193049e+00 4.110296063744027606e+02
1.727480045610034320e+00 4.110810274425810462e+02
1.727580067614875148e+00 4.111323223519342491e+02
1.727680089619716197e+00 4.111834912218744194e+02
1.727780111624557247e+00 4.112345341818883071e+02
1.727880133629398296e+00 4.112854513715116695e+02
1.727980155634239345e+00 4.113362429402964722e+02
1.728080177639080617e+00 4.113869090477843997e+02
1.728180199643921666e+00 4.114374498634762745e+02
1.728280221648762494e+00 4.114878655668024976e+02
1.728380243653603543e+00 4.115381563470930359e+02
1.728480265658444814e+00 4.115883224035453622e+02
1.728580287663285864e+00 4.116383639451939302e+02
1.728680309668126913e+00 4.116882811908805024e+02
1.728780331672967963e+00 4.117380743692192482e+02
1.728880353677809012e+00 4.117877437185669578e+02
1.728980375682649839e+00 4.118372894869891638e+02
1.729080397687491111e+00 4.118867119322278540e+02
1.729180419692332160e+00 4.119360113216676496e+02
1.729280441697173210e+00 4.119851879323031767e+02
1.729380463702014481e+00 4.120342420507033694e+02
1.729480485706855530e+00 4.120831739729785568e+02
1.729580507711696580e+00 4.121319840047441403e+02
1.729680529716537407e+00 4.121806724610879655e+02
1.729780551721378457e+00 4.122292396665323508e+02
1.729880573726219506e+00 4.122776859549995265e+02
1.729980595731060777e+00 4.123260116697749709e+02
1.730080617735901827e+00 4.123742171634714850e+02
1.730180639740742876e+00 4.124223027979921881e+02
1.730280661745584148e+00 4.124702689444922044e+02
1.730380683750424975e+00 4.125181159833423408e+02
1.730480705755266024e+00 4.125658443040904899e+02
1.730580727760107074e+00 4.126134543054249093e+02
1.730680749764948123e+00 4.126609463951323278e+02
1.730780771769789173e+00 4.127083209900628162e+02
1.730880793774630444e+00 4.127555785160876098e+02
1.730980815779471493e+00 4.128027194080616482e+02
1.731080837784312321e+00 4.128497441097814544e+02
1.731180859789153370e+00 4.128966530739475047e+02
1.731280881793994642e+00 4.129434467621205158e+02
1.731380903798835691e+00 4.129901256446831894e+02
1.731480925803676740e+00 4.130366902007979206e+02
1.731580947808517790e+00 4.130831409183646770e+02
1.731680969813358839e+00 4.131294782939799575e+02
1.731780991818199666e+00 4.131757028328946717e+02
1.731881013823040938e+00 4.132218150489703135e+02
1.731981035827881987e+00 4.132678154646380335e+02
1.732081057832723037e+00 4.133137046108527670e+02
1.732181079837564308e+00 4.133594830270536704e+02
1.732281101842405358e+00 4.134051512611158614e+02
1.732381123847246407e+00 4.134507098693097191e+02
1.732481145852087234e+00 4.134961594162551819e+02
1.732581167856928284e+00 4.135415004748764431e+02
1.732681189861769333e+00 4.135867336263584093e+02
1.732781211866610604e+00 4.136318594601004293e+02
1.732881233871451654e+00 4.136768785736701375e+02
1.732981255876292703e+00 4.137217915727587751e+02
1.733081277881133975e+00 4.137665990711344080e+02
1.733181299885974802e+00 4.138113016905955419e+02
1.733281321890815851e+00 4.138559000609236591e+02
1.733381343895656901e+00 4.139003948198372882e+02
1.733481365900497950e+00 4.139447866129437443e+02
1.733581387905339000e+00 4.139890760936925744e+02
1.733681409910180271e+00 4.140332639233253076e+02
1.733781431915021320e+00 4.140773507708298098e+02
1.733881453919862148e+00 4.141213373128911144e+02
1.733981475924703197e+00 4.141652242338419683e+02
1.734081497929544469e+00 4.142090122256134919e+02
1.734181519934385518e+00 4.142527019876866348e+02
1.734281541939226567e+00 4.142962942270439157e+02
1.734381563944067617e+00 4.143397896581163877e+02
1.734481585948908666e+00 4.143831890027355485e+02
1.734581607953749494e+00 4.144264929900842844e+02
1.734681629958590765e+00 4.144697023566421308e+02
1.734781651963431814e+00 4.145128178461390007e+02
1.734881673968272864e+00 4.145558402095009001e+02
1.734981695973114135e+00 4.145987702047996777e+02
1.735081717977955185e+00 4.146416085972012979e+02
1.735181739982796012e+00 4.146843561589138858e+02
1.735281761987637061e+00 4.147270136691353741e+02
1.735381783992478111e+00 4.147695819140018898e+02
1.735481805997319160e+00 4.148120616865339798e+02
1.735581828002160432e+00 4.148544537865843722e+02
1.735681850007001481e+00 4.148967590207847707e+02
1.735781872011842530e+00 4.149389782024928763e+02
1.735881894016683358e+00 4.149811121517371930e+02
1.735981916021524629e+00 4.150231616951666069e+02
1.736081938026365679e+00 4.150651276659917812e+02
1.736181960031206728e+00 4.151070109039349632e+02
1.736281982036047777e+00 4.151488122551735387e+02
1.736382004040888827e+00 4.151905325722851785e+02
1.736482026045730098e+00 4.152321727141927568e+02
1.736582048050570926e+00 4.152737335461114867e+02
1.736682070055411975e+00 4.153152159394896898e+02
1.736782092060253024e+00 4.153566207719574095e+02
1.736882114065094296e+00 4.153979489272666115e+02
1.736982136069935345e+00 4.154392012952387176e+02
1.737082158074776395e+00 4.154803787717065120e+02
1.737182180079617444e+00 4.155214822584571266e+02
1.737282202084458271e+00 4.155625126631774151e+02
1.737382224089299321e+00 4.156034708993949494e+02
1.737482246094140592e+00 4.156443578864236770e+02
1.737582268098981642e+00 4.156851745493037242e+02
1.737682290103822691e+00 4.157259218187465990e+02
1.737782312108663962e+00 4.157666006310764146e+02
1.737882334113505012e+00 4.158072119281715686e+02
1.737982356118345839e+00 4.158477566574078992e+02
1.738082378123186889e+00 4.158882357716003071e+02
1.738182400128027938e+00 4.159286502289445480e+02
1.738282422132868987e+00 4.159690009929575467e+02
1.738382444137710259e+00 4.160092890324207815e+02
1.738482466142551308e+00 4.160495153213205981e+02
1.738582488147392358e+00 4.160896808387873875e+02
1.738682510152233185e+00 4.161297865690399931e+02
1.738782532157074456e+00 4.161698335013237511e+02
1.738882554161915506e+00 4.162098226298517147e+02
1.738982576166756555e+00 4.162497549537453096e+02
1.739082598171597605e+00 4.162896314769743640e+02
1.739182620176438654e+00 4.163294532082968544e+02
1.739282642181279925e+00 4.163692211611990501e+02
1.739382664186120753e+00 4.164089363538364523e+02
1.739482686190961802e+00 4.164485998089710392e+02
1.739582708195802851e+00 4.164882125539123763e+02
1.739682730200644123e+00 4.165277756204566231e+02
1.739782752205485172e+00 4.165672900448259384e+02
1.739882774210326222e+00 4.166067568676070323e+02
1.739982796215167271e+00 4.166461771336904576e+02
1.740082818220008098e+00 4.166855518922091619e+02
1.740182840224849148e+00 4.167248821964777221e+02
1.740282862229690419e+00 4.167641691039301008e+02
1.740382884234531469e+00 4.168034136760584261e+02
1.740482906239372518e+00 4.168426169783518276e+02
1.740582928244213790e+00 4.168817800802340798e+02
1.740682950249054839e+00 4.169209040550009036e+02
1.740782972253895666e+00 4.169599899797601097e+02
1.740882994258736716e+00 4.169990389353665137e+02
1.740983016263577765e+00 4.170380520063635572e+02
1.741083038268418814e+00 4.170770302809158920e+02
1.741183060273260086e+00 4.171159748507513996e+02
1.741283082278101135e+00 4.171548868110972990e+02
1.741383104282942185e+00 4.171937672606159140e+02
1.741483126287783012e+00 4.172326173013441348e+02
1.741583148292624283e+00 4.172714380386287871e+02
1.741683170297465333e+00 4.173102305810656958e+02
1.741783192302306382e+00 4.173489960404342582e+02
1.741883214307147432e+00 4.173877355316361673e+02
1.741983236311988481e+00 4.174264501726317462e+02
1.742083258316829752e+00 4.174651410843770805e+02
1.742183280321670580e+00 4.175038093907587609e+02
1.742283302326511629e+00 4.175424562185336299e+02
1.742383324331352679e+00 4.175810826972628433e+02
1.742483346336193950e+00 4.176196899592494560e+02
1.742583368341034999e+00 4.176582791394738479e+02
1.742683390345876049e+00 4.176968513755314802e+02
1.742783412350717098e+00 4.177354078075675261e+02
1.742883434355557926e+00 4.177739495782153654e+02
1.742983456360398975e+00 4.178124778325303623e+02
1.743083478365240246e+00 4.178509937179276790e+02
1.743183500370081296e+00 4.178894983841165640e+02
1.743283522374922345e+00 4.179279929830379388e+02
1.743383544379763617e+00 4.179664786688010736e+02
1.743483566384604666e+00 4.180049565976167401e+02
1.743583588389445493e+00 4.180434279277359337e+02
1.743683610394286543e+00 4.180818938193839358e+02
1.743783632399127592e+00 4.181203554346964211e+02
1.743883654403968642e+00 4.181588139376567028e+02
1.743983676408809913e+00 4.181972704940294534e+02
1.744083698413650962e+00 4.182357262712977786e+02
1.744183720418492012e+00 4.182741824385987570e+02
1.744283742423332839e+00 4.183126401666584115e+02
1.744383764428174111e+00 4.183511006277287834e+02
1.744483786433015160e+00 4.183895649955219369e+02
1.744583808437856209e+00 4.184280344451473184e+02
1.744683830442697259e+00 4.184665101530453626e+02
1.744783852447538308e+00 4.185049932969258180e+02
1.744883874452379580e+00 4.185434850557011259e+02
1.744983896457220407e+00 4.185819866094229269e+02
1.745083918462061456e+00 4.186204991392181682e+02
1.745183940466902506e+00 4.186590238272229954e+02
1.745283962471743777e+00 4.186975618565220429e+02
1.745383984476584827e+00 4.187361144110786313e+02
1.745484006481425876e+00 4.187746826756762175e+02
1.745584028486266925e+00 4.188132678358502403e+02
1.745684050491107753e+00 4.188518710778247964e+02
1.745784072495948802e+00 4.188904935884494307e+02
1.745884094500790074e+00 4.189291365551333115e+02
1.745984116505631123e+00 4.189678011657829870e+02
1.746084138510472172e+00 4.190064886087355944e+02
1.746184160515313444e+00 4.190452000726966162e+02
1.746284182520154493e+00 4.190839367466754766e+02
1.746384204524995321e+00 4.191226998199209675e+02
1.746484226529836370e+00 4.191614904818573564e+02
1.746584248534677419e+00 4.192003099220215177e+02
1.746684270539518469e+00 4.192391593299964256e+02
1.746784292544359740e+00 4.192780398953498775e+02
1.746884314549200790e+00 4.193169528075691233e+02
1.746984336554041839e+00 4.193558992559965191e+02
1.747084358558882666e+00 4.193948804297689321e+02
1.747184380563723938e+00 4.194338975177498128e+02
1.747284402568564987e+00 4.194729517084679742e+02
1.747384424573406037e+00 4.195120441900540982e+02
1.747484446578247086e+00 4.195511761501760475e+02
1.747584468583088135e+00 4.195903487759765085e+02
1.747684490587929407e+00 4.196295632540088718e+02
1.747784512592770234e+00 4.196688207701745341e+02
1.747884534597611284e+00 4.197081225096586650e+02
1.747984556602452333e+00 4.197474696568687591e+02
1.748084578607293604e+00 4.197868633953701192e+02
1.748184600612134654e+00 4.198263049078224185e+02
1.748284622616975703e+00 4.198657953759192196e+02
1.748384644621816753e+00 4.199053359803222065e+02
1.748484666626657580e+00 4.199449279006003053e+02
1.748584688631498629e+00 4.199845723151672701e+02
1.748684710636339901e+00 4.200242704012175068e+02
1.748784732641180950e+00 4.200640233346654213e+02
1.748884754646021999e+00 4.201038322900814137e+02
1.748984776650863271e+00 4.201436984406308852e+02
1.749084798655704320e+00 4.201836229580121653e+02
1.749184820660545148e+00 4.202236070123931313e+02
1.749284842665386197e+00 4.202636517723508973e+02
1.749384864670227246e+00 4.203037584048087183e+02
1.749484886675068296e+00 4.203439280749754516e+02
1.749584908679909567e+00 4.203841619462838821e+02
1.749684930684750617e+00 4.204244611803270573e+02
1.749784952689591666e+00 4.204648269368004208e+02
1.749884974694432493e+00 4.205052603734386594e+02
1.749984996699273765e+00 4.205457626459539711e+02
1.750085018704114814e+00 4.205863349079774025e+02
1.750185040708955864e+00 4.206269783109957530e+02
1.750285062713796913e+00 4.206676940042920592e+02
1.750385084718637962e+00 4.207084831348853982e+02
1.750485106723479234e+00 4.207493468474693827e+02
1.750585128728320061e+00 4.207902862843527600e+02
1.750685150733161111e+00 4.208313025853986460e+02
1.750785172738002160e+00 4.208723968879660902e+02
1.750885194742843431e+00 4.209135703268476618e+02
1.750985216747684481e+00 4.209548240342122654e+02
1.751085238752525530e+00 4.209961591395451705e+02
1.751185260757366580e+00 4.210375767695862805e+02
1.751285282762207407e+00 4.210790780482748232e+02
1.751385304767048456e+00 4.211206640966874488e+02
1.751485326771889728e+00 4.211623360329804768e+02
1.751585348776730777e+00 4.212040949723306653e+02
1.751685370781571827e+00 4.212459420268777421e+02
1.751785392786413098e+00 4.212878783056646625e+02
1.751885414791254147e+00 4.213299049145805952e+02
1.751985436796094975e+00 4.213720229563018620e+02
1.752085458800936024e+00 4.214142335302361175e+02
1.752185480805777074e+00 4.214565377324611291e+02
1.752285502810618123e+00 4.214989366556719688e+02
1.752385524815459394e+00 4.215414313891191114e+02
1.752485546820300444e+00 4.215840230185547739e+02
1.752585568825141271e+00 4.216267126261743670e+02
1.752685590829982321e+00 4.216695012905606745e+02
1.752785612834823592e+00 4.217123900866260442e+02
1.752885634839664641e+00 4.217553800855579880e+02
1.752985656844505691e+00 4.217984723547604631e+02
1.753085678849346740e+00 4.218416679578013486e+02
1.753185700854187790e+00 4.218849679543529874e+02
1.753285722859028617e+00 4.219283734001402308e+02
1.753385744863869888e+00 4.219718853468826296e+02
1.753485766868710938e+00 4.220155048422398636e+02
1.753585788873551987e+00 4.220592329297584797e+02
1.753685810878393259e+00 4.221030706488147644e+02
1.753785832883234308e+00 4.221470190345618789e+02
1.753885854888075357e+00 4.221910791178759155e+02
1.753985876892916185e+00 4.222352519253001333e+02
1.754085898897757234e+00 4.222795384789932314e+02
1.754185920902598284e+00 4.223239397966744377e+02
1.754285942907439555e+00 4.223684568915707018e+02
1.754385964912280604e+00 4.224130907723637165e+02
1.754485986917121654e+00 4.224578424431363146e+02
1.754586008921962925e+00 4.225027129033211963e+02
1.754686030926803753e+00 4.225477031476471552e+02
1.754786052931644802e+00 4.225928141660867823e+02
1.754886074936485851e+00 4.226380469438068985e+02
1.754986096941326901e+00 4.226834024611143832e+02
1.755086118946167950e+00 4.227288816934052988e+02
1.755186140951009222e+00 4.227744856111133345e+02
1.755286162955850271e+00 4.228202151796622843e+02
1.755386184960691098e+00 4.228660713594093750e+02
1.755486206965532148e+00 4.229120551055993360e+02
1.755586228970373419e+00 4.229581673683139229e+02
1.755686250975214469e+00 4.230044090924192233e+02
1.755786272980055518e+00 4.230507812175189315e+02
1.755886294984896567e+00 4.230972846779035308e+02
1.755986316989737617e+00 4.231439204025005552e+02
1.756086338994578444e+00 4.231906893148283189e+02
1.756186360999419716e+00 4.232375923329432794e+02
1.756286383004260765e+00 4.232846303693960976e+02
1.756386405009101814e+00 4.233318043311795691e+02
1.756486427013943086e+00 4.233791151196836040e+02
1.756586449018784135e+00 4.234265636306465126e+02
1.756686471023625185e+00 4.234741507541074839e+02
1.756786493028466012e+00 4.235218773743606562e+02
1.756886515033307061e+00 4.235697443699074256e+02
1.756986537038148111e+00 4.236177526134102322e+02
1.757086559042989382e+00 4.236659029716482223e+02
1.757186581047830432e+00 4.237141963054657481e+02
1.757286603052671481e+00 4.237626334697351922e+02
1.757386625057512752e+00 4.238112153133047286e+02
1.757486647062353580e+00 4.238599426789565996e+02
1.757586669067194629e+00 4.239088164033611861e+02
1.757686691072035678e+00 4.239578373170344321e+02
1.757786713076876728e+00 4.240070062442902667e+02
1.757886735081717777e+00 4.240563240032000181e+02
1.757986757086559049e+00 4.241057914055476203e+02
1.758086779091400098e+00 4.241554092567875500e+02
1.758186801096240925e+00 4.242051783559983846e+02
1.758286823101081975e+00 4.242550994958443766e+02
1.758386845105923246e+00 4.243051734625315703e+02
1.758486867110764296e+00 4.243554010357647712e+02
1.758586889115605345e+00 4.244057829887071875e+02
1.758686911120446394e+00 4.244563200879375700e+02
1.758786933125287444e+00 4.245070130934119561e+02
1.758886955130128271e+00 4.245578627584197875e+02
1.758986977134969543e+00 4.246088698295442896e+02
1.759086999139810592e+00 4.246600350466236478e+02
1.759187021144651641e+00 4.247113591427096253e+02
1.759287043149492913e+00 4.247628428440294215e+02
1.759387065154333962e+00 4.248144868699449717e+02
1.759487087159175012e+00 4.248662919329155443e+02
1.759587109164015839e+00 4.249182587384582916e+02
1.759687131168856888e+00 4.249703879851101078e+02
1.759787153173697938e+00 4.250226803643893732e+02
1.759887175178539209e+00 4.250751365607608818e+02
1.759987197183380259e+00 4.251277572515937209e+02
1.760087219188221308e+00 4.251805431071303474e+02
1.760187241193062579e+00 4.252334947904446949e+02
1.760287263197903407e+00 4.252866129574096021e+02
1.760387285202744456e+00 4.253398982566589552e+02
1.760487307207585506e+00 4.253933513295519901e+02
1.760587329212426555e+00 4.254469728101406645e+02
1.760687351217267604e+00 4.255007633251306629e+02
1.760787373222108876e+00 4.255547234938505312e+02
1.760887395226949925e+00 4.256088539282155807e+02
1.760987417231790753e+00 4.256631552326939527e+02
1.761087439236631802e+00 4.257176280042742746e+02
1.761187461241473073e+00 4.257722728324317245e+02
1.761287483246314123e+00 4.258270902990944933e+02
1.761387505251155172e+00 4.258820809786129189e+02
1.761487527255996222e+00 4.259372454377268582e+02
1.761587549260837271e+00 4.259925842355315240e+02
1.761687571265678098e+00 4.260480979234499159e+02
1.761787593270519370e+00 4.261037870451997946e+02
1.761887615275360419e+00 4.261596521367621904e+02
1.761987637280201469e+00 4.262156937263521854e+02
1.762087659285042740e+00 4.262719123343896399e+02
1.762187681289883789e+00 4.263283084734666772e+02
1.762287703294724839e+00 4.263848826483218204e+02
1.762387725299565666e+00 4.264416353558081028e+02
1.762487747304406716e+00 4.264985670848672612e+02
1.762587769309247765e+00 4.265556783164990406e+02
1.762687791314089036e+00 4.266129695237343640e+02
1.762787813318930086e+00 4.266704411716078198e+02
1.762887835323771135e+00 4.267280937171316282e+02
1.762987857328612407e+00 4.267859276092667073e+02
1.763087879333453234e+00 4.268439432888978899e+02
1.763187901338294283e+00 4.269021411888066950e+02
1.763287923343135333e+00 4.269605217336473970e+02
1.763387945347976382e+00 4.270190853399199682e+02
1.763487967352817432e+00 4.270778324159454655e+02
1.763587989357658703e+00 4.271367633618432365e+02
1.763688011362499752e+00 4.271958785695039751e+02
1.763788033367340580e+00 4.272551784225684059e+02
1.763888055372181629e+00 4.273146632964017044e+02
1.763988077377022901e+00 4.273743335580729195e+02
1.764088099381863950e+00 4.274341895663295645e+02
1.764188121386704999e+00 4.274942316715761308e+02
1.764288143391546049e+00 4.275544602158552152e+02
1.764388165396387098e+00 4.276148755328206335e+02
1.764488187401227925e+00 4.276754779477204806e+02
1.764588209406069197e+00 4.277362677773742803e+02
1.764688231410910246e+00 4.277972453301535438e+02
1.764788253415751296e+00 4.278584109059608522e+02
1.764888275420592567e+00 4.279197647962114388e+02
1.764988297425433617e+00 4.279813072838121570e+02
1.765088319430274666e+00 4.280430386431441434e+02
1.765188341435115493e+00 4.281049591400436043e+02
1.765288363439956543e+00 4.281670690317843651e+02
1.765388385444797592e+00 4.282293685670589980e+02
1.765488407449638864e+00 4.282918579859618262e+02
1.765588429454479913e+00 4.283545375199737464e+02
1.765688451459320962e+00 4.284174073919413104e+02
1.765788473464162234e+00 4.284804678160664366e+02
1.765888495469003061e+00 4.285437189978852643e+02
1.765988517473844110e+00 4.286071611342565006e+02
1.766088539478685160e+00 4.286707944133443107e+02
1.766188561483526209e+00 4.287346190146027425e+02
1.766288583488367259e+00 4.287986351087653247e+02
1.766388605493208530e+00 4.288628428578277294e+02
1.766488627498049580e+00 4.289272424150349821e+02
1.766588649502890407e+00 4.289918339248698658e+02
1.766688671507731456e+00 4.290566175230381418e+02
1.766788693512572728e+00 4.291215933364576927e+02
1.766888715517413777e+00 4.291867614832468689e+02
1.766988737522254826e+00 4.292521220727106197e+02
1.767088759527095876e+00 4.293176752053329892e+02
1.767188781531936925e+00 4.293834209727626217e+02
1.767288803536777753e+00 4.294493594578062812e+02
1.767388825541619024e+00 4.295154907344144704e+02
1.767488847546460073e+00 4.295818148676769397e+02
1.767588869551301123e+00 4.296483319138085903e+02
1.767688891556142394e+00 4.297150419201438467e+02
1.767788913560983444e+00 4.297819449251285846e+02
1.767888935565824493e+00 4.298490409583088763e+02
1.767988957570665320e+00 4.299163300403272387e+02
1.768088979575506370e+00 4.299838121829131978e+02
1.768189001580347419e+00 4.300514873888771490e+02
1.768289023585188691e+00 4.301193556521036498e+02
1.768389045590029740e+00 4.301874169575458495e+02
1.768489067594870789e+00 4.302556712812198043e+02
1.768589089599712061e+00 4.303241185901993049e+02
1.768689111604552888e+00 4.303927588426107604e+02
1.768789133609393938e+00 4.304615919876289354e+02
1.768889155614234987e+00 4.305306179654726293e+02
1.768989177619076036e+00 4.305998367074022894e+02
1.769089199623917086e+00 4.306692481357155202e+02
1.769189221628758357e+00 4.307388521637440135e+02
1.769289243633599407e+00 4.308086486958525256e+02
1.769389265638440234e+00 4.308786376274357508e+02
1.769489287643281283e+00 4.309488188449169002e+02
1.769589309648122555e+00 4.310191922257473038e+02
1.769689331652963604e+00 4.310897576384030572e+02
1.769789353657804654e+00 4.311605149423884313e+02
1.769889375662645703e+00 4.312314639882322354e+02
1.769989397667486530e+00 4.313026046174903740e+02
1.770089419672327580e+00 4.313739366627448248e+02
1.770189441677168851e+00 4.314454599476073327e+02
1.770289463682009901e+00 4.315171742867184435e+02
1.770389485686850950e+00 4.315890794857497781e+02
1.770489507691692221e+00 4.316611753414081818e+02
1.770589529696533271e+00 4.317334616414365769e+02
1.770689551701374098e+00 4.318059381646172596e+02
1.770789573706215148e+00 4.318786046807767889e+02
1.770889595711056197e+00 4.319514609507879186e+02
1.770989617715897246e+00 4.320245067265753960e+02
1.771089639720738518e+00 4.320977417511203953e+02
1.771189661725579567e+00 4.321711657584644399e+02
1.771289683730420617e+00 4.322447784737163374e+02
1.771389705735261444e+00 4.323185796130567269e+02
1.771489727740102715e+00 4.323925688837458665e+02
1.771589749744943765e+00 4.324667459841296022e+02
1.771689771749784814e+00 4.325411106036447109e+02
1.771789793754625864e+00 4.326156624228293595e+02
1.771889815759466913e+00 4.326904011133289032e+02
1.771989837764308184e+00 4.327653263379040141e+02
1.772089859769149012e+00 4.328404377504405716e+02
1.772189881773990061e+00 4.329157349959571661e+02
1.772289903778831111e+00 4.329912177106158424e+02
1.772389925783672382e+00 4.330668855217307964e+02
1.772489947788513431e+00 4.331427380477794031e+02
1.772589969793354481e+00 4.332187748984106861e+02
1.772689991798195530e+00 4.332949956744599831e+02
1.772790013803036357e+00 4.333713999679569611e+02
1.772890035807877407e+00 4.334479873621378374e+02
1.772990057812718678e+00 4.335247574314588519e+02
1.773090079817559728e+00 4.336017097416078627e+02
1.773190101822400777e+00 4.336788438495161131e+02
1.773290123827242049e+00 4.337561593033737495e+02
1.773390145832083098e+00 4.338336556426415882e+02
1.773490167836923925e+00 4.339113323980657242e+02
1.773590189841764975e+00 4.339891890916926513e+02
1.773690211846606024e+00 4.340672252368810291e+02
1.773790233851447073e+00 4.341454403383216345e+02
1.773890255856288345e+00 4.342238338920479350e+02
1.773990277861129394e+00 4.343024053854564954e+02
1.774090299865970444e+00 4.343811542973186306e+02
1.774190321870811271e+00 4.344600800978004713e+02
1.774290343875652542e+00 4.345391822484793920e+02
1.774390365880493592e+00 4.346184602023592447e+02
1.774490387885334641e+00 4.346979134038914481e+02
1.774590409890175691e+00 4.347775412889905624e+02
1.774690431895016740e+00 4.348573432850532754e+02
1.774790453899858012e+00 4.349373188109780131e+02
1.774890475904698839e+00 4.350174672771833002e+02
1.774990497909539888e+00 4.350977880856282809e+02
1.775090519914380938e+00 4.351782806298323294e+02
1.775190541919222209e+00 4.352589442948938654e+02
1.775290563924063258e+00 4.353397784575145693e+02
1.775390585928904308e+00 4.354207824860167761e+02
1.775490607933745357e+00 4.355019557403662702e+02
1.775590629938586185e+00 4.355832975721964431e+02
1.775690651943427234e+00 4.356648073248251762e+02
1.775790673948268505e+00 4.357464843332823534e+02
1.775890695953109555e+00 4.358283279243308357e+02
1.775990717957950604e+00 4.359103374164892557e+02
1.776090739962791876e+00 4.359925121200558920e+02
1.776190761967632925e+00 4.360748513371335093e+02
1.776290783972473752e+00 4.361573543616519260e+02
1.776390805977314802e+00 4.362400204793946159e+02
1.776490827982155851e+00 4.363228489680222424e+02
1.776590849986996901e+00 4.364058390970986352e+02
1.776690871991838172e+00 4.364889901281171660e+02
1.776790893996679221e+00 4.365723013145243954e+02
1.776890916001520271e+00 4.366557719017504269e+02
1.776990938006361098e+00 4.367394011272322132e+02
1.777090960011202370e+00 4.368231882204423755e+02
1.777190982016043419e+00 4.369071324029147263e+02
1.777291004020884468e+00 4.369912328882761585e+02
1.777391026025725518e+00 4.370754888822696671e+02
1.777491048030566567e+00 4.371598995827870908e+02
1.777591070035407839e+00 4.372444641798953739e+02
1.777691092040248666e+00 4.373291818558664659e+02
1.777791114045089715e+00 4.374140517852077892e+02
1.777891136049930765e+00 4.374990731346899793e+02
1.777991158054772036e+00 4.375842450633783187e+02
1.778091180059613086e+00 4.376695667226653086e+02
1.778191202064454135e+00 4.377550372562964753e+02
1.778291224069295184e+00 4.378406558004063527e+02
1.778391246074136012e+00 4.379264214835470739e+02
1.778491268078977061e+00 4.380123334267221935e+02
1.778591290083818333e+00 4.380983907434175535e+02
1.778691312088659382e+00 4.381845925396333996e+02
1.778791334093500431e+00 4.382709379139184875e+02
1.778891356098341703e+00 4.383574259574024836e+02
1.778991378103182752e+00 4.384440557538297298e+02
1.779091400108023580e+00 4.385308263795918720e+02
1.779191422112864629e+00 4.386177369037641824e+02
1.779291444117705678e+00 4.387047863881374496e+02
1.779391466122546728e+00 4.387919738872543007e+02
1.779491488127387999e+00 4.388792984484446151e+02
1.779591510132229049e+00 4.389667591118588916e+02
1.779691532137070098e+00 4.390543549105054808e+02
1.779791554141910925e+00 4.391420848702864532e+02
1.779891576146752197e+00 4.392299480100326718e+02
1.779991598151593246e+00 4.393179433415421045e+02
1.780091620156434296e+00 4.394060698696152372e+02
1.780191642161275345e+00 4.394943265920928752e+02
1.780291664166116394e+00 4.395827124998947966e+02
1.780391686170957666e+00 4.396712265770541990e+02
1.780491708175798493e+00 4.397598678007592525e+02
1.780591730180639543e+00 4.398486351413902185e+02
1.780691752185480592e+00 4.399375275625570794e+02
1.780791774190321863e+00 4.400265440211396708e+02
1.780891796195162913e+00 4.401156834673272442e+02
1.780991818200003962e+00 4.402049448446572342e+02
1.781091840204845012e+00 4.402943270900540256e+02
1.781191862209685839e+00 4.403838291338722684e+02
1.781291884214526888e+00 4.404734498999341099e+02
1.781391906219368160e+00 4.405631883055708613e+02
1.781491928224209209e+00 4.406530432616647204e+02
1.781591950229050259e+00 4.407430136726893579e+02
1.781691972233891530e+00 4.408330984367510723e+02
1.781791994238732579e+00 4.409232964456311947e+02
1.781892016243573407e+00 4.410136065848280964e+02
1.781992038248414456e+00 4.411040277335986275e+02
1.782092060253255505e+00 4.411945587650031939e+02
1.782192082258096555e+00 4.412851985459438993e+02
1.782292104262937826e+00 4.413759459372136007e+02
1.782392126267778876e+00 4.414667997935341646e+02
1.782492148272619925e+00 4.415577589636038738e+02
1.782592170277460752e+00 4.416488222901386962e+02
1.782692192282302024e+00 4.417399886099174182e+02
1.782792214287143073e+00 4.418312567538268354e+02
1.782892236291984123e+00 4.419226255469053513e+02
1.782992258296825172e+00 4.420140938083879973e+02
1.783092280301666221e+00 4.421056603517525900e+02
1.783192302306507493e+00 4.421973239847642390e+02
1.783292324311348320e+00 4.422890835095205375e+02
1.783392346316189370e+00 4.423809377224989703e+02
1.783492368321030419e+00 4.424728854146026720e+02
1.783592390325871690e+00 4.425649253712053337e+02
1.783692412330712740e+00 4.426570563722002589e+02
1.783792434335553789e+00 4.427492771920442465e+02
1.783892456340394839e+00 4.428415865998089771e+02
1.783992478345235666e+00 4.429339833592226796e+02
1.784092500350076715e+00 4.430264662287236206e+02
1.784192522354917987e+00 4.431190339615038170e+02
1.784292544359759036e+00 4.432116853055581487e+02
1.784392566364600086e+00 4.433044190037331873e+02
1.784492588369441357e+00 4.433972337937751149e+02
1.784592610374282406e+00 4.434901284083797464e+02
1.784692632379123234e+00 4.435831015752382882e+02
1.784792654383964283e+00 4.436761520170900894e+02
1.784892676388805333e+00 4.437692784517698215e+02
1.784992698393646382e+00 4.438624795922576141e+02
1.785092720398487653e+00 4.439557541467288502e+02
1.785192742403328703e+00 4.440491008186042450e+02
1.785292764408169752e+00 4.441425183065994133e+02
1.785392786413010580e+00 4.442360053047762563e+02
1.785492808417851851e+00 4.443295605025925852e+02
1.785592830422692900e+00 4.444231825849537358e+02
1.785692852427533950e+00 4.445168702322625904e+02
1.785792874432374999e+00 4.446106221204712483e+02
1.785892896437216049e+00 4.447044369211332082e+02
1.785992918442057320e+00 4.447983133014532768e+02
1.786092940446898147e+00 4.448922499243410584e+02
1.786192962451739197e+00 4.449862454484601813e+02
1.786292984456580246e+00 4.450802985282851409e+02
1.786393006461421518e+00 4.451744078141471164e+02
1.786493028466262567e+00 4.452685719522932004e+02
1.786593050471103616e+00 4.453627895849343190e+02
1.786693072475944666e+00 4.454570593502990619e+02
1.786793094480785493e+00 4.455513798826879110e+02
1.786893116485626543e+00 4.456457498125254233e+02
1.786993138490467814e+00 4.457401677664143449e+02
1.787093160495308863e+00 4.458346323671885330e+02
1.787193182500149913e+00 4.459291422339651376e+02
1.787293204504991184e+00 4.460236959822016729e+02
1.787393226509832012e+00 4.461182922237473463e+02
1.787493248514673061e+00 4.462129295668989926e+02
1.787593270519514110e+00 4.463076066164531994e+02
1.787693292524355160e+00 4.464023219737630370e+02
1.787793314529196209e+00 4.464970742367910930e+02
1.787893336534037481e+00 4.465918620001649515e+02
1.787993358538878530e+00 4.466866838552320473e+02
1.788093380543719357e+00 4.467815383901144628e+02
1.788193402548560407e+00 4.468764241897636111e+02
1.788293424553401678e+00 4.469713398360166821e+02
1.788393446558242728e+00 4.470662839076511545e+02
1.788493468563083777e+00 4.471612549804404466e+02
1.788593490567924826e+00 4.472562516272112703e+02
1.788693512572765876e+00 4.473512724178964390e+02
1.788793534577606703e+00 4.474463159195923936e+02
1.788893556582447975e+00 4.475413806966166703e+02
1.788993578587289024e+00 4.476364653105619595e+02
1.789093600592130073e+00 4.477315683203530057e+02
1.789193622596971345e+00 4.478266882823034507e+02
1.789293644601812394e+00 4.479218237501723365e+02
1.789393666606653444e+00 4.480169732752206073e+02
1.789493688611494271e+00 4.481121354062676687e+02
1.789593710616335320e+00 4.482073086897488565e+02
1.789693732621176370e+00 4.483024916697718254e+02
1.789793754626017641e+00 4.483976828881737902e+02
1.789893776630858691e+00 4.484928808845792787e+02
1.789993798635699740e+00 4.485880841964556112e+02
