1.900018003960871393e+00 5.118803569332758343e+02
1.900118025965712443e+00 5.118822754637819799e+02
1.900218047970553270e+00 5.118842244018941301e+02
1.900318069975394319e+00 5.118862040489910896e+02
1.900418091980235591e+00 5.118882147058336614e+02
1.900518113985076640e+00 5.118902566725475936e+02
1.900618135989917690e+00 5.118923302486099374e+02
1.900718157994758739e+00 5.118944357328315959e+02
1.900818179999599788e+00 5.118965734233443641e+02
1.900918202004440616e+00 5.118987436175830226e+02
1.901018224009281887e+00 5.119009466122724916e+02
1.901118246014122937e+00 5.119031827034097546e+02
1.901218268018963986e+00 5.119054521862510114e+02
1.901318290023805258e+00 5.119077553552947961e+02
1.901418312028646307e+00 5.119100925042658332e+02
1.901518334033487356e+00 5.119124639261026459e+02
1.901618356038328184e+00 5.119148699129391389e+02
1.901718378043169233e+00 5.119173107560902167e+02
1.901818400048010282e+00 5.119197867460368343e+02
1.901918422052851554e+00 5.119222981724113879e+02
1.902018444057692603e+00 5.119248453239789569e+02
1.902118466062533653e+00 5.119274284886276973e+02
1.902218488067374924e+00 5.119300479533467296e+02
1.902318510072215751e+00 5.119327040042171006e+02
1.902418532077056801e+00 5.119353969263921726e+02
1.902518554081897850e+00 5.119381270040840377e+02
1.902618576086738900e+00 5.119408945205486816e+02
1.902718598091579949e+00 5.119436997580694424e+02
1.902818620096421220e+00 5.119465429979418900e+02
1.902918642101262270e+00 5.119494245204600702e+02
1.903018664106103097e+00 5.119523446048999631e+02
1.903118686110944147e+00 5.119553035295047039e+02
1.903218708115785418e+00 5.119583015714684961e+02
1.903318730120626467e+00 5.119613390069224010e+02
1.903418752125467517e+00 5.119644161109196148e+02
1.903518774130308566e+00 5.119675331574190977e+02
1.903618796135149616e+00 5.119706904192712500e+02
1.903718818139990443e+00 5.119738881682019382e+02
1.903818840144831714e+00 5.119771266747986260e+02
1.903918862149672764e+00 5.119804062084947418e+02
1.904018884154513813e+00 5.119837270375538196e+02
1.904118906159355085e+00 5.119870894290554020e+02
1.904218928164196134e+00 5.119904936488814542e+02
1.904318950169037183e+00 5.119939399616965829e+02
1.904418972173878011e+00 5.119974286309383160e+02
1.904518994178719060e+00 5.120009599188007314e+02
1.904619016183560110e+00 5.120045340862167222e+02
1.904719038188401381e+00 5.120081513928469121e+02
1.904819060193242430e+00 5.120118120970627160e+02
1.904919082198083480e+00 5.120155164559313334e+02
1.905019104202924751e+00 5.120192647252023335e+02
1.905119126207765579e+00 5.120230571592916249e+02
1.905219148212606628e+00 5.120268940112666769e+02
1.905319170217447677e+00 5.120307755328336725e+02
1.905419192222288727e+00 5.120347019743197734e+02
1.905519214227129776e+00 5.120386735846607280e+02
1.905619236231971048e+00 5.120426906113855239e+02
1.905719258236812097e+00 5.120467533006020631e+02
1.905819280241652924e+00 5.120508618969811323e+02
1.905919302246493974e+00 5.120550166437448070e+02
1.906019324251335245e+00 5.120592177826490570e+02
1.906119346256176295e+00 5.120634655539703317e+02
1.906219368261017344e+00 5.120677601964915766e+02
1.906319390265858393e+00 5.120721019474873401e+02
1.906419412270699443e+00 5.120764910427089944e+02
1.906519434275540270e+00 5.120809277163715478e+02
1.906619456280381542e+00 5.120854122011389791e+02
1.906719478285222591e+00 5.120899447281080938e+02
1.906819500290063640e+00 5.120945255267969287e+02
1.906919522294904912e+00 5.120991548251300856e+02
1.907019544299745961e+00 5.121038328494225880e+02
1.907119566304587011e+00 5.121085598243695358e+02
1.907219588309427838e+00 5.121133359730257553e+02
1.907319610314268887e+00 5.121181615167994323e+02
1.907419632319109937e+00 5.121230366754321039e+02
1.907519654323951208e+00 5.121279616669899042e+02
1.907619676328792258e+00 5.121329367078424184e+02
1.907719698333633307e+00 5.121379620126569989e+02
1.907819720338474578e+00 5.121430377943792109e+02
1.907919742343315406e+00 5.121481642642213501e+02
1.908019764348156455e+00 5.121533416316490275e+02
1.908119786352997505e+00 5.121585701043661629e+02
1.908219808357838554e+00 5.121638498883019111e+02
1.908319830362679603e+00 5.121691811875973599e+02
1.908419852367520875e+00 5.121745642045923432e+02
1.908519874372361924e+00 5.121799991398107750e+02
1.908619896377202751e+00 5.121854861919484847e+02
1.908719918382043801e+00 5.121910255578586657e+02
1.908819940386885072e+00 5.121966174325383463e+02
1.908919962391726122e+00 5.122022620091188401e+02
1.909019984396567171e+00 5.122079594788458508e+02
1.909120006401408220e+00 5.122137100310721962e+02
1.909220028406249048e+00 5.122195138532420060e+02
1.909320050411090097e+00 5.122253711308779884e+02
1.909420072415931369e+00 5.122312820475685839e+02
1.909520094420772418e+00 5.122372467849544364e+02
1.909620116425613467e+00 5.122432655227167970e+02
1.909720138430454739e+00 5.122493384385630861e+02
1.909820160435295788e+00 5.122554657082152971e+02
1.909920182440136616e+00 5.122616475053964677e+02
1.910020204444977665e+00 5.122678840018193114e+02
1.910120226449818714e+00 5.122741753671706419e+02
1.910220248454659764e+00 5.122805217691029611e+02
1.910320270459501035e+00 5.122869233732177463e+02
1.910420292464342085e+00 5.122933803430563557e+02
1.910520314469183134e+00 5.122998928400860450e+02
1.910620336474023961e+00 5.123064610236872340e+02
1.910720358478865233e+00 5.123130850511420249e+02
1.910820380483706282e+00 5.123197650776232877e+02
1.910920402488547332e+00 5.123265012561785170e+02
1.911020424493388381e+00 5.123332937377218741e+02
1.911120446498229430e+00 5.123401426710208852e+02
1.911220468503070702e+00 5.123470482026827995e+02
1.911320490507911529e+00 5.123540104771449251e+02
1.911420512512752579e+00 5.123610296366624652e+02
1.911520534517593628e+00 5.123681058212948756e+02
1.911620556522434899e+00 5.123752391688968828e+02
1.911720578527275949e+00 5.123824298151038192e+02
1.911820600532116998e+00 5.123896778933241194e+02
1.911920622536958048e+00 5.123969835347235176e+02
1.912020644541798875e+00 5.124043468682158391e+02
1.912120666546639924e+00 5.124117680204522003e+02
1.912220688551481196e+00 5.124192471158082753e+02
1.912320710556322245e+00 5.124267842763733825e+02
1.912420732561163295e+00 5.124343796219401383e+02
1.912520754566004566e+00 5.124420332699926348e+02
1.912620776570845615e+00 5.124497453356963206e+02
1.912720798575686443e+00 5.124575159318853821e+02
1.912820820580527492e+00 5.124653451690534212e+02
1.912920842585368542e+00 5.124732331553425411e+02
1.913020864590209591e+00 5.124811799965317505e+02
1.913120886595050862e+00 5.124891857960271864e+02
1.913220908599891912e+00 5.124972506548507454e+02
1.913320930604732961e+00 5.125053746716305341e+02
1.913420952609573789e+00 5.125135579425899550e+02
1.913520974614415060e+00 5.125218005615367929e+02
1.913620996619256109e+00 5.125301026198549152e+02
1.913721018624097159e+00 5.125384642064904028e+02
1.913821040628938208e+00 5.125468854079467746e+02
1.913921062633779258e+00 5.125553663082694129e+02
1.914021084638620529e+00 5.125639069890394239e+02
1.914121106643461356e+00 5.125725075293628379e+02
1.914221128648302406e+00 5.125811680058584443e+02
1.914321150653143455e+00 5.125898884926529036e+02
1.914421172657984727e+00 5.125986690613661949e+02
1.914521194662825776e+00 5.126075097811055912e+02
1.914621216667666825e+00 5.126164107184540626e+02
1.914721238672507875e+00 5.126253719374616367e+02
1.914821260677348702e+00 5.126343934996367580e+02
1.914921282682189752e+00 5.126434754639358289e+02
1.915021304687031023e+00 5.126526178867544559e+02
1.915121326691872072e+00 5.126618208219199460e+02
1.915221348696713122e+00 5.126710843206786876e+02
1.915321370701554393e+00 5.126804084316918306e+02
1.915421392706395443e+00 5.126897932010234626e+02
1.915521414711236270e+00 5.126992386721323101e+02
1.915621436716077319e+00 5.127087448858636662e+02
1.915721458720918369e+00 5.127183118804408650e+02
1.915821480725759418e+00 5.127279396914564131e+02
1.915921502730600690e+00 5.127376283518647142e+02
1.916021524735441739e+00 5.127473778919713823e+02
1.916121546740282788e+00 5.127571883394278984e+02
1.916221568745123616e+00 5.127670597192216064e+02
1.916321590749964887e+00 5.127769920536686641e+02
1.916421612754805937e+00 5.127869853624054031e+02
1.916521634759646986e+00 5.127970396623809393e+02
1.916621656764488035e+00 5.128071549678497831e+02
1.916721678769329085e+00 5.128173312903633132e+02
1.916821700774170356e+00 5.128275686387631822e+02
1.916921722779011183e+00 5.128378670191730180e+02
1.917021744783852233e+00 5.128482264349911475e+02
1.917121766788693282e+00 5.128586468868836619e+02
1.917221788793534554e+00 5.128691283727779364e+02
1.917321810798375603e+00 5.128796708878538766e+02
1.917421832803216653e+00 5.128902744245378926e+02
1.917521854808057702e+00 5.129009389724966468e+02
1.917621876812898529e+00 5.129116645186279584e+02
1.917721898817739579e+00 5.129224510470567111e+02
1.917821920822580850e+00 5.129332985391276907e+02
1.917921942827421899e+00 5.129442069733963763e+02
1.918021964832262949e+00 5.129551763256272352e+02
1.918121986837104220e+00 5.129662065687826953e+02
1.918222008841945270e+00 5.129772976730203027e+02
1.918322030846786097e+00 5.129884496056847638e+02
1.918422052851627146e+00 5.129996623313022610e+02
1.918522074856468196e+00 5.130109358115748819e+02
1.918622096861309245e+00 5.130222700053747076e+02
1.918722118866150517e+00 5.130336648687380148e+02
1.918822140870991566e+00 5.130451203548592503e+02
1.918922162875832615e+00 5.130566364140851192e+02
1.919022184880673443e+00 5.130682129939114020e+02
1.919122206885514714e+00 5.130798500389748824e+02
1.919222228890355764e+00 5.130915474910493685e+02
1.919322250895196813e+00 5.131033052890401223e+02
1.919422272900037862e+00 5.131151233689803348e+02
1.919522294904878912e+00 5.131270016640236236e+02
1.919622316909720183e+00 5.131389401044406213e+02
1.919722338914561011e+00 5.131509386176148837e+02
1.919822360919402060e+00 5.131629971280362952e+02
1.919922382924243109e+00 5.131751155572989092e+02
1.920022404929084381e+00 5.131872938240951498e+02
1.920122426933925430e+00 5.131995318442103553e+02
1.920222448938766480e+00 5.132118295305217544e+02
1.920322470943607529e+00 5.132241867929913042e+02
1.920422492948448356e+00 5.132366035386626208e+02
1.920522514953289406e+00 5.132490796716582508e+02
1.920622536958130677e+00 5.132616150931731909e+02
1.920722558962971727e+00 5.132742097014748879e+02
1.920822580967812776e+00 5.132868633918963042e+02
1.920922602972654047e+00 5.132995760568338710e+02
1.921022624977495097e+00 5.133123475857441917e+02
1.921122646982335924e+00 5.133251778651401764e+02
1.921222668987176974e+00 5.133380667785887681e+02
1.921322690992018023e+00 5.133510142067067363e+02
1.921422712996859072e+00 5.133640200271588583e+02
1.921522735001700344e+00 5.133770841146538260e+02
1.921622757006541393e+00 5.133902063409420862e+02
1.921722779011382443e+00 5.134033865748147036e+02
1.921822801016223270e+00 5.134166246820974493e+02
1.921922823021064541e+00 5.134299205256514824e+02
1.922022845025905591e+00 5.134432739653690305e+02
1.922122867030746640e+00 5.134566848581736167e+02
1.922222889035587690e+00 5.134701530580146027e+02
1.922322911040428739e+00 5.134836784158676437e+02
1.922422933045270010e+00 5.134972607797326418e+02
1.922522955050110838e+00 5.135108999946302220e+02
1.922622977054951887e+00 5.135245959026017317e+02
1.922722999059792937e+00 5.135383483427085594e+02
1.922823021064634208e+00 5.135521571510274725e+02
1.922923043069475257e+00 5.135660221606516416e+02
1.923023065074316307e+00 5.135799432016900710e+02
1.923123087079157356e+00 5.135939201012640751e+02
1.923223109083998184e+00 5.136079526835083016e+02
1.923323131088839233e+00 5.136220407695686845e+02
1.923423153093680504e+00 5.136361841776022175e+02
1.923523175098521554e+00 5.136503827227757029e+02
1.923623197103362603e+00 5.136646362172674571e+02
1.923723219108203875e+00 5.136789444702615128e+02
1.923823241113044924e+00 5.136933072879544397e+02
1.923923263117885751e+00 5.137077244735492059e+02
1.924023285122726801e+00 5.137221958272584743e+02
1.924123307127567850e+00 5.137367211463031254e+02
1.924223329132408900e+00 5.137513002249127112e+02
1.924323351137250171e+00 5.137659328543248876e+02
1.924423373142091220e+00 5.137806188227873463e+02
1.924523395146932270e+00 5.137953579155581565e+02
1.924623417151773097e+00 5.138101499149039455e+02
1.924723439156614369e+00 5.138249946001031958e+02
1.924823461161455418e+00 5.138398917474465861e+02
1.924923483166296467e+00 5.138548411302356271e+02
1.925023505171137517e+00 5.138698425187877774e+02
1.925123527175978566e+00 5.138848956804332602e+02
1.925223549180819838e+00 5.139000003795190423e+02
1.925323571185660665e+00 5.139151563774100850e+02
1.925423593190501714e+00 5.139303634324878658e+02
1.925523615195342764e+00 5.139456213001571996e+02
1.925623637200184035e+00 5.139609297328428283e+02
1.925723659205025085e+00 5.139762884799945368e+02
1.925823681209866134e+00 5.139916972880866979e+02
1.925923703214707183e+00 5.140071559006225925e+02
1.926023725219548011e+00 5.140226640581353195e+02
1.926123747224389060e+00 5.140382214981896141e+02
1.926223769229230331e+00 5.140538279553851453e+02
1.926323791234071381e+00 5.140694831613589031e+02
1.926423813238912430e+00 5.140851868447869037e+02
1.926523835243753702e+00 5.141009387313885100e+02
1.926623857248594529e+00 5.141167385439275677e+02
1.926723879253435578e+00 5.141325860022169536e+02
1.926823901258276628e+00 5.141484808231198258e+02
1.926923923263117677e+00 5.141644227205537163e+02
1.927023945267958727e+00 5.141804114054951924e+02
1.927123967272799998e+00 5.141964465859812208e+02
1.927223989277641047e+00 5.142125279671126918e+02
1.927324011282481875e+00 5.142286552510599904e+02
1.927424033287322924e+00 5.142448281370647010e+02
1.927524055292164196e+00 5.142610463214447236e+02
1.927624077297005245e+00 5.142773094975982531e+02
1.927724099301846294e+00 5.142936173560063935e+02
1.927824121306687344e+00 5.143099695842388428e+02
1.927924143311528393e+00 5.143263658669580991e+02
1.928024165316369221e+00 5.143428058859240082e+02
1.928124187321210492e+00 5.143592893199969467e+02
1.928224209326051541e+00 5.143758158451436202e+02
1.928324231330892591e+00 5.143923851344420655e+02
1.928424253335733862e+00 5.144089968580861978e+02
1.928524275340574912e+00 5.144256506833896765e+02
1.928624297345415961e+00 5.144423462747939766e+02
1.928724319350256788e+00 5.144590832938704352e+02
1.928824341355097838e+00 5.144758613993269591e+02
1.928924363359938887e+00 5.144926802470141638e+02
1.929024385364780159e+00 5.145095394899292387e+02
1.929124407369621208e+00 5.145264387782233371e+02
1.929224429374462257e+00 5.145433777592072602e+02
1.929324451379303529e+00 5.145603560773554364e+02
1.929424473384144356e+00 5.145773733743146749e+02
1.929524495388985406e+00 5.145944292889071221e+02
1.929624517393826455e+00 5.146115234571406063e+02
1.929724539398667504e+00 5.146286555122114805e+02
1.929824561403508554e+00 5.146458250845120119e+02
1.929924583408349825e+00 5.146630318016381125e+02
1.930024605413190875e+00 5.146802752883960466e+02
1.930124627418031702e+00 5.146975551668058415e+02
1.930224649422872751e+00 5.147148710561143616e+02
1.930324671427714023e+00 5.147322225727961040e+02
1.930424693432555072e+00 5.147496093305645672e+02
1.930524715437396122e+00 5.147670309403777082e+02
1.930624737442237171e+00 5.147844870104460142e+02
1.930724759447078220e+00 5.148019771462388690e+02
1.930824781451919048e+00 5.148195009504943300e+02
1.930924803456760319e+00 5.148370580232240172e+02
1.931024825461601369e+00 5.148546479617244813e+02
1.931124847466442418e+00 5.148722703605808420e+02
1.931224869471283689e+00 5.148899248116790659e+02
1.931324891476124739e+00 5.149076109042104008e+02
1.931424913480965788e+00 5.149253282246841081e+02
1.931524935485806616e+00 5.149430763569299643e+02
1.931624957490647665e+00 5.149608548821126988e+02
1.931724979495488714e+00 5.149786633787366554e+02
1.931825001500329986e+00 5.149965014226562516e+02
1.931925023505171035e+00 5.150143685870834815e+02
1.932025045510012085e+00 5.150322644425993985e+02
1.932125067514853356e+00 5.150501885571601406e+02
1.932225089519694183e+00 5.150681404961081853e+02
1.932325111524535233e+00 5.150861198221800805e+02
1.932425133529376282e+00 5.151041260955170173e+02
1.932525155534217332e+00 5.151221588736750618e+02
1.932625177539058381e+00 5.151402177116322036e+02
1.932725199543899652e+00 5.151583021617994973e+02
1.932825221548740702e+00 5.151764117740324309e+02
1.932925243553581529e+00 5.151945460956378611e+02
1.933025265558422578e+00 5.152127046713856089e+02
1.933125287563263850e+00 5.152308870435190329e+02
1.933225309568104899e+00 5.152490927517649197e+02
1.933325331572945949e+00 5.152673213333426929e+02
1.933425353577786998e+00 5.152855723229772593e+02
1.933525375582628048e+00 5.153038452529069673e+02
1.933625397587468875e+00 5.153221396528953164e+02
1.933725419592310146e+00 5.153404550502430084e+02
1.933825441597151196e+00 5.153587909697973828e+02
1.933925463601992245e+00 5.153771469339627629e+02
1.934025485606833517e+00 5.153955224627143252e+02
1.934125507611674566e+00 5.154139170736057167e+02
1.934225529616515615e+00 5.154323302817839476e+02
1.934325551621356443e+00 5.154507615999971222e+02
1.934425573626197492e+00 5.154692105386086496e+02
1.934525595631038541e+00 5.154876766056094084e+02
1.934625617635879813e+00 5.155061593066260457e+02
1.934725639640720862e+00 5.155246581449362111e+02
1.934825661645561912e+00 5.155431726214785613e+02
1.934925683650403183e+00 5.155617022348660612e+02
1.935025705655244010e+00 5.155802464813966708e+02
1.935125727660085060e+00 5.155988048550669873e+02
1.935225749664926109e+00 5.156173768475833867e+02
1.935325771669767159e+00 5.156359619483757797e+02
1.935425793674608208e+00 5.156545596446092077e+02
1.935525815679449479e+00 5.156731694211962349e+02
1.935625837684290529e+00 5.156917907608103633e+02
1.935725859689131356e+00 5.157104231438988791e+02
1.935825881693972406e+00 5.157290660486958132e+02
1.935925903698813677e+00 5.157477189512344466e+02
1.936025925703654726e+00 5.157663813253598164e+02
1.936125947708495776e+00 5.157850526427451996e+02
1.936225969713336825e+00 5.158037323729006403e+02
1.936325991718177875e+00 5.158224199831904571e+02
1.936426013723018702e+00 5.158411149388446120e+02
1.936526035727859973e+00 5.158598167029733759e+02
1.936626057732701023e+00 5.158785247365797204e+02
1.936726079737542072e+00 5.158972384985750068e+02
1.936826101742383344e+00 5.159159574457917188e+02
1.936926123747224393e+00 5.159346810329966502e+02
1.937026145752065442e+00 5.159534087129077307e+02
1.937126167756906270e+00 5.159721399362055081e+02
1.937226189761747319e+00 5.159908741515486099e+02
1.937326211766588369e+00 5.160096108055877266e+02
1.937426233771429640e+00 5.160283493429809596e+02
1.937526255776270689e+00 5.160470892064074633e+02
1.937626277781111739e+00 5.160658298365822247e+02
1.937726299785953010e+00 5.160845706722719797e+02
1.937826321790793838e+00 5.161033111503081727e+02
1.937926343795634887e+00 5.161220507056033284e+02
1.938026365800475936e+00 5.161407887711649209e+02
1.938126387805316986e+00 5.161595247781127682e+02
1.938226409810158035e+00 5.161782581556915375e+02
1.938326431814999307e+00 5.161969883312866614e+02
1.938426453819840356e+00 5.162157147304417322e+02
1.938526475824681183e+00 5.162344367768710072e+02
1.938626497829522233e+00 5.162531538924786219e+02
1.938726519834363504e+00 5.162718654973696175e+02
1.938826541839204554e+00 5.162905710098696090e+02
1.938926563844045603e+00 5.163092698465393369e+02
1.939026585848886652e+00 5.163279614221896736e+02
1.939126607853727702e+00 5.163466451498991319e+02
1.939226629858568529e+00 5.163653204410288708e+02
1.939326651863409801e+00 5.163839867052388399e+02
1.939426673868250850e+00 5.164026433505058549e+02
1.939526695873091899e+00 5.164212897831363307e+02
1.939626717877933171e+00 5.164399254077872001e+02
1.939726739882774220e+00 5.164585496274781917e+02
1.939826761887615270e+00 5.164771618436114977e+02
1.939926783892456097e+00 5.164957614559873491e+02
1.940026805897297146e+00 5.165143478628194771e+02
1.940126827902138196e+00 5.165329204607546671e+02
1.940226849906979467e+00 5.165514786448873110e+02
1.940326871911820517e+00 5.165700218087779376e+02
1.940426893916661566e+00 5.165885493444691292e+02
1.940526915921502837e+00 5.166070606425025744e+02
1.940626937926343665e+00 5.166255550919389634e+02
1.940726959931184714e+00 5.166440320803710620e+02
1.940826981936025764e+00 5.166624909939440613e+02
1.940927003940866813e+00 5.166809312173735407e+02
1.941027025945707862e+00 5.166993521339595645e+02
1.941127047950549134e+00 5.167177531256076009e+02
1.941227069955390183e+00 5.167361335728448921e+02
1.941327091960231011e+00 5.167544928548393273e+02
1.941427113965072060e+00 5.167728303494146758e+02
1.941527135969913331e+00 5.167911454330713923e+02
1.941627157974754381e+00 5.168094374810028739e+02
1.941727179979595430e+00 5.168277058671143322e+02
1.941827201984436480e+00 5.168459499640404147e+02
1.941927223989277529e+00 5.168641691431632808e+02
1.942027245994118356e+00 5.168823627746328384e+02
1.942127267998959628e+00 5.169005302273811822e+02
1.942227290003800677e+00 5.169186708691449894e+02
1.942327312008641726e+00 5.169367840664809819e+02
1.942427334013482998e+00 5.169548691847874125e+02
1.942527356018324047e+00 5.169729255883192991e+02
1.942627378023165097e+00 5.169909526402101392e+02
1.942727400028005924e+00 5.170089497024887351e+02
1.942827422032846973e+00 5.170269161360987482e+02
1.942927444037688023e+00 5.170448513009179123e+02
1.943027466042529294e+00 5.170627545557756548e+02
1.943127488047370344e+00 5.170806252584736740e+02
1.943227510052211393e+00 5.170984627658045838e+02
1.943327532057052665e+00 5.171162664335702175e+02
1.943427554061893492e+00 5.171340356166011816e+02
1.943527576066734541e+00 5.171517696687768648e+02
1.943627598071575591e+00 5.171694679430444239e+02
1.943727620076416640e+00 5.171871297914375418e+02
1.943827642081257689e+00 5.172047545650959819e+02
1.943927664086098961e+00 5.172223416142862789e+02
1.944027686090939788e+00 5.172398902884198151e+02
1.944127708095780838e+00 5.172573999360730568e+02
1.944227730100621887e+00 5.172748699050071082e+02
1.944327752105463158e+00 5.172922995421877204e+02
1.944427774110304208e+00 5.173096881938051865e+02
1.944527796115145257e+00 5.173270352052933276e+02
1.944627818119986307e+00 5.173443399213502971e+02
1.944727840124827134e+00 5.173616016859583624e+02
1.944827862129668183e+00 5.173788198424022085e+02
1.944927884134509455e+00 5.173959937332926984e+02
1.945027906139350504e+00 5.174131227005839264e+02
1.945127928144191554e+00 5.174302060855933405e+02
1.945227950149032825e+00 5.174472432290242523e+02
1.945327972153873874e+00 5.174642334709834586e+02
1.945427994158714702e+00 5.174811761510031829e+02
1.945528016163555751e+00 5.174980706080617665e+02
1.945628038168396801e+00 5.175149161806019720e+02
1.945728060173237850e+00 5.175317122065540616e+02
1.945828082178079121e+00 5.175484580233543284e+02
1.945928104182920171e+00 5.175651529679666965e+02
1.946028126187761220e+00 5.175817963769015932e+02
1.946128148192602048e+00 5.175983875862408468e+02
1.946228170197443319e+00 5.176149259316520101e+02
1.946328192202284368e+00 5.176314107484149645e+02
1.946428214207125418e+00 5.176478413714394264e+02
1.946528236211966467e+00 5.176642171352866626e+02
1.946628258216807517e+00 5.176805373741894982e+02
1.946728280221648788e+00 5.176968014220757368e+02
1.946828302226489615e+00 5.177130086125852131e+02
1.946928324231330665e+00 5.177291582790943494e+02
1.947028346236171714e+00 5.177452497547354824e+02
1.947128368241012986e+00 5.177612823724168720e+02
1.947228390245854035e+00 5.177772554648462346e+02
1.947328412250695084e+00 5.177931683645506382e+02
1.947428434255536134e+00 5.178090204038963975e+02
1.947528456260376961e+00 5.178248109151137442e+02
1.947628478265218011e+00 5.178405392303127428e+02
1.947728500270059282e+00 5.178562046815105759e+02
1.947828522274900331e+00 5.178718066006478011e+02
1.947928544279741381e+00 5.178873443196127937e+02
1.948028566284582652e+00 5.179028171702614145e+02
1.948128588289423702e+00 5.179182244844392926e+02
1.948228610294264529e+00 5.179335655940033121e+02
1.948328632299105578e+00 5.179488398308423029e+02
1.948428654303946628e+00 5.179640465268985281e+02
1.948528676308787677e+00 5.179791850141898522e+02
1.948628698313628949e+00 5.179942546248317967e+02
1.948728720318469998e+00 5.180092546910570945e+02
1.948828742323311047e+00 5.180241845452383131e+02
1.948928764328151875e+00 5.180390435199107060e+02
1.949028786332993146e+00 5.180538309477919938e+02
1.949128808337834196e+00 5.180685461618047611e+02
1.949228830342675245e+00 5.180831884950978292e+02
1.949328852347516294e+00 5.180977572810688798e+02
1.949428874352357344e+00 5.181122518533849188e+02
1.949528896357198615e+00 5.181266715460044452e+02
1.949628918362039443e+00 5.181410156932004156e+02
1.949728940366880492e+00 5.181552836295793441e+02
1.949828962371721541e+00 5.181694746901057442e+02
1.949928984376562813e+00 5.181835882101230482e+02
1.950029006381403862e+00 5.181976235253742971e+02
1.950129028386244912e+00 5.182115799720252198e+02
1.950229050391085961e+00 5.182254568866869704e+02
1.950329072395926788e+00 5.182392536064355681e+02
1.950429094400767838e+00 5.182529694688354311e+02
1.950529116405609109e+00 5.182666038119605219e+02
1.950629138410450159e+00 5.182801559744174256e+02
1.950729160415291208e+00 5.182936252953659277e+02
1.950829182420132479e+00 5.183070111145418650e+02
1.950929204424973529e+00 5.183203127722777026e+02
1.951029226429814356e+00 5.183335296095274316e+02
1.951129248434655405e+00 5.183466609678837358e+02
1.951229270439496455e+00 5.183597061896060723e+02
1.951329292444337504e+00 5.183726646176363602e+02
1.951429314449178776e+00 5.183855355956261519e+02
1.951529336454019825e+00 5.183983184679550504e+02
1.951629358458860874e+00 5.184110125797548108e+02
1.951729380463701702e+00 5.184236172769299174e+02
1.951829402468542973e+00 5.184361319061816857e+02
1.951929424473384023e+00 5.184485558150267934e+02
1.952029446478225072e+00 5.184608883518229732e+02
1.952129468483066121e+00 5.184731288657890218e+02
1.952229490487907171e+00 5.184852767070261734e+02
1.952329512492748442e+00 5.184973312265420873e+02
1.952429534497589270e+00 5.185092917762711977e+02
1.952529556502430319e+00 5.185211577090984747e+02
1.952629578507271368e+00 5.185329283788782959e+02
1.952729600512112640e+00 5.185446031404602536e+02
1.952829622516953689e+00 5.185561813497085950e+02
1.952929644521794739e+00 5.185676623635247324e+02
1.953029666526635788e+00 5.185790455398705490e+02
1.953129688531476615e+00 5.185903302377860200e+02
1.953229710536317665e+00 5.186015158174182034e+02
1.953329732541158936e+00 5.186126016400377239e+02
1.953429754545999986e+00 5.186235870680618518e+02
1.953529776550841035e+00 5.186344714650772403e+02
1.953629798555682306e+00 5.186452541958620941e+02
1.953729820560523356e+00 5.186559346264065198e+02
1.953829842565364183e+00 5.186665121239366272e+02
1.953929864570205233e+00 5.186769860569339698e+02
1.954029886575046282e+00 5.186873557951591920e+02
1.954129908579887331e+00 5.186976207096737426e+02
1.954229930584728603e+00 5.187077801728609074e+02
1.954329952589569652e+00 5.187178335584475235e+02
1.954429974594410702e+00 5.187277802415263750e+02
1.954529996599251529e+00 5.187376195985792720e+02
1.954630018604092800e+00 5.187473510074960359e+02
1.954730040608933850e+00 5.187569738475978056e+02
1.954830062613774899e+00 5.187664874996594335e+02
1.954930084618615949e+00 5.187758913459291534e+02
1.955030106623456998e+00 5.187851847701523411e+02
1.955130128628298269e+00 5.187943671575924327e+02
1.955230150633139097e+00 5.188034378950521841e+02
1.955330172637980146e+00 5.188123963708947031e+02
1.955430194642821196e+00 5.188212419750683466e+02
1.955530216647662467e+00 5.188299740991232056e+02
1.955630238652503516e+00 5.188385921362370254e+02
1.955730260657344566e+00 5.188470954812333957e+02
1.955830282662185615e+00 5.188554835306067616e+02
1.955930304667026443e+00 5.188637556825407273e+02
1.956030326671867492e+00 5.188719113369313618e+02
1.956130348676708763e+00 5.188799498954072078e+02
1.956230370681549813e+00 5.188878707613520191e+02
1.956330392686390862e+00 5.188956733399253380e+02
1.956430414691232134e+00 5.189033570380835272e+02
1.956530436696073183e+00 5.189109212646028482e+02
1.956630458700914010e+00 5.189183654300974240e+02
1.956730480705755060e+00 5.189256889470432270e+02
1.956830502710596109e+00 5.189328912297991110e+02
1.956930524715437159e+00 5.189399716946262515e+02
1.957030546720278430e+00 5.189469297597100876e+02
1.957130568725119479e+00 5.189537648451818086e+02
1.957230590729960529e+00 5.189604763731393859e+02
1.957330612734801356e+00 5.189670637676678098e+02
1.957430634739642628e+00 5.189735264548606892e+02
1.957530656744483677e+00 5.189798638628400340e+02
1.957630678749324726e+00 5.189860754217792191e+02
1.957730700754165776e+00 5.189921605639217432e+02
1.957830722759006825e+00 5.189981187236032838e+02
1.957930744763848097e+00 5.190039493372718198e+02
1.958030766768688924e+00 5.190096518435080952e+02
1.958130788773529973e+00 5.190152256830474471e+02
1.958230810778371023e+00 5.190206702987985636e+02
1.958330832783212294e+00 5.190259851358659944e+02
1.958430854788053344e+00 5.190311696415691358e+02
1.958530876792894393e+00 5.190362232654630361e+02
1.958630898797735442e+00 5.190411454593607914e+02
1.958730920802576270e+00 5.190459356773485524e+02
1.958830942807417319e+00 5.190505933758133779e+02
1.958930964812258591e+00 5.190551180134576725e+02
1.959030986817099640e+00 5.190595090513203331e+02
1.959131008821940689e+00 5.190637659527991445e+02
1.959231030826781961e+00 5.190678881836697656e+02
1.959331052831623010e+00 5.190718752121042598e+02
1.959431074836463837e+00 5.190757265086928101e+02
1.959531096841304887e+00 5.190794415464646363e+02
1.959631118846145936e+00 5.190830198009040259e+02
1.959731140850986986e+00 5.190864607499742078e+02
1.959831162855828257e+00 5.190897638741346327e+02
1.959931184860669307e+00 5.190929286563621190e+02
1.960031206865510356e+00 5.190959545821699521e+02
1.960131228870351183e+00 5.190988411396265292e+02
1.960231250875192455e+00 5.191015878193761637e+02
1.960331272880033504e+00 5.191041941146588670e+02
1.960431294884874553e+00 5.191066595213275150e+02
1.960531316889715603e+00 5.191089835378705857e+02
1.960631338894556652e+00 5.191111656654271655e+02
1.960731360899397924e+00 5.191132054078105966e+02
1.960831382904238751e+00 5.191151022715245062e+02
1.960931404909079800e+00 5.191168557657834981e+02
1.961031426913920850e+00 5.191184654025305463e+02
1.961131448918762121e+00 5.191199306964580273e+02
1.961231470923603171e+00 5.191212511650254555e+02
1.961331492928444220e+00 5.191224263284774452e+02
1.961431514933285047e+00 5.191234557098639470e+02
1.961531536938126097e+00 5.191243388350590067e+02
1.961631558942967146e+00 5.191250752327777036e+02
1.961731580947808418e+00 5.191256644345960467e+02
1.961831602952649467e+00 5.191261059749690503e+02
1.961931624957490516e+00 5.191263993912490378e+02
1.962031646962331788e+00 5.191265442237040588e+02
1.962131668967172615e+00 5.191265400155369889e+02
1.962231690972013665e+00 5.191263863129014453e+02
1.962331712976854714e+00 5.191260826649219098e+02
1.962431734981695763e+00 5.191256286237100994e+02
1.962531756986536813e+00 5.191250237443858850e+02
1.962631778991378084e+00 5.191242675850916157e+02
1.962731800996219134e+00 5.191233597070115593e+02
1.962831823001059961e+00 5.191222996743891827e+02
1.962931845005901010e+00 5.191210870545464786e+02
1.963031867010742282e+00 5.191197214178981767e+02
1.963131889015583331e+00 5.191182023379722068e+02
1.963231911020424381e+00 5.191165293914258427e+02
1.963331933025265430e+00 5.191147021580628689e+02
1.963431955030106479e+00 5.191127202208501785e+02
1.963531977034947307e+00 5.191105831659378964e+02
1.963631999039788578e+00 5.191082905826727938e+02
1.963732021044629628e+00 5.191058420636170467e+02
1.963832043049470677e+00 5.191032372045640386e+02
1.963932065054311948e+00 5.191004756045571185e+02
1.964032087059152998e+00 5.190975568659044939e+02
1.964132109063994047e+00 5.190944805941968525e+02
1.964232131068834875e+00 5.190912463983227099e+02
1.964332153073675924e+00 5.190878538904865991e+02
1.964432175078516973e+00 5.190843026862229408e+02
1.964532197083358245e+00 5.190805924044157109e+02
1.964632219088199294e+00 5.190767226673115147e+02
1.964732241093040344e+00 5.190726931005365259e+02
1.964832263097881615e+00 5.190685033331144496e+02
1.964932285102722442e+00 5.190641529974786863e+02
1.965032307107563492e+00 5.190596417294921139e+02
1.965132329112404541e+00 5.190549691684590243e+02
1.965232351117245591e+00 5.190501349571449055e+02
1.965332373122086640e+00 5.190451387417867863e+02
1.965432395126927911e+00 5.190399801721144968e+02
1.965532417131768961e+00 5.190346589013611265e+02
1.965632439136609788e+00 5.190291745862805328e+02
1.965732461141450838e+00 5.190235268871629160e+02
1.965832483146292109e+00 5.190177154678476654e+02
1.965932505151133158e+00 5.190117399957409816e+02
1.966032527155974208e+00 5.190056001418287224e+02
1.966132549160815257e+00 5.189992955806926602e+02
1.966232571165656307e+00 5.189928259905232153e+02
1.966332593170497134e+00 5.189861910531355988e+02
1.966432615175338405e+00 5.189793904539840241e+02
1.966532637180179455e+00 5.189724238821758036e+02
1.966632659185020504e+00 5.189652910304841953e+02
1.966732681189861776e+00 5.189579915953663658e+02
1.966832703194702825e+00 5.189505252769723711e+02
1.966932725199543874e+00 5.189428917791636877e+02
1.967032747204384702e+00 5.189350908095238992e+02
1.967132769209225751e+00 5.189271220793733619e+02
1.967232791214066800e+00 5.189189853037845523e+02
1.967332813218908072e+00 5.189106802015928679e+02
1.967432835223749121e+00 5.189022064954097004e+02
1.967532857228590171e+00 5.188935639116400580e+02
1.967632879233431442e+00 5.188847521804909775e+02
1.967732901238272269e+00 5.188757710359876683e+02
1.967832923243113319e+00 5.188666202159841987e+02
1.967932945247954368e+00 5.188572994621774797e+02
1.968032967252795418e+00 5.188478085201219301e+02
1.968132989257636467e+00 5.188381471392372077e+02
1.968233011262477739e+00 5.188283150728271949e+02
1.968333033267318788e+00 5.188183120780851141e+02
1.968433055272159615e+00 5.188081379161121731e+02
1.968533077277000665e+00 5.187977923519274555e+02
1.968633099281841936e+00 5.187872751544787207e+02
1.968733121286682985e+00 5.187765860966554783e+02
1.968833143291524035e+00 5.187657249553006977e+02
1.968933165296365084e+00 5.187546915112238821e+02
1.969033187301206134e+00 5.187434855492107317e+02
1.969133209306046961e+00 5.187321068580345127e+02
1.969233231310888232e+00 5.187205552304696994e+02
1.969333253315729282e+00 5.187088304633008420e+02
1.969433275320570331e+00 5.186969323573355268e+02
1.969533297325411603e+00 5.186848607174144945e+02
1.969633319330252652e+00 5.186726153524230085e+02
1.969733341335093701e+00 5.186601960752998366e+02
1.969833363339934529e+00 5.186476027030516889e+02
1.969933385344775578e+00 5.186348350567595844e+02
1.970033407349616628e+00 5.186218929615935167e+02
1.970133429354457899e+00 5.186087762468185929e+02
1.970233451359298948e+00 5.185954847458083350e+02
1.970333473364139998e+00 5.185820182960529792e+02
1.970433495368981269e+00 5.185683767391714127e+02
1.970533517373822097e+00 5.185545599209179954e+02
1.970633539378663146e+00 5.185405676911952924e+02
1.970733561383504195e+00 5.185263999040622593e+02
1.970833583388345245e+00 5.185120564177433380e+02
1.970933605393186294e+00 5.184975370946391422e+02
1.971033627398027566e+00 5.184828418013347573e+02
1.971133649402868615e+00 5.184679704086083802e+02
1.971233671407709442e+00 5.184529227914420062e+02
1.971333693412550492e+00 5.184376988290281361e+02
1.971433715417391763e+00 5.184222984047804630e+02
1.971533737422232813e+00 5.184067214063413758e+02
1.971633759427073862e+00 5.183909677255909401e+02
1.971733781431914911e+00 5.183750372586546291e+02
1.971833803436755961e+00 5.183589299059123050e+02
1.971933825441596788e+00 5.183426455720056083e+02
1.972033847446438060e+00 5.183261841658472804e+02
1.972133869451279109e+00 5.183095456006269615e+02
1.972233891456120158e+00 5.182927297938201718e+02
1.972333913460961430e+00 5.182757366671967247e+02
1.972433935465802479e+00 5.182585661468260696e+02
1.972533957470643529e+00 5.182412181630869554e+02
1.972633979475484356e+00 5.182236926506725467e+02
1.972734001480325405e+00 5.182059895485982679e+02
1.972834023485166455e+00 5.181881088002099887e+02
1.972934045490007726e+00 5.181700503531892537e+02
1.973034067494848776e+00 5.181518141595604448e+02
1.973134089499689825e+00 5.181334001756970338e+02
1.973234111504531096e+00 5.181148083623291996e+02
1.973334133509371924e+00 5.180960386845489438e+02
1.973434155514212973e+00 5.180770911118165714e+02
1.973534177519054023e+00 5.180579656179667154e+02
1.973634199523895072e+00 5.180386621812148178e+02
1.973734221528736121e+00 5.180191807841616765e+02
1.973834243533577393e+00 5.179995214137998119e+02
1.973934265538418442e+00 5.179796840615194924e+02
1.974034287543259270e+00 5.179596687231139640e+02
1.974134309548100319e+00 5.179394753987827471e+02
1.974234331552941590e+00 5.179191040931395946e+02
1.974334353557782640e+00 5.178985548152163574e+02
1.974434375562623689e+00 5.178778275784648031e+02
1.974534397567464739e+00 5.178569224007688945e+02
1.974634419572305788e+00 5.178358393044404693e+02
1.974734441577146615e+00 5.178145783162296993e+02
1.974834463581987887e+00 5.177931394673271370e+02
1.974934485586828936e+00 5.177715227933675806e+02
1.975034507591669986e+00 5.177497283344359857e+02
1.975134529596511257e+00 5.177277561350690576e+02
1.975234551601352306e+00 5.177056062442597977e+02
1.975334573606193356e+00 5.176832787154622793e+02
1.975434595611034183e+00 5.176607736065943755e+02
1.975534617615875232e+00 5.176380909800386689e+02
1.975634639620716282e+00 5.176152309026510920e+02
1.975734661625557553e+00 5.175921934457578573e+02
1.975834683630398603e+00 5.175689786851635290e+02
1.975934705635239652e+00 5.175455867011504552e+02
1.976034727640080924e+00 5.175220175784828598e+02
1.976134749644921751e+00 5.174982714064093443e+02
1.976234771649762800e+00 5.174743482786636832e+02
1.976334793654603850e+00 5.174502482934703949e+02
1.976434815659444899e+00 5.174259715535431496e+02
1.976534837664285948e+00 5.174015181660894314e+02
1.976634859669127220e+00 5.173768882428105371e+02
1.976734881673968269e+00 5.173520818999044195e+02
1.976834903678809097e+00 5.173270992580671646e+02
1.976934925683650146e+00 5.173019404424924232e+02
1.977034947688491417e+00 5.172766055828770959e+02
1.977134969693332467e+00 5.172510948134172395e+02
1.977234991698173516e+00 5.172254082728130697e+02
1.977335013703014566e+00 5.171995461042668012e+02
1.977435035707855615e+00 5.171735084554861714e+02
1.977535057712696442e+00 5.171472954786837590e+02
1.977635079717537714e+00 5.171209073305745960e+02
1.977735101722378763e+00 5.170943441723821934e+02
1.977835123727219813e+00 5.170676061698347894e+02
1.977935145732061084e+00 5.170406934931655769e+02
1.978035167736902133e+00 5.170136063171131582e+02
1.978135189741743183e+00 5.169863448209218859e+02
1.978235211746584010e+00 5.169589091883403853e+02
1.978335233751425060e+00 5.169312996076217814e+02
1.978435255756266109e+00 5.169035162715225624e+02
1.978535277761107380e+00 5.168755593773016699e+02
1.978635299765948430e+00 5.168474291267198168e+02
1.978735321770789479e+00 5.168191257260380098e+02
1.978835343775630307e+00 5.167906493860166393e+02
1.978935365780471578e+00 5.167620003219149112e+02
1.979035387785312627e+00 5.167331787534862997e+02
1.979135409790153677e+00 5.167041849049810480e+02
1.979235431794994726e+00 5.166750190051409390e+02
1.979335453799835776e+00 5.166456812871986131e+02
1.979435475804677047e+00 5.166161719888763173e+02
1.979535497809517874e+00 5.165864913523816995e+02
1.979635519814358924e+00 5.165566396244072394e+02
1.979735541819199973e+00 5.165266170561266108e+02
1.979835563824041245e+00 5.164964239031919533e+02
1.979935585828882294e+00 5.164660604257323939e+02
1.980035607833723343e+00 5.164355268883505232e+02
1.980135629838564393e+00 5.164048235601171655e+02
1.980235651843405220e+00 5.163739507145711514e+02
1.980335673848246270e+00 5.163429086297146569e+02
1.980435695853087541e+00 5.163116975880091104e+02
1.980535717857928590e+00 5.162803178763729193e+02
1.980635739862769640e+00 5.162487697861764673e+02
1.980735761867610911e+00 5.162170536132385905e+02
1.980835783872451961e+00 5.161851696578233941e+02
1.980935805877292788e+00 5.161531182246332037e+02
1.981035827882133837e+00 5.161208996228078831e+02
1.981135849886974887e+00 5.160885141659175588e+02
1.981235871891815936e+00 5.160559621719603456e+02
1.981335893896657208e+00 5.160232439633543891e+02
1.981435915901498257e+00 5.159903598669360463e+02
1.981535937906339306e+00 5.159573102139530647e+02
1.981635959911180134e+00 5.159240953400598073e+02
1.981735981916021405e+00 5.158907155853124777e+02
1.981836003920862455e+00 5.158571712941620717e+02
1.981936025925703504e+00 5.158234628154503980e+02
1.982036047930544553e+00 5.157895905024045078e+02
1.982136069935385603e+00 5.157555547126280544e+02
1.982236091940226874e+00 5.157213558080989060e+02
1.982336113945067702e+00 5.156869941551603915e+02
1.982436135949908751e+00 5.156524701245156166e+02
1.982536157954749800e+00 5.156177840912214378e+02
1.982636179959591072e+00 5.155829364346816419e+02
1.982736201964432121e+00 5.155479275386403515e+02
1.982836223969273171e+00 5.155127577911750905e+02
1.982936245974114220e+00 5.154774275846883711e+02
1.983036267978955047e+00 5.154419373159030329e+02
1.983136289983796097e+00 5.154062873858533749e+02
1.983236311988637368e+00 5.153704781998777662e+02
1.983336333993478418e+00 5.153345101676120521e+02
1.983436355998319467e+00 5.152983837029798906e+02
1.983536378003160738e+00 5.152620992241875229e+02
1.983636400008001788e+00 5.152256571537134278e+02
1.983736422012842615e+00 5.151890579183018417e+02
1.983836444017683664e+00 5.151523019489532089e+02
1.983936466022524714e+00 5.151153896809173602e+02
1.984036488027365763e+00 5.150783215536830539e+02
1.984136510032207035e+00 5.150410980109702450e+02
1.984236532037048084e+00 5.150037195007229229e+02
1.984336554041889134e+00 5.149661864750964924e+02
1.984436576046729961e+00 5.149284993904519752e+02
1.984536598051571232e+00 5.148906587073456649e+02
1.984636620056412282e+00 5.148526648905178718e+02
1.984736642061253331e+00 5.148145184088893984e+02
1.984836664066094380e+00 5.147762197355428953e+02
1.984936686070935430e+00 5.147377693477217235e+02
1.985036708075776701e+00 5.146991677268141530e+02
1.985136730080617529e+00 5.146604153583468815e+02
1.985236752085458578e+00 5.146215127319729845e+02
1.985336774090299627e+00 5.145824603414615694e+02
1.985436796095140899e+00 5.145432586846897038e+02
1.985536818099981948e+00 5.145039082636282046e+02
1.985636840104822998e+00 5.144644095843340210e+02
1.985736862109664047e+00 5.144247631569387522e+02
1.985836884114504874e+00 5.143849694956359144e+02
1.985936906119345924e+00 5.143450291186713912e+02
1.986036928124187195e+00 5.143049425483333152e+02
1.986136950129028245e+00 5.142647103109378577e+02
1.986236972133869294e+00 5.142243329368202467e+02
1.986336994138710565e+00 5.141838109603216935e+02
1.986437016143551615e+00 5.141431449197785923e+02
1.986537038148392442e+00 5.141023353575094461e+02
1.986637060153233492e+00 5.140613828198050896e+02
1.986737082158074541e+00 5.140202878569143650e+02
1.986837104162915590e+00 5.139790510230319569e+02
1.986937126167756862e+00 5.139376728762880475e+02
1.987037148172597911e+00 5.138961539787331958e+02
1.987137170177438961e+00 5.138544948963282195e+02
1.987237192182279788e+00 5.138126961989291885e+02
1.987337214187121059e+00 5.137707584602759425e+02
1.987437236191962109e+00 5.137286822579783347e+02
1.987537258196803158e+00 5.136864681735038403e+02
1.987637280201644208e+00 5.136441167921640272e+02
1.987737302206485257e+00 5.136016287031003458e+02
1.987837324211326528e+00 5.135590044992718504e+02
1.987937346216167356e+00 5.135162447774398515e+02
1.988037368221008405e+00 5.134733501381570022e+02
1.988137390225849455e+00 5.134303211857500173e+02
1.988237412230690726e+00 5.133871585283081913e+02
1.988337434235531775e+00 5.133438627776682779e+02
1.988437456240372825e+00 5.133004345493999381e+02
1.988537478245213874e+00 5.132568744627920978e+02
1.988637500250054702e+00 5.132131831408378275e+02
1.988737522254895751e+00 5.131693612102199040e+02
1.988837544259737022e+00 5.131254093012963722e+02
1.988937566264578072e+00 5.130813280480848562e+02
1.989037588269419121e+00 5.130371180882490307e+02
1.989137610274260393e+00 5.129927800630816819e+02
1.989237632279101442e+00 5.129483146174909507e+02
1.989337654283942269e+00 5.129037223999843036e+02
1.989437676288783319e+00 5.128590040626529571e+02
1.989537698293624368e+00 5.128141602611558483e+02
1.989637720298465418e+00 5.127691916547071287e+02
1.989737742303306689e+00 5.127240989060546781e+02
1.989837764308147738e+00 5.126788826814695312e+02
1.989937786312988788e+00 5.126335436507262102e+02
1.990037808317829615e+00 5.125880824870890820e+02
1.990137830322670887e+00 5.125424998672937136e+02
1.990237852327511936e+00 5.124967964715330027e+02
1.990337874332352985e+00 5.124509729834386462e+02
1.990437896337194035e+00 5.124050300900653383e+02
1.990537918342035084e+00 5.123589684818734895e+02
1.990637940346876356e+00 5.123127888527133109e+02
1.990737962351717183e+00 5.122664918998074199e+02
1.990837984356558232e+00 5.122200783237337873e+02
1.990938006361399282e+00 5.121735488284070925e+02
1.991038028366240553e+00 5.121269041210657633e+02
1.991138050371081603e+00 5.120801449122479880e+02
1.991238072375922652e+00 5.120332719157805741e+02
1.991338094380763701e+00 5.119862858487566086e+02
1.991438116385604529e+00 5.119391874315213613e+02
1.991538138390445578e+00 5.118919773876518207e+02
1.991638160395286850e+00 5.118446564439396980e+02
1.991738182400127899e+00 5.117972253303736352e+02
1.991838204404968948e+00 5.117496847801202762e+02
1.991938226409810220e+00 5.117020355295069294e+02
1.992038248414651269e+00 5.116542783180029801e+02
1.992138270419492097e+00 5.116064138881999952e+02
1.992238292424333146e+00 5.115584429857964892e+02
1.992338314429174195e+00 5.115103663595746184e+02
1.992438336434015245e+00 5.114621847613849468e+02
1.992538358438856516e+00 5.114138989461267784e+02
1.992638380443697566e+00 5.113655096717288302e+02
1.992738402448538615e+00 5.113170176991291669e+02
1.992838424453379442e+00 5.112684237922580337e+02
1.992938446458220714e+00 5.112197287180173362e+02
1.993038468463061763e+00 5.111709332462613133e+02
1.993138490467902812e+00 5.111220381497763583e+02
1.993238512472743862e+00 5.110730442042632262e+02
1.993338534477584911e+00 5.110239521883170823e+02
1.993438556482426183e+00 5.109747628834045372e+02
1.993538578487267010e+00 5.109254770738489242e+02
1.993638600492108059e+00 5.108760955468054021e+02
1.993738622496949109e+00 5.108266190922448686e+02
1.993838644501790380e+00 5.107770485029305405e+02
1.993938666506631430e+00 5.107273845744006167e+02
1.994038688511472479e+00 5.106776281049444606e+02
1.994138710516313528e+00 5.106277798955865705e+02
1.994238732521154356e+00 5.105778407500625917e+02
1.994338754525995405e+00 5.105278114747987956e+02
1.994438776530836677e+00 5.104776928788934924e+02
1.994538798535677726e+00 5.104274857740948619e+02
1.994638820540518775e+00 5.103771909747801487e+02
1.994738842545360047e+00 5.103268092979344601e+02
1.994838864550201096e+00 5.102763415631303587e+02
1.994938886555041924e+00 5.102257885925060350e+02
1.995038908559882973e+00 5.101751512107443887e+02
1.995138930564724022e+00 5.101244302450518262e+02
1.995238952569565072e+00 5.100736265251370583e+02
1.995338974574406343e+00 5.100227408831874527e+02
1.995438996579247393e+00 5.099717741538514701e+02
1.995539018584088442e+00 5.099207271742138801e+02
1.995639040588929269e+00 5.098696007837737056e+02
1.995739062593770541e+00 5.098183958244251244e+02
1.995839084598611590e+00 5.097671131404326275e+02
1.995939106603452640e+00 5.097157535784115794e+02
1.996039128608293689e+00 5.096643179873037752e+02
1.996139150613134738e+00 5.096128072183573181e+02
1.996239172617975566e+00 5.095612221251024039e+02
1.996339194622816837e+00 5.095095635633308575e+02
1.996439216627657887e+00 5.094578323910733388e+02
1.996539238632498936e+00 5.094060294685746726e+02
1.996639260637340207e+00 5.093541556582755447e+02
1.996739282642181257e+00 5.093022118247850472e+02
1.996839304647022306e+00 5.092501988348626014e+02
1.996939326651863134e+00 5.091981175573907876e+02
1.997039348656704183e+00 5.091459688633560745e+02
1.997139370661545232e+00 5.090937536258243199e+02
1.997239392666386504e+00 5.090414727199181470e+02
1.997339414671227553e+00 5.089891270227931841e+02
1.997439436676068603e+00 5.089367174136154972e+02
1.997539458680909874e+00 5.088842447735385122e+02
1.997639480685750701e+00 5.088317099856802770e+02
1.997739502690591751e+00 5.087791139350979961e+02
1.997839524695432800e+00 5.087264575087674530e+02
1.997939546700273850e+00 5.086737415955579991e+02
1.998039568705114899e+00 5.086209670862082248e+02
1.998139590709956170e+00 5.085681348733047002e+02
1.998239612714797220e+00 5.085152458512559974e+02
1.998339634719638047e+00 5.084623009162704079e+02
1.998439656724479097e+00 5.084093009663313865e+02
1.998539678729320368e+00 5.083562469011750977e+02
1.998639700734161417e+00 5.083031396222629610e+02
1.998739722739002467e+00 5.082499800327628918e+02
1.998839744743843516e+00 5.081967690375210509e+02
1.998939766748684566e+00 5.081435075430399593e+02
1.999039788753525393e+00 5.080901964574526346e+02
1.999139810758366664e+00 5.080368366905004223e+02
1.999239832763207714e+00 5.079834291535074158e+02
1.999339854768048763e+00 5.079299747593564121e+02
1.999439876772890035e+00 5.078764744224636161e+02
1.999539898777731084e+00 5.078229290587574951e+02
1.999639920782572133e+00 5.077693395856492202e+02
1.999739942787412961e+00 5.077157069220133394e+02
1.999839964792254010e+00 5.076620319881589580e+02
1.999939986797095060e+00 5.076083157058083088e+02
2.000040008801936331e+00 5.120303429743466950e+02
2.000140030806777602e+00 5.121324895098435945e+02
2.000240052811618430e+00 5.122346615321476975e+02
2.000340074816459701e+00 5.123368578028788534e+02
2.000440096821300529e+00 5.124390770795694152e+02
2.000540118826141356e+00 5.125413181156771998e+02
2.000640140830982627e+00 5.126435796605960604e+02
2.000740162835823899e+00 5.127458604596683927e+02
2.000840184840664726e+00 5.128481592541972987e+02
2.000940206845505998e+00 5.129504747814578423e+02
2.001040228850347269e+00 5.130528057747103503e+02
2.001140250855187652e+00 5.131551509632120087e+02
2.001240272860028924e+00 5.132575090722292543e+02
2.001340294864870195e+00 5.133598788230501668e+02
2.001440316869711022e+00 5.134622589329984521e+02
2.001540338874552294e+00 5.135646481154441290e+02
2.001640360879393565e+00 5.136670450798181946e+02
2.001740382884234393e+00 5.137694485316238797e+02
2.001840404889075220e+00 5.138718571724502908e+02
2.001940426893916491e+00 5.139742696999870759e+02
2.002040448898757319e+00 5.140766848080353384e+02
2.002140470903598590e+00 5.141791011865219616e+02
2.002240492908439862e+00 5.142815175215138197e+02
2.002340514913280689e+00 5.143839324952299421e+02
2.002440536918121960e+00 5.144863447860565202e+02
2.002540558922962788e+00 5.145887530685590718e+02
2.002640580927804059e+00 5.146911560134977890e+02
2.002740602932644887e+00 5.147935522878410666e+02
2.002840624937486158e+00 5.148959405547795996e+02
2.002940646942326985e+00 5.149983194737393433e+02
2.003040668947168257e+00 5.151006877003983391e+02
2.003140690952009528e+00 5.152030438866987652e+02
2.003240712956850356e+00 5.153053866808620569e+02
2.003340734961691183e+00 5.154077147274043682e+02
2.003440756966532454e+00 5.155100266671507825e+02
2.003540778971373726e+00 5.156123211372491824e+02
2.003640800976214553e+00 5.157145967711861658e+02
2.003740822981055825e+00 5.158168521988020530e+02
2.003840844985896652e+00 5.159190860463055515e+02
2.003940866990737923e+00 5.160212969362896729e+02
2.004040888995578751e+00 5.161234834877451476e+02
2.004140911000420022e+00 5.162256443160791832e+02
2.004240933005260850e+00 5.163277780331269469e+02
2.004340955010102121e+00 5.164298832471712331e+02
2.004440977014943392e+00 5.165319585629541734e+02
2.004540999019784220e+00 5.166340025816971320e+02
2.004641021024625047e+00 5.167360139011125284e+02
2.004741043029466319e+00 5.168379911154237334e+02
2.004841065034307590e+00 5.169399328153783699e+02
2.004941087039148417e+00 5.170418375882657074e+02
2.005041109043989689e+00 5.171437040179325777e+02
2.005141131048830516e+00 5.172455306848016789e+02
2.005241153053671788e+00 5.173473161658837398e+02
2.005341175058512615e+00 5.174490590347988928e+02
2.005441197063353886e+00 5.175507578617909985e+02
2.005541219068194714e+00 5.176524112137448128e+02
2.005641241073035985e+00 5.177540176542032668e+02
2.005741263077877257e+00 5.178555757433836106e+02
2.005841285082718084e+00 5.179570840381961716e+02
2.005941307087559355e+00 5.180585410922594747e+02
2.006041329092400183e+00 5.181599454559201376e+02
2.006141351097241010e+00 5.182612956762677641e+02
2.006241373102082282e+00 5.183625902971539290e+02
2.006341395106923553e+00 5.184638278592099141e+02
2.006441417111764380e+00 5.185650068998638744e+02
2.006541439116605652e+00 5.186661259533586872e+02
2.006641461121446923e+00 5.187671835507703690e+02
2.006741483126287307e+00 5.188681782200249017e+02
2.006841505131128578e+00 5.189691084859191506e+02
2.006941527135969849e+00 5.190699728701350750e+02
2.007041549140810677e+00 5.191707698912621254e+02
2.007141571145651948e+00 5.192714980648125902e+02
2.007241593150493220e+00 5.193721559032419464e+02
2.007341615155334047e+00 5.194727419159657984e+02
2.007441637160174874e+00 5.195732546093812516e+02
2.007541659165016146e+00 5.196736924868832830e+02
2.007641681169856973e+00 5.197740540488841816e+02
2.007741703174698245e+00 5.198743377928344671e+02
2.007841725179539516e+00 5.199745422132381236e+02
2.007941747184380343e+00 5.200746658016764741e+02
2.008041769189221615e+00 5.201747070468236416e+02
2.008141791194062442e+00 5.202746644344683773e+02
2.008241813198903714e+00 5.203745364475324777e+02
2.008341835203744541e+00 5.204743215660905662e+02
2.008441857208585812e+00 5.205740182673896470e+02
2.008541879213426640e+00 5.206736250258699101e+02
2.008641901218267911e+00 5.207731403131821253e+02
2.008741923223109183e+00 5.208725625982116298e+02
2.008841945227950010e+00 5.209718903470940177e+02
2.008941967232790837e+00 5.210711220232390133e+02
2.009041989237632109e+00 5.211702560873475250e+02
2.009142011242473380e+00 5.212692909974357462e+02
2.009242033247314208e+00 5.213682252088516407e+02
2.009342055252155479e+00 5.214670571742974516e+02
2.009442077256996306e+00 5.215657853438519851e+02
2.009542099261837578e+00 5.216644081649874352e+02
2.009642121266678405e+00 5.217629240825941679e+02
2.009742143271519677e+00 5.218613315389992522e+02
2.009842165276360504e+00 5.219596289739872645e+02
2.009942187281201775e+00 5.220578148248243906e+02
2.010042209286043047e+00 5.221558875262751371e+02
2.010142231290883874e+00 5.222538455106274569e+02
2.010242253295724701e+00 5.223516872077126436e+02
2.010342275300565973e+00 5.224494110449262507e+02
2.010442297305407244e+00 5.225470154472510558e+02
2.010542319310248072e+00 5.226444988372779790e+02
2.010642341315089343e+00 5.227418596352265467e+02
2.010742363319930170e+00 5.228390962589699029e+02
2.010842385324771442e+00 5.229362071240534533e+02
2.010942407329612269e+00 5.230331906437193084e+02
2.011042429334453541e+00 5.231300452289267469e+02
2.011142451339294368e+00 5.232267692883757491e+02
2.011242473344135639e+00 5.233233612285276877e+02
2.011342495348976911e+00 5.234198194536298843e+02
2.011442517353817738e+00 5.235161423657364139e+02
2.011542539358659010e+00 5.236123283647308426e+02
2.011642561363499837e+00 5.237083758483501015e+02
2.011742583368340664e+00 5.238042832122046093e+02
2.011842605373181936e+00 5.239000488498052164e+02
2.011942627378023207e+00 5.239956711525820765e+02
2.012042649382864035e+00 5.240911485099092033e+02
2.012142671387705306e+00 5.241864793091292540e+02
2.012242693392546578e+00 5.242816619355737657e+02
2.012342715397386961e+00 5.243766947725872569e+02
2.012442737402228232e+00 5.244715762015534892e+02
2.012542759407069504e+00 5.245663046019142257e+02
2.012642781411910331e+00 5.246608783511961747e+02
2.012742803416751602e+00 5.247552958250333859e+02
2.012842825421592874e+00 5.248495553971907839e+02
2.012942847426433701e+00 5.249436554395887242e+02
2.013042869431274529e+00 5.250375943223260720e+02
2.013142891436115800e+00 5.251313704137036211e+02
2.013242913440956627e+00 5.252249820802500153e+02
2.013342935445797899e+00 5.253184276867451672e+02
2.013442957450639170e+00 5.254117055962427685e+02
2.013542979455479998e+00 5.255048141700963242e+02
2.013643001460320825e+00 5.255977517679832545e+02
2.013743023465162096e+00 5.256905167479289958e+02
2.013843045470003368e+00 5.257831074663323534e+02
2.013943067474844195e+00 5.258755222779877840e+02
2.014043089479685467e+00 5.259677595361132489e+02
2.014143111484526294e+00 5.260598175923728377e+02
2.014243133489367565e+00 5.261516947969022340e+02
2.014343155494208393e+00 5.262433894983331584e+02
2.014443177499049664e+00 5.263349000438198573e+02
2.014543199503890492e+00 5.264262247790628635e+02
2.014643221508731763e+00 5.265173620483336663e+02
2.014743243513573034e+00 5.266083101945009730e+02
2.014843265518413862e+00 5.266990675590567434e+02
2.014943287523255133e+00 5.267896324821397229e+02
2.015043309528095961e+00 5.268800033025619314e+02
2.015143331532937232e+00 5.269701783578344703e+02
2.015243353537778059e+00 5.270601559841924200e+02
2.015343375542619331e+00 5.271499345166205330e+02
2.015443397547460158e+00 5.272395122888804053e+02
2.015543419552301430e+00 5.273288876335349187e+02
2.015643441557142701e+00 5.274180588819735931e+02
2.015743463561983528e+00 5.275070243644404400e+02
2.015843485566824356e+00 5.275957824100590869e+02
2.015943507571665627e+00 5.276843313468590395e+02
2.016043529576506899e+00 5.277726695018009195e+02
2.016143551581347726e+00 5.278607952008055690e+02
2.016243573586188997e+00 5.279487067687753097e+02
2.016343595591029825e+00 5.280364025296273667e+02
2.016443617595870652e+00 5.281238808063137640e+02
2.016543639600711924e+00 5.282111399208519060e+02
2.016643661605553195e+00 5.282981781943500437e+02
2.016743683610394022e+00 5.283849939470329673e+02
2.016843705615235294e+00 5.284715854982716792e+02
2.016943727620076565e+00 5.285579511666065855e+02
2.017043749624917393e+00 5.286440892697771687e+02
2.017143771629758220e+00 5.287299981247475671e+02
2.017243793634599491e+00 5.288156760477346552e+02
2.017343815639440319e+00 5.289011213542340784e+02
2.017443837644281590e+00 5.289863323590484470e+02
2.017543859649122862e+00 5.290713073763142802e+02
2.017643881653963689e+00 5.291560447195282677e+02
2.017743903658804960e+00 5.292405427015764872e+02
2.017843925663645788e+00 5.293247996347607796e+02
2.017943947668486615e+00 5.294088138308266025e+02
2.018043969673327886e+00 5.294925836009902014e+02
2.018143991678169158e+00 5.295761072559668037e+02
2.018244013683009985e+00 5.296593831059977902e+02
2.018344035687851257e+00 5.297424094608791165e+02
2.018444057692692528e+00 5.298251846299890531e+02
2.018544079697533355e+00 5.299077069223150147e+02
2.018644101702374183e+00 5.299899746464836880e+02
2.018744123707215454e+00 5.300719861107861561e+02
2.018844145712056282e+00 5.301537396232090487e+02
2.018944167716897553e+00 5.302352334914603489e+02
2.019044189721738825e+00 5.303164660229990659e+02
2.019144211726579652e+00 5.303974355250622921e+02
2.019244233731420479e+00 5.304781403046949890e+02
2.019344255736261751e+00 5.305585786687762493e+02
2.019444277741103022e+00 5.306387489240511286e+02
2.019544299745943849e+00 5.307186493771545202e+02
2.019644321750785121e+00 5.307982783346444648e+02
2.019744343755625948e+00 5.308776341030276171e+02
2.019844365760467220e+00 5.309567149887884625e+02
2.019944387765308047e+00 5.310355192984189898e+02
2.020044409770149318e+00 5.311140453384474540e+02
2.020144431774990146e+00 5.311922914154653199e+02
2.020244453779831417e+00 5.312702558361586398e+02
2.020344475784672689e+00 5.313479369073360203e+02
2.020444497789513516e+00 5.314253329359560212e+02
2.020544519794354787e+00 5.315024422291595556e+02
2.020644541799195615e+00 5.315792630942958112e+02
2.020744563804036886e+00 5.316557938389524907e+02
2.020844585808877714e+00 5.317320327709870753e+02
2.020944607813718985e+00 5.318079781985517229e+02
2.021044629818559812e+00 5.318836284301269188e+02
2.021144651823401084e+00 5.319589817745479650e+02
2.021244673828242355e+00 5.320340365410361301e+02
2.021344695833083183e+00 5.321087910392263893e+02
2.021444717837924010e+00 5.321832435791991429e+02
2.021544739842765281e+00 5.322573924715079556e+02
2.021644761847606553e+00 5.323312360272087744e+02
2.021744783852447380e+00 5.324047725578919881e+02
2.021844805857288652e+00 5.324780003757098257e+02
2.021944827862129479e+00 5.325509177934069385e+02
2.022044849866970306e+00 5.326235231243504131e+02
2.022144871871811578e+00 5.326958146825584208e+02
2.022244893876652849e+00 5.327677907827319359e+02
2.022344915881493677e+00 5.328394497402833849e+02
2.022444937886334948e+00 5.329107898713666600e+02
2.022544959891176219e+00 5.329818094929073595e+02
2.022644981896017047e+00 5.330525069226328014e+02
2.022745003900857874e+00 5.331228804791018092e+02
2.022845025905699146e+00 5.331929284817354073e+02
2.022945047910539973e+00 5.332626492508460387e+02
2.023045069915381244e+00 5.333320411076691698e+02
2.023145091920222516e+00 5.334011023743919395e+02
2.023245113925063343e+00 5.334698313741846505e+02
2.023345135929904615e+00 5.335382264312303278e+02
2.023445157934745442e+00 5.336062858707546184e+02
2.023545179939586269e+00 5.336740080190585331e+02
2.023645201944427541e+00 5.337413912035453905e+02
2.023745223949268812e+00 5.338084337527543539e+02
2.023845245954109640e+00 5.338751339963887403e+02
2.023945267958950911e+00 5.339414902653476247e+02
2.024045289963792182e+00 5.340075008917563082e+02
2.024145311968633010e+00 5.340731642089957631e+02
2.024245333973473837e+00 5.341384785517363980e+02
2.024345355978315109e+00 5.342034422559644327e+02
2.024445377983155936e+00 5.342680536590150950e+02
2.024545399987997207e+00 5.343323110996036576e+02
2.024645421992838479e+00 5.343962129178540863e+02
2.024745443997679306e+00 5.344597574553324648e+02
2.024845466002520133e+00 5.345229430550753023e+02
2.024945488007361405e+00 5.345857680616226162e+02
2.025045510012202676e+00 5.346482308210458996e+02
2.025145532017043504e+00 5.347103296809821131e+02
2.025245554021884775e+00 5.347720629906627892e+02
2.025345576026725603e+00 5.348334291009454091e+02
2.025445598031566874e+00 5.348944263643437580e+02
2.025545620036407701e+00 5.349550531350607798e+02
2.025645642041248973e+00 5.350153077690159762e+02
2.025745664046089800e+00 5.350751886238807629e+02
2.025845686050931072e+00 5.351346940591058683e+02
2.025945708055772343e+00 5.351938224359548713e+02
2.026045730060613170e+00 5.352525721175346689e+02
2.026145752065454442e+00 5.353109414688248080e+02
2.026245774070295269e+00 5.353689288567111362e+02
2.026345796075136541e+00 5.354265326500153606e+02
2.026445818079977368e+00 5.354837512195271074e+02
2.026545840084818639e+00 5.355405829380345040e+02
2.026645862089659467e+00 5.355970261803554422e+02
2.026745884094500738e+00 5.356530793233690702e+02
2.026845906099342010e+00 5.357087407460467148e+02
2.026945928104182837e+00 5.357640088294832594e+02
2.027045950109023664e+00 5.358188819569282941e+02
2.027145972113864936e+00 5.358733585138184026e+02
2.027245994118706207e+00 5.359274368878060386e+02
2.027346016123547034e+00 5.359811154687937460e+02
2.027446038128388306e+00 5.360343926489628075e+02
2.027546060133229133e+00 5.360872668228068960e+02
2.027646082138069961e+00 5.361397363871619746e+02
2.027746104142911232e+00 5.361917997412376735e+02
2.027846126147752503e+00 5.362434552866492368e+02
2.027946148152593331e+00 5.362947014274488993e+02
2.028046170157434602e+00 5.363455365701561277e+02
2.028146192162275874e+00 5.363959591237908171e+02
2.028246214167116701e+00 5.364459674999034178e+02
2.028346236171957528e+00 5.364955601126065403e+02
2.028446258176798800e+00 5.365447353786055373e+02
2.028546280181639627e+00 5.365934917172324958e+02
2.028646302186480899e+00 5.366418275504746589e+02
2.028746324191322170e+00 5.366897413030081907e+02
2.028846346196162997e+00 5.367372314022273940e+02
2.028946368201004269e+00 5.367842962782783616e+02
2.029046390205845096e+00 5.368309343640875113e+02
2.029146412210685924e+00 5.368771440953977390e+02
2.029246434215527195e+00 5.369229239107941112e+02
2.029346456220368466e+00 5.369682722517393358e+02
2.029446478225209294e+00 5.370131875626040028e+02
2.029546500230050565e+00 5.370576682906971655e+02
2.029646522234891837e+00 5.371017128862996515e+02
2.029746544239732664e+00 5.371453198026930522e+02
2.029846566244573491e+00 5.371884874961938294e+02
2.029946588249414763e+00 5.372312144261821913e+02
2.030046610254255590e+00 5.372734990551342662e+02
2.030146632259096862e+00 5.373153398486559809e+02
2.030246654263938133e+00 5.373567352755096636e+02
2.030346676268778960e+00 5.373976838076496279e+02
2.030446698273619788e+00 5.374381839202516176e+02
2.030546720278461059e+00 5.374782340917452075e+02
2.030646742283302331e+00 5.375178328038432483e+02
2.030746764288143158e+00 5.375569785415751767e+02
2.030846786292984429e+00 5.375956697933180521e+02
2.030946808297825257e+00 5.376339050508267974e+02
2.031046830302666528e+00 5.376716828092661444e+02
2.031146852307507356e+00 5.377090015672423533e+02
2.031246874312348627e+00 5.377458598268343621e+02
2.031346896317189454e+00 5.377822560936247100e+02
2.031446918322030726e+00 5.378181888767301189e+02
2.031546940326871997e+00 5.378536566888348034e+02
2.031646962331712825e+00 5.378886580462198026e+02
2.031746984336553652e+00 5.379231914687946983e+02
2.031847006341394923e+00 5.379572554801291062e+02
2.031947028346236195e+00 5.379908486074839402e+02
2.032047050351077022e+00 5.380239693818423348e+02
2.032147072355918294e+00 5.380566163379405680e+02
2.032247094360759121e+00 5.380887880142990980e+02
2.032347116365600392e+00 5.381204829532545091e+02
2.032447138370441220e+00 5.381516997009903207e+02
2.032547160375282491e+00 5.381824368075667735e+02
2.032647182380123319e+00 5.382126928269537984e+02
2.032747204384964590e+00 5.382424663170609165e+02
2.032847226389805861e+00 5.382717558397680477e+02
2.032947248394646689e+00 5.383005599609573437e+02
2.033047270399487960e+00 5.383288772505426323e+02
2.033147292404328788e+00 5.383567062825029552e+02
2.033247314409169615e+00 5.383840456349106489e+02
2.033347336414010886e+00 5.384108938899630630e+02
2.033447358418852158e+00 5.384372496340153020e+02
2.033547380423692985e+00 5.384631114576072832e+02
2.033647402428534257e+00 5.384884779554990928e+02
2.033747424433375528e+00 5.385133477266959972e+02
2.033847446438215911e+00 5.385377193744864144e+02
2.033947468443057183e+00 5.385615915064649926e+02
2.034047490447898454e+00 5.385849627345696717e+02
2.034147512452739281e+00 5.386078316751072634e+02
2.034247534457580553e+00 5.386301969487880115e+02
2.034347556462421824e+00 5.386520571807526494e+02
2.034447578467262652e+00 5.386734110006067340e+02
2.034547600472103479e+00 5.386942570424472478e+02
2.034647622476944751e+00 5.387145939448952277e+02
2.034747644481785578e+00 5.387344203511264595e+02
2.034847666486626849e+00 5.387537349089003555e+02
2.034947688491468121e+00 5.387725362705911039e+02
2.035047710496308948e+00 5.387908230932188189e+02
2.035147732501150220e+00 5.388085940384771675e+02
2.035247754505991047e+00 5.388258477727669060e+02
2.035347776510832318e+00 5.388425829672228247e+02
2.035447798515673146e+00 5.388587982977470574e+02
2.035547820520514417e+00 5.388744924450357985e+02
2.035647842525355244e+00 5.388896640946127263e+02
2.035747864530196516e+00 5.389043119368559474e+02
2.035847886535037787e+00 5.389184346670297145e+02
2.035947908539878615e+00 5.389320309853148956e+02
2.036047930544719442e+00 5.389450995968356892e+02
2.036147952549560713e+00 5.389576392116931629e+02
2.036247974554401985e+00 5.389696485449931060e+02
2.036347996559242812e+00 5.389811263168759297e+02
2.036448018564084084e+00 5.389920712525458839e+02
2.036548040568924911e+00 5.390024820823019809e+02
2.036648062573766182e+00 5.390123575415668711e+02
2.036748084578607010e+00 5.390216963709146967e+02
2.036848106583448281e+00 5.390304973161038333e+02
2.036948128588289109e+00 5.390387591281034929e+02
2.037048150593130380e+00 5.390464805631239642e+02
2.037148172597971651e+00 5.390536603826468536e+02
2.037248194602812479e+00 5.390602973534529383e+02
2.037348216607653306e+00 5.390663902476514977e+02
2.037448238612494578e+00 5.390719378427103265e+02
2.037548260617335849e+00 5.390769389214847251e+02
2.037648282622176676e+00 5.390813922722442157e+02
2.037748304627017948e+00 5.390852966887059665e+02
2.037848326631858775e+00 5.390886509700583247e+02
2.037948348636700047e+00 5.390914539209943541e+02
2.038048370641540874e+00 5.390937043517374150e+02
2.038148392646382145e+00 5.390954010780719727e+02
2.038248414651222973e+00 5.390965429213703146e+02
2.038348436656064244e+00 5.390971287086226766e+02
2.038448458660905516e+00 5.390971572724653242e+02
2.038548480665746343e+00 5.390966274512079508e+02
2.038648502670587614e+00 5.390955380888640320e+02
2.038748524675428442e+00 5.390938880351774287e+02
2.038848546680269269e+00 5.390916761456518316e+02
2.038948568685110541e+00 5.390889012815781598e+02
2.039048590689951812e+00 5.390855623100624143e+02
2.039148612694792639e+00 5.390816581040552364e+02
2.039248634699633911e+00 5.390771875423777146e+02
2.039348656704475182e+00 5.390721495097511706e+02
2.039448678709315566e+00 5.390665428968248989e+02
2.039548700714156837e+00 5.390603666002011778e+02
2.039648722718998108e+00 5.390536195224680114e+02
2.039748744723838936e+00 5.390463005722209573e+02
2.039848766728680207e+00 5.390384086640955275e+02
2.039948788733521479e+00 5.390299427187921992e+02
2.040048810738362306e+00 5.390209016631035865e+02
2.040148832743203133e+00 5.390112844299435437e+02
2.040248854748044405e+00 5.390010899583726314e+02
2.040348876752885232e+00 5.389903171936263107e+02
2.040448898757726504e+00 5.389789650871414324e+02
2.040548920762567775e+00 5.389670325965836355e+02
2.040648942767408602e+00 5.389545186858746320e+02
2.040748964772249874e+00 5.389414223252180136e+02
2.040848986777090701e+00 5.389277424911267644e+02
2.040949008781931973e+00 5.389134781664497496e+02
2.041049030786772800e+00 5.388986283403988864e+02
2.041149052791614071e+00 5.388831920085742695e+02
2.041249074796454899e+00 5.388671681729921374e+02
2.041349096801296170e+00 5.388505558421111346e+02
2.041449118806137442e+00 5.388333540308565262e+02
2.041549140810978269e+00 5.388155617606494161e+02
2.041649162815819096e+00 5.387971780594306210e+02
2.041749184820660368e+00 5.387782019616876141e+02
2.041849206825501639e+00 5.387586325084799910e+02
2.041949228830342467e+00 5.387384687474656175e+02
2.042049250835183738e+00 5.387177097329274602e+02
2.042149272840024565e+00 5.386963545257967780e+02
2.042249294844865837e+00 5.386744021936802937e+02
2.042349316849706664e+00 5.386518518108860007e+02
2.042449338854547936e+00 5.386287024584474921e+02
2.042549360859388763e+00 5.386049532241502220e+02
2.042649382864230034e+00 5.385806032025559489e+02
2.042749404869071306e+00 5.385556514950280871e+02
2.042849426873912133e+00 5.385300972097567183e+02
2.042949448878752960e+00 5.385039394617847393e+02
2.043049470883594232e+00 5.384771773730295763e+02
2.043149492888435503e+00 5.384498100723117204e+02
2.043249514893276331e+00 5.384218366953766690e+02
2.043349536898117602e+00 5.383932563849200506e+02
2.043449558902958429e+00 5.383640682906125221e+02
2.043549580907799701e+00 5.383342715691255762e+02
2.043649602912640528e+00 5.383038653841515497e+02
2.043749624917481800e+00 5.382728489064317046e+02
2.043849646922322627e+00 5.382412213137789649e+02
2.043949668927163899e+00 5.382089817911015643e+02
2.044049690932005170e+00 5.381761295304274881e+02
2.044149712936845997e+00 5.381426637309273247e+02
2.044249734941687269e+00 5.381085835989388215e+02
2.044349756946528096e+00 5.380738883479898504e+02
2.044449778951368923e+00 5.380385771988219403e+02
2.044549800956210195e+00 5.380026493794140379e+02
2.044649822961051466e+00 5.379661041250054723e+02
2.044749844965892294e+00 5.379289406781177831e+02
2.044849866970733565e+00 5.378911582885805274e+02
2.044949888975574837e+00 5.378527562135506059e+02
2.045049910980415220e+00 5.378137337175389803e+02
2.045149932985256491e+00 5.377740900724302264e+02
2.045249954990097763e+00 5.377338245575058409e+02
2.045349976994938590e+00 5.376929364594677736e+02
2.045449998999779861e+00 5.376514250724603698e+02
2.045550021004621133e+00 5.376092896980902651e+02
2.045650043009461960e+00 5.375665296454534428e+02
2.045750065014302788e+00 5.375231442311524006e+02
2.045850087019144059e+00 5.374791327793194569e+02
2.045950109023984886e+00 5.374344946216410790e+02
2.046050131028826158e+00 5.373892290973759600e+02
2.046150153033667429e+00 5.373433355533783242e+02
2.046250175038508257e+00 5.372968133441195278e+02
2.046350197043349528e+00 5.372496618317081811e+02
2.046450219048190355e+00 5.372018803859131140e+02
2.046550241053031627e+00 5.371534683841829292e+02
2.046650263057872454e+00 5.371044252116679445e+02
2.046750285062713726e+00 5.370547502612387234e+02
2.046850307067554553e+00 5.370044429335121094e+02
2.046950329072395824e+00 5.369535026368648687e+02
2.047050351077237096e+00 5.369019287874604061e+02
2.047150373082077923e+00 5.368497208092653636e+02
2.047250395086918751e+00 5.367968781340695159e+02
2.047350417091760022e+00 5.367434002015099850e+02
2.047450439096601293e+00 5.366892864590859062e+02
2.047550461101442121e+00 5.366345363621828710e+02
2.047650483106283392e+00 5.365791493740898659e+02
2.047750505111124220e+00 5.365231249660192816e+02
2.047850527115965491e+00 5.364664626171272630e+02
2.047950549120806318e+00 5.364091618145331495e+02
2.048050571125647590e+00 5.363512220533376649e+02
2.048150593130488417e+00 5.362926428366426990e+02
2.048250615135329689e+00 5.362334236755700658e+02
2.048350637140170960e+00 5.361735640892800348e+02
2.048450659145011787e+00 5.361130636049917939e+02
2.048550681149852615e+00 5.360519217579989117e+02
2.048650703154693886e+00 5.359901380916915059e+02
2.048750725159535158e+00 5.359277121575717047e+02
2.048850747164375985e+00 5.358646435152728600e+02
2.048950769169217256e+00 5.358009317325769416e+02
2.049050791174058084e+00 5.357365763854346596e+02
2.049150813178898911e+00 5.356715770579805849e+02
2.049250835183740183e+00 5.356059333425523619e+02
2.049350857188581454e+00 5.355396448397071936e+02
2.049450879193422281e+00 5.354727111582411681e+02
2.049550901198263553e+00 5.354051319152042652e+02
2.049650923203104824e+00 5.353369067359187738e+02
2.049750945207945652e+00 5.352680352539957767e+02
2.049850967212786479e+00 5.351985171113528850e+02
2.049950989217627750e+00 5.351283519582292456e+02
2.050051011222468578e+00 5.350575394532035034e+02
2.050151033227309849e+00 5.349860792632109678e+02
2.050251055232151121e+00 5.349139710635572555e+02
2.050351077236991948e+00 5.348412145379373897e+02
2.050451099241833219e+00 5.347678093784486464e+02
2.050551121246674047e+00 5.346937552856109050e+02
2.050651143251514874e+00 5.346190519683776756e+02
2.050751165256356146e+00 5.345436991441544023e+02
2.050851187261197417e+00 5.344676965388138115e+02
2.050951209266038244e+00 5.343910438867092125e+02
2.051051231270879516e+00 5.343137409306933705e+02
2.051151253275720787e+00 5.342357874221291922e+02
2.051251275280561615e+00 5.341571831209083712e+02
2.051351297285402442e+00 5.340779277954634381e+02
2.051451319290243713e+00 5.339980212227839047e+02
2.051551341295084541e+00 5.339174631884302471e+02
2.051651363299925812e+00 5.338362534865483440e+02
2.051751385304767084e+00 5.337543919198818685e+02
2.051851407309607911e+00 5.336718782997910466e+02
2.051951429314448738e+00 5.335887124462607289e+02
2.052051451319290010e+00 5.335048941879171025e+02
2.052151473324131281e+00 5.334204233620419018e+02
2.052251495328972108e+00 5.333352998145840047e+02
2.052351517333813380e+00 5.332495234001742119e+02
2.052451539338654207e+00 5.331630939821368429e+02
2.052551561343495479e+00 5.330760114325032646e+02
2.052651583348336306e+00 5.329882756320265571e+02
2.052751605353177577e+00 5.328998864701910634e+02
2.052851627358018405e+00 5.328108438452268274e+02
2.052951649362859676e+00 5.327211476641218724e+02
2.053051671367700948e+00 5.326307978426328873e+02
2.053151693372541775e+00 5.325397943053005747e+02
2.053251715377383047e+00 5.324481369854568129e+02
2.053351737382223874e+00 5.323558258252411406e+02
2.053451759387065145e+00 5.322628607756092833e+02
2.053551781391905973e+00 5.321692417963454318e+02
2.053651803396747244e+00 5.320749688560736104e+02
2.053751825401588071e+00 5.319800419322691596e+02
2.053851847406429343e+00 5.318844610112683995e+02
2.053951869411270614e+00 5.317882260882822720e+02
2.054051891416111442e+00 5.316913371674027076e+02
2.054151913420952269e+00 5.315937942616169494e+02
2.054251935425793540e+00 5.314955973928160802e+02
2.054351957430634812e+00 5.313967465918054813e+02
2.054451979435475639e+00 5.312972418983146099e+02
2.054552001440316911e+00 5.311970833610081399e+02
2.054652023445157738e+00 5.310962710374939206e+02
2.054752045449998565e+00 5.309948049943326396e+02
2.054852067454839837e+00 5.308926853070493053e+02
2.054952089459681108e+00 5.307899120601396135e+02
2.055052111464521936e+00 5.306864853470819980e+02
2.055152133469363207e+00 5.305824052703424059e+02
2.055252155474204478e+00 5.304776719413883939e+02
2.055352177479045306e+00 5.303722854806932219e+02
2.055452199483886133e+00 5.302662460177456296e+02
2.055552221488727405e+00 5.301595536910589317e+02
2.055652243493568232e+00 5.300522086481785209e+02
2.055752265498409503e+00 5.299442110456895989e+02
2.055852287503250775e+00 5.298355610492249070e+02
2.055952309508091602e+00 5.297262588334726843e+02
2.056052331512932874e+00 5.296163045821840569e+02
2.056152353517773701e+00 5.295056984881796325e+02
2.056252375522614528e+00 5.293944407533577987e+02
2.056352397527455800e+00 5.292825315886998396e+02
2.056452419532297071e+00 5.291699712142794851e+02
2.056552441537137899e+00 5.290567598592657532e+02
2.056652463541979170e+00 5.289428977619332954e+02
2.056752485546820441e+00 5.288283851696655802e+02
2.056852507551661269e+00 5.287132223389626233e+02
2.056952529556502096e+00 5.285974095354467863e+02
2.057052551561343368e+00 5.284809470338677784e+02
2.057152573566184195e+00 5.283638351181086819e+02
2.057252595571025466e+00 5.282460740811920914e+02
2.057352617575866738e+00 5.281276642252834108e+02
2.057452639580707565e+00 5.280086058616977880e+02
2.057552661585548393e+00 5.278888993109052308e+02
2.057652683590389664e+00 5.277685449025331081e+02
2.057752705595230935e+00 5.276475429753736535e+02
2.057852727600071763e+00 5.275258938773848740e+02
2.057952749604913034e+00 5.274035979656990776e+02
2.058052771609753862e+00 5.272806556066224175e+02
2.058152793614595133e+00 5.271570671756422826e+02
2.058252815619435960e+00 5.270328330574297979e+02
2.058352837624277232e+00 5.269079536458418715e+02
2.058452859629118059e+00 5.267824293439277881e+02
2.058552881633959331e+00 5.266562605639287540e+02
2.058652903638800602e+00 5.265294477272840368e+02
2.058752925643641429e+00 5.264019912646322155e+02
2.058852947648482701e+00 5.262738916158137954e+02
2.058952969653323528e+00 5.261451492298737094e+02
2.059052991658164800e+00 5.260157645650654104e+02
2.059153013663005627e+00 5.258857380888501893e+02
2.059253035667846898e+00 5.257550702779006997e+02
2.059353057672687726e+00 5.256237616181036856e+02
2.059453079677528997e+00 5.254918126045596409e+02
2.059553101682370269e+00 5.253592237415848558e+02
2.059653123687211096e+00 5.252259955427141449e+02
2.059753145692051923e+00 5.250921285306999380e+02
2.059853167696893195e+00 5.249576232375150084e+02
2.059953189701734466e+00 5.248224802043507680e+02
2.060053211706575294e+00 5.246866999816209045e+02
2.060153233711416565e+00 5.245502831289597907e+02
2.060253255716257392e+00 5.244132302152228249e+02
2.060353277721098220e+00 5.242755418184873406e+02
2.060453299725939491e+00 5.241372185260506740e+02
2.060553321730780763e+00 5.239982609344338016e+02
2.060653343735621590e+00 5.238586696493753152e+02
2.060753365740462861e+00 5.237184452858356281e+02
2.060853387745304133e+00 5.235775884679935643e+02
2.060953409750144960e+00 5.234360998292453360e+02
2.061053431754985787e+00 5.232939800122045426e+02
2.061153453759827059e+00 5.231512296687008075e+02
2.061253475764667886e+00 5.230078494597763665e+02
2.061353497769509158e+00 5.228638400556859551e+02
2.061453519774350429e+00 5.227192021358955571e+02
2.061553541779191256e+00 5.225739363890780851e+02
2.061653563784032528e+00 5.224280435131126978e+02
2.061753585788873355e+00 5.222815242150822996e+02
2.061853607793714183e+00 5.221343792112701294e+02
2.061953629798555454e+00 5.219866092271579419e+02
2.062053651803396725e+00 5.218382149974221420e+02
2.062153673808237553e+00 5.216891972659312842e+02
2.062253695813078824e+00 5.215395567857419792e+02
2.062353717817920096e+00 5.213892943190963933e+02
2.062453739822760923e+00 5.212384106374179282e+02
2.062553761827601750e+00 5.210869065213069007e+02
2.062653783832443022e+00 5.209347827605373595e+02
2.062753805837283849e+00 5.207820401540528792e+02
2.062853827842125121e+00 5.206286795099607616e+02
2.062953849846966392e+00 5.204747016455288531e+02
2.063053871851807219e+00 5.203201073871813378e+02
2.063153893856648047e+00 5.201648975704907798e+02
2.063253915861489318e+00 5.200090730401770998e+02
2.063353937866330590e+00 5.198526346500976842e+02
2.063453959871171417e+00 5.196955832632465899e+02
2.063553981876012688e+00 5.195379197517451075e+02
2.063654003880853516e+00 5.193796449968384650e+02
2.063754025885694787e+00 5.192207598888871871e+02
2.063854047890535615e+00 5.190612653273644810e+02
2.063954069895376886e+00 5.189011622208456629e+02
2.064054091900217713e+00 5.187404514870042931e+02
2.064154113905058985e+00 5.185791340526056956e+02
2.064254135909900256e+00 5.184172108534970675e+02
2.064354157914741084e+00 5.182546828346041821e+02
2.064454179919582355e+00 5.180915509499212703e+02
2.064554201924423182e+00 5.179278161625049961e+02
2.064654223929264454e+00 5.177634794444652471e+02
2.064754245934105281e+00 5.175985417769602464e+02
2.064854267938946553e+00 5.174330041501837059e+02
2.064954289943787380e+00 5.172668675633620978e+02
2.065054311948628651e+00 5.171001330247419219e+02
2.065154333953469923e+00 5.169328015515834522e+02
2.065254355958310750e+00 5.167648741701518702e+02
2.065354377963151578e+00 5.165963519157068049e+02
2.065454399967992849e+00 5.164272358324947163e+02
2.065554421972834120e+00 5.162575269737388908e+02
2.065654443977674948e+00 5.160872264016300051e+02
2.065754465982516219e+00 5.159163351873172587e+02
2.065854487987357047e+00 5.157448544108964370e+02
2.065954509992197874e+00 5.155727851614030897e+02
2.066054531997039145e+00 5.154001285367993432e+02
2.066154554001880417e+00 5.152268856439650335e+02
2.066254576006721244e+00 5.150530575986866779e+02
2.066354598011562516e+00 5.148786455256463341e+02
2.066454620016403787e+00 5.147036505584126189e+02
2.066554642021244170e+00 5.145280738394268383e+02
2.066654664026085442e+00 5.143519165199937788e+02
2.066754686030926713e+00 5.141751797602685201e+02
2.066854708035767541e+00 5.139978647292465439e+02
2.066954730040608812e+00 5.138199726047505465e+02
2.067054752045450083e+00 5.136415045734194109e+02
2.067154774050290911e+00 5.134624618306957018e+02
2.067254796055131738e+00 5.132828455808124772e+02
2.067354818059973010e+00 5.131026570367812383e+02
2.067454840064813837e+00 5.129218974203801054e+02
2.067554862069655108e+00 5.127405679621401760e+02
2.067654884074496380e+00 5.125586699013316547e+02
2.067754906079337207e+00 5.123762044859519165e+02
2.067854928084178479e+00 5.121931729727112952e+02
2.067954950089019306e+00 5.120095766270191007e+02
2.068054972093860577e+00 5.118254167229713403e+02
2.068154994098701405e+00 5.116406945433348596e+02
2.068255016103542676e+00 5.114554113795346666e+02
2.068355038108383503e+00 5.112695685316382992e+02
2.068455060113224775e+00 5.110831673083425812e+02
2.068555082118066046e+00 5.108962090269577629e+02
2.068655104122906874e+00 5.107086950133930259e+02
2.068755126127747701e+00 5.105206266021428405e+02
2.068855148132588972e+00 5.103320051362689469e+02
2.068955170137430244e+00 5.101428319673865985e+02
2.069055192142271071e+00 5.099531084556498399e+02
2.069155214147112343e+00 5.097628359697338283e+02
2.069255236151953170e+00 5.095720158868199405e+02
2.069355258156794442e+00 5.093806495925796298e+02
2.069455280161635269e+00 5.091887384811574293e+02
2.069555302166476540e+00 5.089962839551560023e+02
2.069655324171317368e+00 5.088032874256173841e+02
2.069755346176158639e+00 5.086097503120087140e+02
2.069855368180999911e+00 5.084156740422020562e+02
2.069955390185840738e+00 5.082210600524595066e+02
2.070055412190681565e+00 5.080259097874163672e+02
2.070155434195522837e+00 5.078302247000609668e+02
2.070255456200364108e+00 5.076340062517199385e+02
2.070355478205204935e+00 5.074372559120373580e+02
2.070455500210046207e+00 5.072399751589592256e+02
2.070555522214887034e+00 5.070421654787147077e+02
2.070655544219728306e+00 5.068438283657957300e+02
2.070755566224569133e+00 5.066449653229418004e+02
2.070855588229410404e+00 5.064455778611173855e+02
2.070955610234251232e+00 5.062456674994965624e+02
2.071055632239092503e+00 5.060452357654418734e+02
2.071155654243933775e+00 5.058442841944850557e+02
2.071255676248774602e+00 5.056428143303091360e+02
2.071355698253615873e+00 5.054408277247266028e+02
2.071455720258456701e+00 5.052383259376612159e+02
2.071555742263297528e+00 5.050353105371284528e+02
2.071655764268138800e+00 5.048317830992129984e+02
2.071755786272980071e+00 5.046277452080510102e+02
2.071855808277820898e+00 5.044231984558081194e+02
2.071955830282662170e+00 5.042181444426594226e+02
2.072055852287503441e+00 5.040125847767686764e+02
2.072155874292343825e+00 5.038065210742676641e+02
2.072255896297185096e+00 5.035999549592332869e+02
2.072355918302026367e+00 5.033928880636681811e+02
2.072455940306867195e+00 5.031853220274788328e+02
2.072555962311708466e+00 5.029772584984531250e+02
2.072655984316549738e+00 5.027686991322395897e+02
2.072756006321390565e+00 5.025596455923241592e+02
2.072856028326231392e+00 5.023500995500092472e+02
2.072956050331072664e+00 5.021400626843903865e+02
2.073056072335913491e+00 5.019295366823345717e+02
2.073156094340754763e+00 5.017185232384572373e+02
2.073256116345596034e+00 5.015070240550994072e+02
2.073356138350436861e+00 5.012950408423046156e+02
2.073456160355278133e+00 5.010825753177956585e+02
2.073556182360118960e+00 5.008696292069523679e+02
2.073656204364960232e+00 5.006562042427855204e+02
2.073756226369801059e+00 5.004423021659166579e+02
2.073856248374642330e+00 5.002279247245518263e+02
2.073956270379483158e+00 5.000130736744584965e+02
2.074056292384324429e+00 4.997977507789396441e+02
2.074156314389165701e+00 4.995819578088136268e+02
2.074256336394006528e+00 4.993656965423851375e+02
2.074356358398847355e+00 4.991489687654232625e+02
2.074456380403688627e+00 4.989317762711355613e+02
2.074556402408529898e+00 4.987141208601441349e+02
2.074656424413370726e+00 4.984960043404594217e+02
2.074756446418211997e+00 4.982774285274556405e+02
2.074856468423052824e+00 4.980583952438445294e+02
2.074956490427894096e+00 4.978389063196511870e+02
2.075056512432734923e+00 4.976189635921863896e+02
2.075156534437576195e+00 4.973985689060227742e+02
2.075256556442417022e+00 4.971777241129679510e+02
2.075356578447258293e+00 4.969564310720366507e+02
2.075456600452099565e+00 4.967346916494267930e+02
2.075556622456940392e+00 4.965125077184924294e+02
2.075656644461781219e+00 4.962898811597152644e+02
2.075756666466622491e+00 4.960668138606803268e+02
2.075856688471463762e+00 4.958433077160461835e+02
2.075956710476304590e+00 4.956193646275207811e+02
2.076056732481145861e+00 4.953949865038325697e+02
2.076156754485986689e+00 4.951701752607023082e+02
2.076256776490827960e+00 4.949449328208168595e+02
2.076356798495668787e+00 4.947192611138010534e+02
2.076456820500510059e+00 4.944931620761886961e+02
2.076556842505350886e+00 4.942666376513961950e+02
2.076656864510192158e+00 4.940396897896930568e+02
2.076756886515033429e+00 4.938123204481738071e+02
2.076856908519874256e+00 4.935845315907300801e+02
2.076956930524715528e+00 4.933563251880209464e+02
2.077056952529556355e+00 4.931277032174450596e+02
2.077156974534397182e+00 4.928986676631104729e+02
2.077256996539238454e+00 4.926692205158068418e+02
2.077357018544079725e+00 4.924393637729759234e+02
2.077457040548920553e+00 4.922090994386800844e+02
2.077557062553761824e+00 4.919784295235770060e+02
2.077657084558603096e+00 4.917473560448847820e+02
2.077757106563443479e+00 4.915158810263564533e+02
2.077857128568284750e+00 4.912840064982477770e+02
2.077957150573126022e+00 4.910517344972863043e+02
2.078057172577966849e+00 4.908190670666447204e+02
2.078157194582808120e+00 4.905860062559055450e+02
2.078257216587649392e+00 4.903525541210351548e+02
2.078357238592490219e+00 4.901187127243487112e+02
2.078457260597331047e+00 4.898844841344831593e+02
2.078557282602172318e+00 4.896498704263640320e+02
2.078657304607013145e+00 4.894148736811749245e+02
2.078757326611854417e+00 4.891794959863257191e+02
2.078857348616695688e+00 4.889437394354224011e+02
2.078957370621536516e+00 4.887076061282335786e+02
2.079057392626377787e+00 4.884710981706606390e+02
2.079157414631218614e+00 4.882342176747048370e+02
2.079257436636059886e+00 4.879969667584359172e+02
2.079357458640900713e+00 4.877593475459590309e+02
2.079457480645741985e+00 4.875213621673843249e+02
2.079557502650582812e+00 4.872830127587923812e+02
2.079657524655424083e+00 4.870443014622032933e+02
2.079757546660265355e+00 4.868052304255425042e+02
2.079857568665106182e+00 4.865658018026106788e+02
2.079957590669947010e+00 4.863260177530470401e+02
2.080057612674788281e+00 4.860858804423005495e+02
2.080157634679629552e+00 4.858453920415922198e+02
2.080257656684470380e+00 4.856045547278864660e+02
2.080357678689311651e+00 4.853633706838534181e+02
2.080457700694152479e+00 4.851218420978382255e+02
2.080557722698993750e+00 4.848799711638261556e+02
2.080657744703834577e+00 4.846377600814092830e+02
2.080757766708675849e+00 4.843952110557518154e+02
2.080857788713516676e+00 4.841523262975567263e+02
2.080957810718357948e+00 4.839091080230311945e+02
2.081057832723199219e+00 4.836655584538526682e+02
2.081157854728040046e+00 4.834216798171336791e+02
2.081257876732880874e+00 4.831774743453879637e+02
2.081357898737722145e+00 4.829329442764957889e+02
2.081457920742563417e+00 4.826880918536673448e+02
2.081557942747404244e+00 4.824429193254112533e+02
2.081657964752245515e+00 4.821974289454967675e+02
2.081757986757086343e+00 4.819516229729186989e+02
2.081858008761927614e+00 4.817055036718637098e+02
2.081958030766768442e+00 4.814590733116735919e+02
2.082058052771609713e+00 4.812123341668098533e+02
2.082158074776450540e+00 4.809652885168182479e+02
2.082258096781291812e+00 4.807179386462930211e+02
2.082358118786133083e+00 4.804702868448414961e+02
2.082458140790973911e+00 4.802223354070470123e+02
2.082558162795815182e+00 4.799740866324332274e+02
2.082658184800656009e+00 4.797255428254289882e+02
2.082758206805496837e+00 4.794767062953291088e+02
2.082858228810338108e+00 4.792275793562619128e+02
2.082958250815179380e+00 4.789781643271489315e+02
2.083058272820020207e+00 4.787284635316711388e+02
2.083158294824861478e+00 4.784784792982287627e+02
2.083258316829702750e+00 4.782282139599084303e+02
2.083358338834543133e+00 4.779776698544432634e+02
2.083458360839384405e+00 4.777268493241763849e+02
2.083558382844225676e+00 4.774757547160243689e+02
2.083658404849066503e+00 4.772243883814389847e+02
2.083758426853907775e+00 4.769727526763706464e+02
2.083858448858749046e+00 4.767208499612298738e+02
2.083958470863589874e+00 4.764686826008507410e+02
2.084058492868430701e+00 4.762162529644519395e+02
2.084158514873271972e+00 4.759635634255998866e+02
2.084258536878112800e+00 4.757106163621701285e+02
2.084358558882954071e+00 4.754574141563098237e+02
2.084458580887795343e+00 4.752039591943986920e+02
2.084558602892636170e+00 4.749502538670116110e+02
2.084658624897476997e+00 4.746963005688803605e+02
2.084758646902318269e+00 4.744421016988534916e+02
2.084858668907159540e+00 4.741876596598605147e+02
2.084958690912000367e+00 4.739329768588704610e+02
2.085058712916841639e+00 4.736780557068549342e+02
2.085158734921682466e+00 4.734228986187487749e+02
2.085258756926523738e+00 4.731675080134103837e+02
2.085358778931364565e+00 4.729118863135845459e+02
2.085458800936205837e+00 4.726560359458605376e+02
2.085558822941046664e+00 4.723999593406354052e+02
2.085658844945887935e+00 4.721436589320734356e+02
2.085758866950729207e+00 4.718871371580671621e+02
2.085858888955570034e+00 4.716303964601967209e+02
2.085958910960411306e+00 4.713734392836929601e+02
2.086058932965252133e+00 4.711162680773942384e+02
2.086158954970093404e+00 4.708588852937092497e+02
2.086258976974934232e+00 4.706012933885765506e+02
2.086358998979775503e+00 4.703434948214243150e+02
2.086459020984616330e+00 4.700854920551296345e+02
2.086559042989457602e+00 4.698272875559805470e+02
2.086659064994298873e+00 4.695688837936332902e+02
2.086759086999139701e+00 4.693102832410741030e+02
2.086859109003980528e+00 4.690514883745780708e+02
2.086959131008821799e+00 4.687925016736675161e+02
2.087059153013663071e+00 4.685333256210741411e+02
2.087159175018503898e+00 4.682739627026958260e+02
2.087259197023345170e+00 4.680144154075572374e+02
2.087359219028185997e+00 4.677546862277692981e+02
2.087459241033026824e+00 4.674947776584882604e+02
2.087559263037868096e+00 4.672346921978729597e+02
2.087659285042709367e+00 4.669744323470475251e+02
2.087759307047550195e+00 4.667140006100565301e+02
2.087859329052391466e+00 4.664533994938263959e+02
2.087959351057232738e+00 4.661926315081229859e+02
2.088059373062073565e+00 4.659316991655112474e+02
2.088159395066914392e+00 4.656706049813126356e+02
2.088259417071755664e+00 4.654093514735651524e+02
2.088359439076596491e+00 4.651479411629809420e+02
2.088459461081437762e+00 4.648863765729043962e+02
2.088559483086279034e+00 4.646246602292718535e+02
2.088659505091119861e+00 4.643627946605696479e+02
2.088759527095961133e+00 4.641007823977905105e+02
2.088859549100801960e+00 4.638386259743945175e+02
2.088959571105642787e+00 4.635763279262651508e+02
2.089059593110484059e+00 4.633138907916680864e+02
2.089159615115325330e+00 4.630513171112106647e+02
2.089259637120166158e+00 4.627886094277967004e+02
2.089359659125007429e+00 4.625257702865864644e+02
2.089459681129848700e+00 4.622628022349558705e+02
2.089559703134689528e+00 4.619997078224504321e+02
2.089659725139530355e+00 4.617364896007459834e+02
2.089759747144371627e+00 4.614731501236062741e+02
2.089859769149212454e+00 4.612096919468384613e+02
2.089959791154053725e+00 4.609461176282532051e+02
2.090059813158894997e+00 4.606824297276197058e+02
2.090159835163735824e+00 4.604186308066255719e+02
2.090259857168576652e+00 4.601547234288335630e+02
2.090359879173417923e+00 4.598907101596363987e+02
2.090459901178259194e+00 4.596265935662182756e+02
2.090559923183100022e+00 4.593623762175089382e+02
2.090659945187941293e+00 4.590980606841418421e+02
2.090759967192782121e+00 4.588336495384114642e+02
2.090859989197623392e+00 4.585691453542314662e+02
2.090960011202464219e+00 4.583045507070893905e+02
2.091060033207305491e+00 4.580398681740051643e+02
2.091160055212146318e+00 4.577751003334881261e+02
2.091260077216987590e+00 4.575102497654935405e+02
2.091360099221828861e+00 4.572453190513801928e+02
2.091460121226669688e+00 4.569803107738658241e+02
2.091560143231510960e+00 4.567152275169859195e+02
2.091660165236351787e+00 4.564500718660480061e+02
2.091760187241193059e+00 4.561848464075914080e+02
2.091860209246033886e+00 4.559195537293417715e+02
2.091960231250875157e+00 4.556541964201665564e+02
2.092060253255715985e+00 4.553887770700370652e+02
2.092160275260557256e+00 4.551232982699785907e+02
2.092260297265398528e+00 4.548577626120300579e+02
2.092360319270239355e+00 4.545921726892013908e+02
2.092460341275080182e+00 4.543265310954287770e+02
2.092560363279921454e+00 4.540608404255305004e+02
2.092660385284762725e+00 4.537951032751644789e+02
2.092760407289603553e+00 4.535293222407851204e+02
2.092860429294444824e+00 4.532634999195985301e+02
2.092960451299285651e+00 4.529976389095187983e+02
2.093060473304126479e+00 4.527317418091259356e+02
2.093160495308967750e+00 4.524658112176208533e+02
2.093260517313809022e+00 4.521998497347811963e+02
2.093360539318649849e+00 4.519338599609195626e+02
2.093460561323491120e+00 4.516678444968378017e+02
2.093560583328332392e+00 4.514018059437842680e+02
2.093660605333173219e+00 4.511357469034093128e+02
2.093760627338014046e+00 4.508696699777228787e+02
2.093860649342855318e+00 4.506035777690487976e+02
2.093960671347696145e+00 4.503374728799830109e+02
2.094060693352537417e+00 4.500713579133473559e+02
2.094160715357378688e+00 4.498052354721476149e+02
2.094260737362219515e+00 4.495391081595290643e+02
2.094360759367060787e+00 4.492729785787318519e+02
2.094460781371901614e+00 4.490068493330487058e+02
2.094560803376742442e+00 4.487407230257791184e+02
2.094660825381583713e+00 4.484746022601868276e+02
2.094760847386424985e+00 4.482084896394538873e+02
2.094860869391265812e+00 4.479423877666411613e+02
2.094960891396107083e+00 4.476762992446388125e+02
2.095060913400948355e+00 4.474102266761262285e+02
2.095160935405789182e+00 4.471441726635258647e+02
2.095260957410630009e+00 4.468781398089608956e+02
2.095360979415471281e+00 4.466121307142104797e+02
2.095461001420312108e+00 4.463461479806651937e+02
2.095561023425153380e+00 4.460801942092845707e+02
2.095661045429994651e+00 4.458142720005513411e+02
2.095761067434835478e+00 4.455483839544284592e+02
2.095861089439676306e+00 4.452825326703166979e+02
2.095961111444517577e+00 4.450167207470063886e+02
2.096061133449358849e+00 4.447509507826381991e+02
2.096161155454199676e+00 4.444852253746557267e+02
2.096261177459040947e+00 4.442195471197639449e+02
2.096361199463881775e+00 4.439539186138830473e+02
2.096461221468723046e+00 4.436883424521063830e+02
2.096561243473563874e+00 4.434228212286561757e+02
2.096661265478405145e+00 4.431573575368378783e+02
2.096761287483245972e+00 4.428919539689987914e+02
2.096861309488087244e+00 4.426266131164828721e+02
2.096961331492928515e+00 4.423613375695854302e+02
2.097061353497769343e+00 4.420961299175132808e+02
2.097161375502610614e+00 4.418309927483364277e+02
2.097261397507451441e+00 4.415659286489462829e+02
2.097361419512292713e+00 4.413009402050132053e+02
2.097461441517133540e+00 4.410360300009392631e+02
2.097561463521974812e+00 4.407712006198175914e+02
2.097661485526815639e+00 4.405064546433872010e+02
2.097761507531656910e+00 4.402417946519892098e+02
2.097861529536498182e+00 4.399772232245232999e+02
2.097961551541339009e+00 4.397127429384041193e+02
2.098061573546179837e+00 4.394483563695177963e+02
2.098161595551021108e+00 4.391840660921776589e+02
2.098261617555862379e+00 4.389198746790809196e+02
2.098361639560703207e+00 4.386557847012652473e+02
2.098461661565544478e+00 4.383917987280651118e+02
2.098561683570385306e+00 4.381279193270672181e+02
2.098661705575226133e+00 4.378641490640694656e+02
2.098761727580067404e+00 4.376004905030348482e+02
2.098861749584908676e+00 4.373369462060492197e+02
2.098961771589749503e+00 4.370735187332778082e+02
2.099061793594590775e+00 4.368102106429213336e+02
2.099161815599432046e+00 4.365470244911729196e+02
2.099261837604272873e+00 4.362839628321755754e+02
2.099361859609113701e+00 4.360210282179773458e+02
2.099461881613954972e+00 4.357582231984898158e+02
2.099561903618795800e+00 4.354955503214424084e+02
2.099661925623637071e+00 4.352330121323417984e+02
2.099761947628478342e+00 4.349706111744278587e+02
2.099861969633319170e+00 4.347083499886300046e+02
2.099961991638160441e+00 4.344462311135239929e+02
2.100062013643001269e+00 4.341842570852905965e+02
2.100162035647842096e+00 4.339224304376708119e+02
2.100262057652683367e+00 4.336607537019236247e+02
2.100362079657524639e+00 4.333992294067832063e+02
2.100462101662365466e+00 4.331378600784152582e+02
2.100562123667206738e+00 4.328766482403760847e+02
2.100662145672048009e+00 4.326155964135685394e+02
2.100762167676888836e+00 4.323547071161988242e+02
2.100862189681729664e+00 4.320939828637347091e+02
2.100962211686570935e+00 4.318334261688622746e+02
2.101062233691411762e+00 4.315730395414453824e+02
2.101162255696253034e+00 4.313128254884803710e+02
2.101262277701094305e+00 4.310527865140552422e+02
2.101362299705935133e+00 4.307929251193066307e+02
2.101462321710775960e+00 4.305332438023789337e+02
2.101562343715617232e+00 4.302737450583792338e+02
2.101662365720458503e+00 4.300144313793383617e+02
2.101762387725299330e+00 4.297553052541659895e+02
2.101862409730140602e+00 4.294963691686104994e+02
2.101962431734981429e+00 4.292376256052154986e+02
2.102062453739822701e+00 4.289790770432796876e+02
2.102162475744663528e+00 4.287207259588128068e+02
2.102262497749504799e+00 4.284625748244952206e+02
2.102362519754345627e+00 4.282046261096351145e+02
2.102462541759186898e+00 4.279468822801287615e+02
2.102562563764028170e+00 4.276893457984160705e+02
2.102662585768868997e+00 4.274320191234413073e+02
2.102762607773709824e+00 4.271749047106107469e+02
2.102862629778551096e+00 4.269180050117508927e+02
2.102962651783392367e+00 4.266613224750680615e+02
2.103062673788233194e+00 4.264048595451051256e+02
2.103162695793074466e+00 4.261486186627041093e+02
2.103262717797915293e+00 4.258926022649599759e+02
2.103362739802756565e+00 4.256368127851843042e+02
2.103462761807597392e+00 4.253812526528603826e+02
2.103562783812438663e+00 4.251259242936055784e+02
2.103662805817279491e+00 4.248708301291279099e+02
2.103762827822120762e+00 4.246159725771869944e+02
2.103862849826962034e+00 4.243613540515519276e+02
2.103962871831802861e+00 4.241069769619631984e+02
2.104062893836644133e+00 4.238528437140879532e+02
2.104162915841484960e+00 4.235989567094838435e+02
2.104262937846325787e+00 4.233453183455560520e+02
2.104362959851167059e+00 4.230919310155184121e+02
2.104462981856008330e+00 4.228387971083516277e+02
2.104563003860849157e+00 4.225859190087654156e+02
2.104663025865690429e+00 4.223332990971551908e+02
2.104763047870531700e+00 4.220809397495661415e+02
2.104863069875372084e+00 4.218288433376503690e+02
2.104963091880213355e+00 4.215770122286282913e+02
2.105063113885054626e+00 4.213254487852484544e+02
2.105163135889895454e+00 4.210741553657483678e+02
2.105263157894736725e+00 4.208231343238151112e+02
2.105363179899577997e+00 4.205723880085458859e+02
2.105463201904418824e+00 4.203219187644082240e+02
2.105563223909259651e+00 4.200717289312005391e+02
2.105663245914100923e+00 4.198218208440151216e+02
2.105763267918941750e+00 4.195721968331956759e+02
2.105863289923783022e+00 4.193228592243016806e+02
2.105963311928624293e+00 4.190738103380671760e+02
2.106063333933465120e+00 4.188250524903636460e+02
2.106163355938306392e+00 4.185765879921601709e+02
2.106263377943147219e+00 4.183284191494859101e+02
2.106363399947988491e+00 4.180805482633913357e+02
2.106463421952829318e+00 4.178329776299090668e+02
2.106563443957670589e+00 4.175857095400167509e+02
2.106663465962511417e+00 4.173387462795990359e+02
2.106763487967352688e+00 4.170920901294080068e+02
2.106863509972193960e+00 4.168457433650273742e+02
2.106963531977034787e+00 4.165997082568324004e+02
2.107063553981875614e+00 4.163539870699546555e+02
2.107163575986716886e+00 4.161085820642425688e+02
2.107263597991558157e+00 4.158634954942240824e+02
2.107363619996398985e+00 4.156187296090708969e+02
2.107463642001240256e+00 4.153742866525590216e+02
2.107563664006081083e+00 4.151301688630333047e+02
2.107663686010922355e+00 4.148863784733684952e+02
2.107763708015763182e+00 4.146429177109353645e+02
2.107863730020604454e+00 4.143997887975608023e+02
2.107963752025445281e+00 4.141569939494927439e+02
2.108063774030286552e+00 4.139145353773639044e+02
2.108163796035127824e+00 4.136724152861526136e+02
2.108263818039968651e+00 4.134306358751513244e+02
2.108363840044809479e+00 4.131891993379249470e+02
2.108463862049650750e+00 4.129481078622786754e+02
2.108563884054492021e+00 4.127073636302204136e+02
2.108663906059332849e+00 4.124669688179252489e+02
2.108763928064174120e+00 4.122269255956990719e+02
2.108863950069014948e+00 4.119872361279435609e+02
2.108963972073856219e+00 4.117479025731212801e+02
2.109063994078697046e+00 4.115089270837187883e+02
2.109164016083538318e+00 4.112703118062124759e+02
2.109264038088379145e+00 4.110320588810325830e+02
2.109364060093220417e+00 4.107941704425293779e+02
2.109464082098061688e+00 4.105566486189374018e+02
2.109564104102902515e+00 4.103194955323405679e+02
2.109664126107743787e+00 4.100827132986383390e+02
2.109764148112584614e+00 4.098463040275112235e+02
2.109864170117425441e+00 4.096102698223833727e+02
2.109964192122266713e+00 4.093746127803947275e+02
2.110064214127107984e+00 4.091393349923599772e+02
2.110164236131948812e+00 4.089044385427395696e+02
2.110264258136790083e+00 4.086699255096033880e+02
2.110364280141631355e+00 4.084357979645965315e+02
2.110464302146471738e+00 4.082020579729089604e+02
2.110564324151313009e+00 4.079687075932383777e+02
2.110664346156154281e+00 4.077357488777590220e+02
2.110764368160995108e+00 4.075031838720885276e+02
2.110864390165836380e+00 4.072710146152528523e+02
2.110964412170677651e+00 4.070392431396561506e+02
2.111064434175518478e+00 4.068078714710465533e+02
2.111164456180359306e+00 4.065769016284832560e+02
2.111264478185200577e+00 4.063463356243050839e+02
2.111364500190041404e+00 4.061161754640971822e+02
2.111464522194882676e+00 4.058864231466594674e+02
2.111564544199723947e+00 4.056570806639744546e+02
2.111664566204564775e+00 4.054281500011750836e+02
2.111764588209406046e+00 4.051996331365128867e+02
2.111864610214246873e+00 4.049715320413270661e+02
2.111964632219088145e+00 4.047438486800132864e+02
2.112064654223928972e+00 4.045165850099891713e+02
2.112164676228770244e+00 4.042897429816690078e+02
2.112264698233611071e+00 4.040633245384258885e+02
2.112364720238452342e+00 4.038373316165669848e+02
2.112464742243293614e+00 4.036117661452983612e+02
2.112564764248134441e+00 4.033866300466970642e+02
2.112664786252975269e+00 4.031619252356792913e+02
2.112764808257816540e+00 4.029376536199710017e+02
2.112864830262657811e+00 4.027138171000761417e+02
2.112964852267498639e+00 4.024904175692494732e+02
2.113064874272339910e+00 4.022674569134638887e+02
2.113164896277180738e+00 4.020449370113824443e+02
2.113264918282022009e+00 4.018228597343288016e+02
2.113364940286862836e+00 4.016012269462563609e+02
2.113464962291704108e+00 4.013800405037217160e+02
2.113564984296544935e+00 4.011593022558523671e+02
2.113665006301386207e+00 4.009390140443205155e+02
2.113765028306227478e+00 4.007191777033128233e+02
2.113865050311068305e+00 4.004997950595027874e+02
2.113965072315909133e+00 4.002808679320216925e+02
2.114065094320750404e+00 4.000623981324296778e+02
2.114165116325591676e+00 3.998443874646898735e+02
2.114265138330432503e+00 3.996268377251378183e+02
2.114365160335273774e+00 3.994097507024555398e+02
2.114465182340114602e+00 3.991931281776429614e+02
2.114565204344955873e+00 3.989769719239919255e+02
2.114665226349796701e+00 3.987612837070561227e+02
2.114765248354637972e+00 3.985460652846260245e+02
2.114865270359478799e+00 3.983313184067023371e+02
2.114965292364320071e+00 3.981170448154680344e+02
2.115065314369161342e+00 3.979032462452618688e+02
2.115165336374002170e+00 3.976899244225518260e+02
2.115265358378843441e+00 3.974770810659094877e+02
2.115365380383684268e+00 3.972647178859841119e+02
2.115465402388525096e+00 3.970528365854747221e+02
2.115565424393366367e+00 3.968414388591063471e+02
2.115665446398207639e+00 3.966305263936047822e+02
2.115765468403048466e+00 3.964201008676677134e+02
2.115865490407889737e+00 3.962101639519438550e+02
2.115965512412731009e+00 3.960007173090056654e+02
2.116065534417571392e+00 3.957917625933224599e+02
2.116165556422412664e+00 3.955833014512397767e+02
2.116265578427253935e+00 3.953753355209520919e+02
2.116365600432094762e+00 3.951678664324784904e+02
2.116465622436936034e+00 3.949608958076395311e+02
2.116565644441777305e+00 3.947544252600325194e+02
2.116665666446618133e+00 3.945484563950070651e+02
2.116765688451458960e+00 3.943429908096421741e+02
2.116865710456300231e+00 3.941380300927224312e+02
2.116965732461141059e+00 3.939335758247145804e+02
2.117065754465982330e+00 3.937296295777447881e+02
2.117165776470823602e+00 3.935261929155739153e+02
2.117265798475664429e+00 3.933232673935776802e+02
2.117365820480505700e+00 3.931208545587207936e+02
2.117465842485346528e+00 3.929189559495366098e+02
2.117565864490187799e+00 3.927175730961042746e+02
2.117665886495028627e+00 3.925167075200254203e+02
2.117765908499869898e+00 3.923163607344047819e+02
2.117865930504710725e+00 3.921165342438254129e+02
2.117965952509551997e+00 3.919172295443290750e+02
2.118065974514393268e+00 3.917184481233946372e+02
2.118165996519234096e+00 3.915201914599165320e+02
2.118266018524074923e+00 3.913224610241827577e+02
2.118366040528916194e+00 3.911252582778557212e+02
2.118466062533757466e+00 3.909285846739506383e+02
2.118566084538598293e+00 3.907324416568153538e+02
2.118666106543439565e+00 3.905368306621090824e+02
2.118766128548280392e+00 3.903417531167836501e+02
2.118866150553121663e+00 3.901472104390636559e+02
2.118966172557962491e+00 3.899532040384240190e+02
2.119066194562803762e+00 3.897597353155748579e+02
2.119166216567644589e+00 3.895668056624374458e+02
2.119266238572485861e+00 3.893744164621280106e+02
2.119366260577327132e+00 3.891825690889380098e+02
2.119466282582167960e+00 3.889912649083157135e+02
2.119566304587008787e+00 3.888005052768456267e+02
2.119666326591850058e+00 3.886102915422329716e+02
2.119766348596691330e+00 3.884206250432829961e+02
2.119866370601532157e+00 3.882315071098840917e+02
2.119966392606373429e+00 3.880429390629893192e+02
2.120066414611214256e+00 3.878549222145996964e+02
2.120166436616055083e+00 3.876674578677450427e+02
2.120266458620896355e+00 3.874805473164688578e+02
2.120366480625737626e+00 3.872941918458090527e+02
2.120466502630578454e+00 3.871083927317821463e+02
2.120566524635419725e+00 3.869231512413666110e+02
2.120666546640260997e+00 3.867384686324861036e+02
2.120766568645101824e+00 3.865543461539920713e+02
2.120866590649942651e+00 3.863707850456498818e+02
2.120966612654783923e+00 3.861877865381208608e+02
2.121066634659624750e+00 3.860053518529470011e+02
2.121166656664466021e+00 3.858234822025357289e+02
2.121266678669307293e+00 3.856421787901449534e+02
2.121366700674148120e+00 3.854614428098662415e+02
2.121466722678989392e+00 3.852812754466114029e+02
2.121566744683830219e+00 3.851016778760971420e+02
2.121666766688671046e+00 3.849226512648302219e+02
2.121766788693512318e+00 3.847441967700934242e+02
2.121866810698353589e+00 3.845663155399303150e+02
2.121966832703194417e+00 3.843890087131333075e+02
2.122066854708035688e+00 3.842122774192281440e+02
2.122166876712876959e+00 3.840361227784597986e+02
2.122266898717717787e+00 3.838605459017817338e+02
2.122366920722558614e+00 3.836855478908383361e+02
2.122466942727399886e+00 3.835111298379567302e+02
2.122566964732240713e+00 3.833372928261296693e+02
2.122666986737081984e+00 3.831640379290070086e+02
2.122767008741923256e+00 3.829913662108788799e+02
2.122867030746764083e+00 3.828192787266665391e+02
2.122967052751604911e+00 3.826477765219094067e+02
2.123067074756446182e+00 3.824768606327532439e+02
2.123167096761287453e+00 3.823065320859380449e+02
2.123267118766128281e+00 3.821367918987875214e+02
2.123367140770969552e+00 3.819676410791960848e+02
2.123467162775810380e+00 3.817990806256204905e+02
2.123567184780651651e+00 3.816311115270667642e+02
2.123667206785492478e+00 3.814637347630797990e+02
2.123767228790333750e+00 3.812969513037340903e+02
2.123867250795174577e+00 3.811307621096226512e+02
2.123967272800015849e+00 3.809651681318462124e+02
2.124067294804857120e+00 3.808001703120053207e+02
2.124167316809697947e+00 3.806357695821884590e+02
2.124267338814539219e+00 3.804719668649647701e+02
2.124367360819380046e+00 3.803087630733722904e+02
2.124467382824221318e+00 3.801461591109116966e+02
2.124567404829062145e+00 3.799841558715352221e+02
2.124667426833903416e+00 3.798227542396387548e+02
2.124767448838744244e+00 3.796619550900541640e+02
2.124867470843585515e+00 3.795017592880398638e+02
2.124967492848426787e+00 3.793421676892726282e+02
2.125067514853267614e+00 3.791831811398415653e+02
2.125167536858108441e+00 3.790248004762387950e+02
2.125267558862949713e+00 3.788670265253522302e+02
2.125367580867790984e+00 3.787098601044584143e+02
2.125467602872631812e+00 3.785533020212168367e+02
2.125567624877473083e+00 3.783973530736604403e+02
2.125667646882313910e+00 3.782420140501909600e+02
2.125767668887154738e+00 3.780872857295727840e+02
2.125867690891996009e+00 3.779331688809245406e+02
2.125967712896837281e+00 3.777796642637158016e+02
2.126067734901678108e+00 3.776267726277588395e+02
2.126167756906519379e+00 3.774744947132053881e+02
2.126267778911360651e+00 3.773228312505388544e+02
2.126367800916201478e+00 3.771717829605702264e+02
2.126467822921042305e+00 3.770213505544335248e+02
2.126567844925883577e+00 3.768715347335801766e+02
2.126667866930724404e+00 3.767223361897756035e+02
2.126767888935565676e+00 3.765737556050930834e+02
2.126867910940406947e+00 3.764257936519103396e+02
2.126967932945247775e+00 3.762784509929060732e+02
2.127067954950089046e+00 3.761317282810552456e+02
2.127167976954929873e+00 3.759856261596271452e+02
2.127267998959770701e+00 3.758401452621795897e+02
2.127368020964611972e+00 3.756952862125580168e+02
2.127468042969453244e+00 3.755510496248907657e+02
2.127568064974294071e+00 3.754074361035874858e+02
2.127668086979135342e+00 3.752644462433362378e+02
2.127768108983976614e+00 3.751220806291004806e+02
2.127868130988817441e+00 3.749803398361178779e+02
2.127968152993658268e+00 3.748392244298978540e+02
2.128068174998499540e+00 3.746987349662201723e+02
2.128168197003340367e+00 3.745588719911325484e+02
2.128268219008181639e+00 3.744196360409507065e+02
2.128368241013022910e+00 3.742810276422559355e+02
2.128468263017863737e+00 3.741430473118942928e+02
2.128568285022704565e+00 3.740056955569766615e+02
2.128668307027545836e+00 3.738689728748778975e+02
2.128768329032387108e+00 3.737328797532359772e+02
2.128868351037227935e+00 3.735974166699523948e+02
2.128968373042069206e+00 3.734625840931923904e+02
2.129068395046910034e+00 3.733283824813845513e+02
2.129168417051751305e+00 3.731948122832219497e+02
2.129268439056592133e+00 3.730618739376621988e+02
2.129368461061433404e+00 3.729295678739288178e+02
2.129468483066274231e+00 3.727978945115130500e+02
2.129568505071115503e+00 3.726668542601732383e+02
2.129668527075956774e+00 3.725364475199373828e+02
2.129768549080797602e+00 3.724066746811056987e+02
2.129868571085638873e+00 3.722775361242509575e+02
2.129968593090479700e+00 3.721490322202215566e+02
2.130068615095320972e+00 3.720211633301436791e+02
2.130168637100161799e+00 3.718939298054233973e+02
2.130268659105003071e+00 3.717673319877495715e+02
2.130368681109843898e+00 3.716413702090974880e+02
2.130468703114685169e+00 3.715160447917305646e+02
2.130568725119526441e+00 3.713913560482051253e+02
2.130668747124367268e+00 3.712673042813722191e+02
2.130768769129208096e+00 3.711438897843833047e+02
2.130868791134049367e+00 3.710211128406931493e+02
2.130968813138890638e+00 3.708989737240630120e+02
2.131068835143731466e+00 3.707774726985667257e+02
2.131168857148572737e+00 3.706566100185937671e+02
2.131268879153413565e+00 3.705363859288554522e+02
2.131368901158254392e+00 3.704168006643888020e+02
2.131468923163095663e+00 3.702978544505609761e+02
2.131568945167936935e+00 3.701795475030755824e+02
2.131668967172777762e+00 3.700618800279798393e+02
2.131768989177619034e+00 3.699448522216664514e+02
2.131869011182460305e+00 3.698284642708820229e+02
2.131969033187301132e+00 3.697127163527335370e+02
2.132069055192141960e+00 3.695976086346929037e+02
2.132169077196983231e+00 3.694831412746046340e+02
2.132269099201824059e+00 3.693693144206927172e+02
2.132369121206665330e+00 3.692561282115663062e+02
2.132469143211506601e+00 3.691435827762285271e+02
2.132569165216347429e+00 3.690316782340823920e+02
2.132669187221188700e+00 3.689204146949382448e+02
2.132769209226029528e+00 3.688097922590228563e+02
2.132869231230870355e+00 3.686998110169860183e+02
2.132969253235711626e+00 3.685904710499084445e+02
2.133069275240552898e+00 3.684817724293112065e+02
2.133169297245393725e+00 3.683737152171635216e+02
2.133269319250234997e+00 3.682662994658915068e+02
2.133369341255076268e+00 3.681595252183869889e+02
2.133469363259917095e+00 3.680533925080160316e+02
2.133569385264757923e+00 3.679479013586295650e+02
2.133669407269599194e+00 3.678430517845712870e+02
2.133769429274440022e+00 3.677388437906885201e+02
2.133869451279281293e+00 3.676352773723413065e+02
2.133969473284122564e+00 3.675323525154122990e+02
2.134069495288963392e+00 3.674300691963180725e+02
2.134169517293804219e+00 3.673284273820181625e+02
2.134269539298645491e+00 3.672274270300266608e+02
2.134369561303486762e+00 3.671270680884215949e+02
2.134469583308327589e+00 3.670273504958585136e+02
2.134569605313168861e+00 3.669282741815794111e+02
2.134669627318009688e+00 3.668298390654239824e+02
2.134769649322850960e+00 3.667320450578426971e+02
2.134869671327691787e+00 3.666348920599077132e+02
2.134969693332533058e+00 3.665383799633251556e+02
2.135069715337373886e+00 3.664425086504463138e+02
2.135169737342215157e+00 3.663472779942810575e+02
2.135269759347056429e+00 3.662526878585093186e+02
2.135369781351897256e+00 3.661587380974950747e+02
2.135469803356738527e+00 3.660654285562983432e+02
2.135569825361579355e+00 3.659727590706878573e+02
2.135669847366420626e+00 3.658807294671551062e+02
2.135769869371261453e+00 3.657893395629275233e+02
2.135869891376102725e+00 3.656985891659817298e+02
2.135969913380943552e+00 3.656084780750588266e+02
2.136069935385784824e+00 3.655190060796758758e+02
2.136169957390625651e+00 3.654301729601424427e+02
2.136269979395466923e+00 3.653419784875727601e+02
2.136370001400307750e+00 3.652544224239029518e+02
2.136470023405149021e+00 3.651675045219033109e+02
2.136570045409990293e+00 3.650812245251939885e+02
2.136670067414831120e+00 3.649955821682611941e+02
2.136770089419672392e+00 3.649105771764707811e+02
2.136870111424513219e+00 3.648262092660848452e+02
2.136970133429354046e+00 3.647424781442763901e+02
2.137070155434195318e+00 3.646593835091466644e+02
2.137170177439036589e+00 3.645769250497396570e+02
2.137270199443877416e+00 3.644951024460584676e+02
2.137370221448718688e+00 3.644139153690829289e+02
2.137470243453559959e+00 3.643333634807844987e+02
2.137570265458400343e+00 3.642534464341440525e+02
2.137670287463241614e+00 3.641741638731687090e+02
2.137770309468082885e+00 3.640955154329084280e+02
2.137870331472923713e+00 3.640175007394725526e+02
2.137970353477764984e+00 3.639401194100497037e+02
2.138070375482606256e+00 3.638633710529233554e+02
2.138170397487447083e+00 3.637872552674887743e+02
2.138270419492287910e+00 3.637117716442740516e+02
2.138370441497129182e+00 3.636369197649553371e+02
2.138470463501970009e+00 3.635626992023772459e+02
2.138570485506811281e+00 3.634891095205682632e+02
2.138670507511652552e+00 3.634161502747639361e+02
2.138770529516493379e+00 3.633438210114222784e+02
2.138870551521334651e+00 3.632721212682423584e+02
2.138970573526175478e+00 3.632010505741867519e+02
2.139070595531016750e+00 3.631306084494976858e+02
2.139170617535857577e+00 3.630607944057179566e+02
2.139270639540698848e+00 3.629916079457105411e+02
2.139370661545539676e+00 3.629230485636782078e+02
2.139470683550380947e+00 3.628551157451834115e+02
2.139570705555222219e+00 3.627878089671688713e+02
2.139670727560063046e+00 3.627211276979777494e+02
2.139770749564903873e+00 3.626550713973733195e+02
2.139870771569745145e+00 3.625896395165615900e+02
2.139970793574586416e+00 3.625248314982095508e+02
