1.900056013443226277e+00 5.152093446653258297e+02
1.900156037448987645e+00 5.152054894422554980e+02
1.900256061454749013e+00 5.152016622133794499e+02
1.900356085460510380e+00 5.151978632473413882e+02
1.900456109466271748e+00 5.151940928113675682e+02
1.900556133472033338e+00 5.151903511712541786e+02
1.900656157477794705e+00 5.151866385913531303e+02
1.900756181483556073e+00 5.151829553345578461e+02
1.900856205489317441e+00 5.151793016622912091e+02
1.900956229495078809e+00 5.151756778344902159e+02
1.901056253500840176e+00 5.151720841095942660e+02
1.901156277506601544e+00 5.151685207445300421e+02
1.901256301512362912e+00 5.151649879946990040e+02
1.901356325518124279e+00 5.151614861139648838e+02
1.901456349523885647e+00 5.151580153546381098e+02
1.901556373529647015e+00 5.151545759674635292e+02
1.901656397535408383e+00 5.151511682016093800e+02
1.901756421541169750e+00 5.151477923046496699e+02
1.901856445546931118e+00 5.151444485225545122e+02
1.901956469552692486e+00 5.151411370996765982e+02
1.902056493558453854e+00 5.151378582787355072e+02
1.902156517564215221e+00 5.151346123008095219e+02
1.902256541569976589e+00 5.151313994053164151e+02
1.902356565575737957e+00 5.151282198300064010e+02
1.902456589581499546e+00 5.151250738109450822e+02
1.902556613587260914e+00 5.151219615825034452e+02
1.902656637593022282e+00 5.151188833773428541e+02
1.902756661598783650e+00 5.151158394264039089e+02
1.902856685604545017e+00 5.151128299588923483e+02
1.902956709610306385e+00 5.151098552022683634e+02
1.903056733616067753e+00 5.151069153822314775e+02
1.903156757621829120e+00 5.151040107227105409e+02
1.903256781627590488e+00 5.151011414458494073e+02
1.903356805633351856e+00 5.150983077719951098e+02
1.903456829639113224e+00 5.150955099196856963e+02
1.903556853644874591e+00 5.150927481056374972e+02
1.903656877650635959e+00 5.150900225447335288e+02
1.903756901656397327e+00 5.150873334500104193e+02
1.903856925662158694e+00 5.150846810326462446e+02
1.903956949667920062e+00 5.150820655019497281e+02
1.904056973673681430e+00 5.150794870653461430e+02
1.904156997679442798e+00 5.150769459283674223e+02
1.904257021685204609e+00 5.150744422946386294e+02
1.904357045690965755e+00 5.150719763658665897e+02
1.904457069696727345e+00 5.150695483418278400e+02
1.904557093702488491e+00 5.150671584203583961e+02
1.904657117708250080e+00 5.150648067973396564e+02
1.904757141714011226e+00 5.150624936666877147e+02
1.904857165719772816e+00 5.150602192203427876e+02
1.904957189725533961e+00 5.150579836482556857e+02
1.905057213731295551e+00 5.150557871383787187e+02
1.905157237737056697e+00 5.150536298766525078e+02
1.905257261742818287e+00 5.150515120469947306e+02
1.905357285748579432e+00 5.150494338312896616e+02
1.905457309754341022e+00 5.150473954093770317e+02
1.905557333760102168e+00 5.150453969590394081e+02
1.905657357765863757e+00 5.150434386559928726e+02
1.905757381771624903e+00 5.150415206738750840e+02
1.905857405777386493e+00 5.150396431842341372e+02
1.905957429783147639e+00 5.150378063565183311e+02
1.906057453788909228e+00 5.150360103580651412e+02
1.906157477794670818e+00 5.150342553540895096e+02
1.906257501800432186e+00 5.150325415076748641e+02
1.906357525806193554e+00 5.150308689797610668e+02
1.906457549811954921e+00 5.150292379291341831e+02
1.906557573817716289e+00 5.150276485124162491e+02
1.906657597823477657e+00 5.150261008840561772e+02
1.906757621829239024e+00 5.150245951963159996e+02
1.906857645835000392e+00 5.150231315992627970e+02
1.906957669840761760e+00 5.150217102407593757e+02
1.907057693846523128e+00 5.150203312664523310e+02
1.907157717852284495e+00 5.150189948197629519e+02
1.907257741858045863e+00 5.150177010418760801e+02
1.907357765863807231e+00 5.150164500717323790e+02
1.907457789869568598e+00 5.150152420460154872e+02
1.907557813875329966e+00 5.150140770991464478e+02
1.907657837881091334e+00 5.150129553632677926e+02
1.907757861886852702e+00 5.150118769682408129e+02
1.907857885892614069e+00 5.150108420416313493e+02
1.907957909898375659e+00 5.150098507087010375e+02
1.908057933904137027e+00 5.150089030924003737e+02
1.908157957909898395e+00 5.150079993133564358e+02
1.908257981915659762e+00 5.150071394898639028e+02
1.908358005921421130e+00 5.150063237378785743e+02
1.908458029927182498e+00 5.150055521710049788e+02
1.908558053932943865e+00 5.150048249004902345e+02
1.908658077938705233e+00 5.150041420352121122e+02
1.908758101944466601e+00 5.150035036816731235e+02
1.908858125950227969e+00 5.150029099439885840e+02
1.908958149955989336e+00 5.150023609238821791e+02
1.909058173961750704e+00 5.150018567206727766e+02
1.909158197967512072e+00 5.150013974312678329e+02
1.909258221973273439e+00 5.150009831501572535e+02
1.909358245979034807e+00 5.150006139694003195e+02
1.909458269984796175e+00 5.150002899786214812e+02
1.909558293990557543e+00 5.150000112649992161e+02
1.909658317996318910e+00 5.149997779132606865e+02
1.909758342002080278e+00 5.149995900056701430e+02
1.909858366007841868e+00 5.149994476220251727e+02
1.909958390013603236e+00 5.149993508396452171e+02
1.910058414019364603e+00 5.149992997333656604e+02
1.910158438025125971e+00 5.149992943755296437e+02
1.910258462030887339e+00 5.149993348359801075e+02
1.910358486036648706e+00 5.149994211820530836e+02
1.910458510042410074e+00 5.149995534785689415e+02
1.910558534048171442e+00 5.149997317878260219e+02
1.910658558053932810e+00 5.149999561695940429e+02
1.910758582059694177e+00 5.150002266811046638e+02
1.910858606065455545e+00 5.150005433770461423e+02
1.910958630071216913e+00 5.150009063095557167e+02
1.911058654076978280e+00 5.150013155282125581e+02
1.911158678082739648e+00 5.150017710800319719e+02
1.911258702088501016e+00 5.150022730094565304e+02
1.911358726094262384e+00 5.150028213583512979e+02
1.911458750100023751e+00 5.150034161659968959e+02
1.911558774105785119e+00 5.150040574690817721e+02
1.911658798111546709e+00 5.150047453016979944e+02
1.911758822117308299e+00 5.150054796953319283e+02
1.911858846123069444e+00 5.150062606788610537e+02
1.911958870128831034e+00 5.150070882785464619e+02
1.912058894134592180e+00 5.150079625180263747e+02
1.912158918140353769e+00 5.150088834183105746e+02
1.912258942146114915e+00 5.150098509977749472e+02
1.912358966151876505e+00 5.150108652721551152e+02
1.912458990157637650e+00 5.150119262545414358e+02
1.912559014163399240e+00 5.150130339553732028e+02
1.912659038169160386e+00 5.150141883824321667e+02
1.912759062174921976e+00 5.150153895408385551e+02
1.912859086180683121e+00 5.150166374330450481e+02
1.912959110186444711e+00 5.150179320588318888e+02
1.913059134192205857e+00 5.150192734153006313e+02
1.913159158197967447e+00 5.150206614968718668e+02
1.913259182203728592e+00 5.150220962952766968e+02
1.913359206209490182e+00 5.150235777995548005e+02
1.913459230215251328e+00 5.150251059960482962e+02
1.913559254221013139e+00 5.150266808683966246e+02
1.913659278226774507e+00 5.150283023975356400e+02
1.913759302232535875e+00 5.150299705616863548e+02
1.913859326238297243e+00 5.150316853363574410e+02
1.913959350244058610e+00 5.150334466943370444e+02
1.914059374249819978e+00 5.150352546056897154e+02
1.914159398255581346e+00 5.150371090377532255e+02
1.914259422261342714e+00 5.150390099551323146e+02
1.914359446267104081e+00 5.150409573196973270e+02
1.914459470272865449e+00 5.150429510905784127e+02
1.914559494278626817e+00 5.150449912241649599e+02
1.914659518284388184e+00 5.150470776740971814e+02
1.914759542290149552e+00 5.150492103912667972e+02
1.914859566295910920e+00 5.150513893238127139e+02
1.914959590301672288e+00 5.150536144171162505e+02
1.915059614307433655e+00 5.150558856137993189e+02
1.915159638313195023e+00 5.150582028537223778e+02
1.915259662318956391e+00 5.150605660739777250e+02
1.915359686324717980e+00 5.150629752088912028e+02
1.915459710330479348e+00 5.150654301900164000e+02
1.915559734336240716e+00 5.150679309461331741e+02
1.915659758342002084e+00 5.150704774032449222e+02
1.915759782347763451e+00 5.150730694845753987e+02
1.915859806353524819e+00 5.150757071105681462e+02
1.915959830359286187e+00 5.150783901988824027e+02
1.916059854365047554e+00 5.150811186643912833e+02
1.916159878370808922e+00 5.150838924191809838e+02
1.916259902376570290e+00 5.150867113725471427e+02
1.916359926382331658e+00 5.150895754309947279e+02
1.916459950388093025e+00 5.150924844982343984e+02
1.916559974393854393e+00 5.150954384751825046e+02
1.916659998399615761e+00 5.150984372599594963e+02
1.916760022405377129e+00 5.151014807478861712e+02
1.916860046411138496e+00 5.151045688314857216e+02
1.916960070416899864e+00 5.151077014004803232e+02
1.917060094422661232e+00 5.151108783417897712e+02
1.917160118428422599e+00 5.151140995395327309e+02
1.917260142434184189e+00 5.151173648750236680e+02
1.917360166439945557e+00 5.151206742267726213e+02
1.917460190445706925e+00 5.151240274704849753e+02
1.917560214451468292e+00 5.151274244790602097e+02
1.917660238457229660e+00 5.151308651225924677e+02
1.917760262462991028e+00 5.151343492683673730e+02
1.917860286468752395e+00 5.151378767808671455e+02
1.917960310474513763e+00 5.151414475217640074e+02
1.918060334480275131e+00 5.151450613499250721e+02
1.918160358486036499e+00 5.151487181214095017e+02
1.918260382491797866e+00 5.151524176894702123e+02
1.918360406497559234e+00 5.151561599045536468e+02
1.918460430503320602e+00 5.151599446143001160e+02
1.918560454509081969e+00 5.151637716635431161e+02
1.918660478514843337e+00 5.151676408943126262e+02
1.918760502520604705e+00 5.151715521458329476e+02
1.918860526526366073e+00 5.151755052545250919e+02
1.918960550532127440e+00 5.151795000540070077e+02
1.919060574537889252e+00 5.151835363750955139e+02
1.919160598543650398e+00 5.151876140458065265e+02
1.919260622549411988e+00 5.151917328913559686e+02
1.919360646555173133e+00 5.151958927341610206e+02
1.919460670560934723e+00 5.152000933938438720e+02
1.919560694566695869e+00 5.152043346872305847e+02
1.919660718572457458e+00 5.152086164283527978e+02
1.919760742578218604e+00 5.152129384284512525e+02
1.919860766583980194e+00 5.152173004959761329e+02
1.919960790589741340e+00 5.152217024365905900e+02
1.920060814595502929e+00 5.152261440531706285e+02
1.920160838601264075e+00 5.152306251458086308e+02
1.920260862607025665e+00 5.152351455118160857e+02
1.920360886612786810e+00 5.152397049457247249e+02
1.920460910618548400e+00 5.152443032392892519e+02
1.920560934624309546e+00 5.152489401814917755e+02
1.920660958630071136e+00 5.152536155585413553e+02
1.920760982635832281e+00 5.152583291538796857e+02
1.920861006641593871e+00 5.152630807481822330e+02
1.920961030647355461e+00 5.152678701193619872e+02
1.921061054653116829e+00 5.152726970425729860e+02
1.921161078658878196e+00 5.152775612902122475e+02
1.921261102664639564e+00 5.152824626319242043e+02
1.921361126670400932e+00 5.152874008346051369e+02
1.921461150676162299e+00 5.152923756624035150e+02
1.921561174681923667e+00 5.152973868767264776e+02
1.921661198687685035e+00 5.153024342362433572e+02
1.921761222693446403e+00 5.153075174968885221e+02
1.921861246699207770e+00 5.153126364118661513e+02
1.921961270704969138e+00 5.153177907316539859e+02
1.922061294710730506e+00 5.153229802040065124e+02
1.922161318716491873e+00 5.153282045739630348e+02
1.922261342722253241e+00 5.153334635838468785e+02
1.922361366728014609e+00 5.153387569732735756e+02
1.922461390733775977e+00 5.153440844791549580e+02
1.922561414739537344e+00 5.153494458357015446e+02
1.922661438745298712e+00 5.153548407744320912e+02
1.922761462751060302e+00 5.153602690241733626e+02
1.922861486756821670e+00 5.153657303110686598e+02
1.922961510762583037e+00 5.153712243585813439e+02
1.923061534768344405e+00 5.153767508875009753e+02
1.923161558774105773e+00 5.153823096159489978e+02
1.923261582779867140e+00 5.153879002593828318e+02
1.923361606785628508e+00 5.153935225306023540e+02
1.923461630791389876e+00 5.153991761397561504e+02
1.923561654797151244e+00 5.154048607943457228e+02
1.923661678802912611e+00 5.154105761992341286e+02
1.923761702808673979e+00 5.154163220566485961e+02
1.923861726814435347e+00 5.154220980661891645e+02
1.923961750820196714e+00 5.154279039248343679e+02
1.924061774825958082e+00 5.154337393269473750e+02
1.924161798831719450e+00 5.154396039642817868e+02
1.924261822837480818e+00 5.154454975259899356e+02
1.924361846843242185e+00 5.154514196986269781e+02
1.924461870849003553e+00 5.154573701661608993e+02
1.924561894854764921e+00 5.154633486099766060e+02
1.924661918860526510e+00 5.154693547088844525e+02
1.924761942866287878e+00 5.154753881391260393e+02
1.924861966872049246e+00 5.154814485743841033e+02
1.924961990877810614e+00 5.154875356857855877e+02
1.925062014883571981e+00 5.154936491419128970e+02
1.925162038889333349e+00 5.154997886088099222e+02
1.925262062895094717e+00 5.155059537499889757e+02
1.925362086900856085e+00 5.155121442264398866e+02
1.925462110906617452e+00 5.155183596966360255e+02
1.925562134912378820e+00 5.155245998165447645e+02
1.925662158918140188e+00 5.155308642396335017e+02
1.925762182923901555e+00 5.155371526168781884e+02
1.925862206929662923e+00 5.155434645967714005e+02
1.925962230935424291e+00 5.155497998253318883e+02
1.926062254941185659e+00 5.155561579461119663e+02
1.926162278946947026e+00 5.155625386002062669e+02
1.926262302952708394e+00 5.155689414262592436e+02
1.926362326958469762e+00 5.155753660604769948e+02
1.926462350964231351e+00 5.155818121366327205e+02
1.926562374969992941e+00 5.155882792860778636e+02
1.926662398975754087e+00 5.155947671377502957e+02
1.926762422981515677e+00 5.156012753181837525e+02
1.926862446987276822e+00 5.156078034515167019e+02
1.926962470993038412e+00 5.156143511595018936e+02
1.927062494998799558e+00 5.156209180615161358e+02
1.927162519004561148e+00 5.156275037745705276e+02
1.927262543010322293e+00 5.156341079133173935e+02
1.927362567016083883e+00 5.156407300900636983e+02
1.927462591021845029e+00 5.156473699147776415e+02
1.927562615027606618e+00 5.156540269951012760e+02
1.927662639033367764e+00 5.156607009363588077e+02
1.927762663039129354e+00 5.156673913415676225e+02
1.927862687044890500e+00 5.156740978114477230e+02
1.927962711050652089e+00 5.156808199444330967e+02
1.928062735056413235e+00 5.156875573366819481e+02
1.928162759062174825e+00 5.156943095820869303e+02
1.928262783067935970e+00 5.157010762722850359e+02
1.928362807073697782e+00 5.157078569966706709e+02
1.928462831079459150e+00 5.157146513424037266e+02
1.928562855085220518e+00 5.157214588944225397e+02
1.928662879090981885e+00 5.157282792354549201e+02
1.928762903096743253e+00 5.157351119460267910e+02
1.928862927102504621e+00 5.157419566044774228e+02
1.928962951108265989e+00 5.157488127869670507e+02
1.929062975114027356e+00 5.157556800674905162e+02
1.929162999119788724e+00 5.157625580178873861e+02
1.929263023125550092e+00 5.157694462078562765e+02
1.929363047131311459e+00 5.157763442049626974e+02
1.929463071137072827e+00 5.157832515746536046e+02
1.929563095142834195e+00 5.157901678802685410e+02
1.929663119148595563e+00 5.157970926830510052e+02
1.929763143154356930e+00 5.158040255421619804e+02
1.929863167160118298e+00 5.158109660146905071e+02
1.929963191165879666e+00 5.158179136556673257e+02
1.930063215171641033e+00 5.158248680180766996e+02
1.930163239177402623e+00 5.158318286528678982e+02
1.930263263183163991e+00 5.158387951089697481e+02
1.930363287188925359e+00 5.158457669333015474e+02
1.930463311194686726e+00 5.158527436707870493e+02
1.930563335200448094e+00 5.158597248643658304e+02
1.930663359206209462e+00 5.158667100550082978e+02
1.930763383211970829e+00 5.158736987817258068e+02
1.930863407217732197e+00 5.158806905815870323e+02
1.930963431223493565e+00 5.158876849897289958e+02
1.931063455229254933e+00 5.158946815393708221e+02
1.931163479235016300e+00 5.159016797618271539e+02
1.931263503240777668e+00 5.159086791865215673e+02
1.931363527246539036e+00 5.159156793409994179e+02
1.931463551252300404e+00 5.159226797509451217e+02
1.931563575258061771e+00 5.159296799401890894e+02
1.931663599263823139e+00 5.159366794307278496e+02
1.931763623269584507e+00 5.159436777427351899e+02
1.931863647275345874e+00 5.159506743945753442e+02
1.931963671281107464e+00 5.159576689028192504e+02
1.932063695286868832e+00 5.159646607822575106e+02
1.932163719292630200e+00 5.159716495459140333e+02
1.932263743298391567e+00 5.159786347050617223e+02
1.932363767304152935e+00 5.159856157692349825e+02
1.932463791309914303e+00 5.159925922462467724e+02
1.932563815315675670e+00 5.159995636422007692e+02
1.932663839321437038e+00 5.160065294615075118e+02
1.932763863327198406e+00 5.160134892068983845e+02
1.932863887332959774e+00 5.160204423794402828e+02
1.932963911338721141e+00 5.160273884785513019e+02
1.933063935344482509e+00 5.160343270020157433e+02
1.933163959350243877e+00 5.160412574459969619e+02
1.933263983356005244e+00 5.160481793050562374e+02
1.933364007361766612e+00 5.160550920721642569e+02
1.933464031367527980e+00 5.160619952387197600e+02
1.933564055373289348e+00 5.160688882945615887e+02
1.933664079379050715e+00 5.160757707279863098e+02
1.933764103384812083e+00 5.160826420257636755e+02
1.933864127390573895e+00 5.160895016731515170e+02
1.933964151396335041e+00 5.160963491539113193e+02
1.934064175402096630e+00 5.161031839503244782e+02
1.934164199407857776e+00 5.161100055432074214e+02
1.934264223413619366e+00 5.161168134119295701e+02
1.934364247419380511e+00 5.161236070344251630e+02
1.934464271425142101e+00 5.161303858872145156e+02
1.934564295430903247e+00 5.161371494454157300e+02
1.934664319436664837e+00 5.161438971827633395e+02
1.934764343442425982e+00 5.161506285716239972e+02
1.934864367448187572e+00 5.161573430830129610e+02
1.934964391453948718e+00 5.161640401866089860e+02
1.935064415459710307e+00 5.161707193507729698e+02
1.935164439465471453e+00 5.161773800425639820e+02
1.935264463471233043e+00 5.161840217277544980e+02
1.935364487476994189e+00 5.161906438708493852e+02
1.935464511482755778e+00 5.161972459350996587e+02
1.935564535488516924e+00 5.162038273825228316e+02
1.935664559494278736e+00 5.162103876739164434e+02
1.935764583500040104e+00 5.162169262688775007e+02
1.935864607505801471e+00 5.162234426258182793e+02
1.935964631511562839e+00 5.162299362019841737e+02
1.936064655517324207e+00 5.162364064534690442e+02
1.936164679523085574e+00 5.162428528352354533e+02
1.936264703528846942e+00 5.162492748011287631e+02
1.936364727534608310e+00 5.162556718038973713e+02
1.936464751540369678e+00 5.162620432952084002e+02
1.936564775546131045e+00 5.162683887256646358e+02
1.936664799551892413e+00 5.162747075448237410e+02
1.936764823557653781e+00 5.162809992012157636e+02
1.936864847563415148e+00 5.162872631423584835e+02
1.936964871569176516e+00 5.162934988147781041e+02
1.937064895574937884e+00 5.162997056640255096e+02
1.937164919580699252e+00 5.163058831346941133e+02
1.937264943586460619e+00 5.163120306704377072e+02
1.937364967592221987e+00 5.163181477139894469e+02
1.937464991597983355e+00 5.163242337071782231e+02
1.937565015603744945e+00 5.163302880909484429e+02
1.937665039609506312e+00 5.163363103053770828e+02
1.937765063615267680e+00 5.163422997896913103e+02
1.937865087621029048e+00 5.163482559822900839e+02
1.937965111626790415e+00 5.163541783207565459e+02
1.938065135632551783e+00 5.163600662418824641e+02
1.938165159638313151e+00 5.163659191816826706e+02
1.938265183644074519e+00 5.163717365754149569e+02
1.938365207649835886e+00 5.163775178575992868e+02
1.938465231655597254e+00 5.163832624620341676e+02
1.938565255661358622e+00 5.163889698218173407e+02
1.938665279667119989e+00 5.163946393693646542e+02
1.938765303672881357e+00 5.164002705364260919e+02
1.938865327678642725e+00 5.164058627541072610e+02
1.938965351684404093e+00 5.164114154528876952e+02
1.939065375690165460e+00 5.164169280626384761e+02
1.939165399695926828e+00 5.164224000126425835e+02
1.939265423701688196e+00 5.164278307316124028e+02
1.939365447707449785e+00 5.164332196477105299e+02
1.939465471713211153e+00 5.164385661885678473e+02
1.939565495718972521e+00 5.164438697813014869e+02
1.939665519724733889e+00 5.164491298525368848e+02
1.939765543730495256e+00 5.164543458284238113e+02
1.939865567736256624e+00 5.164595171346569487e+02
1.939965591742017992e+00 5.164646431964968087e+02
1.940065615747779360e+00 5.164697234387857634e+02
1.940165639753540727e+00 5.164747572859697584e+02
1.940265663759302095e+00 5.164797441621176404e+02
1.940365687765063463e+00 5.164846834909390054e+02
1.940465711770824830e+00 5.164895746958053451e+02
1.940565735776586198e+00 5.164944171997685771e+02
1.940665759782347566e+00 5.164992104255812819e+02
1.940765783788108934e+00 5.165039537957155744e+02
1.940865807793870301e+00 5.165086467323831130e+02
1.940965831799631669e+00 5.165132886575554494e+02
1.941065855805393037e+00 5.165178789929821050e+02
1.941165879811154404e+00 5.165224171602120578e+02
1.941265903816915994e+00 5.165269025806119316e+02
1.941365927822677584e+00 5.165313346753870292e+02
1.941465951828438730e+00 5.165357128656006580e+02
1.941565975834200319e+00 5.165400365721942535e+02
1.941665999839961465e+00 5.165443052160065918e+02
1.941766023845723055e+00 5.165485182177947081e+02
1.941866047851484200e+00 5.165526749982528827e+02
1.941966071857245790e+00 5.165567749780333315e+02
1.942066095863006936e+00 5.165608175777667839e+02
1.942166119868768526e+00 5.165648022180798762e+02
1.942266143874529671e+00 5.165687283196193675e+02
1.942366167880291261e+00 5.165725953030679420e+02
1.942466191886052407e+00 5.165764025891681968e+02
1.942566215891813997e+00 5.165801495987398084e+02
1.942666239897575142e+00 5.165838357527013613e+02
1.942766263903336732e+00 5.165874604720893331e+02
1.942866287909097878e+00 5.165910231780806043e+02
1.942966311914859467e+00 5.165945232920101944e+02
1.943066335920621057e+00 5.165979602353921791e+02
1.943166359926382425e+00 5.166013334299408370e+02
1.943266383932143793e+00 5.166046422975906580e+02
1.943366407937905160e+00 5.166078862605168069e+02
1.943466431943666528e+00 5.166110647411535410e+02
1.943566455949427896e+00 5.166141771622178567e+02
1.943666479955189264e+00 5.166172229467276793e+02
1.943766503960950631e+00 5.166202015180228955e+02
1.943866527966711999e+00 5.166231122997851344e+02
1.943966551972473367e+00 5.166259547160602779e+02
1.944066575978234734e+00 5.166287281912755134e+02
1.944166599983996102e+00 5.166314321502628673e+02
1.944266623989757470e+00 5.166340660182783040e+02
1.944366647995518838e+00 5.166366292210232132e+02
1.944466672001280205e+00 5.166391211846624856e+02
1.944566696007041573e+00 5.166415413358483875e+02
1.944666720012802941e+00 5.166438891017385231e+02
1.944766744018564308e+00 5.166461639100180037e+02
1.944866768024325676e+00 5.166483651889174098e+02
1.944966792030087266e+00 5.166504923672381437e+02
1.945066816035848634e+00 5.166525448743686866e+02
1.945166840041610001e+00 5.166545221403055166e+02
1.945266864047371369e+00 5.166564235956765287e+02
1.945366888053132737e+00 5.166582486717588836e+02
1.945466912058894104e+00 5.166599968005010624e+02
1.945566936064655472e+00 5.166616674145420802e+02
1.945666960070416840e+00 5.166632599472345646e+02
1.945766984076178208e+00 5.166647738326626040e+02
1.945867008081939575e+00 5.166662085056639171e+02
1.945967032087700943e+00 5.166675634018503160e+02
1.946067056093462311e+00 5.166688379576274883e+02
1.946167080099223679e+00 5.166700316102176203e+02
1.946267104104985046e+00 5.166711437976766774e+02
1.946367128110746414e+00 5.166721739589189610e+02
1.946467152116507782e+00 5.166731215337341609e+02
1.946567176122269149e+00 5.166739859628105478e+02
1.946667200128030517e+00 5.166747666877538450e+02
1.946767224133792107e+00 5.166754631511097386e+02
1.946867248139553475e+00 5.166760747963819540e+02
1.946967272145314842e+00 5.166766010680546515e+02
1.947067296151076210e+00 5.166770414116134589e+02
1.947167320156837578e+00 5.166773952735635476e+02
1.947267344162598945e+00 5.166776621014533930e+02
1.947367368168360313e+00 5.166778413438925099e+02
1.947467392174121681e+00 5.166779324505736213e+02
1.947567416179883049e+00 5.166779348722941450e+02
1.947667440185644416e+00 5.166778480609729058e+02
1.947767464191405784e+00 5.166776714696757153e+02
1.947867488197167152e+00 5.166774045526310601e+02
1.947967512202928519e+00 5.166770467652548859e+02
1.948067536208689887e+00 5.166765975641681052e+02
1.948167560214451255e+00 5.166760564072180841e+02
1.948267584220212623e+00 5.166754227534989923e+02
1.948367608225973990e+00 5.166746960633726076e+02
1.948467632231735358e+00 5.166738757984883250e+02
1.948567656237496726e+00 5.166729614218040751e+02
1.948667680243258538e+00 5.166719523976055370e+02
1.948767704249019683e+00 5.166708481915283073e+02
1.948867728254781273e+00 5.166696482705757489e+02
1.948967752260542419e+00 5.166683521031426380e+02
1.949067776266304008e+00 5.166669591590325581e+02
1.949167800272065154e+00 5.166654689094800688e+02
1.949267824277826744e+00 5.166638808271688958e+02
1.949367848283587890e+00 5.166621943862551234e+02
1.949467872289349479e+00 5.166604090623848151e+02
1.949567896295110625e+00 5.166585243327153876e+02
1.949667920300872215e+00 5.166565396759358464e+02
1.949767944306633360e+00 5.166544545722862267e+02
1.949867968312394950e+00 5.166522685035787390e+02
1.949967992318156096e+00 5.166499809532164136e+02
1.950068016323917686e+00 5.166475914062154970e+02
1.950168040329678831e+00 5.166450993492225052e+02
1.950268064335440421e+00 5.166425042705366195e+02
1.950368088341201567e+00 5.166398056601294684e+02
1.950468112346963379e+00 5.166370030096629762e+02
1.950568136352724746e+00 5.166340958125113048e+02
1.950668160358486114e+00 5.166310835637809760e+02
1.950768184364247482e+00 5.166279657603291753e+02
1.950868208370008849e+00 5.166247419007844428e+02
1.950968232375770217e+00 5.166214114855661137e+02
1.951068256381531585e+00 5.166179740169053503e+02
1.951168280387292953e+00 5.166144289988623086e+02
1.951268304393054320e+00 5.166107759373488761e+02
1.951368328398815688e+00 5.166070143401454970e+02
1.951468352404577056e+00 5.166031437169231140e+02
1.951568376410338423e+00 5.165991635792602210e+02
1.951668400416099791e+00 5.165950734406659421e+02
1.951768424421861159e+00 5.165908728165952652e+02
1.951868448427622527e+00 5.165865612244725753e+02
1.951968472433383894e+00 5.165821381837074568e+02
1.952068496439145262e+00 5.165776032157170903e+02
1.952168520444906630e+00 5.165729558439436460e+02
1.952268544450667997e+00 5.165681955938737246e+02
1.952368568456429587e+00 5.165633219930587074e+02
1.952468592462190955e+00 5.165583345711327183e+02
1.952568616467952323e+00 5.165532328598337699e+02
1.952668640473713690e+00 5.165480163930184290e+02
1.952768664479475058e+00 5.165426847066864866e+02
1.952868688485236426e+00 5.165372373389966469e+02
1.952968712490997794e+00 5.165316738302855128e+02
1.953068736496759161e+00 5.165259937230882770e+02
1.953168760502520529e+00 5.165201965621542968e+02
1.953268784508281897e+00 5.165142818944702867e+02
1.953368808514043264e+00 5.165082492692764617e+02
1.953468832519804632e+00 5.165020982380844998e+02
1.953568856525566000e+00 5.164958283546977782e+02
1.953668880531327368e+00 5.164894391752299043e+02
1.953768904537088735e+00 5.164829302581219963e+02
1.953868928542850103e+00 5.164763011641636012e+02
1.953968952548611471e+00 5.164695514565078156e+02
1.954068976554372838e+00 5.164626807006923173e+02
1.954169000560134428e+00 5.164556884646564185e+02
1.954269024565895796e+00 5.164485743187600519e+02
1.954369048571657164e+00 5.164413378358015052e+02
1.954469072577418531e+00 5.164339785910349292e+02
1.954569096583179899e+00 5.164264961621908014e+02
1.954669120588941267e+00 5.164188901294911602e+02
1.954769144594702635e+00 5.164111600756679081e+02
1.954869168600464002e+00 5.164033055859842989e+02
1.954969192606225370e+00 5.163953262482472155e+02
1.955069216611986738e+00 5.163872216528293393e+02
1.955169240617748105e+00 5.163789913926847248e+02
1.955269264623509473e+00 5.163706350633678994e+02
1.955369288629270841e+00 5.163621522630486425e+02
1.955469312635032209e+00 5.163535425925347226e+02
1.955569336640793576e+00 5.163448056552823573e+02
1.955669360646554944e+00 5.163359410574209960e+02
1.955769384652316312e+00 5.163269484077638936e+02
1.955869408658077679e+00 5.163178273178302788e+02
1.955969432663839047e+00 5.163085774018603615e+02
1.956069456669600637e+00 5.162991982768335220e+02
1.956169480675362227e+00 5.162896895624834315e+02
1.956269504681123372e+00 5.162800508813169245e+02
1.956369528686884962e+00 5.162702818586307103e+02
1.956469552692646108e+00 5.162603821225269485e+02
1.956569576698407698e+00 5.162503513039320069e+02
1.956669600704168843e+00 5.162401890366107864e+02
1.956769624709930433e+00 5.162298949571851381e+02
1.956869648715691579e+00 5.162194687051506889e+02
1.956969672721453168e+00 5.162089099228905980e+02
1.957069696727214314e+00 5.161982182556953376e+02
1.957169720732975904e+00 5.161873933517778141e+02
1.957269744738737050e+00 5.161764348622873513e+02
1.957369768744498639e+00 5.161653424413299263e+02
1.957469792750259785e+00 5.161541157459813576e+02
1.957569816756021375e+00 5.161427544363035622e+02
1.957669840761782520e+00 5.161312581753617224e+02
1.957769864767544110e+00 5.161196266292392920e+02
1.957869888773305700e+00 5.161078594670535722e+02
1.957969912779067068e+00 5.160959563609727638e+02
1.958069936784828435e+00 5.160839169862293829e+02
1.958169960790589803e+00 5.160717410211377683e+02
1.958269984796351171e+00 5.160594281471084059e+02
1.958370008802112539e+00 5.160469780486638456e+02
1.958470032807873906e+00 5.160343904134534796e+02
1.958570056813635274e+00 5.160216649322690046e+02
1.958670080819396642e+00 5.160088012990602238e+02
1.958770104825158009e+00 5.159957992109478937e+02
1.958870128830919377e+00 5.159826583682422552e+02
1.958970152836680745e+00 5.159693784744544018e+02
1.959070176842442113e+00 5.159559592363118554e+02
1.959170200848203480e+00 5.159424003637756186e+02
1.959270224853964848e+00 5.159287015700516577e+02
1.959370248859726216e+00 5.159148625716069319e+02
1.959470272865487583e+00 5.159008830881832637e+02
1.959570296871248951e+00 5.158867628428132548e+02
1.959670320877010319e+00 5.158725015618313137e+02
1.959770344882771909e+00 5.158580989748913908e+02
1.959870368888533276e+00 5.158435548149780061e+02
1.959970392894294644e+00 5.158288688184226203e+02
1.960070416900056012e+00 5.158140407249155714e+02
1.960170440905817379e+00 5.157990702775207410e+02
1.960270464911578747e+00 5.157839572226894234e+02
1.960370488917340115e+00 5.157687013102743094e+02
1.960470512923101483e+00 5.157533022935398321e+02
1.960570536928862850e+00 5.157377599291810384e+02
1.960670560934624218e+00 5.157220739773314335e+02
1.960770584940385586e+00 5.157062442015802617e+02
1.960870608946146953e+00 5.156902703689829650e+02
1.960970632951908321e+00 5.156741522500755082e+02
1.961070656957669689e+00 5.156578896188859744e+02
1.961170680963431057e+00 5.156414822529495723e+02
1.961270704969192424e+00 5.156249299333195495e+02
1.961370728974953792e+00 5.156082324445795848e+02
1.961470752980715160e+00 5.155913895748576579e+02
1.961570776986476750e+00 5.155744011158382136e+02
1.961670800992238117e+00 5.155572668627730764e+02
1.961770824997999485e+00 5.155399866144955467e+02
1.961870849003760853e+00 5.155225601734299516e+02
1.961970873009522220e+00 5.155049873456068781e+02
1.962070897015283588e+00 5.154872679406723819e+02
1.962170921021044956e+00 5.154694017719016301e+02
1.962270945026806324e+00 5.154513886562089056e+02
1.962370969032567691e+00 5.154332284141606806e+02
1.962470993038329059e+00 5.154149208699852807e+02
1.962571017044090427e+00 5.153964658515867541e+02
1.962671041049851794e+00 5.153778631905543079e+02
1.962771065055613162e+00 5.153591127221732222e+02
1.962871089061374530e+00 5.153402142854371277e+02
1.962971113067135898e+00 5.153211677230590340e+02
1.963071137072897265e+00 5.153019728814801965e+02
1.963171161078658633e+00 5.152826296108823954e+02
1.963271185084420001e+00 5.152631377651993034e+02
1.963371209090181368e+00 5.152434972021251269e+02
1.963471233095943180e+00 5.152237077831255192e+02
1.963571257101704326e+00 5.152037693734494042e+02
1.963671281107465916e+00 5.151836818421370481e+02
1.963771305113227061e+00 5.151634450620306325e+02
1.963871329118988651e+00 5.151430589097856227e+02
1.963971353124749797e+00 5.151225232658783852e+02
1.964071377130511387e+00 5.151018380146180107e+02
1.964171401136272532e+00 5.150810030441548406e+02
1.964271425142034122e+00 5.150600182464895624e+02
1.964371449147795268e+00 5.150388835174837823e+02
1.964471473153556857e+00 5.150175987568674145e+02
1.964571497159318003e+00 5.149961638682505054e+02
1.964671521165079593e+00 5.149745787591305088e+02
1.964771545170840739e+00 5.149528433409008130e+02
1.964871569176602328e+00 5.149309575288609722e+02
1.964971593182363474e+00 5.149089212422240962e+02
1.965071617188125064e+00 5.148867344041269689e+02
1.965171641193886209e+00 5.148643969416356185e+02
1.965271665199648021e+00 5.148419087857583918e+02
1.965371689205409389e+00 5.148192698714489097e+02
1.965471713211170757e+00 5.147964801376181185e+02
1.965571737216932124e+00 5.147735395271404286e+02
1.965671761222693492e+00 5.147504479868611043e+02
1.965771785228454860e+00 5.147272054676062680e+02
1.965871809234216228e+00 5.147038119241879031e+02
1.965971833239977595e+00 5.146802673154136301e+02
1.966071857245738963e+00 5.146565716040919369e+02
1.966171881251500331e+00 5.146327247570424106e+02
1.966271905257261698e+00 5.146087267450985792e+02
1.966371929263023066e+00 5.145845775431197353e+02
1.966471953268784434e+00 5.145602771299937785e+02
1.966571977274545802e+00 5.145358254886469922e+02
1.966672001280307169e+00 5.145112226060482499e+02
1.966772025286068537e+00 5.144864684732183377e+02
1.966872049291829905e+00 5.144615630852330241e+02
1.966972073297591272e+00 5.144365064412329502e+02
1.967072097303352640e+00 5.144112985444257902e+02
1.967172121309114230e+00 5.143859394020970512e+02
1.967272145314875598e+00 5.143604290256121203e+02
1.967372169320636965e+00 5.143347674304231987e+02
1.967472193326398333e+00 5.143089546360747590e+02
1.967572217332159701e+00 5.142829906662111625e+02
1.967672241337921069e+00 5.142568755485791598e+02
1.967772265343682436e+00 5.142306093150349398e+02
1.967872289349443804e+00 5.142041920015490177e+02
1.967972313355205172e+00 5.141776236482097602e+02
1.968072337360966539e+00 5.141509042992324794e+02
1.968172361366727907e+00 5.141240340029582967e+02
1.968272385372489275e+00 5.140970128118639195e+02
1.968372409378250643e+00 5.140698407825628919e+02
1.968472433384012010e+00 5.140425179758132117e+02
1.968572457389773378e+00 5.140150444565176713e+02
1.968672481395534746e+00 5.139874202937321570e+02
1.968772505401296113e+00 5.139596455606653080e+02
1.968872529407057481e+00 5.139317203346860197e+02
1.968972553412819071e+00 5.139036446973263992e+02
1.969072577418580439e+00 5.138754187342844943e+02
1.969172601424341806e+00 5.138470425354273630e+02
1.969272625430103174e+00 5.138185161947975530e+02
1.969372649435864542e+00 5.137898398106117384e+02
1.969472673441625910e+00 5.137610134852673127e+02
1.969572697447387277e+00 5.137320373253455728e+02
1.969672721453148645e+00 5.137029114416116045e+02
1.969772745458910013e+00 5.136736359490205359e+02
1.969872769464671380e+00 5.136442109667169689e+02
1.969972793470432748e+00 5.136146366180394125e+02
1.970072817476194116e+00 5.135849130305226709e+02
1.970172841481955484e+00 5.135550403358998892e+02
1.970272865487716851e+00 5.135250186701028952e+02
1.970372889493478219e+00 5.134948481732674281e+02
1.970472913499239587e+00 5.134645289897318889e+02
1.970572937505000954e+00 5.134340612680408640e+02
1.970672961510762322e+00 5.134034451609459211e+02
1.970772985516523690e+00 5.133726808254075422e+02
1.970873009522285280e+00 5.133417684225960329e+02
1.970973033528046869e+00 5.133107081178930002e+02
1.971073057533808015e+00 5.132795000808921486e+02
1.971173081539569605e+00 5.132481444854004167e+02
1.971273105545330750e+00 5.132166415094377498e+02
1.971373129551092340e+00 5.131849913352402837e+02
1.971473153556853486e+00 5.131531941492578426e+02
1.971573177562615076e+00 5.131212501421565548e+02
1.971673201568376221e+00 5.130891595088179429e+02
1.971773225574137811e+00 5.130569224483385824e+02
1.971873249579898957e+00 5.130245391640322623e+02
1.971973273585660547e+00 5.129920098634269152e+02
1.972073297591421692e+00 5.129593347582674596e+02
1.972173321597183282e+00 5.129265140645122756e+02
1.972273345602944428e+00 5.128935480023354785e+02
1.972373369608706017e+00 5.128604367961235084e+02
1.972473393614467163e+00 5.128271806744767218e+02
1.972573417620228753e+00 5.127937798702074588e+02
1.972673441625990343e+00 5.127602346203389061e+02
1.972773465631751710e+00 5.127265451661030511e+02
1.972873489637513078e+00 5.126927117529410225e+02
1.972973513643274446e+00 5.126587346305010442e+02
1.973073537649035814e+00 5.126246140526362751e+02
1.973173561654797181e+00 5.125903502774028766e+02
1.973273585660558549e+00 5.125559435670594439e+02
1.973373609666319917e+00 5.125213941880635957e+02
1.973473633672081284e+00 5.124867024110708371e+02
1.973573657677842652e+00 5.124518685109312628e+02
1.973673681683604020e+00 5.124168927666888749e+02
1.973773705689365388e+00 5.123817754615763533e+02
1.973873729695126755e+00 5.123465168830144876e+02
1.973973753700888123e+00 5.123111173226100163e+02
1.974073777706649491e+00 5.122755770761494887e+02
1.974173801712410858e+00 5.122398964435993776e+02
1.974273825718172226e+00 5.122040757291015325e+02
1.974373849723933594e+00 5.121681152409692004e+02
1.974473873729694962e+00 5.121320152916842972e+02
1.974573897735456551e+00 5.120957761978953613e+02
1.974673921741217919e+00 5.120593982804101643e+02
1.974773945746979287e+00 5.120228818641949147e+02
1.974873969752740654e+00 5.119862272783688582e+02
1.974973993758502022e+00 5.119494348561997299e+02
1.975074017764263390e+00 5.119125049351025041e+02
1.975174041770024758e+00 5.118754378566302421e+02
1.975274065775786125e+00 5.118382339664724441e+02
1.975374089781547493e+00 5.118008936144506151e+02
1.975474113787308861e+00 5.117634171545122399e+02
1.975574137793070228e+00 5.117258049447263488e+02
1.975674161798831596e+00 5.116880573472782885e+02
1.975774185804592964e+00 5.116501747284642079e+02
1.975874209810354332e+00 5.116121574586870224e+02
1.975974233816115699e+00 5.115740059124490244e+02
1.976074257821877067e+00 5.115357204683481882e+02
1.976174281827638435e+00 5.114973015090704394e+02
1.976274305833399803e+00 5.114587494213851642e+02
1.976374329839161392e+00 5.114200645961393548e+02
1.976474353844922760e+00 5.113812474282502762e+02
1.976574377850684128e+00 5.113422983166994982e+02
1.976674401856445495e+00 5.113032176645281766e+02
1.976774425862206863e+00 5.112640058788279021e+02
1.976874449867968231e+00 5.112246633707360957e+02
1.976974473873729599e+00 5.111851905554275959e+02
1.977074497879490966e+00 5.111455878521086333e+02
1.977174521885252334e+00 5.111058556840101801e+02
1.977274545891013702e+00 5.110659944783805031e+02
1.977374569896775069e+00 5.110260046664758420e+02
1.977474593902536437e+00 5.109858866835567142e+02
1.977574617908297805e+00 5.109456409688770009e+02
1.977674641914059173e+00 5.109052679656776377e+02
1.977774665919820540e+00 5.108647681211779741e+02
1.977874689925581908e+00 5.108241418865704873e+02
1.977974713931343276e+00 5.107833897170085038e+02
1.978074737937104643e+00 5.107425120716004585e+02
1.978174761942866011e+00 5.107015094134017659e+02
1.978274785948627823e+00 5.106603822094046450e+02
1.978374809954388969e+00 5.106191309305319237e+02
1.978474833960150558e+00 5.105777560516251015e+02
1.978574857965911704e+00 5.105362580514390629e+02
1.978674881971673294e+00 5.104946374126290607e+02
1.978774905977434440e+00 5.104528946217448606e+02
1.978874929983196029e+00 5.104110301692210783e+02
1.978974953988957175e+00 5.103690445493653556e+02
1.979074977994718765e+00 5.103269382603517670e+02
1.979175002000479910e+00 5.102847118042089960e+02
1.979275026006241500e+00 5.102423656868113540e+02
1.979375050012002646e+00 5.101999004178698556e+02
1.979475074017764236e+00 5.101573165109205661e+02
1.979575098023525381e+00 5.101146144833150515e+02
1.979675122029286971e+00 5.100717948562099195e+02
1.979775146035048117e+00 5.100288581545574971e+02
1.979875170040809707e+00 5.099858049070935522e+02
1.979975194046570852e+00 5.099426356463276875e+02
1.980075218052332664e+00 5.098993509085328242e+02
1.980175242058094032e+00 5.098559512337327533e+02
1.980275266063855399e+00 5.098124371656932112e+02
1.980375290069616767e+00 5.097688092519089764e+02
1.980475314075378135e+00 5.097250680435930690e+02
1.980575338081139503e+00 5.096812140956657231e+02
1.980675362086900870e+00 5.096372479667431890e+02
1.980775386092662238e+00 5.095931702191236923e+02
1.980875410098423606e+00 5.095489814187802722e+02
1.980975434104184973e+00 5.095046821353425912e+02
1.981075458109946341e+00 5.094602729420918763e+02
1.981175482115707709e+00 5.094157544159414783e+02
1.981275506121469077e+00 5.093711271374318699e+02
1.981375530127230444e+00 5.093263916907123985e+02
1.981475554132991812e+00 5.092815486635317370e+02
1.981575578138753180e+00 5.092365986472244686e+02
1.981675602144514547e+00 5.091915422366990924e+02
1.981775626150275915e+00 5.091463800304239840e+02
1.981875650156037283e+00 5.091011126304139225e+02
1.981975674161798873e+00 5.090557406422198028e+02
1.982075698167560240e+00 5.090102646749130031e+02
1.982175722173321608e+00 5.089646853410711742e+02
1.982275746179082976e+00 5.089190032567678941e+02
1.982375770184844344e+00 5.088732190415563537e+02
1.982475794190605711e+00 5.088273333184572493e+02
1.982575818196367079e+00 5.087813467139437194e+02
1.982675842202128447e+00 5.087352598579280993e+02
1.982775866207889814e+00 5.086890733837485641e+02
1.982875890213651182e+00 5.086427879281533251e+02
1.982975914219412550e+00 5.085964041312869313e+02
1.983075938225173918e+00 5.085499226366768539e+02
1.983175962230935285e+00 5.085033440912183096e+02
1.983275986236696653e+00 5.084566691451590259e+02
1.983376010242458021e+00 5.084098984520853719e+02
1.983476034248219388e+00 5.083630326689067260e+02
1.983576058253980756e+00 5.083160724558409242e+02
1.983676082259742124e+00 5.082690184763995376e+02
1.983776106265503714e+00 5.082218713973720696e+02
1.983876130271265081e+00 5.081746318888109499e+02
1.983976154277026449e+00 5.081273006240160157e+02
1.984076178282787817e+00 5.080798782795183115e+02
1.984176202288549185e+00 5.080323655350664467e+02
1.984276226294310552e+00 5.079847630736084625e+02
1.984376250300071920e+00 5.079370715812773369e+02
1.984476274305833288e+00 5.078892917473739885e+02
1.984576298311594655e+00 5.078414242643538046e+02
1.984676322317356023e+00 5.077934698278061205e+02
1.984776346323117391e+00 5.077454291364422261e+02
1.984876370328878759e+00 5.076973028920757542e+02
1.984976394334640126e+00 5.076490917996088683e+02
1.985076418340401494e+00 5.076007965670129352e+02
1.985176442346162862e+00 5.075524179053142007e+02
1.985276466351924229e+00 5.075039565285749745e+02
1.985376490357685597e+00 5.074554131538776574e+02
1.985476514363446965e+00 5.074067885013090518e+02
1.985576538369208333e+00 5.073580832939397851e+02
1.985676562374969922e+00 5.073092982578110082e+02
1.985776586380731512e+00 5.072604341219138178e+02
1.985876610386492658e+00 5.072114916181731701e+02
1.985976634392254248e+00 5.071624714814311687e+02
1.986076658398015393e+00 5.071133744494293865e+02
1.986176682403776983e+00 5.070642012627866393e+02
1.986276706409538129e+00 5.070149526649883569e+02
1.986376730415299718e+00 5.069656294023640157e+02
1.986476754421060864e+00 5.069162322240691196e+02
1.986576778426822454e+00 5.068667618820691132e+02
1.986676802432583600e+00 5.068172191311200550e+02
1.986776826438345189e+00 5.067676047287499159e+02
1.986876850444106335e+00 5.067179194352399918e+02
1.986976874449867925e+00 5.066681640136076226e+02
1.987076898455629070e+00 5.066183392295866952e+02
1.987176922461390660e+00 5.065684458516091127e+02
1.987276946467151806e+00 5.065184846507853536e+02
1.987376970472913396e+00 5.064684564008861685e+02
1.987476994478674985e+00 5.064183618783240490e+02
1.987577018484436353e+00 5.063682018621326506e+02
1.987677042490197721e+00 5.063179771339492277e+02
1.987777066495959088e+00 5.062676884779948523e+02
1.987877090501720456e+00 5.062173366810537800e+02
1.987977114507481824e+00 5.061669225324550894e+02
1.988077138513243192e+00 5.061164468240536962e+02
1.988177162519004559e+00 5.060659103502100038e+02
1.988277186524765927e+00 5.060153139077693254e+02
1.988377210530527295e+00 5.059646582960435808e+02
1.988477234536288663e+00 5.059139443167906620e+02
1.988577258542050030e+00 5.058631727741936857e+02
1.988677282547811398e+00 5.058123444748435418e+02
1.988777306553572766e+00 5.057614602277141103e+02
1.988877330559334133e+00 5.057105208441474247e+02
1.988977354565095501e+00 5.056595271378282632e+02
1.989077378570856869e+00 5.056084799247678916e+02
1.989177402576618237e+00 5.055573800232807571e+02
1.989277426582379604e+00 5.055062282539655030e+02
1.989377450588141194e+00 5.054550254396835953e+02
1.989477474593902562e+00 5.054037724055376657e+02
1.989577498599663929e+00 5.053524699788523549e+02
1.989677522605425297e+00 5.053011189891532240e+02
1.989777546611186665e+00 5.052497202681441877e+02
1.989877570616948033e+00 5.051982746496876189e+02
1.989977594622709400e+00 5.051467829697834873e+02
1.990077618628470768e+00 5.050952460665474746e+02
1.990177642634232136e+00 5.050436647801888626e+02
1.990277666639993503e+00 5.049920399529918882e+02
1.990377690645754871e+00 5.049403724292909601e+02
1.990477714651516239e+00 5.048886630554509907e+02
1.990577738657277607e+00 5.048369126798460229e+02
1.990677762663038974e+00 5.047851221528359815e+02
1.990777786668800342e+00 5.047332923267466640e+02
1.990877810674561710e+00 5.046814240558468327e+02
1.990977834680323078e+00 5.046295181963256482e+02
1.991077858686084445e+00 5.045775756062740811e+02
1.991177882691846035e+00 5.045255971456574002e+02
1.991277906697607403e+00 5.044735836762978352e+02
1.991377930703368770e+00 5.044215360618497925e+02
1.991477954709130138e+00 5.043694551677796198e+02
1.991577978714891506e+00 5.043173418613402532e+02
1.991678002720652874e+00 5.042651970115520044e+02
1.991778026726414241e+00 5.042130214891782316e+02
1.991878050732175609e+00 5.041608161667028298e+02
1.991978074737936977e+00 5.041085819183088006e+02
1.992078098743698344e+00 5.040563196198550031e+02
1.992178122749459712e+00 5.040040301488528485e+02
1.992278146755221080e+00 5.039517143844436191e+02
1.992378170760982448e+00 5.038993732073772094e+02
1.992478194766743815e+00 5.038470074999858070e+02
1.992578218772505183e+00 5.037946181461666697e+02
1.992678242778266551e+00 5.037422060313523957e+02
1.992778266784027918e+00 5.036897720424918248e+02
1.992878290789789286e+00 5.036373170680268458e+02
1.992978314795550654e+00 5.035848419978678407e+02
1.993078338801312466e+00 5.035323477233710037e+02
1.993178362807073611e+00 5.034798351373144669e+02
1.993278386812835201e+00 5.034273051338768710e+02
1.993378410818596347e+00 5.033747586086117281e+02
1.993478434824357937e+00 5.033221964584234911e+02
1.993578458830119082e+00 5.032696195815477722e+02
1.993678482835880672e+00 5.032170288775236600e+02
1.993778506841641818e+00 5.031644252471718914e+02
1.993878530847403407e+00 5.031118095925710350e+02
1.993978554853164553e+00 5.030591828170340705e+02
1.994078578858926143e+00 5.030065458250826396e+02
1.994178602864687289e+00 5.029538995224270366e+02
1.994278626870448878e+00 5.029012448159386395e+02
1.994378650876210024e+00 5.028485826136270020e+02
1.994478674881971614e+00 5.027959138246171733e+02
1.994578698887732759e+00 5.027432393591237769e+02
1.994678722893494349e+00 5.026905601284291834e+02
1.994778746899255495e+00 5.026378770448569071e+02
1.994878770905017307e+00 5.025851910217490399e+02
1.994978794910778674e+00 5.025325029734412396e+02
1.995078818916540042e+00 5.024798138152391971e+02
1.995178842922301410e+00 5.024271244633942501e+02
1.995278866928062778e+00 5.023744358350781454e+02
1.995378890933824145e+00 5.023217488483591069e+02
1.995478914939585513e+00 5.022690644221789285e+02
1.995578938945346881e+00 5.022163834763265413e+02
1.995678962951108248e+00 5.021637069314131168e+02
1.995778986956869616e+00 5.021110357088500677e+02
1.995879010962630984e+00 5.020583707308220482e+02
1.995979034968392352e+00 5.020057129202642727e+02
1.996079058974153719e+00 5.019530632008360271e+02
1.996179082979915087e+00 5.019004224968978178e+02
1.996279106985676455e+00 5.018477917334849394e+02
1.996379130991437822e+00 5.017951718362834299e+02
1.996479154997199190e+00 5.017425637316071061e+02
1.996579179002960558e+00 5.016899683463684596e+02
1.996679203008721926e+00 5.016373866080592734e+02
1.996779227014483515e+00 5.015848194447201536e+02
1.996879251020244883e+00 5.015322677849216007e+02
1.996979275026006251e+00 5.014797325577327456e+02
1.997079299031767619e+00 5.014272146927019094e+02
1.997179323037528986e+00 5.013747151198279539e+02
1.997279347043290354e+00 5.013222347695382268e+02
1.997379371049051722e+00 5.012697745726604239e+02
1.997479395054813089e+00 5.012173354603993403e+02
1.997579419060574457e+00 5.011649183643128254e+02
1.997679443066335825e+00 5.011125242162847826e+02
1.997779467072097193e+00 5.010601539484993623e+02
1.997879491077858560e+00 5.010078084934193043e+02
1.997979515083619928e+00 5.009554887837579713e+02
1.998079539089381296e+00 5.009031957524543941e+02
1.998179563095142663e+00 5.008509303326491136e+02
1.998279587100904031e+00 5.007986934576580325e+02
1.998379611106665399e+00 5.007464860609487118e+02
1.998479635112426767e+00 5.006943090761126882e+02
1.998579659118188356e+00 5.006421634368430205e+02
1.998679683123949724e+00 5.005900500769054702e+02
1.998779707129711092e+00 5.005379699301175833e+02
1.998879731135472460e+00 5.004859239303202116e+02
1.998979755141233827e+00 5.004339130113528427e+02
1.999079779146995195e+00 5.003819381070296686e+02
1.999179803152756563e+00 5.003300001511120740e+02
1.999279827158517930e+00 5.002781000772844777e+02
1.999379851164279298e+00 5.002262388191304012e+02
1.999479875170040666e+00 5.001744173101034789e+02
1.999579899175802034e+00 5.001226364835066533e+02
1.999679923181563401e+00 5.000708972724620480e+02
1.999779947187324769e+00 5.000192006098903335e+02
1.999879971193086137e+00 4.999675474284815664e+02
1.999979995198847504e+00 4.999159386606712587e+02
2.000080019204609094e+00 5.026172677740693189e+02
2.000180043210370240e+00 5.027085503328557365e+02
2.000280067216131830e+00 5.027999456226325492e+02
2.000380091221892975e+00 5.028914521323067106e+02
2.000480115227654565e+00 5.029830683422794664e+02
2.000580139233416155e+00 5.030747927244659081e+02
2.000680163239177300e+00 5.031666237423198709e+02
2.000780187244938890e+00 5.032585598508526914e+02
2.000880211250700036e+00 5.033505994966580488e+02
2.000980235256461626e+00 5.034427411179336787e+02
2.001080259262222771e+00 5.035349831445049631e+02
2.001180283267984361e+00 5.036273239978473271e+02
2.001280307273745507e+00 5.037197620911108515e+02
2.001380331279507097e+00 5.038122958291430109e+02
2.001480355285268242e+00 5.039049236085144230e+02
2.001580379291029832e+00 5.039976438175411886e+02
2.001680403296790978e+00 5.040904548363109257e+02
2.001780427302552567e+00 5.041833550367078942e+02
2.001880451308313713e+00 5.042763427824370410e+02
2.001980475314075303e+00 5.043694164290512276e+02
2.002080499319836449e+00 5.044625743239748203e+02
2.002180523325598038e+00 5.045558148065316004e+02
2.002280547331359628e+00 5.046491362079707983e+02
2.002380571337120774e+00 5.047425368514928437e+02
2.002480595342882363e+00 5.048360150522772187e+02
2.002580619348643509e+00 5.049295691175088336e+02
2.002680643354405099e+00 5.050231973464055955e+02
2.002780667360166245e+00 5.051168980302479667e+02
2.002880691365927834e+00 5.052106694524034083e+02
2.002980715371688980e+00 5.053045098883576429e+02
2.003080739377450570e+00 5.053984176057421109e+02
2.003180763383211715e+00 5.054923908643629602e+02
2.003280787388973305e+00 5.055864279162286721e+02
2.003380811394734451e+00 5.056805270055826895e+02
2.003480835400496041e+00 5.057746863689300199e+02
2.003580859406257186e+00 5.058689042350682712e+02
2.003680883412018776e+00 5.059631788251176658e+02
2.003780907417779922e+00 5.060575083525515083e+02
2.003880931423541512e+00 5.061518910232274493e+02
2.003980955429302657e+00 5.062463250354172715e+02
2.004080979435064247e+00 5.063408085798383809e+02
2.004181003440825837e+00 5.064353398396871171e+02
2.004281027446586982e+00 5.065299169906675161e+02
2.004381051452348572e+00 5.066245382010256435e+02
2.004481075458110162e+00 5.067192016315809155e+02
2.004581099463871308e+00 5.068139054357592954e+02
2.004681123469632453e+00 5.069086477596251825e+02
2.004781147475394043e+00 5.070034267419146090e+02
2.004881171481155633e+00 5.070982405140703690e+02
2.004981195486916778e+00 5.071930872002728279e+02
2.005081219492677924e+00 5.072879649174753922e+02
2.005181243498439514e+00 5.073828717754395825e+02
2.005281267504201104e+00 5.074778058767672064e+02
2.005381291509962249e+00 5.075727653169357723e+02
2.005481315515723395e+00 5.076677481843343571e+02
2.005581339521484985e+00 5.077627525602981109e+02
2.005681363527246575e+00 5.078577765191436697e+02
2.005781387533007720e+00 5.079528181282038304e+02
2.005881411538768866e+00 5.080478754478659766e+02
2.005981435544530900e+00 5.081429465316053893e+02
2.006081459550292045e+00 5.082380294260236724e+02
2.006181483556053635e+00 5.083331221708851331e+02
2.006281507561814781e+00 5.084282227991526497e+02
2.006381531567576371e+00 5.085233293370257570e+02
2.006481555573337516e+00 5.086184398039785037e+02
2.006581579579099106e+00 5.087135522127960030e+02
2.006681603584860252e+00 5.088086645696132564e+02
2.006781627590621842e+00 5.089037748739522726e+02
2.006881651596382987e+00 5.089988811187625970e+02
2.006981675602144577e+00 5.090939812904571795e+02
2.007081699607905723e+00 5.091890733689542117e+02
2.007181723613667312e+00 5.092841553277137905e+02
2.007281747619428458e+00 5.093792251337789594e+02
2.007381771625190048e+00 5.094742807478144186e+02
2.007481795630951193e+00 5.095693201241475094e+02
2.007581819636712783e+00 5.096643412108062989e+02
2.007681843642473929e+00 5.097593419495630087e+02
2.007781867648235519e+00 5.098543202759722135e+02
2.007881891653997108e+00 5.099492741194119958e+02
2.007981915659758254e+00 5.100442014031261806e+02
2.008081939665519844e+00 5.101391000442650920e+02
2.008181963671280990e+00 5.102339679539264807e+02
2.008281987677042579e+00 5.103288030371979858e+02
2.008382011682803725e+00 5.104236031931995967e+02
2.008482035688565315e+00 5.105183663151248084e+02
2.008582059694326460e+00 5.106130902902843332e+02
2.008682083700088050e+00 5.107077730001471423e+02
2.008782107705849196e+00 5.108024123203865088e+02
2.008882131711610786e+00 5.108970061209184337e+02
2.008982155717371931e+00 5.109915522659505882e+02
2.009082179723133521e+00 5.110860486140217063e+02
2.009182203728894667e+00 5.111804930180473434e+02
2.009282227734656257e+00 5.112748833253638168e+02
2.009382251740417402e+00 5.113692173777716334e+02
2.009482275746178992e+00 5.114634930115823295e+02
2.009582299751940138e+00 5.115577080576598519e+02
2.009682323757701727e+00 5.116518603414684208e+02
2.009782347763463317e+00 5.117459476831165830e+02
2.009882371769224463e+00 5.118399678974027438e+02
2.009982395774986053e+00 5.119339187938608688e+02
2.010082419780747198e+00 5.120277981768056179e+02
2.010182443786508788e+00 5.121216038453802639e+02
2.010282467792269934e+00 5.122153335936018266e+02
2.010382491798031523e+00 5.123089852104060355e+02
2.010482515803792669e+00 5.124025564796975232e+02
2.010582539809554259e+00 5.124960451803940487e+02
2.010682563815315405e+00 5.125894490864745876e+02
2.010782587821076994e+00 5.126827659670265120e+02
2.010882611826838140e+00 5.127759935862925431e+02
2.010982635832599730e+00 5.128691297037211143e+02
2.011082659838360875e+00 5.129621720740107094e+02
2.011182683844122465e+00 5.130551184471602255e+02
2.011282707849883611e+00 5.131479665685168357e+02
2.011382731855645201e+00 5.132407141788246463e+02
2.011482755861406346e+00 5.133333590142742651e+02
2.011582779867167936e+00 5.134258988065496396e+02
2.011682803872929526e+00 5.135183312828797852e+02
2.011782827878691116e+00 5.136106541660856237e+02
2.011882851884452261e+00 5.137028651746327341e+02
2.011982875890213407e+00 5.137949620226779643e+02
2.012082899895974997e+00 5.138869424201210450e+02
2.012182923901736586e+00 5.139788040726542704e+02
2.012282947907497732e+00 5.140705446818134305e+02
2.012382971913258878e+00 5.141621619450272647e+02
2.012482995919020468e+00 5.142536535556704393e+02
2.012583019924782057e+00 5.143450172031110696e+02
2.012683043930543203e+00 5.144362505727644930e+02
2.012783067936304349e+00 5.145273513461436323e+02
2.012883091942065938e+00 5.146183172009104965e+02
2.012983115947827528e+00 5.147091458109277937e+02
2.013083139953588674e+00 5.147998348463114553e+02
2.013183163959349820e+00 5.148903819734811123e+02
2.013283187965111409e+00 5.149807848552130736e+02
2.013383211970872999e+00 5.150710411506941000e+02
2.013483235976634589e+00 5.151611485155725632e+02
2.013583259982395735e+00 5.152511046020097183e+02
2.013683283988157324e+00 5.153409070587352971e+02
2.013783307993918470e+00 5.154305535310999176e+02
2.013883331999680060e+00 5.155200416611270384e+02
2.013983356005441205e+00 5.156093690875667335e+02
2.014083380011202795e+00 5.156985334459516253e+02
2.014183404016963941e+00 5.157875323686462252e+02
2.014283428022725531e+00 5.158763634849051414e+02
2.014383452028486676e+00 5.159650244209242373e+02
2.014483476034248266e+00 5.160535127998971348e+02
2.014583500040009412e+00 5.161418262420668270e+02
2.014683524045771001e+00 5.162299623647835460e+02
2.014783548051532147e+00 5.163179187825554664e+02
2.014883572057293737e+00 5.164056931071083909e+02
2.014983596063054883e+00 5.164932829474364553e+02
2.015083620068816472e+00 5.165806859098596533e+02
2.015183644074577618e+00 5.166678995980782929e+02
2.015283668080339208e+00 5.167549216132291576e+02
2.015383692086100798e+00 5.168417495539401898e+02
2.015483716091861943e+00 5.169283810163871067e+02
2.015583740097623533e+00 5.170148135943495618e+02
2.015683764103384679e+00 5.171010448792648049e+02
2.015783788109146268e+00 5.171870724602878227e+02
2.015883812114907414e+00 5.172728939243444302e+02
2.015983836120669004e+00 5.173585068561892513e+02
2.016083860126430150e+00 5.174439088384617662e+02
2.016183884132191739e+00 5.175290974517437235e+02
2.016283908137952885e+00 5.176140702746154147e+02
2.016383932143714475e+00 5.176988248837124047e+02
2.016483956149475620e+00 5.177833588537847618e+02
2.016583980155237210e+00 5.178676697577512869e+02
2.016684004160998356e+00 5.179517551667589714e+02
2.016784028166759946e+00 5.180356126502405232e+02
2.016884052172521091e+00 5.181192397759714368e+02
2.016984076178282681e+00 5.182026341101274056e+02
2.017084100184044271e+00 5.182857932173437803e+02
2.017184124189805416e+00 5.183687146607715022e+02
2.017284148195567006e+00 5.184513960021376988e+02
2.017384172201328152e+00 5.185338348018019587e+02
2.017484196207089742e+00 5.186160286188164719e+02
2.017584220212850887e+00 5.186979750109824181e+02
2.017684244218612477e+00 5.187796715349104488e+02
2.017784268224373623e+00 5.188611157460792356e+02
2.017884292230135213e+00 5.189423051988932230e+02
2.017984316235896358e+00 5.190232374467422005e+02
2.018084340241657948e+00 5.191039100420625800e+02
2.018184364247419094e+00 5.191843205363912830e+02
2.018284388253180683e+00 5.192644664804308832e+02
2.018384412258941829e+00 5.193443454241055406e+02
2.018484436264703419e+00 5.194239549166213692e+02
2.018584460270464565e+00 5.195032925065262361e+02
2.018684484276226154e+00 5.195823557417695611e+02
2.018784508281987300e+00 5.196611421697610922e+02
2.018884532287748890e+00 5.197396493374325246e+02
2.018984556293510479e+00 5.198178747912963900e+02
2.019084580299272069e+00 5.198958160775061970e+02
2.019184604305033215e+00 5.199734707419163442e+02
2.019284628310794361e+00 5.200508363301439658e+02
2.019384652316555950e+00 5.201279103876262297e+02
2.019484676322317540e+00 5.202046904596851391e+02
2.019584700328078686e+00 5.202811740915831251e+02
2.019684724333839831e+00 5.203573588285884171e+02
2.019784748339601421e+00 5.204332422160314309e+02
2.019884772345363011e+00 5.205088217993692297e+02
2.019984796351124157e+00 5.205840951242427082e+02
2.020084820356885302e+00 5.206590597365416215e+02
2.020184844362646892e+00 5.207337131824623384e+02
2.020284868368408482e+00 5.208080530085702549e+02
2.020384892374169628e+00 5.208820767618606169e+02
2.020484916379930773e+00 5.209557819898195703e+02
2.020584940385692363e+00 5.210291662404866884e+02
2.020684964391453953e+00 5.211022270625142028e+02
2.020784988397215542e+00 5.211749620052293039e+02
2.020885012402976688e+00 5.212473686186979194e+02
2.020985036408738278e+00 5.213194444537815571e+02
2.021085060414499424e+00 5.213911870622026754e+02
2.021185084420261013e+00 5.214625939966053920e+02
2.021285108426022159e+00 5.215336628106166472e+02
2.021385132431783749e+00 5.216043910589079360e+02
2.021485156437544894e+00 5.216747762972578357e+02
2.021585180443306484e+00 5.217448160826136245e+02
2.021685204449067630e+00 5.218145079731525584e+02
2.021785228454829220e+00 5.218838495283439443e+02
2.021885252460590365e+00 5.219528383090128045e+02
2.021985276466351955e+00 5.220214718773988807e+02
2.022085300472113101e+00 5.220897477972223442e+02
2.022185324477874691e+00 5.221576636337420041e+02
2.022285348483635836e+00 5.222252169538209046e+02
2.022385372489397426e+00 5.222924053259864650e+02
2.022485396495158572e+00 5.223592263204938035e+02
2.022585420500920161e+00 5.224256775093869010e+02
2.022685444506681751e+00 5.224917564665619238e+02
2.022785468512442897e+00 5.225574607678295251e+02
2.022885492518204487e+00 5.226227879909757803e+02
2.022985516523965632e+00 5.226877357158265340e+02
2.023085540529727222e+00 5.227523015243092459e+02
2.023185564535488368e+00 5.228164830005134718e+02
2.023285588541249957e+00 5.228802777307564611e+02
2.023385612547011103e+00 5.229436833036437520e+02
2.023485636552772693e+00 5.230066973101313579e+02
2.023585660558533839e+00 5.230693173435900007e+02
2.023685684564295428e+00 5.231315409998650239e+02
2.023785708570056574e+00 5.231933658773417619e+02
2.023885732575818164e+00 5.232547895770060222e+02
2.023985756581579309e+00 5.233158097025080906e+02
2.024085780587340899e+00 5.233764238602236674e+02
2.024185804593102045e+00 5.234366296593177594e+02
2.024285828598863635e+00 5.234964247118064122e+02
2.024385852604624780e+00 5.235558066326206017e+02
2.024485876610386370e+00 5.236147730396662610e+02
2.024585900616147960e+00 5.236733215538899913e+02
2.024685924621909106e+00 5.237314497993396571e+02
2.024785948627670695e+00 5.237891554032264594e+02
2.024885972633431841e+00 5.238464359959892818e+02
2.024985996639193431e+00 5.239032892113560820e+02
2.025086020644954576e+00 5.239597126864061920e+02
2.025186044650716166e+00 5.240157040616337554e+02
2.025286068656477312e+00 5.240712609810099138e+02
2.025386092662238902e+00 5.241263810920444257e+02
2.025486116668000047e+00 5.241810620458493304e+02
2.025586140673761637e+00 5.242353014972005667e+02
2.025686164679522783e+00 5.242890971046006143e+02
2.025786188685284372e+00 5.243424465303413626e+02
2.025886212691045518e+00 5.243953474405660700e+02
2.025986236696807108e+00 5.244477975053313230e+02
2.026086260702568254e+00 5.244997943986699056e+02
2.026186284708329843e+00 5.245513357986533265e+02
2.026286308714090989e+00 5.246024193874529828e+02
2.026386332719853023e+00 5.246530428514032565e+02
2.026486356725614169e+00 5.247032038810640415e+02
2.026586380731375314e+00 5.247529001712817944e+02
2.026686404737136904e+00 5.248021294212525163e+02
2.026786428742898494e+00 5.248508893345830302e+02
2.026886452748659639e+00 5.248991776193538499e+02
2.026986476754420785e+00 5.249469919881807982e+02
2.027086500760182375e+00 5.249943301582763979e+02
2.027186524765943965e+00 5.250411898515130815e+02
2.027286548771705110e+00 5.250875687944831043e+02
2.027386572777466256e+00 5.251334647185627773e+02
2.027486596783227846e+00 5.251788753599712436e+02
2.027586620788989435e+00 5.252237984598348248e+02
2.027686644794750581e+00 5.252682317642476164e+02
2.027786668800511727e+00 5.253121730243320826e+02
2.027886692806273317e+00 5.253556199963014706e+02
2.027986716812034906e+00 5.253985704415217697e+02
2.028086740817796052e+00 5.254410221265723067e+02
2.028186764823557642e+00 5.254829728233072501e+02
2.028286788829319232e+00 5.255244203089160919e+02
2.028386812835080377e+00 5.255653623659861751e+02
2.028486836840841967e+00 5.256057967825624928e+02
2.028586860846603113e+00 5.256457213522101029e+02
2.028686884852364702e+00 5.256851338740740402e+02
2.028786908858125848e+00 5.257240321529395715e+02
2.028886932863887438e+00 5.257624139992942673e+02
2.028986956869648584e+00 5.258002772293887119e+02
2.029086980875410173e+00 5.258376196652953922e+02
2.029187004881171319e+00 5.258744391349722491e+02
2.029287028886932909e+00 5.259107334723194072e+02
2.029387052892694054e+00 5.259465005172427254e+02
2.029487076898455644e+00 5.259817381157120053e+02
2.029587100904216790e+00 5.260164441198222676e+02
2.029687124909978380e+00 5.260506163878536654e+02
2.029787148915739525e+00 5.260842527843306016e+02
2.029887172921501115e+00 5.261173511800832330e+02
2.029987196927262261e+00 5.261499094523061331e+02
2.030087220933023850e+00 5.261819254846169542e+02
2.030187244938785440e+00 5.262133971671189556e+02
2.030287268944546586e+00 5.262443223964576191e+02
2.030387292950308176e+00 5.262746990758812444e+02
2.030487316956069321e+00 5.263045251153012032e+02
2.030587340961830911e+00 5.263337984313491233e+02
2.030687364967592057e+00 5.263625169474369159e+02
2.030787388973353647e+00 5.263906785938152098e+02
2.030887412979114792e+00 5.264182813076340608e+02
2.030987436984876382e+00 5.264453230329991129e+02
2.031087460990637528e+00 5.264718017210309426e+02
2.031187484996399117e+00 5.264977153299245174e+02
2.031287509002160263e+00 5.265230618250072894e+02
2.031387533007921853e+00 5.265478391787962664e+02
2.031487557013682999e+00 5.265720453710564470e+02
2.031587581019444588e+00 5.265956783888607333e+02
2.031687605025205734e+00 5.266187362266452965e+02
2.031787629030967324e+00 5.266412168862683529e+02
2.031887653036728913e+00 5.266631183770673488e+02
2.031987677042490059e+00 5.266844387159167127e+02
2.032087701048251649e+00 5.267051759272860636e+02
2.032187725054012795e+00 5.267253280432958036e+02
2.032287749059774384e+00 5.267448931037744160e+02
2.032387773065535530e+00 5.267638691563162183e+02
2.032487797071297120e+00 5.267822542563383195e+02
2.032587821077058265e+00 5.268000464671351892e+02
2.032687845082819855e+00 5.268172438599378893e+02
2.032787869088581001e+00 5.268338445139680744e+02
2.032887893094342591e+00 5.268498465164950630e+02
2.032987917100103736e+00 5.268652479628931360e+02
2.033087941105865326e+00 5.268800469566949687e+02
2.033187965111626472e+00 5.268942416096485886e+02
2.033287989117388062e+00 5.269078300417736500e+02
2.033388013123149207e+00 5.269208103814152082e+02
2.033488037128910797e+00 5.269331807653009037e+02
2.033588061134671943e+00 5.269449393385933718e+02
2.033688085140433532e+00 5.269560842549486779e+02
2.033788109146195122e+00 5.269666136765673627e+02
2.033888133151956268e+00 5.269765257742518543e+02
2.033988157157717858e+00 5.269858187274597867e+02
2.034088181163479447e+00 5.269944907243580019e+02
2.034188205169240593e+00 5.270025399618773463e+02
2.034288229175001739e+00 5.270099646457655354e+02
2.034388253180763328e+00 5.270167629906420643e+02
2.034488277186524918e+00 5.270229332200510726e+02
2.034588301192286064e+00 5.270284735665152311e+02
2.034688325198047210e+00 5.270333822715875840e+02
2.034788349203808799e+00 5.270376575859067998e+02
2.034888373209570389e+00 5.270412977692485583e+02
2.034988397215331535e+00 5.270443010905778465e+02
2.035088421221092680e+00 5.270466658281026184e+02
2.035188445226854270e+00 5.270483902693252958e+02
2.035288469232615860e+00 5.270494727110951771e+02
2.035388493238377006e+00 5.270499114596594836e+02
2.035488517244138151e+00 5.270497048307182695e+02
2.035588541249900185e+00 5.270488511494700106e+02
2.035688565255661331e+00 5.270473487506694710e+02
2.035788589261422921e+00 5.270451959786742009e+02
2.035888613267184066e+00 5.270423911874974010e+02
2.035988637272945656e+00 5.270389327408585132e+02
2.036088661278706802e+00 5.270348190122335836e+02
2.036188685284468392e+00 5.270300483849051716e+02
2.036288709290229537e+00 5.270246192520138493e+02
2.036388733295991127e+00 5.270185300166056095e+02
2.036488757301752273e+00 5.270117790916849572e+02
2.036588781307513862e+00 5.270043649002615211e+02
2.036688805313275008e+00 5.269962858754007584e+02
2.036788829319036598e+00 5.269875404602723847e+02
2.036888853324797743e+00 5.269781271081998284e+02
2.036988877330559333e+00 5.269680442827092293e+02
2.037088901336320479e+00 5.269572904575758230e+02
2.037188925342082069e+00 5.269458641168751001e+02
2.037288949347843214e+00 5.269337637550286217e+02
2.037388973353604804e+00 5.269209878768530189e+02
2.037488997359366394e+00 5.269075349976058078e+02
2.037589021365127540e+00 5.268934036430355263e+02
2.037689045370889129e+00 5.268785923494261851e+02
2.037789069376650275e+00 5.268630996636467216e+02
2.037889093382411865e+00 5.268469241431937462e+02
2.037989117388173010e+00 5.268300643562431560e+02
2.038089141393934600e+00 5.268125188816915170e+02
2.038189165399695746e+00 5.267942863092056314e+02
2.038289189405457336e+00 5.267753652392652839e+02
2.038389213411218481e+00 5.267557542832111039e+02
2.038489237416980071e+00 5.267354520632893582e+02
2.038589261422741217e+00 5.267144572126951516e+02
2.038689285428502806e+00 5.266927683756198348e+02
2.038789309434263952e+00 5.266703842072937505e+02
2.038889333440025542e+00 5.266473033740310257e+02
2.038989357445786688e+00 5.266235245532748195e+02
2.039089381451548277e+00 5.265990464336376817e+02
2.039189405457309423e+00 5.265738677149498699e+02
2.039289429463071013e+00 5.265479871082983436e+02
2.039389453468832603e+00 5.265214033360725807e+02
2.039489477474593748e+00 5.264941151320073232e+02
2.039589501480355338e+00 5.264661212412227087e+02
2.039689525486116484e+00 5.264374204202694045e+02
2.039789549491878073e+00 5.264080114371683976e+02
2.039889573497639219e+00 5.263778930714551052e+02
2.039989597503400809e+00 5.263470641142189379e+02
2.040089621509161955e+00 5.263155233681452501e+02
2.040189645514923544e+00 5.262832696475570629e+02
2.040289669520684690e+00 5.262503017784542863e+02
2.040389693526446280e+00 5.262166185985561242e+02
2.040489717532207425e+00 5.261822189573400692e+02
2.040589741537969015e+00 5.261471017160811243e+02
2.040689765543730161e+00 5.261112657478937535e+02
2.040789789549491751e+00 5.260747099377697396e+02
2.040889813555252896e+00 5.260374331826172920e+02
2.040989837561014486e+00 5.259994343913007242e+02
2.041089861566775632e+00 5.259607124846787656e+02
2.041189885572537221e+00 5.259212663956419647e+02
2.041289909578298811e+00 5.258810950691530479e+02
2.041389933584060401e+00 5.258401974622826174e+02
2.041489957589821547e+00 5.257985725442472358e+02
2.041589981595582692e+00 5.257562192964463748e+02
2.041690005601344282e+00 5.257131367125019779e+02
2.041790029607105872e+00 5.256693237982902929e+02
2.041890053612867018e+00 5.256247795719825717e+02
2.041990077618628163e+00 5.255795030640792902e+02
2.042090101624389753e+00 5.255334933174463004e+02
2.042190125630151343e+00 5.254867493873510966e+02
2.042290149635912488e+00 5.254392703414960124e+02
2.042390173641673634e+00 5.253910552600560777e+02
2.042490197647435224e+00 5.253421032357115337e+02
2.042590221653196814e+00 5.252924133736828480e+02
2.042690245658957959e+00 5.252419847917655034e+02
2.042790269664719105e+00 5.251908166203631936e+02
2.042890293670480695e+00 5.251389080025209068e+02
2.042990317676242285e+00 5.250862580939596000e+02
2.043090341682003874e+00 5.250328660631073490e+02
2.043190365687765020e+00 5.249787310911337954e+02
2.043290389693526610e+00 5.249238523719814111e+02
2.043390413699287755e+00 5.248682291123969890e+02
2.043490437705049345e+00 5.248118605319650669e+02
2.043590461710810491e+00 5.247547458631394193e+02
2.043690485716572081e+00 5.246968843512705689e+02
2.043790509722333226e+00 5.246382752546419397e+02
2.043890533728094816e+00 5.245789178444965728e+02
2.043990557733855962e+00 5.245188114050697550e+02
2.044090581739617551e+00 5.244579552336168717e+02
2.044190605745378697e+00 5.243963486404442165e+02
2.044290629751140287e+00 5.243339909489385491e+02
2.044390653756901433e+00 5.242708814955954040e+02
2.044490677762663022e+00 5.242070196300481939e+02
2.044590701768424168e+00 5.241424047150969727e+02
2.044690725774185758e+00 5.240770361267357202e+02
2.044790749779946903e+00 5.240109132541804229e+02
2.044890773785708493e+00 5.239440354998968132e+02
2.044990797791470083e+00 5.238764022796272002e+02
2.045090821797231229e+00 5.238080130224180948e+02
2.045190845802992818e+00 5.237388671706452214e+02
2.045290869808753964e+00 5.236689641800411437e+02
2.045390893814515554e+00 5.235983035197205027e+02
2.045490917820276700e+00 5.235268846722054832e+02
2.045590941826038289e+00 5.234547071334517341e+02
2.045690965831799435e+00 5.233817704128725836e+02
2.045790989837561025e+00 5.233080740333639369e+02
2.045891013843322170e+00 5.232336175313280364e+02
2.045991037849083760e+00 5.231584004566997237e+02
2.046091061854844906e+00 5.230824223729663345e+02
2.046191085860606496e+00 5.230056828571937331e+02
2.046291109866367641e+00 5.229281815000484812e+02
2.046391133872129231e+00 5.228499179058215987e+02
2.046491157877890377e+00 5.227708916924482310e+02
2.046591181883651966e+00 5.226911024915323196e+02
2.046691205889413556e+00 5.226105499483677477e+02
2.046791229895174702e+00 5.225292337219575529e+02
2.046891253900936292e+00 5.224471534850392800e+02
2.046991277906697437e+00 5.223643089240999871e+02
2.047091301912459027e+00 5.222806997394027348e+02
2.047191325918220173e+00 5.221963256450015933e+02
2.047291349923981763e+00 5.221111863687640380e+02
2.047391373929742908e+00 5.220252816523894808e+02
2.047491397935504498e+00 5.219386112514282559e+02
2.047591421941265644e+00 5.218511749353009463e+02
2.047691445947027233e+00 5.217629724873165742e+02
2.047791469952788379e+00 5.216740037046891985e+02
2.047891493958549969e+00 5.215842683985580379e+02
2.047991517964311114e+00 5.214937663940025914e+02
2.048091541970072704e+00 5.214024975300613960e+02
2.048191565975833850e+00 5.213104616597472614e+02
2.048291589981595440e+00 5.212176586500653457e+02
2.048391613987356585e+00 5.211240883820265708e+02
2.048491637993118175e+00 5.210297507506664942e+02
2.048591661998879765e+00 5.209346456650573600e+02
2.048691686004641355e+00 5.208387730483258338e+02
2.048791710010402500e+00 5.207421328376665315e+02
2.048891734016163646e+00 5.206447249843549798e+02
2.048991758021925236e+00 5.205465494537636459e+02
2.049091782027686826e+00 5.204476062253758073e+02
2.049191806033447971e+00 5.203478952927953287e+02
2.049291830039209117e+00 5.202474166637641702e+02
2.049391854044970707e+00 5.201461703601707995e+02
2.049491878050732296e+00 5.200441564180666774e+02
2.049591902056493442e+00 5.199413748876744421e+02
2.049691926062254588e+00 5.198378258333999611e+02
2.049791950068016178e+00 5.197335093338464276e+02
2.049891974073777767e+00 5.196284254818223189e+02
2.049991998079538913e+00 5.195225743843517421e+02
2.050092022085300059e+00 5.194159561626870527e+02
2.050192046091061648e+00 5.193085709523163587e+02
2.050292070096823238e+00 5.192004189029735244e+02
2.050392094102584828e+00 5.190915001786484027e+02
2.050492118108345974e+00 5.189818149575933148e+02
2.050592142114107563e+00 5.188713634323338511e+02
2.050692166119868709e+00 5.187601458096755778e+02
2.050792190125630299e+00 5.186481623107113137e+02
2.050892214131391444e+00 5.185354131708306795e+02
2.050992238137153034e+00 5.184218986397232811e+02
2.051092262142914180e+00 5.183076189813896235e+02
2.051192286148675770e+00 5.181925744741440667e+02
2.051292310154436915e+00 5.180767654106225564e+02
2.051392334160198505e+00 5.179601920977872851e+02
2.051492358165959651e+00 5.178428548569327177e+02
2.051592382171721241e+00 5.177247540236896839e+02
2.051692406177482386e+00 5.176058899480306081e+02
2.051792430183243976e+00 5.174862629942715557e+02
2.051892454189005122e+00 5.173658735410808731e+02
2.051992478194766711e+00 5.172447219814763457e+02
2.052092502200527857e+00 5.171228087228327013e+02
2.052192526206289447e+00 5.170001341868841109e+02
2.052292550212051037e+00 5.168766988097233934e+02
2.052392574217812182e+00 5.167525030418073584e+02
2.052492598223573772e+00 5.166275473479570337e+02
2.052592622229334918e+00 5.165018322073592572e+02
2.052692646235096507e+00 5.163753581135674722e+02
2.052792670240857653e+00 5.162481255745021826e+02
2.052892694246619243e+00 5.161201351124515213e+02
2.052992718252380389e+00 5.159913872640710224e+02
2.053092742258141978e+00 5.158618825803824848e+02
2.053192766263903124e+00 5.157316216267756772e+02
2.053292790269664714e+00 5.156006049830023130e+02
2.053392814275425859e+00 5.154688332431796880e+02
2.053492838281187449e+00 5.153363070157852235e+02
2.053592862286948595e+00 5.152030269236561253e+02
2.053692886292710185e+00 5.150689936039855183e+02
2.053792910298471330e+00 5.149342077083206277e+02
2.053892934304232920e+00 5.147986699025577764e+02
2.053992958309994066e+00 5.146623808669415894e+02
2.054092982315755656e+00 5.145253412960566948e+02
2.054193006321517245e+00 5.143875518988268141e+02
2.054293030327278391e+00 5.142490133985091916e+02
2.054393054333039981e+00 5.141097265326883416e+02
2.054493078338801126e+00 5.139696920532718423e+02
2.054593102344562716e+00 5.138289107264836275e+02
2.054693126350323862e+00 5.136873833328583032e+02
2.054793150356085452e+00 5.135451106672339847e+02
2.054893174361846597e+00 5.134020935387461577e+02
2.054993198367608187e+00 5.132583327708194929e+02
2.055093222373369333e+00 5.131138292011614794e+02
2.055193246379130922e+00 5.129685836817521931e+02
2.055293270384892068e+00 5.128225970788386121e+02
2.055393294390653658e+00 5.126758702729254082e+02
2.055493318396414804e+00 5.125284041587623278e+02
2.055593342402176393e+00 5.123801996453403262e+02
2.055693366407937539e+00 5.122312576558769024e+02
2.055793390413699129e+00 5.120815791278098459e+02
2.055893414419460719e+00 5.119311650127840494e+02
2.055993438425222308e+00 5.117800162766412768e+02
2.056093462430983454e+00 5.116281338994091357e+02
2.056193486436744600e+00 5.114755188752903337e+02
2.056293510442506189e+00 5.113221722126494910e+02
2.056393534448267779e+00 5.111680949340007487e+02
2.056493558454028925e+00 5.110132880759973659e+02
2.056593582459790071e+00 5.108577526894147240e+02
2.056693606465551660e+00 5.107014898391416295e+02
2.056793630471313250e+00 5.105445006041626925e+02
2.056893654477074396e+00 5.103867860775463896e+02
2.056993678482835541e+00 5.102283473664297730e+02
2.057093702488597131e+00 5.100691855920049989e+02
2.057193726494358721e+00 5.099093018895018758e+02
2.057293750500119867e+00 5.097486974081750759e+02
2.057393774505881012e+00 5.095873733112854325e+02
2.057493798511642602e+00 5.094253307760864686e+02
2.057593822517404192e+00 5.092625709938064915e+02
2.057693846523165337e+00 5.090990951696310844e+02
2.057793870528926927e+00 5.089349045226877593e+02
2.057893894534688517e+00 5.087700002860265158e+02
2.057993918540449663e+00 5.086043837066023343e+02
2.058093942546211252e+00 5.084380560452583495e+02
2.058193966551972398e+00 5.082710185767047619e+02
2.058293990557733988e+00 5.081032725895014437e+02
2.058394014563495134e+00 5.079348193860382707e+02
2.058494038569256723e+00 5.077656602825159666e+02
2.058594062575017869e+00 5.075957966089240472e+02
2.058694086580779459e+00 5.074252297090234833e+02
2.058794110586540604e+00 5.072539609403229974e+02
2.058894134592302194e+00 5.070819916740597932e+02
2.058994158598063340e+00 5.069093232951776145e+02
2.059094182603824930e+00 5.067359572023046894e+02
2.059194206609586075e+00 5.065618948077327559e+02
2.059294230615347665e+00 5.063871375373915953e+02
2.059394254621108811e+00 5.062116868308306721e+02
2.059494278626870400e+00 5.060355441411917923e+02
2.059594302632631990e+00 5.058587109351885829e+02
2.059694326638393136e+00 5.056811886930805713e+02
2.059794350644154726e+00 5.055029789086501069e+02
2.059894374649915871e+00 5.053240830891778046e+02
2.059994398655677461e+00 5.051445027554168519e+02
2.060094422661438607e+00 5.049642394415685089e+02
2.060194446667200197e+00 5.047832946952568705e+02
2.060294470672961342e+00 5.046016700775018649e+02
2.060394494678722932e+00 5.044193671626936748e+02
2.060494518684484078e+00 5.042363875385656797e+02
2.060594542690245667e+00 5.040527328061693311e+02
2.060694566696006813e+00 5.038684045798437978e+02
2.060794590701768403e+00 5.036834044871906713e+02
2.060894614707529549e+00 5.034977341690459980e+02
2.060994638713291138e+00 5.033113952794504939e+02
2.061094662719052284e+00 5.031243894856219185e+02
2.061194686724813874e+00 5.029367184679272214e+02
2.061294710730575019e+00 5.027483839198507667e+02
2.061394734736336609e+00 5.025593875479667076e+02
2.061494758742098199e+00 5.023697310719084044e+02
2.061594782747859345e+00 5.021794162243384676e+02
2.061694806753620934e+00 5.019884447509164715e+02
2.061794830759382080e+00 5.017968184102717260e+02
2.061894854765143670e+00 5.016045389739672373e+02
2.061994878770904815e+00 5.014116082264726515e+02
2.062094902776666405e+00 5.012180279651291812e+02
2.062194926782427551e+00 5.010238000001188539e+02
2.062294950788189141e+00 5.008289261544310307e+02
2.062394974793950286e+00 5.006334082638311429e+02
2.062494998799711876e+00 5.004372481768249941e+02
2.062595022805473022e+00 5.002404477546278940e+02
2.062695046811234612e+00 5.000430088711283361e+02
2.062795070816995757e+00 4.998449334128556529e+02
2.062895094822757347e+00 4.996462232789449445e+02
2.062995118828518493e+00 4.994468803811018915e+02
2.063095142834280082e+00 4.992469066435680816e+02
2.063195166840041228e+00 4.990463040030846287e+02
2.063295190845803262e+00 4.988450744088582383e+02
2.063395214851564408e+00 4.986432198225230081e+02
2.063495238857325553e+00 4.984407422181053562e+02
2.063595262863087143e+00 4.982376435819872995e+02
2.063695286868848733e+00 4.980339259128683693e+02
2.063795310874609878e+00 4.978295912217288333e+02
2.063895334880371024e+00 4.976246415317930882e+02
2.063995358886132614e+00 4.974190788784902679e+02
2.064095382891894204e+00 4.972129053094152482e+02
2.064195406897655349e+00 4.970061228842930632e+02
2.064295430903416495e+00 4.967987336749366136e+02
2.064395454909178085e+00 4.965907397652102873e+02
2.064495478914939675e+00 4.963821432509880651e+02
2.064595502920700820e+00 4.961729462401159481e+02
2.064695526926461966e+00 4.959631508523686989e+02
2.064795550932223556e+00 4.957527592194139743e+02
2.064895574937985145e+00 4.955417734847669635e+02
2.064995598943746291e+00 4.953301958037520762e+02
2.065095622949507437e+00 4.951180283434612193e+02
2.065195646955269471e+00 4.949052732827113914e+02
2.065295670961030616e+00 4.946919328120036425e+02
2.065395694966792206e+00 4.944780091334805547e+02
2.065495718972553352e+00 4.942635044608831549e+02
2.065595742978314941e+00 4.940484210195089076e+02
2.065695766984076087e+00 4.938327610461676045e+02
2.065795790989837677e+00 4.936165267891401527e+02
2.065895814995598823e+00 4.933997205081319635e+02
2.065995839001360412e+00 4.931823444742308311e+02
2.066095863007121558e+00 4.929644009698628224e+02
2.066195887012883148e+00 4.927458922887459494e+02
2.066295911018644293e+00 4.925268207358473660e+02
2.066395935024405883e+00 4.923071886273369273e+02
2.066495959030167029e+00 4.920869982905430220e+02
2.066595983035928619e+00 4.918662520639051650e+02
2.066696007041689764e+00 4.916449522969296595e+02
2.066796031047451354e+00 4.914231013501416783e+02
2.066896055053212500e+00 4.912007015950404138e+02
2.066996079058974090e+00 4.909777554140516713e+02
2.067096103064735679e+00 4.907542652004802903e+02
2.067196127070496825e+00 4.905302333584635335e+02
2.067296151076258415e+00 4.903056623029222010e+02
2.067396175082019560e+00 4.900805544595145307e+02
2.067496199087781150e+00 4.898549122645861189e+02
2.067596223093542296e+00 4.896287381651238775e+02
2.067696247099303886e+00 4.894020346187036807e+02
2.067796271105065031e+00 4.891748040934459141e+02
2.067896295110826621e+00 4.889470490679620411e+02
2.067996319116587767e+00 4.887187720313073669e+02
2.068096343122349356e+00 4.884899754829310154e+02
2.068196367128110502e+00 4.882606619326253394e+02
2.068296391133872092e+00 4.880308339004760683e+02
2.068396415139633238e+00 4.878004939168121155e+02
2.068496439145394827e+00 4.875696445221524300e+02
2.068596463151155973e+00 4.873382882671587026e+02
2.068696487156917563e+00 4.871064277125806257e+02
2.068796511162678708e+00 4.868740654292065528e+02
2.068896535168440298e+00 4.866412039978100665e+02
2.068996559174201888e+00 4.864078460090988187e+02
2.069096583179963034e+00 4.861739940636624056e+02
2.069196607185724623e+00 4.859396507719178544e+02
2.069296631191485769e+00 4.857048187540600566e+02
2.069396655197247359e+00 4.854695006400054922e+02
2.069496679203008505e+00 4.852336990693404459e+02
2.069596703208770094e+00 4.849974166912677447e+02
2.069696727214531240e+00 4.847606561645511647e+02
2.069796751220292830e+00 4.845234201574645567e+02
2.069896775226053975e+00 4.842857113477336952e+02
2.069996799231815565e+00 4.840475324224840961e+02
2.070096823237576711e+00 4.838088860781858784e+02
2.070196847243338301e+00 4.835697750205985130e+02
2.070296871249099446e+00 4.833302019647162524e+02
2.070396895254861036e+00 4.830901696347108896e+02
2.070496919260622182e+00 4.828496807638777000e+02
2.070596943266383771e+00 4.826087380945797349e+02
2.070696967272145361e+00 4.823673443781893866e+02
2.070796991277906507e+00 4.821255023750352393e+02
2.070897015283668097e+00 4.818832148543420999e+02
2.070997039289429686e+00 4.816404845941769395e+02
2.071097063295190832e+00 4.813973143813902880e+02
2.071197087300951978e+00 4.811537070115589927e+02
2.071297111306713568e+00 4.809096652889300003e+02
2.071397135312475157e+00 4.806651920263603870e+02
2.071497159318236303e+00 4.804202900452610265e+02
2.071597183323997449e+00 4.801749621755400881e+02
2.071697207329759038e+00 4.799292112555395988e+02
2.071797231335520628e+00 4.796830401319824091e+02
2.071897255341281774e+00 4.794364516599096078e+02
2.071997279347042920e+00 4.791894487026235083e+02
2.072097303352804509e+00 4.789420341316276222e+02
2.072197327358566099e+00 4.786942108265685079e+02
2.072297351364327245e+00 4.784459816751736412e+02
2.072397375370088390e+00 4.781973495731933212e+02
2.072497399375849980e+00 4.779483174243418944e+02
2.072597423381611570e+00 4.776988881402351126e+02
2.072697447387373160e+00 4.774490646403302776e+02
2.072797471393134305e+00 4.771988498518671236e+02
2.072897495398895895e+00 4.769482467098055167e+02
2.072997519404657041e+00 4.766972581567653151e+02
2.073097543410418631e+00 4.764458871429642954e+02
2.073197567416179776e+00 4.761941366261580129e+02
2.073297591421941366e+00 4.759420095715775005e+02
2.073397615427702512e+00 4.756895089518672535e+02
2.073497639433464101e+00 4.754366377470241787e+02
2.073597663439225247e+00 4.751833989443351811e+02
2.073697687444986837e+00 4.749297955383140106e+02
2.073797711450747983e+00 4.746758305306404395e+02
2.073897735456509572e+00 4.744215069300970526e+02
2.073997759462270718e+00 4.741668277525046165e+02
2.074097783468032308e+00 4.739117960206611428e+02
2.074197807473793453e+00 4.736564147642802709e+02
2.074297831479555043e+00 4.734006870199233958e+02
2.074397855485316633e+00 4.731446158309394150e+02
2.074497879491077779e+00 4.728882042474007221e+02
2.074597903496839368e+00 4.726314553260398270e+02
2.074697927502600514e+00 4.723743721301829055e+02
2.074797951508362104e+00 4.721169577296889770e+02
2.074897975514123249e+00 4.718592152008820335e+02
2.074997999519884839e+00 4.716011476264907287e+02
2.075098023525645985e+00 4.713427580955802227e+02
2.075198047531407575e+00 4.710840497034884038e+02
2.075298071537168720e+00 4.708250255517634741e+02
2.075398095542930310e+00 4.705656887480938053e+02
2.075498119548691456e+00 4.703060424062477978e+02
2.075598143554453046e+00 4.700460896460056119e+02
2.075698167560214191e+00 4.697858335930945373e+02
2.075798191565975781e+00 4.695252773791226559e+02
2.075898215571736927e+00 4.692644241415139845e+02
2.075998239577498516e+00 4.690032770234426494e+02
2.076098263583259662e+00 4.687418391737660386e+02
2.076198287589021252e+00 4.684801137469574428e+02
2.076298311594782842e+00 4.682181039030432430e+02
2.076398335600543987e+00 4.679558128075329932e+02
2.076498359606305577e+00 4.676932436313546759e+02
2.076598383612066723e+00 4.674303995507869445e+02
2.076698407617828313e+00 4.671672837473923892e+02
2.076798431623589458e+00 4.669038994079519398e+02
2.076898455629351048e+00 4.666402497243958010e+02
2.076998479635112194e+00 4.663763378937369453e+02
2.077098503640873783e+00 4.661121671180047770e+02
2.077198527646634929e+00 4.658477406041762379e+02
2.077298551652396519e+00 4.655830615641070835e+02
2.077398575658157664e+00 4.653181332144693556e+02
2.077498599663919254e+00 4.650529587766761779e+02
2.077598623669680400e+00 4.647875414768203086e+02
2.077698647675441990e+00 4.645218845456017789e+02
2.077798671681203135e+00 4.642559912182622384e+02
2.077898695686964725e+00 4.639898647345157769e+02
2.077998719692725871e+00 4.637235083384793484e+02
2.078098743698487461e+00 4.634569252786076277e+02
2.078198767704249050e+00 4.631901188076208200e+02
2.078298791710010640e+00 4.629230921824379834e+02
2.078398815715771786e+00 4.626558486641067702e+02
2.078498839721532931e+00 4.623883915177377730e+02
2.078598863727294521e+00 4.621207240124314239e+02
2.078698887733056111e+00 4.618528494212119995e+02
2.078798911738817257e+00 4.615847710209565093e+02
2.078898935744578402e+00 4.613164920923273939e+02
2.078998959750339992e+00 4.610480159197015269e+02
2.079098983756101582e+00 4.607793457911016617e+02
2.079199007761862728e+00 4.605104849981262873e+02
2.079299031767623873e+00 4.602414368358814727e+02
2.079399055773385463e+00 4.599722046029096418e+02
2.079499079779147053e+00 4.597027916011207367e+02
2.079599103784908198e+00 4.594332011357224701e+02
2.079699127790669344e+00 4.591634365151497832e+02
2.079799151796430934e+00 4.588935010509954964e+02
2.079899175802192524e+00 4.586233980579409604e+02
2.079999199807954113e+00 4.583531308536840356e+02
2.080099223813715259e+00 4.580827027588709939e+02
2.080199247819476849e+00 4.578121170970249523e+02
2.080299271825237994e+00 4.575413771944772066e+02
2.080399295830999584e+00 4.572704863802944715e+02
2.080499319836760730e+00 4.569994479862109529e+02
2.080599343842522320e+00 4.567282653465562703e+02
2.080699367848283465e+00 4.564569417981863353e+02
2.080799391854045055e+00 4.561854806804109899e+02
2.080899415859806201e+00 4.559138853349261922e+02
2.080999439865567791e+00 4.556421591057398928e+02
2.081099463871328936e+00 4.553703053391043341e+02
2.081199487877090526e+00 4.550983273834444276e+02
2.081299511882851672e+00 4.548262285892853924e+02
2.081399535888613261e+00 4.545540123091853388e+02
2.081499559894374407e+00 4.542816818976599507e+02
2.081599583900135997e+00 4.540092407111164903e+02
2.081699607905897143e+00 4.537366921077792767e+02
2.081799631911658732e+00 4.534640394476198253e+02
2.081899655917420322e+00 4.531912860922864752e+02
2.081999679923181468e+00 4.529184354050330512e+02
2.082099703928943057e+00 4.526454907506472978e+02
2.082199727934704203e+00 4.523724554953798815e+02
2.082299751940465793e+00 4.520993330068747582e+02
2.082399775946226939e+00 4.518261266540958445e+02
2.082499799951988528e+00 4.515528398072578966e+02
2.082599823957749674e+00 4.512794758377536937e+02
2.082699847963511264e+00 4.510060381180848594e+02
2.082799871969272409e+00 4.507325300217884774e+02
2.082899895975033999e+00 4.504589549233671164e+02
2.082999919980795145e+00 4.501853161982182314e+02
2.083099943986556735e+00 4.499116172225617447e+02
2.083199967992317880e+00 4.496378613733691054e+02
2.083299991998079470e+00 4.493640520282928605e+02
2.083400016003840616e+00 4.490901925655946343e+02
2.083500040009602206e+00 4.488162863640740170e+02
2.083600064015363351e+00 4.485423368029981361e+02
2.083700088021124941e+00 4.482683472620294651e+02
2.083800112026886531e+00 4.479943211211547691e+02
2.083900136032647676e+00 4.477202617606143349e+02
2.084000160038409266e+00 4.474461725608310871e+02
2.084100184044170412e+00 4.471720569023387952e+02
2.084200208049932002e+00 4.468979181657103936e+02
2.084300232055693147e+00 4.466237597314885761e+02
2.084400256061454737e+00 4.463495849801130362e+02
2.084500280067215883e+00 4.460753972918500381e+02
2.084600304072977472e+00 4.458012000467209646e+02
2.084700328078738618e+00 4.455269966244318880e+02
2.084800352084500208e+00 4.452527904043018339e+02
2.084900376090261354e+00 4.449785847651929771e+02
2.085000400096022943e+00 4.447043830854374278e+02
2.085100424101784089e+00 4.444301887427692463e+02
2.085200448107545679e+00 4.441560051142500356e+02
2.085300472113306824e+00 4.438818355762013539e+02
2.085400496119068414e+00 4.436076835041327513e+02
2.085500520124830004e+00 4.433335522726686122e+02
2.085600544130591594e+00 4.430594452554814779e+02
2.085700568136352739e+00 4.427853658252182640e+02
2.085800592142113885e+00 4.425113173534307975e+02
2.085900616147875475e+00 4.422373032105042512e+02
2.086000640153637065e+00 4.419633267655887607e+02
2.086100664159398210e+00 4.416893913865256991e+02
2.086200688165159356e+00 4.414155004397792936e+02
2.086300712170920946e+00 4.411416572903665383e+02
2.086400736176682535e+00 4.408678653017848319e+02
2.086500760182443681e+00 4.405941278359432545e+02
2.086600784188204827e+00 4.403204482530913992e+02
2.086700808193966417e+00 4.400468299117502511e+02
2.086800832199728006e+00 4.397732761686406775e+02
2.086900856205489152e+00 4.394997903786143070e+02
2.087000880211250298e+00 4.392263758945830432e+02
2.087100904217011887e+00 4.389530360674489202e+02
2.087200928222773477e+00 4.386797742460354357e+02
2.087300952228534623e+00 4.384065937770157575e+02
2.087400976234296213e+00 4.381334980048444550e+02
2.087501000240057802e+00 4.378604902716883771e+02
2.087601024245818948e+00 4.375875739173542343e+02
2.087701048251580538e+00 4.373147522792221480e+02
2.087801072257341684e+00 4.370420286921747675e+02
2.087901096263103273e+00 4.367694064885282046e+02
2.088001120268864419e+00 4.364968889979626852e+02
2.088101144274626009e+00 4.362244795474530292e+02
2.088201168280387154e+00 4.359521814612005528e+02
2.088301192286148744e+00 4.356799980605627525e+02
2.088401216291909890e+00 4.354079326639854344e+02
2.088501240297671480e+00 4.351359885869337063e+02
2.088601264303432625e+00 4.348641691418226856e+02
2.088701288309194215e+00 4.345924776379498553e+02
2.088801312314955361e+00 4.343209173814244650e+02
2.088901336320716950e+00 4.340494916751023879e+02
2.089001360326478096e+00 4.337782038185144984e+02
2.089101384332239686e+00 4.335070571078006765e+02
2.089201408338001276e+00 4.332360548356410277e+02
2.089301432343762421e+00 4.329652002911869886e+02
2.089401456349524011e+00 4.326944967599946494e+02
2.089501480355285157e+00 4.324239475239568833e+02
2.089601504361046747e+00 4.321535558612345653e+02
2.089701528366807892e+00 4.318833250461899524e+02
2.089801552372569482e+00 4.316132583493191532e+02
2.089901576378330628e+00 4.313433590371848254e+02
2.090001600384092217e+00 4.310736303723484184e+02
2.090101624389853363e+00 4.308040756133028708e+02
2.090201648395614953e+00 4.305346980144078088e+02
2.090301672401376099e+00 4.302655008258201406e+02
2.090401696407137688e+00 4.299964872934275490e+02
2.090501720412898834e+00 4.297276606587845436e+02
2.090601744418660424e+00 4.294590241590425421e+02
2.090701768424421569e+00 4.291905810268855817e+02
2.090801792430183159e+00 4.289223344904640385e+02
2.090901816435944305e+00 4.286542877733281216e+02
2.091001840441705895e+00 4.283864440943617637e+02
2.091101864447467484e+00 4.281188066677174220e+02
2.091201888453228630e+00 4.278513787027497983e+02
2.091301912458990220e+00 4.275841634039510382e+02
2.091401936464751365e+00 4.273171639708852467e+02
2.091501960470512955e+00 4.270503835981227780e+02
2.091601984476274101e+00 4.267838254751748082e+02
2.091702008482035691e+00 4.265174927864303527e+02
2.091802032487796836e+00 4.262513887110894188e+02
2.091902056493558426e+00 4.259855164230997957e+02
2.092002080499319572e+00 4.257198790910914568e+02
2.092102104505081162e+00 4.254544798783131796e+02
2.092202128510842307e+00 4.251893219425683696e+02
2.092302152516603897e+00 4.249244084361495766e+02
2.092402176522365043e+00 4.246597425057776150e+02
2.092502200528126632e+00 4.243953272925348301e+02
2.092602224533887778e+00 4.241311659318034799e+02
2.092702248539649368e+00 4.238672615532018426e+02
2.092802272545410514e+00 4.236036172805214619e+02
2.092902296551172547e+00 4.233402362316630843e+02
2.093002320556933693e+00 4.230771215185748133e+02
2.093102344562694839e+00 4.228142762471895821e+02
2.093202368568456428e+00 4.225517035173617728e+02
2.093302392574218018e+00 4.222894064228055413e+02
2.093402416579979164e+00 4.220273880510330855e+02
2.093502440585740310e+00 4.217656514832916628e+02
2.093602464591501899e+00 4.215041997945021990e+02
2.093702488597263489e+00 4.212430360531985229e+02
2.093802512603024635e+00 4.209821633214650092e+02
2.093902536608785780e+00 4.207215846548754143e+02
2.094002560614547370e+00 4.204613031024330780e+02
2.094102584620308960e+00 4.202013217065078265e+02
2.094202608626070106e+00 4.199416435027771399e+02
2.094302632631831251e+00 4.196822715201658411e+02
2.094402656637592841e+00 4.194232087807837956e+02
2.094502680643354431e+00 4.191644582998688975e+02
2.094602704649115577e+00 4.189060230857244278e+02
2.094702728654876722e+00 4.186479061396599946e+02
2.094802752660638756e+00 4.183901104559329838e+02
2.094902776666399902e+00 4.181326390216895561e+02
2.095002800672161491e+00 4.178754948169041086e+02
2.095102824677922637e+00 4.176186808143210101e+02
2.095202848683684227e+00 4.173621999793962232e+02
2.095302872689445373e+00 4.171060552702380164e+02
2.095402896695206962e+00 4.168502496375508599e+02
2.095502920700968108e+00 4.165947860245741481e+02
2.095602944706729698e+00 4.163396673670269479e+02
2.095702968712490843e+00 4.160848965930491090e+02
2.095802992718252433e+00 4.158304766231442500e+02
2.095903016724013579e+00 4.155764103701228578e+02
2.096003040729775169e+00 4.153227007390449330e+02
2.096103064735536314e+00 4.150693506271630326e+02
2.096203088741297904e+00 4.148163629238650856e+02
2.096303112747059050e+00 4.145637405106208462e+02
2.096403136752820640e+00 4.143114862609219244e+02
2.096503160758581785e+00 4.140596030402297174e+02
2.096603184764343375e+00 4.138080937059162920e+02
2.096703208770104965e+00 4.135569611072114071e+02
2.096803232775866110e+00 4.133062080851456130e+02
2.096903256781627700e+00 4.130558374724979558e+02
2.097003280787388846e+00 4.128058520937367462e+02
2.097103304793150436e+00 4.125562547649701628e+02
2.097203328798911581e+00 4.123070482938876467e+02
2.097303352804673171e+00 4.120582354797086282e+02
2.097403376810434317e+00 4.118098191131282988e+02
2.097503400816195906e+00 4.115618019762617905e+02
2.097603424821957052e+00 4.113141868425940402e+02
2.097703448827718642e+00 4.110669764769254471e+02
2.097803472833479788e+00 4.108201736353173601e+02
2.097903496839241377e+00 4.105737810650417714e+02
2.098003520845002523e+00 4.103278015045285656e+02
2.098103544850764113e+00 4.100822376833116323e+02
2.098203568856525258e+00 4.098370923219795259e+02
2.098303592862286848e+00 4.095923681321215781e+02
2.098403616868047994e+00 4.093480678162783306e+02
2.098503640873809584e+00 4.091041940678886704e+02
2.098603664879571173e+00 4.088607495712403761e+02
2.098703688885332319e+00 4.086177370014189592e+02
2.098803712891093909e+00 4.083751590242571297e+02
2.098903736896855055e+00 4.081330182962846038e+02
2.099003760902616644e+00 4.078913174646789344e+02
2.099103784908377790e+00 4.076500591672146356e+02
2.099203808914139380e+00 4.074092460322153784e+02
2.099303832919900525e+00 4.071688806785035695e+02
2.099403856925662115e+00 4.069289657153525468e+02
2.099503880931423261e+00 4.066895037424366137e+02
2.099603904937184851e+00 4.064504973497847118e+02
2.099703928942945996e+00 4.062119491177298300e+02
2.099803952948707586e+00 4.059738616168644967e+02
2.099903976954468732e+00 4.057362374079904157e+02
2.100004000960230321e+00 4.054990790420713438e+02
2.100104024965991467e+00 4.052623890601886956e+02
2.100204048971753057e+00 4.050261699934923172e+02
2.100304072977514647e+00 4.047904243631548979e+02
2.100404096983275792e+00 4.045551546803255860e+02
2.100504120989037382e+00 4.043203634460839453e+02
2.100604144994798972e+00 4.040860531513957881e+02
2.100704169000560118e+00 4.038522262770658244e+02
2.100804193006321263e+00 4.036188852936939497e+02
2.100904217012082853e+00 4.033860326616288603e+02
2.101004241017844443e+00 4.031536708309253072e+02
2.101104265023605588e+00 4.029218022412998721e+02
2.101204289029366734e+00 4.026904293220851514e+02
2.101304313035128324e+00 4.024595544921883175e+02
2.101404337040889914e+00 4.022291801600448480e+02
2.101504361046651059e+00 4.019993087235797020e+02
2.101604385052412205e+00 4.017699425701595146e+02
2.101704409058173795e+00 4.015410840765543981e+02
2.101804433063935384e+00 4.013127356088926945e+02
2.101904457069696530e+00 4.010848995226205034e+02
2.102004481075457676e+00 4.008575781624591627e+02
2.102104505081219266e+00 4.006307738623654586e+02
2.102204529086980855e+00 4.004044889454878557e+02
2.102304553092742445e+00 4.001787257241285261e+02
2.102404577098503591e+00 3.999534864996995793e+02
2.102504601104265181e+00 3.997287735626880476e+02
2.102604625110026326e+00 3.995045891926085915e+02
2.102704649115787916e+00 3.992809356579709856e+02
2.102804673121549062e+00 3.990578152162363494e+02
2.102904697127310651e+00 3.988352301137796303e+02
2.103004721133071797e+00 3.986131825858509501e+02
2.103104745138833387e+00 3.983916748565355874e+02
2.103204769144594533e+00 3.981707091387191326e+02
2.103304793150356122e+00 3.979502876340463331e+02
2.103404817156117268e+00 3.977304125328843725e+02
2.103504841161878858e+00 3.975110860142870024e+02
2.103604865167640003e+00 3.972923102459559459e+02
2.103704889173401593e+00 3.970740873842053134e+02
2.103804913179162739e+00 3.968564195739245974e+02
2.103904937184924329e+00 3.966393089485421228e+02
2.104004961190685918e+00 3.964227576299920202e+02
2.104104985196447064e+00 3.962067677286746630e+02
2.104205009202208654e+00 3.959913413434248355e+02
2.104305033207969799e+00 3.957764805614756369e+02
2.104405057213731389e+00 3.955621874584237503e+02
2.104505081219492535e+00 3.953484640981959046e+02
2.104605105225254125e+00 3.951353125330148259e+02
2.104705129231015270e+00 3.949227348033645058e+02
2.104805153236776860e+00 3.947107329379591647e+02
2.104905177242538006e+00 3.944993089537081801e+02
2.105005201248299596e+00 3.942884648556848788e+02
2.105105225254060741e+00 3.940782026370926587e+02
2.105205249259822331e+00 3.938685242792347481e+02
2.105305273265583477e+00 3.936594317514814634e+02
2.105405297271345066e+00 3.934509270112390027e+02
2.105505321277106212e+00 3.932430120039183521e+02
2.105605345282867802e+00 3.930356886629038513e+02
2.105705369288628948e+00 3.928289589095250562e+02
2.105805393294390537e+00 3.926228246530227466e+02
2.105905417300152127e+00 3.924172877905236305e+02
2.106005441305913273e+00 3.922123502070066934e+02
2.106105465311674863e+00 3.920080137752770497e+02
2.106205489317436008e+00 3.918042803559354752e+02
2.106305513323197598e+00 3.916011517973502123e+02
2.106405537328958744e+00 3.913986299356295149e+02
2.106505561334720333e+00 3.911967165945917486e+02
2.106605585340481479e+00 3.909954135857406072e+02
2.106705609346243069e+00 3.907947227082361792e+02
2.106805633352004214e+00 3.905946457488673218e+02
2.106905657357765804e+00 3.903951844820271617e+02
2.107005681363526950e+00 3.901963406696847869e+02
2.107105705369288540e+00 3.899981160613601787e+02
2.107205729375049685e+00 3.898005123940996555e+02
2.107305753380811275e+00 3.896035313924477919e+02
2.107405777386572421e+00 3.894071747684258753e+02
2.107505801392334011e+00 3.892114442215044505e+02
2.107605825398095156e+00 3.890163414385799570e+02
2.107705849403856746e+00 3.888218680939505703e+02
2.107805873409618336e+00 3.886280258492940334e+02
2.107905897415379926e+00 3.884348163536414518e+02
2.108005921421141071e+00 3.882422412433573982e+02
2.108105945426902217e+00 3.880503021421146741e+02
2.108205969432663807e+00 3.878590006608724252e+02
2.108305993438425396e+00 3.876683383978567008e+02
2.108406017444186542e+00 3.874783169385338510e+02
2.108506041449947688e+00 3.872889378555942130e+02
2.108606065455709278e+00 3.871002027089281796e+02
2.108706089461470867e+00 3.869121130456056221e+02
2.108806113467232013e+00 3.867246703998566204e+02
2.108906137472993159e+00 3.865378762930505445e+02
2.109006161478754748e+00 3.863517322336770121e+02
2.109106185484516338e+00 3.861662397173253112e+02
2.109206209490277484e+00 3.859814002266669490e+02
2.109306233496038629e+00 3.857972152314351320e+02
2.109406257501800219e+00 3.856136861884083373e+02
2.109506281507561809e+00 3.854308145413905891e+02
2.109606305513323399e+00 3.852486017211946319e+02
2.109706329519084544e+00 3.850670491456241962e+02
2.109806353524846134e+00 3.848861582194574567e+02
2.109906377530607280e+00 3.847059303344288992e+02
2.110006401536368870e+00 3.845263668692148258e+02
2.110106425542130015e+00 3.843474691894165289e+02
2.110206449547891605e+00 3.841692386475431249e+02
2.110306473553652751e+00 3.839916765829992187e+02
2.110406497559414341e+00 3.838147843220657478e+02
2.110506521565175486e+00 3.836385631778904326e+02
2.110606545570937076e+00 3.834630144504684495e+02
2.110706569576698222e+00 3.832881394266306643e+02
2.110806593582459811e+00 3.831139393800307857e+02
2.110906617588220957e+00 3.829404155711299609e+02
2.111006641593982547e+00 3.827675692471848379e+02
2.111106665599743692e+00 3.825954016422348332e+02
2.111206689605505282e+00 3.824239139770894553e+02
2.111306713611266428e+00 3.822531074593169933e+02
2.111406737617028018e+00 3.820829832832307602e+02
2.111506761622789607e+00 3.819135426298811353e+02
2.111606785628550753e+00 3.817447866670408985e+02
2.111706809634312343e+00 3.815767165491972150e+02
2.111806833640073489e+00 3.814093334175390737e+02
2.111906857645835078e+00 3.812426383999504083e+02
2.112006881651596224e+00 3.810766326109966258e+02
2.112106905657357814e+00 3.809113171519172170e+02
2.112206929663118959e+00 3.807466931106179118e+02
2.112306953668880549e+00 3.805827615616585717e+02
2.112406977674641695e+00 3.804195235662484720e+02
2.112507001680403285e+00 3.802569801722363536e+02
2.112607025686164430e+00 3.800951324141024088e+02
2.112707049691926020e+00 3.799339813129524828e+02
2.112807073697687166e+00 3.797735278765093199e+02
2.112907097703448756e+00 3.796137730991073909e+02
2.113007121709209901e+00 3.794547179616857306e+02
2.113107145714971491e+00 3.792963634317814012e+02
2.113207169720732637e+00 3.791387104635255128e+02
2.113307193726494226e+00 3.789817599976364022e+02
2.113407217732255816e+00 3.788255129614148018e+02
2.113507241738016962e+00 3.786699702687398030e+02
2.113607265743778552e+00 3.785151328200640251e+02
2.113707289749539697e+00 3.783610015024093514e+02
2.113807313755301287e+00 3.782075771893644855e+02
2.113907337761062433e+00 3.780548607410801765e+02
2.114007361766824022e+00 3.779028530042668876e+02
2.114107385772585168e+00 3.777515548121912730e+02
2.114207409778346758e+00 3.776009669846763472e+02
2.114307433784107904e+00 3.774510903280960292e+02
2.114407457789869493e+00 3.773019256353758237e+02
2.114507481795630639e+00 3.771534736859907184e+02
2.114607505801392229e+00 3.770057352459649564e+02
2.114707529807153374e+00 3.768587110678691943e+02
2.114807553812914964e+00 3.767124018908222638e+02
2.114907577818676110e+00 3.765668084404913998e+02
2.115007601824437700e+00 3.764219314290902503e+02
2.115107625830199289e+00 3.762777715553817188e+02
2.115207649835960879e+00 3.761343295046776234e+02
2.115307673841722025e+00 3.759916059488409701e+02
2.115407697847483171e+00 3.758496015462866353e+02
2.115507721853244760e+00 3.757083169419845490e+02
2.115607745859006350e+00 3.755677527674599787e+02
2.115707769864767496e+00 3.754279096407990437e+02
2.115807793870528641e+00 3.752887881666479757e+02
2.115907817876290231e+00 3.751503889362205655e+02
2.116007841882051821e+00 3.750127125272981630e+02
2.116107865887812967e+00 3.748757595042352477e+02
2.116207889893574112e+00 3.747395304179640334e+02
2.116307913899335702e+00 3.746040258059979919e+02
2.116407937905097292e+00 3.744692461924372537e+02
2.116507961910858437e+00 3.743351920879742352e+02
2.116607985916619583e+00 3.742018639898986976e+02
2.116708009922381173e+00 3.740692623821031475e+02
2.116808033928142763e+00 3.739373877350904536e+02
2.116908057933903908e+00 3.738062405059787920e+02
2.117008081939665498e+00 3.736758211385096615e+02
2.117108105945427088e+00 3.735461300630545338e+02
2.117208129951188234e+00 3.734171676966221867e+02
2.117308153956949823e+00 3.732889344428667755e+02
2.117408177962710969e+00 3.731614306920962463e+02
2.117508201968472559e+00 3.730346568212803504e+02
2.117608225974233704e+00 3.729086131940595124e+02
2.117708249979995294e+00 3.727833001607535266e+02
2.117808273985756440e+00 3.726587180583723580e+02
2.117908297991518030e+00 3.725348672106235881e+02
2.118008321997279175e+00 3.724117479279249210e+02
2.118108346003040765e+00 3.722893605074127095e+02
2.118208370008801911e+00 3.721677052329540629e+02
2.118308394014563500e+00 3.720467823751557148e+02
2.118408418020324646e+00 3.719265921913777788e+02
2.118508442026086236e+00 3.718071349257446059e+02
2.118608466031847382e+00 3.716884108091551866e+02
2.118708490037608971e+00 3.715704200592977031e+02
2.118808514043370561e+00 3.714531628806599883e+02
2.118908538049131707e+00 3.713366394645445325e+02
2.119008562054893297e+00 3.712208499890798521e+02
2.119108586060654442e+00 3.711057946192349846e+02
2.119208610066416032e+00 3.709914735068326195e+02
2.119308634072177178e+00 3.708778867905637640e+02
2.119408658077938767e+00 3.707650345960016125e+02
2.119508682083699913e+00 3.706529170356182021e+02
2.119608706089461503e+00 3.705415342087957811e+02
2.119708730095222649e+00 3.704308862018456239e+02
2.119808754100984238e+00 3.703209730880216171e+02
2.119908778106745384e+00 3.702117949275376532e+02
2.120008802112506974e+00 3.701033517675822395e+02
2.120108826118268119e+00 3.699956436423368018e+02
2.120208850124029709e+00 3.698886705729908613e+02
2.120308874129790855e+00 3.697824325677614752e+02
2.120408898135552445e+00 3.696769296219072203e+02
2.120508922141313590e+00 3.695721617177500775e+02
2.120608946147075180e+00 3.694681288246901545e+02
2.120708970152836770e+00 3.693648308992259217e+02
2.120808994158597915e+00 3.692622678849713793e+02
2.120909018164359505e+00 3.691604397126776576e+02
2.121009042170120651e+00 3.690593463002485919e+02
2.121109066175882241e+00 3.689589875527639720e+02
2.121209090181643386e+00 3.688593633624964241e+02
2.121309114187404976e+00 3.687604736089332391e+02
2.121409138193166122e+00 3.686623181587963813e+02
2.121509162198927712e+00 3.685648968660628384e+02
2.121609186204688857e+00 3.684682095719866766e+02
2.121709210210450447e+00 3.683722561051189359e+02
2.121809234216211593e+00 3.682770362813301404e+02
2.121909258221973182e+00 3.681825499038313865e+02
2.122009282227734328e+00 3.680887967631991842e+02
2.122109306233495918e+00 3.679957766373933055e+02
2.122209330239257064e+00 3.679034892917833304e+02
2.122309354245018653e+00 3.678119344791706453e+02
2.122409378250779799e+00 3.677211119398106121e+02
2.122509402256541833e+00 3.676310214014372377e+02
2.122609426262302978e+00 3.675416625792877880e+02
2.122709450268064124e+00 3.674530351761256952e+02
2.122809474273825714e+00 3.673651388822641479e+02
2.122909498279587304e+00 3.672779733755934899e+02
2.123009522285348449e+00 3.671915383216038435e+02
2.123109546291109595e+00 3.671058333734123380e+02
2.123209570296871185e+00 3.670208581717859602e+02
2.123309594302632775e+00 3.669366123451704880e+02
2.123409618308393920e+00 3.668530955097140804e+02
2.123509642314155066e+00 3.667703072692955288e+02
2.123609666319916656e+00 3.666882472155493247e+02
2.123709690325678245e+00 3.666069149278935129e+02
2.123809714331439391e+00 3.665263099735574883e+02
2.123909738337200537e+00 3.664464319076072343e+02
2.124009762342962127e+00 3.663672802729749947e+02
2.124109786348723716e+00 3.662888546004874115e+02
2.124209810354484862e+00 3.662111544088923551e+02
2.124309834360246008e+00 3.661341792048880279e+02
2.124409858366008041e+00 3.660579284831524660e+02
2.124509882371769187e+00 3.659824017263716200e+02
2.124609906377530777e+00 3.659075984052691979e+02
2.124709930383291923e+00 3.658335179786355980e+02
2.124809954389053512e+00 3.657601598933592300e+02
2.124909978394814658e+00 3.656875235844545386e+02
2.125010002400576248e+00 3.656156084750940636e+02
2.125110026406337393e+00 3.655444139766381113e+02
2.125210050412098983e+00 3.654739394886664172e+02
2.125310074417860129e+00 3.654041843990075904e+02
2.125410098423621719e+00 3.653351480837723102e+02
2.125510122429382864e+00 3.652668299073849312e+02
2.125610146435144454e+00 3.651992292226127006e+02
2.125710170440905600e+00 3.651323453706017403e+02
2.125810194446667190e+00 3.650661776809066055e+02
2.125910218452428335e+00 3.650007254715237082e+02
2.126010242458189925e+00 3.649359880489241164e+02
2.126110266463951071e+00 3.648719647080871482e+02
2.126210290469712660e+00 3.648086547325333413e+02
2.126310314475474250e+00 3.647460573943575355e+02
2.126410338481235396e+00 3.646841719542632632e+02
2.126510362486996986e+00 3.646229976615969690e+02
2.126610386492758131e+00 3.645625337543817750e+02
2.126710410498519721e+00 3.645027794593531212e+02
2.126810434504280867e+00 3.644437339919916781e+02
2.126910458510042456e+00 3.643853965565594422e+02
2.127010482515803602e+00 3.643277663461354905e+02
2.127110506521565192e+00 3.642708425426503140e+02
2.127210530527326338e+00 3.642146243169226523e+02
2.127310554533087927e+00 3.641591108286943950e+02
2.127410578538849073e+00 3.641043012266676442e+02
2.127510602544610663e+00 3.640501946485404119e+02
2.127610626550371808e+00 3.639967902210433977e+02
2.127710650556133398e+00 3.639440870599769369e+02
2.127810674561894544e+00 3.638920842702486880e+02
2.127910698567656134e+00 3.638407809459090458e+02
2.128010722573417279e+00 3.637901761701907617e+02
2.128110746579178869e+00 3.637402690155462324e+02
2.128210770584940459e+00 3.636910585436837664e+02
2.128310794590701605e+00 3.636425438056079997e+02
2.128410818596463194e+00 3.635947238416573555e+02
2.128510842602224340e+00 3.635475976815408785e+02
2.128610866607985930e+00 3.635011643443806975e+02
2.128710890613747075e+00 3.634554228387484045e+02
2.128810914619508665e+00 3.634103721627040500e+02
2.128910938625269811e+00 3.633660113038376380e+02
2.129010962631031401e+00 3.633223392393073823e+02
2.129110986636792546e+00 3.632793549358789846e+02
2.129211010642554136e+00 3.632370573499669604e+02
2.129311034648315282e+00 3.631954454276745992e+02
2.129411058654076871e+00 3.631545181048333006e+02
2.129511082659838017e+00 3.631142743070454344e+02
2.129611106665599607e+00 3.630747129497233345e+02
2.129711130671360753e+00 3.630358329381306248e+02
2.129811154677122342e+00 3.629976331674238281e+02
2.129911178682883932e+00 3.629601125226945442e+02
2.130011202688645078e+00 3.629232698790091831e+02
2.130111226694406668e+00 3.628871041014527918e+02
2.130211250700168257e+00 3.628516140451698107e+02
2.130311274705929403e+00 3.628167985554065353e+02
2.130411298711690549e+00 3.627826564675544887e+02
2.130511322717452138e+00 3.627491866071912909e+02
2.130611346723213728e+00 3.627163877901248838e+02
2.130711370728974874e+00 3.626842588224354813e+02
2.130811394734736020e+00 3.626527985005202481e+02
2.130911418740497609e+00 3.626220056111341705e+02
2.131011442746259199e+00 3.625918789314363266e+02
2.131111466752020345e+00 3.625624172290309275e+02
2.131211490757781490e+00 3.625336192620129054e+02
2.131311514763543080e+00 3.625054837790123088e+02
2.131411538769304670e+00 3.624780095192369345e+02
2.131511562775065816e+00 3.624511952125171206e+02
2.131611586780826961e+00 3.624250395793511643e+02
2.131711610786588551e+00 3.623995413309503419e+02
2.131811634792350141e+00 3.623746991692813708e+02
2.131911658798111731e+00 3.623505117871138168e+02
2.132011682803872876e+00 3.623269778680655122e+02
2.132111706809634466e+00 3.623040960866451883e+02
2.132211730815395612e+00 3.622818651083013037e+02
2.132311754821157201e+00 3.622602835894659279e+02
2.132411778826918347e+00 3.622393501776006133e+02
2.132511802832679937e+00 3.622190635112432915e+02
2.132611826838441083e+00 3.621994222200538616e+02
2.132711850844202672e+00 3.621804249248605174e+02
2.132811874849963818e+00 3.621620702377064731e+02
2.132911898855725408e+00 3.621443567618964607e+02
2.133011922861486553e+00 3.621272830920431716e+02
2.133111946867248143e+00 3.621108478141153455e+02
2.133211970873009289e+00 3.620950495054838711e+02
2.133311994878770879e+00 3.620798867349686816e+02
2.133412018884532024e+00 3.620653580628874124e+02
2.133512042890293614e+00 3.620514620411018996e+02
2.133612066896055204e+00 3.620381972130662689e+02
2.133712090901816349e+00 3.620255621138744004e+02
2.133812114907577939e+00 3.620135552703086432e+02
2.133912138913339085e+00 3.620021752008869385e+02
2.134012162919100675e+00 3.619914204159117617e+02
2.134112186924861820e+00 3.619812894175175870e+02
2.134212210930623410e+00 3.619717806997207390e+02
2.134312234936384556e+00 3.619628927484670839e+02
2.134412258942146146e+00 3.619546240416801766e+02
2.134512282947907291e+00 3.619469730493119641e+02
2.134612306953668881e+00 3.619399382333905919e+02
2.134712330959430027e+00 3.619335180480684357e+02
2.134812354965191616e+00 3.619277109396735455e+02
2.134912378970952762e+00 3.619225153467577343e+02
2.135012402976714352e+00 3.619179297001468854e+02
2.135112426982475498e+00 3.619139524229892118e+02
2.135212450988237087e+00 3.619105819308062451e+02
2.135312474993998233e+00 3.619078166315419480e+02
2.135412498999759823e+00 3.619056549256132485e+02
2.135512523005521413e+00 3.619040952059596066e+02
2.135612547011282558e+00 3.619031358580931510e+02
2.135712571017044148e+00 3.619027752601498378e+02
2.135812595022805294e+00 3.619030117829382789e+02
2.135912619028566883e+00 3.619038437899916971e+02
2.136012643034328029e+00 3.619052696376182325e+02
2.136112667040089619e+00 3.619072876749509078e+02
2.136212691045850764e+00 3.619098962439988441e+02
2.136312715051612354e+00 3.619130936796985338e+02
2.136412739057373500e+00 3.619168783099647158e+02
2.136512763063135090e+00 3.619212484557411926e+02
2.136612787068896235e+00 3.619262024310512516e+02
2.136712811074657825e+00 3.619317385430514378e+02
2.136812835080418971e+00 3.619378550920800990e+02
2.136912859086180561e+00 3.619445503717109887e+02
2.137012883091941706e+00 3.619518226688030040e+02
2.137112907097703296e+00 3.619596702635537326e+02
2.137212931103464442e+00 3.619680914295499292e+02
2.137312955109226031e+00 3.619770844338188454e+02
2.137412979114987621e+00 3.619866475368822307e+02
2.137513003120749211e+00 3.619967789928060711e+02
2.137613027126510357e+00 3.620074770492541347e+02
2.137713051132271502e+00 3.620187399475393590e+02
2.137813075138033092e+00 3.620305659226763737e+02
2.137913099143794682e+00 3.620429532034330009e+02
2.138013123149555827e+00 3.620559000123840860e+02
2.138113147155316973e+00 3.620694045659639073e+02
2.138213171161078563e+00 3.620834650745161980e+02
2.138313195166840153e+00 3.620980797423495119e+02
2.138413219172601298e+00 3.621132467677883255e+02
2.138513243178362444e+00 3.621289643432271532e+02
2.138613267184124034e+00 3.621452306551810807e+02
2.138713291189885624e+00 3.621620438843409602e+02
2.138813315195646769e+00 3.621794022056251947e+02
2.138913339201407915e+00 3.621973037882315225e+02
2.139013363207169505e+00 3.622157467956933488e+02
2.139113387212931094e+00 3.622347293859288584e+02
2.139213411218692684e+00 3.622542497112967794e+02
2.139313435224453830e+00 3.622743059186492474e+02
2.139413459230215420e+00 3.622948961493835895e+02
2.139513483235976565e+00 3.623160185394968948e+02
2.139613507241738155e+00 3.623376712196402991e+02
2.139713531247499301e+00 3.623598523151688369e+02
2.139813555253260891e+00 3.623825599461981142e+02
2.139913579259022036e+00 3.624057922276574004e+02
2.140013603264783626e+00 3.624295472693413558e+02
