1.000040009602304547e+00 5.024902700307777081e+02
1.000140033608065915e+00 5.026831646814879377e+02
1.000240057613827283e+00 5.028759192424861908e+02
1.000340081619588650e+00 5.030685310146412235e+02
1.000440105625350018e+00 5.032609973022607619e+02
1.000540129631111386e+00 5.034533154131640913e+02
1.000640153636872753e+00 5.036454826587513480e+02
1.000740177642634121e+00 5.038374963540711065e+02
1.000840201648395489e+00 5.040293538178907511e+02
1.000940225654156857e+00 5.042210523727669056e+02
1.001040249659918224e+00 5.044125893451124512e+02
1.001140273665679814e+00 5.046039620652668418e+02
1.001240297671441182e+00 5.047951678675645439e+02
1.001340321677202549e+00 5.049862040904022251e+02
1.001440345682963917e+00 5.051770680763091832e+02
1.001540369688725285e+00 5.053677571720149331e+02
1.001640393694486653e+00 5.055582687285167367e+02
1.001740417700248020e+00 5.057486001011474173e+02
1.001840441706009388e+00 5.059387486496439124e+02
1.001940465711770756e+00 5.061287117382152019e+02
1.002040489717532123e+00 5.063184867356075074e+02
1.002140513723293491e+00 5.065080710151735275e+02
1.002240537729055081e+00 5.066974619549400245e+02
1.002340561734816227e+00 5.068866569376727398e+02
1.002440585740577816e+00 5.070756533509432984e+02
1.002540609746338962e+00 5.072644485871977054e+02
1.002640633752100552e+00 5.074530400438201809e+02
1.002740657757861698e+00 5.076414251232016568e+02
1.002840681763623287e+00 5.078296012328038955e+02
1.002940705769384433e+00 5.080175657852257700e+02
1.003040729775146023e+00 5.082053161982694292e+02
1.003140753780907390e+00 5.083928498950048152e+02
1.003240777786668758e+00 5.085801643038350335e+02
1.003340801792430126e+00 5.087672568585621775e+02
1.003440825798191494e+00 5.089541249984512774e+02
1.003540849803952861e+00 5.091407661682949310e+02
1.003640873809714229e+00 5.093271778184777645e+02
1.003740897815475597e+00 5.095133574050406651e+02
1.003840921821236964e+00 5.096993023897447870e+02
1.003940945826998554e+00 5.098850102401356708e+02
1.004040969832759922e+00 5.100704784296056005e+02
1.004140993838521290e+00 5.102557044374580073e+02
1.004241017844282657e+00 5.104406857489704521e+02
1.004341041850044025e+00 5.106254198554573236e+02
1.004441065855805393e+00 5.108099042543318546e+02
1.004541089861566761e+00 5.109941364491705826e+02
1.004641113867328128e+00 5.111781139497729782e+02
1.004741137873089496e+00 5.113618342722248826e+02
1.004841161878850864e+00 5.115452949389612627e+02
1.004941185884612231e+00 5.117284934788254418e+02
1.005041209890373599e+00 5.119114274271318550e+02
1.005141233896134967e+00 5.120940943257278377e+02
1.005241257901896335e+00 5.122764917230524588e+02
1.005341281907657702e+00 5.124586171741982525e+02
1.005441305913419070e+00 5.126404682409726092e+02
1.005541329919180438e+00 5.128220424919561538e+02
1.005641353924941805e+00 5.130033375025639089e+02
1.005741377930703173e+00 5.131843508551037303e+02
1.005841401936464763e+00 5.133650801388375839e+02
1.005941425942226131e+00 5.135455229500389578e+02
1.006041449947987498e+00 5.137256768920526611e+02
1.006141473953748866e+00 5.139055395753532594e+02
1.006241497959510234e+00 5.140851086176040781e+02
1.006341521965271602e+00 5.142643816437145006e+02
1.006441545971032969e+00 5.144433562858982896e+02
1.006541569976794337e+00 5.146220301837312263e+02
1.006641593982555705e+00 5.148004009842092046e+02
1.006741617988317294e+00 5.149784663418042783e+02
1.006841641994078662e+00 5.151562239185223007e+02
1.006941665999840030e+00 5.153336713839589720e+02
1.007041690005601398e+00 5.155108064153570240e+02
1.007141714011362765e+00 5.156876266976623810e+02
1.007241738017124133e+00 5.158641299235782753e+02
1.007341762022885501e+00 5.160403137936233406e+02
1.007441786028646868e+00 5.162161760161850452e+02
1.007541810034408236e+00 5.163917143075752847e+02
1.007641834040169604e+00 5.165669263920857475e+02
1.007741858045930972e+00 5.167418100020416887e+02
1.007841882051692339e+00 5.169163628778562725e+02
1.007941906057453707e+00 5.170905827680844595e+02
1.008041930063215075e+00 5.172644674294774632e+02
1.008141954068976442e+00 5.174380146270352725e+02
1.008241978074737810e+00 5.176112221340595170e+02
1.008342002080499178e+00 5.177840877322070128e+02
1.008442026086260546e+00 5.179566092115425135e+02
1.008542050092022135e+00 5.181287843705906653e+02
1.008642074097783503e+00 5.183006110163860285e+02
1.008742098103544871e+00 5.184720869645293533e+02
1.008842122109306239e+00 5.186432100392335087e+02
1.008942146115067606e+00 5.188139780733794169e+02
1.009042170120828974e+00 5.189843889085631190e+02
1.009142194126590342e+00 5.191544403951488675e+02
1.009242218132351709e+00 5.193241303923176702e+02
1.009342242138113077e+00 5.194934567681178805e+02
1.009442266143874445e+00 5.196624173995163574e+02
1.009542290149636035e+00 5.198310101724432570e+02
1.009642314155397180e+00 5.199992329818473991e+02
1.009742338161158770e+00 5.201670837317391261e+02
1.009842362166919916e+00 5.203345603352425996e+02
1.009942386172681505e+00 5.205016607146424121e+02
1.010042410178442651e+00 5.206683828014305391e+02
1.010142434184204241e+00 5.208347245363556794e+02
1.010242458189965387e+00 5.210006838694704356e+02
1.010342482195726976e+00 5.211662587601757650e+02
1.010442506201488344e+00 5.213314471772700927e+02
1.010542530207249712e+00 5.214962470989948997e+02
1.010642554213011080e+00 5.216606565130797435e+02
1.010742578218772447e+00 5.218246734167890963e+02
1.010842602224533815e+00 5.219882958169667972e+02
1.010942626230295183e+00 5.221515217300820950e+02
1.011042650236056550e+00 5.223143491822731903e+02
1.011142674241817918e+00 5.224767762093919146e+02
1.011242698247579286e+00 5.226388008570485226e+02
1.011342722253340876e+00 5.228004211806545527e+02
1.011442746259102243e+00 5.229616352454664820e+02
1.011542770264863611e+00 5.231224411266292691e+02
1.011642794270624979e+00 5.232828369092180765e+02
1.011742818276386346e+00 5.234428206882822678e+02
1.011842842282147714e+00 5.236023905688861078e+02
1.011942866287909082e+00 5.237615446661508258e+02
1.012042890293670450e+00 5.239202811052966808e+02
1.012142914299431817e+00 5.240785980216841153e+02
1.012242938305193185e+00 5.242364935608532051e+02
1.012342962310954553e+00 5.243939658785653819e+02
1.012442986316715920e+00 5.245510131408444749e+02
1.012543010322477288e+00 5.247076335240130902e+02
1.012643034328238656e+00 5.248638252147363801e+02
1.012743058334000024e+00 5.250195864100580820e+02
1.012843082339761391e+00 5.251749153174403091e+02
1.012943106345522759e+00 5.253298101548028853e+02
1.013043130351284127e+00 5.254842691505593848e+02
1.013143154357045495e+00 5.256382905436564670e+02
1.013243178362807084e+00 5.257918725836118483e+02
1.013343202368568452e+00 5.259450135305496588e+02
1.013443226374329820e+00 5.260977116552392090e+02
1.013543250380091187e+00 5.262499652391288691e+02
1.013643274385852555e+00 5.264017725743846086e+02
1.013743298391613923e+00 5.265531319639242156e+02
1.013843322397375291e+00 5.267040417214542458e+02
1.013943346403136658e+00 5.268545001715016269e+02
1.014043370408898026e+00 5.270045056494541313e+02
1.014143394414659616e+00 5.271540565015883431e+02
1.014243418420420983e+00 5.273031510851086523e+02
1.014343442426182351e+00 5.274517877681778373e+02
1.014443466431943719e+00 5.275999649299517387e+02
1.014543490437705087e+00 5.277476809606125698e+02
1.014643514443466454e+00 5.278949342614000670e+02
1.014743538449227822e+00 5.280417232446447997e+02
1.014843562454989190e+00 5.281880463338007985e+02
1.014943586460750558e+00 5.283339019634747729e+02
1.015043610466511925e+00 5.284792885794593076e+02
1.015143634472273293e+00 5.286242046387637856e+02
1.015243658478034661e+00 5.287686486096432645e+02
1.015343682483796028e+00 5.289126189716301951e+02
1.015443706489557396e+00 5.290561142155630705e+02
1.015543730495318764e+00 5.291991328436178037e+02
1.015643754501080132e+00 5.293416733693326250e+02
1.015743778506841499e+00 5.294837343176425293e+02
1.015843802512602867e+00 5.296253142249026951e+02
1.015943826518364457e+00 5.297664116389194078e+02
1.016043850524125824e+00 5.299070251189759801e+02
1.016143874529887192e+00 5.300471532358620834e+02
1.016243898535648560e+00 5.301867945718973942e+02
1.016343922541409928e+00 5.303259477209619490e+02
1.016443946547171295e+00 5.304646112885196771e+02
1.016543970552932663e+00 5.306027838916453447e+02
1.016643994558694031e+00 5.307404641590496794e+02
1.016744018564455398e+00 5.308776507311038131e+02
1.016844042570216766e+00 5.310143422598664529e+02
1.016944066575978134e+00 5.311505374091055955e+02
1.017044090581739724e+00 5.312862348543233111e+02
1.017144114587500869e+00 5.314214332827800717e+02
1.017244138593262459e+00 5.315561313935178305e+02
1.017344162599023605e+00 5.316903278973823035e+02
1.017444186604785195e+00 5.318240215170469583e+02
1.017544210610546340e+00 5.319572109870330223e+02
1.017644234616307930e+00 5.320898950537330165e+02
1.017744258622069076e+00 5.322220724754322418e+02
1.017844282627830665e+00 5.323537420223289018e+02
1.017944306633592033e+00 5.324849024765553622e+02
1.018044330639353401e+00 5.326155526321994103e+02
1.018144354645114769e+00 5.327456912953216488e+02
1.018244378650876136e+00 5.328753172839788022e+02
1.018344402656637504e+00 5.330044294282396322e+02
1.018444426662398872e+00 5.331330265702060842e+02
1.018544450668160239e+00 5.332611075640301124e+02
1.018644474673921607e+00 5.333886712759341435e+02
1.018744498679683197e+00 5.335157165842258564e+02
1.018844522685444565e+00 5.336422423793184180e+02
1.018944546691205932e+00 5.337682475637459447e+02
1.019044570696967300e+00 5.338937310521805557e+02
1.019144594702728668e+00 5.340186917714489709e+02
1.019244618708490036e+00 5.341431286605482001e+02
1.019344642714251403e+00 5.342670406706603217e+02
1.019444666720012771e+00 5.343904267651705595e+02
1.019544690725774139e+00 5.345132859196780828e+02
1.019644714731535506e+00 5.346356171220141960e+02
1.019744738737296874e+00 5.347574193722532527e+02
1.019844762743058242e+00 5.348786916827293680e+02
1.019944786748819610e+00 5.349994330780466498e+02
1.020044810754580977e+00 5.351196425950961384e+02
1.020144834760342345e+00 5.352393192830645603e+02
1.020244858766103713e+00 5.353584622034493350e+02
1.020344882771865080e+00 5.354770704300681246e+02
1.020444906777626448e+00 5.355951430490728171e+02
1.020544930783387816e+00 5.357126791589591903e+02
1.020644954789149406e+00 5.358296778705782799e+02
1.020744978794910773e+00 5.359461383071451337e+02
1.020845002800672141e+00 5.360620596042523403e+02
1.020945026806433509e+00 5.361774409098759406e+02
1.021045050812194876e+00 5.362922813843873655e+02
1.021145074817956244e+00 5.364065802005611658e+02
1.021245098823717612e+00 5.365203365435841079e+02
1.021345122829478980e+00 5.366335496110624490e+02
1.021445146835240347e+00 5.367462186130318287e+02
1.021545170841001937e+00 5.368583427719618157e+02
1.021645194846763305e+00 5.369699213227653445e+02
1.021745218852524673e+00 5.370809535128049674e+02
1.021845242858286040e+00 5.371914386018985397e+02
1.021945266864047408e+00 5.373013758623254716e+02
1.022045290869808776e+00 5.374107645788333230e+02
1.022145314875570143e+00 5.375196040486408720e+02
1.022245338881331511e+00 5.376278935814459601e+02
1.022345362887092879e+00 5.377356324994273109e+02
1.022445386892854247e+00 5.378428201372507829e+02
1.022545410898615614e+00 5.379494558420711883e+02
1.022645434904376982e+00 5.380555389735374092e+02
1.022745458910138350e+00 5.381610689037959219e+02
1.022845482915899717e+00 5.382660450174896596e+02
1.022945506921661085e+00 5.383704667117655163e+02
1.023045530927422453e+00 5.384743333962736642e+02
1.023145554933183821e+00 5.385776444931683500e+02
1.023245578938945188e+00 5.386803994371110775e+02
1.023345602944706778e+00 5.387825976752707220e+02
1.023445626950468146e+00 5.388842386673231886e+02
1.023545650956229514e+00 5.389853218854531178e+02
1.023645674961990881e+00 5.390858468143532036e+02
1.023745698967752249e+00 5.391858129512220330e+02
1.023845722973513617e+00 5.392852198057664737e+02
1.023945746979274984e+00 5.393840669001962169e+02
1.024045770985036352e+00 5.394823537692265063e+02
1.024145794990797720e+00 5.395800799600721120e+02
1.024245818996559088e+00 5.396772450324481269e+02
1.024345843002320677e+00 5.397738485585655326e+02
1.024445867008081823e+00 5.398698901231283571e+02
1.024545891013843413e+00 5.399653693233308331e+02
1.024645915019604558e+00 5.400602857688531913e+02
1.024745939025366148e+00 5.401546390818568852e+02
1.024845963031127294e+00 5.402484288969818635e+02
1.024945987036888884e+00 5.403416548613396344e+02
1.025046011042650029e+00 5.404343166345094005e+02
1.025146035048411619e+00 5.405264138885318062e+02
1.025246059054172987e+00 5.406179463079040488e+02
1.025346083059934355e+00 5.407089135895720347e+02
1.025446107065695722e+00 5.407993154429254901e+02
1.025546131071457090e+00 5.408891515897892077e+02
1.025646155077218458e+00 5.409784217644171349e+02
1.025746179082979825e+00 5.410671257134840744e+02
1.025846203088741193e+00 5.411552631960777262e+02
1.025946227094502561e+00 5.412428339836901614e+02
1.026046251100263929e+00 5.413298378602098637e+02
1.026146275106025518e+00 5.414162746219119526e+02
1.026246299111786886e+00 5.415021440774481789e+02
1.026346323117548254e+00 5.415874460478381707e+02
1.026446347123309621e+00 5.416721803664599975e+02
1.026546371129070989e+00 5.417563468790374372e+02
1.026646395134832357e+00 5.418399454436315636e+02
1.026746419140593725e+00 5.419229759306276719e+02
1.026846443146355092e+00 5.420054382227252745e+02
1.026946467152116460e+00 5.420873322149253681e+02
1.027046491157877828e+00 5.421686578145183830e+02
1.027146515163639195e+00 5.422494149410733826e+02
1.027246539169400563e+00 5.423296035264215789e+02
1.027346563175161931e+00 5.424092235146461007e+02
1.027446587180923299e+00 5.424882748620685788e+02
1.027546611186684666e+00 5.425667575372331157e+02
1.027646635192446034e+00 5.426446715208946898e+02
1.027746659198207402e+00 5.427220168060017613e+02
1.027846683203968770e+00 5.427987933976839940e+02
1.027946707209730359e+00 5.428750013132363392e+02
1.028046731215491727e+00 5.429506405821018689e+02
1.028146755221253095e+00 5.430257112458590427e+02
1.028246779227014462e+00 5.431002133582021543e+02
1.028346803232775830e+00 5.431741469849271198e+02
1.028446827238537198e+00 5.432475122039146527e+02
1.028546851244298566e+00 5.433203091051109368e+02
1.028646875250059933e+00 5.433925377905129608e+02
1.028746899255821301e+00 5.434641983741490776e+02
1.028846923261582669e+00 5.435352909820596778e+02
1.028946947267344258e+00 5.436058157522820693e+02
1.029046971273105626e+00 5.436757728348285355e+02
1.029146995278866994e+00 5.437451623916692824e+02
1.029247019284628362e+00 5.438139845967119754e+02
1.029347043290389729e+00 5.438822396357819571e+02
1.029447067296151097e+00 5.439499277066024661e+02
1.029547091301912465e+00 5.440170490187744008e+02
1.029647115307673833e+00 5.440836037937560832e+02
1.029747139313435200e+00 5.441495922648402939e+02
1.029847163319196568e+00 5.442150146771354002e+02
1.029947187324957936e+00 5.442798712875423917e+02
1.030047211330719303e+00 5.443441623647320284e+02
1.030147235336480671e+00 5.444078881891252877e+02
1.030247259342242039e+00 5.444710490528683522e+02
1.030347283348003407e+00 5.445336452598103278e+02
1.030447307353764774e+00 5.445956771254811883e+02
1.030547331359526142e+00 5.446571449770667641e+02
1.030647355365287510e+00 5.447180491533853228e+02
1.030747379371049099e+00 5.447783900048646046e+02
1.030847403376810467e+00 5.448381678935154468e+02
1.030947427382571835e+00 5.448973831929097287e+02
1.031047451388333203e+00 5.449560362881514948e+02
1.031147475394094570e+00 5.450141275758554684e+02
1.031247499399855938e+00 5.450716574641206762e+02
1.031347523405617306e+00 5.451286263725023673e+02
1.031447547411378673e+00 5.451850347319871162e+02
1.031547571417140041e+00 5.452408829849683798e+02
1.031647595422901631e+00 5.452961715852159159e+02
1.031747619428662777e+00 5.453509009978511131e+02
1.031847643434424366e+00 5.454050716993206152e+02
1.031947667440185512e+00 5.454586841773644892e+02
1.032047691445947102e+00 5.455117389309934879e+02
1.032147715451708248e+00 5.455642364704569900e+02
1.032247739457469837e+00 5.456161773172163976e+02
1.032347763463230983e+00 5.456675620039154637e+02
1.032447787468992573e+00 5.457183910743514161e+02
1.032547811474753718e+00 5.457686650834464217e+02
1.032647835480515308e+00 5.458183845972168911e+02
1.032747859486276676e+00 5.458675501927439200e+02
1.032847883492038044e+00 5.459161624581427077e+02
1.032947907497799411e+00 5.459642219925334530e+02
1.033047931503560779e+00 5.460117294060086124e+02
1.033147955509322147e+00 5.460586853196036827e+02
1.033247979515083514e+00 5.461050903652650277e+02
1.033348003520844882e+00 5.461509451858179318e+02
1.033448027526606250e+00 5.461962504349364735e+02
1.033548051532367840e+00 5.462410067771089643e+02
1.033648075538129207e+00 5.462852148876079355e+02
1.033748099543890575e+00 5.463288754524547812e+02
1.033848123549651943e+00 5.463719891683913374e+02
1.033948147555413311e+00 5.464145567428414552e+02
1.034048171561174678e+00 5.464565788938813284e+02
1.034148195566936046e+00 5.464980563502042514e+02
1.034248219572697414e+00 5.465389898510868534e+02
1.034348243578458781e+00 5.465793801463555610e+02
1.034448267584220149e+00 5.466192279963516967e+02
1.034548291589981517e+00 5.466585341718966902e+02
1.034648315595742885e+00 5.466972994542558126e+02
1.034748339601504252e+00 5.467355246351075948e+02
1.034848363607265620e+00 5.467732105165022176e+02
1.034948387613026988e+00 5.468103579108300210e+02
1.035048411618788355e+00 5.468469676407848965e+02
1.035148435624549723e+00 5.468830405393264300e+02
1.035248459630311091e+00 5.469185774496455679e+02
1.035348483636072681e+00 5.469535792251260773e+02
1.035448507641834048e+00 5.469880467293102129e+02
1.035548531647595416e+00 5.470219808358579030e+02
1.035648555653356784e+00 5.470553824285129849e+02
1.035748579659118151e+00 5.470882524010635279e+02
1.035848603664879519e+00 5.471205916573039758e+02
1.035948627670640887e+00 5.471524011109988805e+02
1.036048651676402255e+00 5.471836816858417478e+02
1.036148675682163622e+00 5.472144343154193393e+02
1.036248699687924990e+00 5.472446599431709728e+02
1.036348723693686580e+00 5.472743595223500961e+02
1.036448747699447948e+00 5.473035340159857469e+02
1.036548771705209315e+00 5.473321843968425355e+02
1.036648795710970683e+00 5.473603116473803993e+02
1.036748819716732051e+00 5.473879167597154947e+02
1.036848843722493418e+00 5.474150007355801790e+02
1.036948867728254786e+00 5.474415645862828796e+02
1.037048891734016154e+00 5.474676093326656883e+02
1.037148915739777522e+00 5.474931360050668445e+02
1.037248939745538889e+00 5.475181456432773075e+02
1.037348963751300257e+00 5.475426392964996012e+02
1.037448987757061625e+00 5.475666180233080240e+02
1.037549011762822992e+00 5.475900828916065848e+02
1.037649035768584360e+00 5.476130349785853468e+02
1.037749059774345728e+00 5.476354753706818883e+02
1.037849083780107096e+00 5.476574051635349178e+02
1.037949107785868463e+00 5.476788254619468717e+02
1.038049131791629831e+00 5.476997373798362787e+02
1.038149155797391421e+00 5.477201420401992209e+02
1.038249179803152789e+00 5.477400405750624941e+02
1.038349203808914156e+00 5.477594341254437040e+02
1.038449227814675524e+00 5.477783238413069284e+02
1.038549251820436892e+00 5.477967108815179245e+02
1.038649275826198259e+00 5.478145964138016097e+02
1.038749299831959627e+00 5.478319816146984067e+02
1.038849323837720995e+00 5.478488676695188815e+02
1.038949347843482363e+00 5.478652557723006566e+02
1.039049371849243730e+00 5.478811471257636185e+02
1.039149395855005320e+00 5.478965429412647836e+02
1.039249419860766466e+00 5.479114444387535059e+02
1.039349443866528055e+00 5.479258528467270253e+02
1.039449467872289201e+00 5.479397694021855614e+02
1.039549491878050791e+00 5.479531953505858155e+02
1.039649515883811937e+00 5.479661319457960644e+02
1.039749539889573526e+00 5.479785804500509130e+02
1.039849563895334672e+00 5.479905421339040004e+02
1.039949587901096262e+00 5.480020182761849128e+02
1.040049611906857630e+00 5.480130101639491613e+02
1.040149635912618997e+00 5.480235190924338440e+02
1.040249659918380365e+00 5.480335463650119436e+02
1.040349683924141733e+00 5.480430932931443522e+02
1.040449707929903100e+00 5.480521611963331452e+02
1.040549731935664468e+00 5.480607514020750841e+02
1.040649755941425836e+00 5.480688652458143224e+02
1.040749779947187204e+00 5.480765040708946572e+02
1.040849803952948571e+00 5.480836692285126901e+02
1.040949827958710161e+00 5.480903620776703065e+02
1.041049851964471529e+00 5.480965839851260171e+02
1.041149875970232896e+00 5.481023363253478919e+02
1.041249899975994264e+00 5.481076204804656982e+02
1.041349923981755632e+00 5.481124378402223556e+02
1.041449947987517000e+00 5.481167898019252789e+02
1.041549971993278367e+00 5.481206777703986290e+02
1.041649995999039735e+00 5.481241031579339733e+02
1.041750020004801103e+00 5.481270673842423093e+02
1.041850044010562470e+00 5.481295718764055209e+02
1.041950068016323838e+00 5.481316180688249915e+02
1.042050092022085206e+00 5.481332074031766979e+02
1.042150116027846574e+00 5.481343413283578911e+02
1.042250140033607941e+00 5.481350213004398029e+02
1.042350164039369309e+00 5.481352487826178503e+02
1.042450188045130677e+00 5.481350252451621827e+02
1.042550212050892045e+00 5.481343521653672042e+02
1.042650236056653412e+00 5.481332310275029158e+02
1.042750260062415002e+00 5.481316633227634156e+02
1.042850284068176370e+00 5.481296505492189226e+02
1.042950308073937737e+00 5.481271942117634808e+02
1.043050332079699105e+00 5.481242958220647097e+02
1.043150356085460473e+00 5.481209568985163969e+02
1.043250380091221841e+00 5.481171789661846105e+02
1.043350404096983208e+00 5.481129635567574496e+02
1.043450428102744576e+00 5.481083122084963861e+02
1.043550452108505944e+00 5.481032264661840827e+02
1.043650476114267311e+00 5.480977078810727789e+02
1.043750500120028901e+00 5.480917580108346101e+02
1.043850524125790269e+00 5.480853784195097660e+02
1.043950548131551637e+00 5.480785706774555592e+02
1.044050572137313004e+00 5.480713363612952662e+02
1.044150596143074372e+00 5.480636770538653764e+02
1.044250620148835740e+00 5.480555943441656837e+02
1.044350644154597108e+00 5.480470898273076727e+02
1.044450668160358475e+00 5.480381651044615410e+02
1.044550692166119843e+00 5.480288217828060624e+02
1.044650716171881211e+00 5.480190614754754961e+02
1.044750740177642578e+00 5.480088858015072901e+02
1.044850764183403946e+00 5.479982963857924005e+02
1.044950788189165314e+00 5.479872948590206079e+02
1.045050812194926682e+00 5.479758828576296992e+02
1.045150836200688049e+00 5.479640620237536268e+02
1.045250860206449417e+00 5.479518340051685072e+02
1.045350884212210785e+00 5.479392004552423714e+02
1.045450908217972152e+00 5.479261630328809360e+02
1.045550932223733742e+00 5.479127234024759900e+02
1.045650956229495110e+00 5.478988832338535531e+02
1.045750980235256478e+00 5.478846442022193060e+02
1.045851004241017845e+00 5.478700079881072043e+02
1.045951028246779213e+00 5.478549762773271823e+02
1.046051052252540581e+00 5.478395507609112656e+02
1.046151076258301948e+00 5.478237331350610475e+02
1.046251100264063316e+00 5.478075251010942566e+02
1.046351124269824684e+00 5.477909283653941657e+02
1.046451148275586274e+00 5.477739446393534308e+02
1.046551172281347419e+00 5.477565756393219090e+02
1.046651196287109009e+00 5.477388230865557261e+02
1.046751220292870155e+00 5.477206887071610026e+02
1.046851244298631745e+00 5.477021742320428075e+02
1.046951268304392890e+00 5.476832813968502478e+02
1.047051292310154480e+00 5.476640119419256507e+02
1.047151316315915626e+00 5.476443676122486295e+02
1.047251340321677215e+00 5.476243501573836738e+02
1.047351364327438361e+00 5.476039613314278540e+02
1.047451388333199951e+00 5.475832028929554554e+02
1.047551412338961319e+00 5.475620766049657959e+02
1.047651436344722686e+00 5.475405842348295664e+02
1.047751460350484054e+00 5.475187275542358520e+02
1.047851484356245422e+00 5.474965083391361986e+02
1.047951508362006789e+00 5.474739283696944767e+02
1.048051532367768157e+00 5.474509894302312887e+02
1.048151556373529525e+00 5.474276933091699675e+02
1.048251580379290893e+00 5.474040417989846219e+02
1.048351604385052482e+00 5.473800366961445434e+02
1.048451628390813850e+00 5.473556798010624789e+02
1.048551652396575218e+00 5.473309729180393788e+02
1.048651676402336586e+00 5.473059178552121011e+02
1.048751700408097953e+00 5.472805164244988418e+02
1.048851724413859321e+00 5.472547704415451335e+02
1.048951748419620689e+00 5.472286817256705262e+02
1.049051772425382056e+00 5.472022520998160644e+02
1.049151796431143424e+00 5.471754833904888073e+02
1.049251820436904792e+00 5.471483774277086241e+02
1.049351844442666160e+00 5.471209360449541919e+02
1.049451868448427527e+00 5.470931610791113826e+02
1.049551892454188895e+00 5.470650543704165329e+02
1.049651916459950263e+00 5.470366177624041484e+02
1.049751940465711630e+00 5.470078531018544936e+02
1.049851964471472998e+00 5.469787622387372039e+02
1.049951988477234366e+00 5.469493470261598986e+02
1.050052012482995734e+00 5.469196093203127020e+02
1.050152036488757323e+00 5.468895509804165158e+02
1.050252060494518691e+00 5.468591738686683357e+02
1.050352084500280059e+00 5.468284798501871364e+02
1.050452108506041426e+00 5.467974707929607803e+02
1.050552132511802794e+00 5.467661485677936071e+02
1.050652156517564162e+00 5.467345150482503868e+02
1.050752180523325530e+00 5.467025721106057290e+02
1.050852204529086897e+00 5.466703216337880349e+02
1.050952228534848265e+00 5.466377654993262922e+02
1.051052252540609633e+00 5.466049055912994845e+02
1.051152276546371223e+00 5.465717437962792928e+02
1.051252300552132590e+00 5.465382820032796189e+02
1.051352324557893958e+00 5.465045221037011061e+02
1.051452348563655326e+00 5.464704659912794114e+02
1.051552372569416693e+00 5.464361155620318868e+02
1.051652396575178061e+00 5.464014727142027823e+02
1.051752420580939429e+00 5.463665393482110630e+02
1.051852444586700797e+00 5.463313173665985687e+02
1.051952468592462164e+00 5.462958086739744203e+02
1.052052492598223532e+00 5.462600151769630656e+02
1.052152516603984900e+00 5.462239387841520966e+02
1.052252540609746267e+00 5.461875814060384755e+02
1.052352564615507635e+00 5.461509449549748751e+02
1.052452588621269003e+00 5.461140313451182919e+02
1.052552612627030371e+00 5.460768424923760449e+02
1.052652636632791738e+00 5.460393803143542755e+02
1.052752660638553106e+00 5.460016467303037189e+02
1.052852684644314474e+00 5.459636436610683177e+02
1.052952708650076064e+00 5.459253730290312205e+02
1.053052732655837431e+00 5.458868367580644190e+02
1.053152756661598799e+00 5.458480367734746324e+02
1.053252780667360167e+00 5.458089750019508983e+02
1.053352804673121534e+00 5.457696533715127316e+02
1.053452828678882902e+00 5.457300738114583964e+02
1.053552852684644270e+00 5.456902382523114738e+02
1.053652876690405638e+00 5.456501486257695888e+02
1.053752900696167005e+00 5.456098068646525689e+02
1.053852924701928373e+00 5.455692149028486710e+02
1.053952948707689963e+00 5.455283746752663774e+02
1.054052972713451108e+00 5.454872881177777799e+02
1.054152996719212698e+00 5.454459571671706044e+02
1.054253020724973844e+00 5.454043837610947776e+02
1.054353044730735434e+00 5.453625698380118365e+02
1.054453068736496579e+00 5.453205173371419505e+02
1.054553092742258169e+00 5.452782281984143538e+02
1.054653116748019315e+00 5.452357043624147082e+02
1.054753140753780905e+00 5.451929477703339444e+02
1.054853164759542272e+00 5.451499603639173301e+02
1.054953188765303640e+00 5.451067440854139932e+02
1.055053212771065008e+00 5.450633008775245116e+02
1.055153236776826375e+00 5.450196326833519151e+02
1.055253260782587743e+00 5.449757414463484793e+02
1.055353284788349111e+00 5.449316291102683181e+02
1.055453308794110479e+00 5.448872976191127009e+02
1.055553332799871846e+00 5.448427489170834406e+02
1.055653356805633214e+00 5.447979849485298018e+02
1.055753380811394804e+00 5.447530076578992748e+02
1.055853404817156171e+00 5.447078189896875529e+02
1.055953428822917539e+00 5.446624208883879419e+02
1.056053452828678907e+00 5.446168152984411108e+02
1.056153476834440275e+00 5.445710041641866610e+02
1.056253500840201642e+00 5.445249894298112849e+02
1.056353524845963010e+00 5.444787730393005631e+02
1.056453548851724378e+00 5.444323569363893967e+02
1.056553572857485745e+00 5.443857430645111890e+02
1.056653596863247113e+00 5.443389333667502115e+02
1.056753620869008481e+00 5.442919297857911261e+02
1.056853644874769849e+00 5.442447342638712371e+02
1.056953668880531216e+00 5.441973487427292184e+02
1.057053692886292584e+00 5.441497751635594113e+02
1.057153716892053952e+00 5.441020154669596423e+02
1.057253740897815319e+00 5.440540715928856343e+02
1.057353764903576687e+00 5.440059454806003032e+02
1.057453788909338055e+00 5.439576390686263494e+02
1.057553812915099645e+00 5.439091542946989648e+02
1.057653836920861012e+00 5.438604930957142187e+02
1.057753860926622380e+00 5.438116574076866527e+02
1.057853884932383748e+00 5.437626491656953931e+02
1.057953908938145116e+00 5.437134703038404950e+02
1.058053932943906483e+00 5.436641227551947395e+02
1.058153956949667851e+00 5.436146084517532699e+02
1.058253980955429219e+00 5.435649293243911870e+02
1.058354004961190586e+00 5.435150873028114802e+02
1.058454028966951954e+00 5.434650843155005759e+02
1.058554052972713544e+00 5.434149222896817264e+02
1.058654076978474912e+00 5.433646031512664649e+02
1.058754100984236279e+00 5.433141288248094725e+02
1.058854124989997647e+00 5.432635012334604880e+02
1.058954148995759015e+00 5.432127222989201982e+02
1.059054173001520383e+00 5.431617939413916929e+02
1.059154197007281750e+00 5.431107180795355589e+02
1.059254221013043118e+00 5.430594966304239506e+02
1.059354245018804486e+00 5.430081315094945467e+02
1.059454269024565853e+00 5.429566246305050754e+02
1.059554293030327221e+00 5.429049779054869305e+02
1.059654317036088589e+00 5.428531932447011741e+02
1.059754341041849957e+00 5.428012725565927212e+02
1.059854365047611324e+00 5.427492177477455471e+02
1.059954389053372692e+00 5.426970307228367574e+02
1.060054413059134060e+00 5.426447133845929329e+02
1.060154437064895427e+00 5.425922676337456778e+02
1.060254461070656795e+00 5.425396953689865995e+02
1.060354485076418385e+00 5.424869984869221753e+02
1.060454509082179753e+00 5.424341788820316879e+02
1.060554533087941120e+00 5.423812384466224330e+02
1.060654557093702488e+00 5.423281790707850405e+02
1.060754581099463856e+00 5.422750026423502732e+02
1.060854605105225223e+00 5.422217110468470764e+02
1.060954629110986591e+00 5.421683061674564215e+02
1.061054653116747959e+00 5.421147898849702642e+02
1.061154677122509327e+00 5.420611640777494813e+02
1.061254701128270916e+00 5.420074306216771447e+02
1.061354725134032062e+00 5.419535913901198683e+02
1.061454749139793652e+00 5.418996482538843793e+02
1.061554773145554798e+00 5.418456030811728397e+02
1.061654797151316387e+00 5.417914577375438512e+02
1.061754821157077533e+00 5.417372140858686862e+02
1.061854845162839123e+00 5.416828739862901330e+02
1.061954869168600268e+00 5.416284392961811136e+02
1.062054893174361858e+00 5.415739118701017105e+02
1.062154917180123004e+00 5.415192935597606265e+02
1.062254941185884594e+00 5.414645862139709607e+02
1.062354965191645961e+00 5.414097916786115547e+02
1.062454989197407329e+00 5.413549117965859523e+02
1.062555013203168697e+00 5.412999484077805619e+02
1.062655037208930064e+00 5.412449033490253214e+02
1.062755061214691432e+00 5.411897784540545899e+02
1.062855085220452800e+00 5.411345755534633781e+02
1.062955109226214168e+00 5.410792964746717644e+02
1.063055133231975535e+00 5.410239430418843085e+02
1.063155157237737125e+00 5.409685170760469646e+02
1.063255181243498493e+00 5.409130203948129747e+02
1.063355205249259861e+00 5.408574548125004640e+02
1.063455229255021228e+00 5.408018221400535595e+02
1.063555253260782596e+00 5.407461241850065790e+02
1.063655277266543964e+00 5.406903627514413984e+02
1.063755301272305331e+00 5.406345396399522087e+02
1.063855325278066699e+00 5.405786566476062944e+02
1.063955349283828067e+00 5.405227155679059479e+02
1.064055373289589435e+00 5.404667181907498161e+02
1.064155397295350802e+00 5.404106663023974306e+02
1.064255421301112170e+00 5.403545616854302125e+02
1.064355445306873538e+00 5.402984061187148654e+02
1.064455469312634905e+00 5.402422013773656317e+02
1.064555493318396273e+00 5.401859492327087082e+02
1.064655517324157641e+00 5.401296514522446159e+02
1.064755541329919009e+00 5.400733097996125025e+02
1.064855565335680376e+00 5.400169260345523981e+02
1.064955589341441966e+00 5.399605019128712229e+02
1.065055613347203334e+00 5.399040391864054982e+02
1.065155637352964701e+00 5.398475396029872400e+02
1.065255661358726069e+00 5.397910049064055329e+02
1.065355685364487437e+00 5.397344368363751528e+02
1.065455709370248805e+00 5.396778371284983677e+02
1.065555733376010172e+00 5.396212075142321964e+02
1.065655757381771540e+00 5.395645497208514598e+02
1.065755781387532908e+00 5.395078654714177446e+02
1.065855805393294276e+00 5.394511564847409772e+02
1.065955829399055865e+00 5.393944244753494104e+02
1.066055853404817233e+00 5.393376711534534707e+02
1.066155877410578601e+00 5.392808982249118799e+02
1.066255901416339968e+00 5.392241073911994818e+02
1.066355925422101336e+00 5.391673003493732494e+02
1.066455949427862704e+00 5.391104787920405670e+02
1.066555973433624072e+00 5.390536444073237590e+02
1.066655997439385439e+00 5.389967988788301909e+02
1.066756021445146807e+00 5.389399438856182769e+02
1.066856045450908175e+00 5.388830811021662157e+02
1.066956069456669542e+00 5.388262121983385668e+02
1.067056093462430910e+00 5.387693388393565783e+02
1.067156117468192278e+00 5.387124626857658996e+02
1.067256141473953646e+00 5.386555853934032712e+02
1.067356165479715013e+00 5.385987086133676485e+02
1.067456189485476381e+00 5.385418339919892787e+02
1.067556213491237749e+00 5.384849631707974140e+02
1.067656237496999116e+00 5.384280977864904116e+02
1.067756261502760706e+00 5.383712394709069713e+02
1.067856285508522074e+00 5.383143898509937344e+02
1.067956309514283442e+00 5.382575505487757255e+02
1.068056333520044809e+00 5.382007231813290673e+02
1.068156357525806177e+00 5.381439093607486939e+02
1.068256381531567545e+00 5.380871106941203834e+02
1.068356405537328913e+00 5.380303287834918819e+02
1.068456429543090280e+00 5.379735652258431173e+02
1.068556453548851648e+00 5.379168216130589144e+02
1.068656477554613016e+00 5.378600995318995501e+02
1.068756501560374605e+00 5.378034005639730140e+02
1.068856525566135751e+00 5.377467262857076093e+02
1.068956549571897341e+00 5.376900782683225088e+02
1.069056573577658487e+00 5.376334580778027430e+02
1.069156597583420076e+00 5.375768672748686186e+02
1.069256621589181222e+00 5.375203074149520717e+02
1.069356645594942812e+00 5.374637800481674503e+02
1.069456669600703957e+00 5.374072867192861622e+02
1.069556693606465547e+00 5.373508289677085941e+02
1.069656717612226915e+00 5.372944083274396689e+02
1.069756741617988283e+00 5.372380263270629257e+02
1.069856765623749650e+00 5.371816844897119836e+02
1.069956789629511018e+00 5.371253843330482596e+02
1.070056813635272386e+00 5.370691273692340246e+02
1.070156837641033754e+00 5.370129151049071652e+02
1.070256861646795121e+00 5.369567490411573090e+02
1.070356885652556489e+00 5.369006306734999043e+02
1.070456909658317857e+00 5.368445614918510955e+02
1.070556933664079446e+00 5.367885429805069180e+02
1.070656957669840814e+00 5.367325766181143081e+02
1.070756981675602182e+00 5.366766638776522313e+02
1.070857005681363550e+00 5.366208062264042837e+02
1.070957029687124917e+00 5.365650051259373186e+02
1.071057053692886285e+00 5.365092620320770038e+02
1.071157077698647653e+00 5.364535783948865628e+02
1.071257101704409020e+00 5.363979556586422177e+02
1.071357125710170388e+00 5.363423952618114754e+02
1.071457149715931756e+00 5.362868986370311859e+02
1.071557173721693124e+00 5.362314672110859419e+02
1.071657197727454491e+00 5.361761024048832951e+02
1.071757221733215859e+00 5.361208056334361345e+02
1.071857245738977227e+00 5.360655783058382440e+02
1.071957269744738594e+00 5.360104218252446344e+02
1.072057293750499962e+00 5.359553375888501705e+02
1.072157317756261330e+00 5.359003269878689935e+02
1.072257341762022698e+00 5.358453914075134890e+02
1.072357365767784287e+00 5.357905322269740509e+02
1.072457389773545655e+00 5.357357508193996409e+02
1.072557413779307023e+00 5.356810485518775522e+02
1.072657437785068391e+00 5.356264267854131731e+02
1.072757461790829758e+00 5.355718868749115700e+02
1.072857485796591126e+00 5.355174301691570236e+02
1.072957509802352494e+00 5.354630580107951801e+02
1.073057533808113861e+00 5.354087717363142929e+02
1.073157557813875229e+00 5.353545726760252137e+02
1.073257581819636597e+00 5.353004621540449079e+02
1.073357605825398187e+00 5.352464414882769006e+02
1.073457629831159554e+00 5.351925119903939958e+02
1.073557653836920922e+00 5.351386749658213375e+02
1.073657677842682290e+00 5.350849317137167418e+02
1.073757701848443658e+00 5.350312835269555762e+02
1.073857725854205025e+00 5.349777316921135935e+02
1.073957749859966393e+00 5.349242774894482864e+02
1.074057773865727761e+00 5.348709221928836541e+02
1.074157797871489128e+00 5.348176670699951956e+02
1.074257821877250496e+00 5.347645133819905823e+02
1.074357845883011864e+00 5.347114623836956753e+02
1.074457869888773232e+00 5.346585153235396319e+02
1.074557893894534599e+00 5.346056734435370572e+02
1.074657917900295967e+00 5.345529379792741338e+02
1.074757941906057335e+00 5.345003101598942976e+02
1.074857965911818702e+00 5.344477912080805027e+02
1.074957989917580070e+00 5.343953823400447618e+02
1.075058013923341438e+00 5.343430847655100706e+02
1.075158037929103028e+00 5.342908996876974470e+02
1.075258061934864395e+00 5.342388283033135394e+02
1.075358085940625763e+00 5.341868718025338012e+02
1.075458109946387131e+00 5.341350313689911218e+02
1.075558133952148498e+00 5.340833081797626392e+02
1.075658157957909866e+00 5.340317034053543921e+02
1.075758181963671234e+00 5.339802182096910883e+02
1.075858205969432602e+00 5.339288537501020073e+02
1.075958229975193969e+00 5.338776111773076991e+02
1.076058253980955559e+00 5.338264916354099796e+02
1.076158277986716705e+00 5.337754962618779473e+02
1.076258301992478295e+00 5.337246261875367281e+02
1.076358325998239440e+00 5.336738825365558796e+02
1.076458350004001030e+00 5.336232664264379082e+02
1.076558374009762176e+00 5.335727789680075830e+02
1.076658398015523765e+00 5.335224212653997711e+02
1.076758422021284911e+00 5.334721944160496605e+02
1.076858446027046501e+00 5.334220995106818464e+02
1.076958470032807647e+00 5.333721376332991895e+02
1.077058494038569236e+00 5.333223098611756541e+02
1.077158518044330604e+00 5.332726172648407328e+02
1.077258542050091972e+00 5.332230609080755812e+02
1.077358566055853339e+00 5.331736418479002850e+02
1.077458590061614707e+00 5.331243611345647651e+02
1.077558614067376075e+00 5.330752198115409328e+02
1.077658638073137443e+00 5.330262189155120041e+02
1.077758662078898810e+00 5.329773594763651090e+02
1.077858686084660178e+00 5.329286425171826522e+02
1.077958710090421768e+00 5.328800690542327629e+02
1.078058734096183136e+00 5.328316400969645201e+02
1.078158758101944503e+00 5.327833566479948786e+02
1.078258782107705871e+00 5.327352197031057131e+02
1.078358806113467239e+00 5.326872302512330180e+02
1.078458830119228606e+00 5.326393892744630421e+02
1.078558854124989974e+00 5.325916977480218293e+02
1.078658878130751342e+00 5.325441566402698754e+02
1.078758902136512710e+00 5.324967669126954206e+02
1.078858926142274077e+00 5.324495295199088787e+02
1.078958950148035445e+00 5.324024454096339696e+02
1.079058974153796813e+00 5.323555155227047635e+02
1.079158998159558180e+00 5.323087407930569270e+02
1.079259022165319548e+00 5.322621221477251083e+02
1.079359046171080916e+00 5.322156605068341833e+02
1.079459070176842284e+00 5.321693567835970953e+02
1.079559094182603651e+00 5.321232118843071248e+02
1.079659118188365019e+00 5.320772267083348197e+02
1.079759142194126609e+00 5.320314021481220834e+02
1.079859166199887976e+00 5.319857390891791056e+02
1.079959190205649344e+00 5.319402384100786776e+02
1.080059214211410712e+00 5.318949009824533505e+02
1.080159238217172080e+00 5.318497276709892958e+02
1.080259262222933447e+00 5.318047193334260783e+02
1.080359286228694815e+00 5.317598768205501756e+02
1.080459310234456183e+00 5.317152009761923637e+02
1.080559334240217551e+00 5.316706926372256703e+02
1.080659358245978918e+00 5.316263526335615097e+02
1.080759382251740508e+00 5.315821817881463858e+02
1.080859406257501876e+00 5.315381809169607550e+02
1.080959430263263243e+00 5.314943508290158434e+02
1.081059454269024611e+00 5.314506923263516001e+02
1.081159478274785979e+00 5.314072062040337414e+02
1.081259502280547347e+00 5.313638932501538648e+02
1.081359526286308714e+00 5.313207542458268335e+02
1.081459550292070082e+00 5.312777899651877078e+02
1.081559574297831450e+00 5.312350011753939043e+02
1.081659598303592817e+00 5.311923886366216720e+02
1.081759622309354185e+00 5.311499531020654103e+02
1.081859646315115553e+00 5.311076953179375550e+02
1.081959670320876921e+00 5.310656160234680101e+02
1.082059694326638288e+00 5.310237159509040339e+02
1.082159718332399656e+00 5.309819958255084202e+02
1.082259742338161024e+00 5.309404563655617721e+02
1.082359766343922391e+00 5.308990982823617060e+02
1.082459790349683759e+00 5.308579222802228514e+02
1.082559814355445349e+00 5.308169290564776475e+02
1.082659838361206717e+00 5.307761193014775927e+02
1.082759862366968084e+00 5.307354936985940412e+02
1.082859886372729452e+00 5.306950529242176344e+02
1.082959910378490820e+00 5.306547976477623934e+02
1.083059934384252188e+00 5.306147285316648095e+02
1.083159958390013555e+00 5.305748462313861182e+02
1.083259982395774923e+00 5.305351513954152551e+02
1.083360006401536291e+00 5.304956446652688555e+02
1.083460030407297658e+00 5.304563266754943243e+02
1.083560054413059248e+00 5.304171980536726778e+02
1.083660078418820394e+00 5.303782594204194538e+02
1.083760102424581984e+00 5.303395113893886901e+02
1.083860126430343129e+00 5.303009545672758804e+02
1.083960150436104719e+00 5.302625895538196801e+02
1.084060174441865865e+00 5.302244169418061119e+02
1.084160198447627454e+00 5.301864373170704994e+02
1.084260222453388600e+00 5.301486512585025821e+02
1.084360246459150190e+00 5.301110593380495857e+02
1.084460270464911558e+00 5.300736621207191774e+02
1.084560294470672925e+00 5.300364601645841276e+02
1.084660318476434293e+00 5.299994540207865157e+02
1.084760342482195661e+00 5.299626442335412548e+02
1.084860366487957029e+00 5.299260313401420035e+02
1.084960390493718396e+00 5.298896158709633255e+02
1.085060414499479764e+00 5.298533983494678523e+02
1.085160438505241132e+00 5.298173792922099210e+02
1.085260462511002499e+00 5.297815592088404628e+02
1.085360486516764089e+00 5.297459386021131422e+02
1.085460510522525457e+00 5.297105179678886770e+02
1.085560534528286825e+00 5.296752977951402954e+02
1.085660558534048192e+00 5.296402785659613528e+02
1.085760582539809560e+00 5.296054607555681741e+02
1.085860606545570928e+00 5.295708448323083530e+02
1.085960630551332295e+00 5.295364312576658676e+02
1.086060654557093663e+00 5.295022204862671060e+02
1.086160678562855031e+00 5.294682129658876875e+02
1.086260702568616399e+00 5.294344091374593972e+02
1.086360726574377766e+00 5.294008094350762121e+02
1.086460750580139134e+00 5.293674142860008942e+02
1.086560774585900502e+00 5.293342241106731763e+02
1.086660798591661869e+00 5.293012393227156736e+02
1.086760822597423237e+00 5.292684603289417282e+02
1.086860846603184605e+00 5.292358875293627989e+02
1.086960870608945973e+00 5.292035213171952819e+02
1.087060894614707340e+00 5.291713620788699473e+02
1.087160918620468930e+00 5.291394101940377368e+02
1.087260942626230298e+00 5.291076660355784043e+02
1.087360966631991666e+00 5.290761299696101787e+02
1.087460990637753033e+00 5.290448023554957899e+02
1.087561014643514401e+00 5.290136835458509950e+02
1.087661038649275769e+00 5.289827738865557194e+02
1.087761062655037136e+00 5.289520737167589459e+02
1.087861086660798504e+00 5.289215833688895145e+02
1.087961110666559872e+00 5.288913031686658996e+02
1.088061134672321462e+00 5.288612334351034860e+02
1.088161158678082829e+00 5.288313744805244596e+02
1.088261182683844197e+00 5.288017266105662202e+02
1.088361206689605565e+00 5.287722901241935460e+02
1.088461230695366933e+00 5.287430653137035961e+02
1.088561254701128300e+00 5.287140524647406892e+02
1.088661278706889668e+00 5.286852518563019885e+02
1.088761302712651036e+00 5.286566637607487564e+02
1.088861326718412403e+00 5.286282884438186329e+02
1.088961350724173771e+00 5.286001261646304101e+02
1.089061374729935139e+00 5.285721771757009719e+02
1.089161398735696507e+00 5.285444417229512055e+02
1.089261422741457874e+00 5.285169200457163470e+02
1.089361446747219242e+00 5.284896123767595100e+02
1.089461470752980610e+00 5.284625189422807807e+02
1.089561494758741977e+00 5.284356399619268814e+02
1.089661518764503345e+00 5.284089756488056082e+02
1.089761542770264713e+00 5.283825262094923119e+02
1.089861566776026081e+00 5.283562918440447902e+02
1.089961590781787670e+00 5.283302727460136339e+02
1.090061614787549038e+00 5.283044691024520034e+02
1.090161638793310406e+00 5.282788810939299537e+02
1.090261662799071773e+00 5.282535088945440975e+02
1.090361686804833141e+00 5.282283526719288602e+02
1.090461710810594509e+00 5.282034125872711456e+02
1.090561734816355877e+00 5.281786887953190899e+02
1.090661758822117244e+00 5.281541814443954763e+02
1.090761782827878612e+00 5.281298906764111507e+02
1.090861806833640202e+00 5.281058166268747982e+02
1.090961830839401348e+00 5.280819594249077227e+02
1.091061854845162937e+00 5.280583191932538512e+02
1.091161878850924083e+00 5.280348960482941720e+02
1.091261902856685673e+00 5.280116901000592406e+02
1.091361926862446818e+00 5.279887014522417985e+02
1.091461950868208408e+00 5.279659302022080283e+02
1.091561974873969554e+00 5.279433764410133563e+02
1.091661998879731144e+00 5.279210402534129116e+02
1.091762022885492511e+00 5.278989217178765330e+02
1.091862046891253879e+00 5.278770209066012740e+02
1.091962070897015247e+00 5.278553378855231131e+02
1.092062094902776614e+00 5.278338727143346887e+02
1.092162118908537982e+00 5.278126254464940530e+02
1.092262142914299350e+00 5.277915961292402471e+02
1.092362166920060718e+00 5.277707848036080804e+02
1.092462190925822085e+00 5.277501915044402949e+02
1.092562214931583453e+00 5.277298162604020035e+02
1.092662238937344821e+00 5.277096590939942189e+02
1.092762262943106411e+00 5.276897200215688599e+02
1.092862286948867778e+00 5.276699990533418259e+02
1.092962310954629146e+00 5.276504961934077755e+02
1.093062334960390514e+00 5.276312114397541109e+02
1.093162358966151881e+00 5.276121447842754151e+02
1.093262382971913249e+00 5.275932962127869814e+02
1.093362406977674617e+00 5.275746657050420936e+02
1.093462430983435985e+00 5.275562532347430533e+02
1.093562454989197352e+00 5.275380587695578924e+02
1.093662478994958720e+00 5.275200822711351520e+02
1.093762503000720088e+00 5.275023236951174113e+02
1.093862527006481455e+00 5.274847829911573172e+02
1.093962551012242823e+00 5.274674601029325913e+02
1.094062575018004191e+00 5.274503549681600134e+02
1.094162599023765559e+00 5.274334675186106551e+02
1.094262623029526926e+00 5.274167976801262512e+02
1.094362647035288294e+00 5.274003453726332964e+02
1.094462671041049662e+00 5.273841105101591893e+02
1.094562695046811251e+00 5.273680930008456471e+02
1.094662719052572619e+00 5.273522927469671231e+02
1.094762743058333987e+00 5.273367096449424025e+02
1.094862767064095355e+00 5.273213435853550664e+02
1.094962791069856722e+00 5.273061944529648599e+02
1.095062815075618090e+00 5.272912621267248596e+02
1.095162839081379458e+00 5.272765464797971617e+02
1.095262863087140826e+00 5.272620473795690259e+02
1.095362887092902193e+00 5.272477646876687913e+02
1.095462911098663783e+00 5.272336982599805424e+02
1.095562935104425151e+00 5.272198479466609342e+02
1.095662959110186518e+00 5.272062135921551089e+02
1.095762983115947886e+00 5.271927950352128391e+02
1.095863007121709254e+00 5.271795921089045578e+02
1.095963031127470622e+00 5.271666046406378427e+02
1.096063055133231989e+00 5.271538324521723098e+02
1.096163079138993357e+00 5.271412753596373477e+02
1.096263103144754725e+00 5.271289331735475798e+02
1.096363127150516092e+00 5.271168056988194621e+02
1.096463151156277460e+00 5.271048927347885638e+02
1.096563175162038828e+00 5.270931940752237779e+02
1.096663199167800196e+00 5.270817095083457389e+02
1.096763223173561563e+00 5.270704388168429659e+02
1.096863247179322931e+00 5.270593817778882340e+02
1.096963271185084299e+00 5.270485381631538075e+02
1.097063295190845666e+00 5.270379077388317910e+02
1.097163319196607034e+00 5.270274902656466338e+02
1.097263343202368402e+00 5.270172854988741165e+02
1.097363367208129992e+00 5.270072931883580623e+02
1.097463391213891359e+00 5.269975130785262536e+02
1.097563415219652727e+00 5.269879449084079397e+02
1.097663439225414095e+00 5.269785884116505486e+02
1.097763463231175463e+00 5.269694433165370810e+02
1.097863487236936830e+00 5.269605093460006628e+02
1.097963511242698198e+00 5.269517862176463723e+02
1.098063535248459566e+00 5.269432736437630638e+02
1.098163559254220933e+00 5.269349713313425809e+02
1.098263583259982301e+00 5.269268789820976053e+02
1.098363607265743891e+00 5.269189962924780275e+02
1.098463631271505037e+00 5.269113229536876588e+02
1.098563655277266626e+00 5.269038586517007161e+02
1.098663679283027772e+00 5.268966030672818306e+02
1.098763703288789362e+00 5.268895558760000313e+02
1.098863727294550507e+00 5.268827167482481855e+02
1.098963751300312097e+00 5.268760853492584602e+02
1.099063775306073243e+00 5.268696613391208530e+02
1.099163799311834833e+00 5.268634443727997905e+02
1.099263823317596200e+00 5.268574341001528865e+02
1.099363847323357568e+00 5.268516301659454939e+02
1.099463871329118936e+00 5.268460322098704864e+02
1.099563895334880304e+00 5.268406398665644019e+02
1.099663919340641671e+00 5.268354527656254049e+02
1.099763943346403039e+00 5.268304705316304535e+02
1.099863967352164407e+00 5.268256927841529205e+02
1.099963991357925774e+00 5.268211191377785099e+02
1.100064015363687142e+00 5.268167492021253793e+02
1.100164039369448732e+00 5.268125825818596013e+02
1.100264063375210100e+00 5.268086188767128988e+02
1.100364087380971467e+00 5.268048576815009483e+02
1.100464111386732835e+00 5.268012985861388415e+02
1.100564135392494203e+00 5.267979411756616628e+02
1.100664159398255570e+00 5.267947850302390407e+02
1.100764183404016938e+00 5.267918297251950435e+02
1.100864207409778306e+00 5.267890748310232993e+02
1.100964231415539674e+00 5.267865199134055274e+02
1.101064255421301041e+00 5.267841645332301823e+02
1.101164279427062409e+00 5.267820082466091662e+02
1.101264303432823777e+00 5.267800506048941998e+02
1.101364327438585144e+00 5.267782911546950118e+02
1.101464351444346512e+00 5.267767294378992347e+02
1.101564375450107880e+00 5.267753649916847962e+02
1.101664399455869248e+00 5.267741973485431117e+02
1.101764423461630615e+00 5.267732260362920442e+02
1.101864447467391983e+00 5.267724505780967093e+02
1.101964471473153573e+00 5.267718704924845952e+02
1.102064495478914941e+00 5.267714852933644352e+02
1.102164519484676308e+00 5.267712944900430330e+02
1.102264543490437676e+00 5.267712975872442485e+02
1.102364567496199044e+00 5.267714940851226402e+02
1.102464591501960411e+00 5.267718834792864300e+02
1.102564615507721779e+00 5.267724652608103497e+02
1.102664639513483147e+00 5.267732389162551954e+02
1.102764663519244515e+00 5.267742039276857895e+02
1.102864687525006104e+00 5.267753597726866701e+02
1.102964711530767472e+00 5.267767059243806216e+02
1.103064735536528840e+00 5.267782418514453866e+02
1.103164759542290208e+00 5.267799670181331066e+02
1.103264783548051575e+00 5.267818808842846465e+02
1.103364807553812943e+00 5.267839829053492622e+02
1.103464831559574311e+00 5.267862725324015400e+02
1.103564855565335678e+00 5.267887492121576543e+02
1.103664879571097046e+00 5.267914123869936702e+02
1.103764903576858414e+00 5.267942614949631661e+02
1.103864927582619782e+00 5.267972959698133764e+02
1.103964951588381149e+00 5.268005152410041774e+02
1.104064975594142517e+00 5.268039187337225258e+02
1.104164999599903885e+00 5.268075058689032630e+02
1.104265023605665252e+00 5.268112760632437812e+02
1.104365047611426620e+00 5.268152287292218716e+02
1.104465071617187988e+00 5.268193632751132327e+02
1.104565095622949356e+00 5.268236791050090915e+02
1.104665119628710723e+00 5.268281756188309828e+02
1.104765143634472313e+00 5.268328522123509856e+02
1.104865167640233681e+00 5.268377082772069571e+02
1.104965191645995048e+00 5.268427432009202676e+02
1.105065215651756416e+00 5.268479563669123991e+02
1.105165239657517784e+00 5.268533471545213160e+02
1.105265263663279152e+00 5.268589149390203374e+02
1.105365287669040519e+00 5.268646590916338255e+02
1.105465311674801887e+00 5.268705789795540113e+02
1.105565335680563255e+00 5.268766739659580480e+02
1.105665359686324845e+00 5.268829434100256321e+02
1.105765383692085990e+00 5.268893866669543513e+02
1.105865407697847580e+00 5.268960030879786700e+02
1.105965431703608726e+00 5.269027920203834583e+02
1.106065455709370315e+00 5.269097528075245691e+02
1.106165479715131461e+00 5.269168847888420260e+02
1.106265503720893051e+00 5.269241872998798044e+02
1.106365527726654197e+00 5.269316596723000430e+02
1.106465551732415786e+00 5.269393012339004372e+02
1.106565575738177154e+00 5.269471113086317473e+02
1.106665599743938522e+00 5.269550892166130325e+02
1.106765623749699889e+00 5.269632342741484763e+02
1.106865647755461257e+00 5.269715457937447809e+02
1.106965671761222625e+00 5.269800230841261737e+02
1.107065695766983993e+00 5.269886654502514602e+02
1.107165719772745360e+00 5.269974721933313049e+02
1.107265743778506728e+00 5.270064426108426687e+02
1.107365767784268096e+00 5.270155759965460902e+02
1.107465791790029463e+00 5.270248716405029654e+02
1.107565815795791053e+00 5.270343288290891905e+02
1.107665839801552421e+00 5.270439468450132381e+02
1.107765863807313789e+00 5.270537249673325277e+02
1.107865887813075156e+00 5.270636624714682057e+02
1.107965911818836524e+00 5.270737586292216292e+02
1.108065935824597892e+00 5.270840127087913061e+02
1.108165959830359260e+00 5.270944239747860820e+02
1.108265983836120627e+00 5.271049916882452635e+02
1.108366007841881995e+00 5.271157151066504412e+02
1.108466031847643363e+00 5.271265934839436795e+02
1.108566055853404730e+00 5.271376260705430923e+02
1.108666079859166098e+00 5.271488121133572804e+02
1.108766103864927466e+00 5.271601508558019304e+02
1.108866127870688834e+00 5.271716415378151623e+02
1.108966151876450201e+00 5.271832833958740139e+02
1.109066175882211569e+00 5.271950756630087653e+02
1.109166199887972937e+00 5.272070175688185145e+02
1.109266223893734304e+00 5.272191083394870930e+02
1.109366247899495894e+00 5.272313471977986410e+02
1.109466271905257262e+00 5.272437333631527281e+02
1.109566295911018630e+00 5.272562660515789048e+02
1.109666319916779997e+00 5.272689444757527326e+02
1.109766343922541365e+00 5.272817678450114727e+02
1.109866367928302733e+00 5.272947353653673872e+02
1.109966391934064101e+00 5.273078462395251336e+02
1.110066415939825468e+00 5.273210996668948383e+02
1.110166439945586836e+00 5.273344948436076720e+02
1.110266463951348426e+00 5.273480309625326754e+02
1.110366487957109793e+00 5.273617072132876729e+02
1.110466511962871161e+00 5.273755227822578036e+02
1.110566535968632529e+00 5.273894768526081407e+02
1.110666559974393897e+00 5.274035686043000624e+02
1.110766583980155264e+00 5.274177972141042119e+02
1.110866607985916632e+00 5.274321618556159592e+02
1.110966631991678000e+00 5.274466616992699528e+02
1.111066655997439367e+00 5.274612959123543305e+02
1.111166680003200735e+00 5.274760636590256127e+02
1.111266704008962103e+00 5.274909641003232537e+02
1.111366728014723471e+00 5.275059963941824890e+02
1.111466752020484838e+00 5.275211596954508195e+02
1.111566776026246206e+00 5.275364531559004035e+02
1.111666800032007574e+00 5.275518759242432907e+02
1.111766824037768941e+00 5.275674271461443823e+02
1.111866848043530309e+00 5.275831059642380296e+02
1.111966872049291677e+00 5.275989115181386069e+02
1.112066896055053045e+00 5.276148429444561998e+02
1.112166920060814634e+00 5.276308993768113851e+02
1.112266944066576002e+00 5.276470799458473948e+02
1.112366968072337370e+00 5.276633837792443273e+02
1.112466992078098738e+00 5.276798100017338129e+02
1.112567016083860105e+00 5.276963577351114054e+02
1.112667040089621473e+00 5.277130260982509071e+02
1.112767064095382841e+00 5.277298142071171014e+02
1.112867088101144208e+00 5.277467211747807596e+02
1.112967112106905576e+00 5.277637461114303505e+02
1.113067136112666944e+00 5.277808881243862515e+02
1.113167160118428534e+00 5.277981463181139361e+02
1.113267184124189679e+00 5.278155197942378436e+02
1.113367208129951269e+00 5.278330076515528617e+02
1.113467232135712415e+00 5.278506089860393331e+02
1.113567256141474004e+00 5.278683228908741967e+02
1.113667280147235150e+00 5.278861484564457669e+02
1.113767304152996740e+00 5.279040847703665804e+02
1.113867328158757886e+00 5.279221309174843100e+02
1.113967352164519475e+00 5.279402859798966574e+02
1.114067376170280843e+00 5.279585490369624949e+02
1.114167400176042211e+00 5.279769191653166445e+02
1.114267424181803579e+00 5.279953954388802231e+02
1.114367448187564946e+00 5.280139769288749676e+02
1.114467472193326314e+00 5.280326627038338074e+02
1.114567496199087682e+00 5.280514518296163260e+02
1.114667520204849049e+00 5.280703433694171736e+02
1.114767544210610417e+00 5.280893363837819834e+02
1.114867568216371785e+00 5.281084299306180583e+02
1.114967592222133375e+00 5.281276230652060804e+02
1.115067616227894742e+00 5.281469148402135261e+02
1.115167640233656110e+00 5.281663043057048981e+02
1.115267664239417478e+00 5.281857905091559360e+02
1.115367688245178845e+00 5.282053724954648715e+02
1.115467712250940213e+00 5.282250493069626600e+02
1.115567736256701581e+00 5.282448199834266234e+02
1.115667760262462949e+00 5.282646835620926140e+02
1.115767784268224316e+00 5.282846390776643375e+02
1.115867808273985684e+00 5.283046855623272222e+02
1.115967832279747052e+00 5.283248220457594471e+02
1.116067856285508419e+00 5.283450475551429690e+02
1.116167880291269787e+00 5.283653611151748919e+02
1.116267904297031155e+00 5.283857617480797444e+02
1.116367928302792523e+00 5.284062484736200531e+02
1.116467952308553890e+00 5.284268203091078249e+02
1.116567976314315258e+00 5.284474762694160290e+02
1.116668000320076626e+00 5.284682153669890567e+02
1.116768024325838216e+00 5.284890366118546581e+02
1.116868048331599583e+00 5.285099390116342875e+02
1.116968072337360951e+00 5.285309215715540176e+02
1.117068096343122319e+00 5.285519832944570453e+02
1.117168120348883686e+00 5.285731231808113080e+02
1.117268144354645054e+00 5.285943402287231265e+02
1.117368168360406422e+00 5.286156334339477780e+02
1.117468192366167790e+00 5.286370017898979086e+02
1.117568216371929157e+00 5.286584442876567209e+02
1.117668240377690747e+00 5.286799599159863874e+02
1.117768264383452115e+00 5.287015476613402143e+02
1.117868288389213483e+00 5.287232065078719643e+02
1.117968312394974850e+00 5.287449354374465429e+02
1.118068336400736218e+00 5.287667334296505715e+02
1.118168360406497586e+00 5.287885994618028462e+02
1.118268384412258953e+00 5.288105325089627513e+02
1.118368408418020321e+00 5.288325315439424230e+02
1.118468432423781689e+00 5.288545955373159586e+02
1.118568456429543057e+00 5.288767234574296481e+02
1.118668480435304424e+00 5.288989142704114101e+02
1.118768504441065792e+00 5.289211669401807967e+02
1.118868528446827160e+00 5.289434804284602478e+02
1.118968552452588527e+00 5.289658536947819130e+02
1.119068576458349895e+00 5.289882856965004976e+02
1.119168600464111263e+00 5.290107753888004254e+02
1.119268624469872631e+00 5.290333217247070934e+02
1.119368648475633998e+00 5.290559236550947162e+02
1.119468672481395366e+00 5.290785801286989454e+02
1.119568696487156956e+00 5.291012900921215305e+02
1.119668720492918323e+00 5.291240524898440754e+02
1.119768744498679691e+00 5.291468662642355412e+02
1.119868768504441059e+00 5.291697303555598637e+02
1.119968792510202427e+00 5.291926437019889136e+02
1.120068816515963794e+00 5.292156052396079531e+02
1.120168840521725162e+00 5.292386139024271188e+02
1.120268864527486530e+00 5.292616686223884699e+02
1.120368888533247897e+00 5.292847683293775845e+02
1.120468912539009487e+00 5.293079119512295847e+02
1.120568936544770633e+00 5.293310984137391415e+02
1.120668960550532223e+00 5.293543266406715020e+02
1.120768984556293368e+00 5.293775955537661275e+02
1.120869008562054958e+00 5.294009040727505635e+02
1.120969032567816104e+00 5.294242511153461237e+02
1.121069056573577694e+00 5.294476355972775536e+02
1.121169080579338839e+00 5.294710564322806476e+02
1.121269104585100429e+00 5.294945125321121395e+02
1.121369128590861797e+00 5.295180028065565239e+02
1.121469152596623164e+00 5.295415261634354920e+02
1.121569176602384532e+00 5.295650815086161174e+02
1.121669200608145900e+00 5.295886677460194960e+02
1.121769224613907268e+00 5.296122837776265442e+02
1.121869248619668635e+00 5.296359285034893674e+02
1.121969272625430003e+00 5.296596008217386498e+02
1.122069296631191371e+00 5.296832996285899071e+02
1.122169320636952738e+00 5.297070238183530364e+02
1.122269344642714106e+00 5.297307722834407286e+02
1.122369368648475696e+00 5.297545439143732438e+02
1.122469392654237064e+00 5.297783375997915982e+02
1.122569416659998431e+00 5.298021522264601799e+02
1.122669440665759799e+00 5.298259866792781168e+02
1.122769464671521167e+00 5.298498398412847337e+02
1.122869488677282535e+00 5.298737105936683065e+02
1.122969512683043902e+00 5.298975978157742475e+02
1.123069536688805270e+00 5.299215003851103347e+02
1.123169560694566638e+00 5.299454171773570579e+02
1.123269584700328005e+00 5.299693470663739845e+02
1.123369608706089373e+00 5.299932889242060128e+02
1.123469632711850741e+00 5.300172416210930351e+02
1.123569656717612109e+00 5.300412040254755084e+02
1.123669680723373476e+00 5.300651750040024126e+02
1.123769704729134844e+00 5.300891534215386400e+02
1.123869728734896212e+00 5.301131381411718166e+02
1.123969752740657579e+00 5.301371280242199191e+02
1.124069776746418947e+00 5.301611219302388918e+02
1.124169800752180537e+00 5.301851187170276489e+02
1.124269824757941905e+00 5.302091172406373971e+02
1.124369848763703272e+00 5.302331163553784563e+02
1.124469872769464640e+00 5.302571149138256033e+02
1.124569896775226008e+00 5.302811117668262568e+02
1.124669920780987376e+00 5.303051057635072993e+02
1.124769944786748743e+00 5.303290957512821251e+02
1.124869968792510111e+00 5.303530805758564384e+02
1.124969992798271479e+00 5.303770590812363253e+02
1.125070016804033068e+00 5.304010301097338242e+02
1.125170040809794436e+00 5.304249925019752254e+02
1.125270064815555804e+00 5.304489450969058453e+02
1.125370088821317172e+00 5.304728867317975300e+02
1.125470112827078539e+00 5.304968162422567275e+02
1.125570136832839907e+00 5.305207324622273291e+02
1.125670160838601275e+00 5.305446342240013564e+02
1.125770184844362642e+00 5.305685203582232816e+02
1.125870208850124010e+00 5.305923896938960524e+02
1.125970232855885378e+00 5.306162410583893916e+02
1.126070256861646746e+00 5.306400732774444577e+02
1.126170280867408113e+00 5.306638851751818038e+02
1.126270304873169481e+00 5.306876755741053557e+02
1.126370328878930849e+00 5.307114432951117351e+02
1.126470352884692216e+00 5.307351871574940105e+02
1.126570376890453584e+00 5.307589059789489738e+02
1.126670400896214952e+00 5.307825985755848706e+02
1.126770424901976320e+00 5.308062637619244697e+02
1.126870448907737687e+00 5.308299003509132490e+02
1.126970472913499277e+00 5.308535071539257615e+02
1.127070496919260645e+00 5.308770829807697282e+02
1.127170520925022013e+00 5.309006266396958154e+02
1.127270544930783380e+00 5.309241369373994530e+02
1.127370568936544748e+00 5.309476126790306125e+02
1.127470592942306116e+00 5.309710526681961937e+02
1.127570616948067483e+00 5.309944557069702569e+02
1.127670640953828851e+00 5.310178205958952731e+02
1.127770664959590219e+00 5.310411461339924699e+02
1.127870688965351587e+00 5.310644311187650146e+02
1.127970712971113176e+00 5.310876743462041532e+02
1.128070736976874322e+00 5.311108746107968273e+02
1.128170760982635912e+00 5.311340307055299945e+02
1.128270784988397057e+00 5.311571414218961991e+02
1.128370808994158647e+00 5.311802055499017570e+02
1.128470832999919793e+00 5.312032218780685753e+02
1.128570857005681383e+00 5.312261891934444975e+02
1.128670881011442528e+00 5.312491062816054637e+02
1.128770905017204118e+00 5.312719719266638094e+02
1.128870929022965486e+00 5.312947849112721315e+02
1.128970953028726854e+00 5.313175440166303360e+02
1.129070977034488221e+00 5.313402480224903002e+02
1.129171001040249589e+00 5.313628957071628065e+02
1.129271025046010957e+00 5.313854858475220908e+02
1.129371049051772324e+00 5.314080172190122084e+02
1.129471073057533692e+00 5.314304885956528324e+02
1.129571097063295060e+00 5.314528987500444828e+02
1.129671121069056428e+00 5.314752464533737566e+02
1.129771145074818017e+00 5.314975304754209446e+02
1.129871169080579385e+00 5.315197495845625326e+02
1.129971193086340753e+00 5.315419025477800687e+02
1.130071217092102120e+00 5.315639881306635743e+02
1.130171241097863488e+00 5.315860050974181377e+02
1.130271265103624856e+00 5.316079522108691435e+02
1.130371289109386224e+00 5.316298282324682987e+02
1.130471313115147591e+00 5.316516319222987477e+02
1.130571337120908959e+00 5.316733620390813257e+02
1.130671361126670327e+00 5.316950173401786515e+02
1.130771385132431694e+00 5.317165965816037669e+02
1.130871409138193062e+00 5.317380985180218431e+02
1.130971433143954430e+00 5.317595219027584790e+02
1.131071457149715798e+00 5.317808654878044763e+02
1.131171481155477165e+00 5.318021280238215240e+02
1.131271505161238533e+00 5.318233082601478827e+02
1.131371529166999901e+00 5.318444049448037276e+02
1.131471553172761269e+00 5.318654168244963785e+02
1.131571577178522858e+00 5.318863426446270068e+02
1.131671601184284226e+00 5.319071811492954112e+02
1.131771625190045594e+00 5.319279310813059283e+02
1.131871649195806961e+00 5.319485911821727768e+02
1.131971673201568329e+00 5.319691601921260826e+02
1.132071697207329697e+00 5.319896368501171082e+02
1.132171721213091065e+00 5.320100198938232552e+02
1.132271745218852432e+00 5.320303080596559084e+02
1.132371769224613800e+00 5.320505000827639606e+02
1.132471793230375390e+00 5.320705946970399509e+02
1.132571817236136758e+00 5.320905906351267731e+02
1.132671841241898125e+00 5.321104866284218815e+02
1.132771865247659493e+00 5.321302814070834302e+02
1.132871889253420861e+00 5.321499737000367531e+02
1.132971913259182228e+00 5.321695622349790256e+02
1.133071937264943596e+00 5.321890457383863122e+02
1.133171961270704964e+00 5.322084229355174330e+02
1.133271985276466332e+00 5.322276925504216933e+02
1.133372009282227699e+00 5.322468533059425226e+02
1.133472033287989067e+00 5.322659039237263414e+02
1.133572057293750435e+00 5.322848431242246079e+02
1.133672081299511802e+00 5.323036696267026855e+02
1.133772105305273170e+00 5.323223821492440493e+02
1.133872129311034538e+00 5.323409794087568798e+02
1.133972153316795906e+00 5.323594601209795201e+02
1.134072177322557273e+00 5.323778230004868419e+02
1.134172201328318641e+00 5.323960667606954758e+02
1.134272225334080009e+00 5.324141901138709727e+02
1.134372249339841598e+00 5.324321917711316701e+02
1.134472273345602966e+00 5.324500704424573314e+02
1.134572297351364334e+00 5.324678248366932394e+02
1.134672321357125702e+00 5.324854536615567895e+02
1.134772345362887069e+00 5.325029556236431745e+02
1.134872369368648437e+00 5.325203294284328877e+02
1.134972393374409805e+00 5.325375737802960430e+02
1.135072417380171172e+00 5.325546873824998784e+02
1.135172441385932540e+00 5.325716689372143264e+02
1.135272465391694130e+00 5.325885171455175850e+02
1.135372489397455276e+00 5.326052307074041892e+02
1.135472513403216865e+00 5.326218083217895582e+02
1.135572537408978011e+00 5.326382486865163628e+02
1.135672561414739601e+00 5.326545504983625960e+02
1.135772585420500747e+00 5.326707124530456667e+02
1.135872609426262336e+00 5.326867332452302435e+02
1.135972633432023482e+00 5.327026115685348486e+02
1.136072657437785072e+00 5.327183461155368605e+02
1.136172681443546439e+00 5.327339355777805849e+02
1.136272705449307807e+00 5.327493786457825991e+02
1.136372729455069175e+00 5.327646740090397088e+02
1.136472753460830543e+00 5.327798203560341790e+02
1.136572777466591910e+00 5.327948163742406678e+02
1.136672801472353278e+00 5.328096607501336166e+02
1.136772825478114646e+00 5.328243521691940714e+02
1.136872849483876013e+00 5.328388893159150257e+02
1.136972873489637381e+00 5.328532708738093788e+02
1.137072897495398749e+00 5.328674955254168708e+02
1.137172921501160339e+00 5.328815619523109035e+02
1.137272945506921706e+00 5.328954688351045661e+02
1.137372969512683074e+00 5.329092148534589342e+02
1.137472993518444442e+00 5.329227986860893225e+02
1.137573017524205810e+00 5.329362190107724473e+02
1.137673041529967177e+00 5.329494745043534749e+02
1.137773065535728545e+00 5.329625638427539798e+02
1.137873089541489913e+00 5.329754857009777425e+02
1.137973113547251280e+00 5.329882387531197310e+02
1.138073137553012648e+00 5.330008216723723535e+02
1.138173161558774016e+00 5.330132331310319387e+02
1.138273185564535384e+00 5.330254718005086261e+02
1.138373209570296751e+00 5.330375363513313687e+02
1.138473233576058119e+00 5.330494254531572551e+02
1.138573257581819487e+00 5.330611377747775350e+02
1.138673281587580854e+00 5.330726719841269414e+02
1.138773305593342222e+00 5.330840267482901709e+02
1.138873329599103590e+00 5.330952007335089320e+02
1.138973353604865180e+00 5.331061926051926321e+02
1.139073377610626547e+00 5.331170010279228109e+02
1.139173401616387915e+00 5.331276246654632587e+02
1.139273425622149283e+00 5.331380621807668376e+02
1.139373449627910651e+00 5.331483122359838944e+02
1.139473473633672018e+00 5.331583734924716964e+02
1.139573497639433386e+00 5.331682446107993201e+02
1.139673521645194754e+00 5.331779242507586787e+02
1.139773545650956121e+00 5.331874110713722530e+02
1.139873569656717711e+00 5.331967037309007083e+02
1.139973593662479079e+00 5.332058008868510797e+02
1.140073617668240447e+00 5.332147011959865495e+02
1.140173641674001814e+00 5.332234033143339502e+02
1.140273665679763182e+00 5.332319058971925188e+02
1.140373689685524550e+00 5.332402075991427637e+02
1.140473713691285917e+00 5.332483070740539688e+02
1.140573737697047285e+00 5.332562029750952206e+02
1.140673761702808653e+00 5.332638939547421160e+02
1.140773785708570021e+00 5.332713786647867664e+02
1.140873809714331388e+00 5.332786557563466658e+02
1.140973833720092756e+00 5.332857238798735580e+02
1.141073857725854124e+00 5.332925816851618492e+02
1.141173881731615491e+00 5.332992278213603186e+02
1.141273905737376859e+00 5.333056609369771195e+02
1.141373929743138227e+00 5.333118796798931953e+02
1.141473953748899595e+00 5.333178826973700097e+02
1.141573977754660962e+00 5.333236686360576186e+02
1.141674001760422330e+00 5.333292361420067209e+02
1.141774025766183920e+00 5.333345838606769576e+02
1.141874049771945288e+00 5.333397104369465751e+02
1.141974073777706655e+00 5.333446145151220890e+02
1.142074097783468023e+00 5.333492947389488563e+02
1.142174121789229391e+00 5.333537497516205121e+02
1.142274145794990758e+00 5.333579781957881778e+02
1.142374169800752126e+00 5.333619787135721708e+02
1.142474193806513494e+00 5.333657499465707588e+02
1.142574217812274862e+00 5.333692905358707321e+02
1.142674241818036229e+00 5.333725991220586593e+02
1.142774265823797819e+00 5.333756743452287310e+02
1.142874289829558965e+00 5.333785148449973121e+02
1.142974313835320554e+00 5.333811192605088536e+02
1.143074337841081700e+00 5.333834862304498756e+02
1.143174361846843290e+00 5.333856143930573808e+02
1.143274385852604436e+00 5.333875023861326099e+02
1.143374409858366025e+00 5.333891488470483182e+02
1.143474433864127171e+00 5.333905524127621902e+02
1.143574457869888761e+00 5.333917117198269580e+02
1.143674481875650129e+00 5.333926254044018833e+02
1.143774505881411496e+00 5.333932921022627625e+02
1.143874529887172864e+00 5.333937104488153409e+02
1.143974553892934232e+00 5.333938790791053179e+02
1.144074577898695599e+00 5.333937966278290332e+02
1.144174601904456967e+00 5.333934617293467682e+02
1.144274625910218335e+00 5.333928730176930912e+02
1.144374649915979703e+00 5.333920291265900460e+02
1.144474673921741292e+00 5.333909286894564730e+02
1.144574697927502660e+00 5.333895703394218799e+02
1.144674721933264028e+00 5.333879527093381512e+02
1.144774745939025395e+00 5.333860744317909166e+02
1.144874769944786763e+00 5.333839341391126254e+02
1.144974793950548131e+00 5.333815304633941423e+02
1.145074817956309499e+00 5.333788620364966846e+02
1.145174841962070866e+00 5.333759274900655782e+02
1.145274865967832234e+00 5.333727254555418540e+02
1.145374889973593602e+00 5.333692545641744118e+02
1.145474913979354969e+00 5.333655134470338908e+02
1.145574937985116337e+00 5.333615007350250607e+02
1.145674961990877705e+00 5.333572150588985323e+02
1.145774985996639073e+00 5.333526550492664455e+02
1.145875010002400440e+00 5.333478193366125879e+02
1.145975034008161808e+00 5.333427065513064917e+02
1.146075058013923176e+00 5.333373153236190092e+02
1.146175082019684544e+00 5.333316442837314071e+02
1.146275106025445911e+00 5.333256920617532160e+02
1.146375130031207501e+00 5.333194572877321207e+02
1.146475154036968869e+00 5.333129385916704450e+02
1.146575178042730236e+00 5.333061346035369752e+02
1.146675202048491604e+00 5.332990439532818527e+02
1.146775226054252972e+00 5.332916652708501033e+02
1.146875250060014340e+00 5.332839971861959611e+02
1.146975274065775707e+00 5.332760383292968527e+02
1.147075298071537075e+00 5.332677873301677209e+02
1.147175322077298443e+00 5.332592428188745544e+02
1.147275346083060032e+00 5.332504034255507577e+02
1.147375370088821400e+00 5.332412677804097711e+02
1.147475394094582768e+00 5.332318345137608731e+02
1.147575418100344136e+00 5.332221022560235042e+02
1.147675442106105503e+00 5.332120696377419335e+02
1.147775466111866871e+00 5.332017352896001512e+02
1.147875490117628239e+00 5.331910978424384666e+02
1.147975514123389607e+00 5.331801559272653321e+02
1.148075538129150974e+00 5.331689081752770107e+02
1.148175562134912342e+00 5.331573532178699679e+02
1.148275586140673710e+00 5.331454896866554236e+02
1.148375610146435077e+00 5.331333162134783379e+02
1.148475634152196445e+00 5.331208314304304849e+02
1.148575658157957813e+00 5.331080339698669377e+02
1.148675682163719181e+00 5.330949224644224387e+02
1.148775706169480548e+00 5.330814955470269751e+02
1.148875730175241916e+00 5.330677518509214678e+02
1.148975754181003284e+00 5.330536900096742556e+02
1.149075778186764651e+00 5.330393086571980348e+02
1.149175802192526241e+00 5.330246064277658888e+02
1.149275826198287609e+00 5.330095819560266364e+02
1.149375850204048977e+00 5.329942338770237029e+02
1.149475874209810344e+00 5.329785608262100141e+02
1.149575898215571712e+00 5.329625614394658442e+02
1.149675922221333080e+00 5.329462343531145052e+02
1.149775946227094447e+00 5.329295782039419009e+02
1.149875970232855815e+00 5.329125916292103966e+02
1.149975994238617183e+00 5.328952732666790553e+02
1.150076018244378773e+00 5.328776217546184171e+02
1.150176042250139918e+00 5.328596357318305081e+02
1.150276066255901508e+00 5.328413138376649840e+02
1.150376090261662654e+00 5.328226547120365240e+02
1.150476114267424244e+00 5.328036569954432480e+02
1.150576138273185389e+00 5.327843193289855890e+02
1.150676162278946979e+00 5.327646403543812994e+02
1.150776186284708125e+00 5.327446187139884159e+02
1.150876210290469714e+00 5.327242530508174241e+02
1.150976234296231082e+00 5.327035420085557007e+02
1.151076258301992450e+00 5.326824842315813839e+02
1.151176282307753818e+00 5.326610783649841778e+02
1.151276306313515185e+00 5.326393230545839970e+02
1.151376330319276553e+00 5.326172169469490427e+02
1.151476354325037921e+00 5.325947586894147889e+02
1.151576378330799288e+00 5.325719469301030813e+02
1.151676402336560656e+00 5.325487803179423736e+02
1.151776426342322024e+00 5.325252575026846671e+02
1.151876450348083614e+00 5.325013771349268836e+02
1.151976474353844981e+00 5.324771378661300787e+02
1.152076498359606349e+00 5.324525383486369492e+02
1.152176522365367717e+00 5.324275772356946845e+02
1.152276546371129085e+00 5.324022531814724744e+02
1.152376570376890452e+00 5.323765648410818585e+02
1.152476594382651820e+00 5.323505108705971907e+02
1.152576618388413188e+00 5.323240899270755335e+02
1.152676642394174555e+00 5.322973006685770088e+02
1.152776666399935923e+00 5.322701417541852607e+02
1.152876690405697291e+00 5.322426118440268965e+02
1.152976714411458659e+00 5.322147095992933146e+02
1.153076738417220026e+00 5.321864336822602581e+02
1.153176762422981394e+00 5.321577827563103256e+02
1.153276786428742762e+00 5.321287554859516149e+02
1.153376810434504129e+00 5.320993505368406886e+02
1.153476834440265497e+00 5.320695665758021278e+02
1.153576858446026865e+00 5.320394022708510420e+02
1.153676882451788233e+00 5.320088562912134194e+02
1.153776906457549822e+00 5.319779273073481818e+02
1.153876930463311190e+00 5.319466139909686717e+02
1.153976954469072558e+00 5.319149150150643663e+02
1.154076978474833926e+00 5.318828290539215686e+02
1.154177002480595293e+00 5.318503547831471678e+02
1.154277026486356661e+00 5.318174908796892169e+02
1.154377050492118029e+00 5.317842360218596696e+02
1.154477074497879396e+00 5.317505888893567771e+02
1.154577098503640764e+00 5.317165481632855517e+02
1.154677122509402354e+00 5.316821125261839143e+02
1.154777146515163722e+00 5.316472806620413394e+02
1.154877170520925089e+00 5.316120512563239799e+02
1.154977194526686457e+00 5.315764229959967224e+02
1.155077218532447825e+00 5.315403945695451284e+02
1.155177242538209192e+00 5.315039646669998774e+02
1.155277266543970560e+00 5.314671319799600724e+02
1.155377290549731928e+00 5.314298952016139310e+02
1.155477314555493296e+00 5.313922530267648199e+02
1.155577338561254663e+00 5.313542041518542192e+02
1.155677362567016031e+00 5.313157472749833232e+02
1.155777386572777399e+00 5.312768810959385064e+02
1.155877410578538766e+00 5.312376043162150836e+02
1.155977434584300134e+00 5.311979156390402750e+02
1.156077458590061502e+00 5.311578137693966255e+02
1.156177482595822870e+00 5.311172974140484939e+02
1.156277506601584237e+00 5.310763652815644491e+02
1.156377530607345605e+00 5.310350160823410306e+02
1.156477554613106973e+00 5.309932485286274186e+02
1.156577578618868563e+00 5.309510613345521506e+02
1.156677602624629930e+00 5.309084532161447214e+02
1.156777626630391298e+00 5.308654228913616180e+02
1.156877650636152666e+00 5.308219690801111028e+02
1.156977674641914033e+00 5.307780905042782251e+02
1.157077698647675401e+00 5.307337858877498320e+02
1.157177722653436769e+00 5.306890539564383289e+02
1.157277746659198137e+00 5.306438934383095329e+02
1.157377770664959504e+00 5.305983030634058650e+02
1.157477794670720872e+00 5.305522815638719294e+02
1.157577818676482462e+00 5.305058276739813437e+02
1.157677842682243607e+00 5.304589401301612952e+02
1.157777866688005197e+00 5.304116176710190302e+02
1.157877890693766343e+00 5.303638590373650459e+02
1.157977914699527933e+00 5.303156629722450361e+02
1.158077938705289078e+00 5.302670282209587640e+02
1.158177962711050668e+00 5.302179535310908705e+02
1.158277986716811814e+00 5.301684376525358857e+02
1.158378010722573404e+00 5.301184793375238087e+02
1.158478034728334771e+00 5.300680773406480739e+02
1.158578058734096139e+00 5.300172304188899943e+02
1.158678082739857507e+00 5.299659373316485471e+02
1.158778106745618874e+00 5.299141968407627701e+02
1.158878130751380242e+00 5.298620077105434802e+02
1.158978154757141610e+00 5.298093687077955565e+02
1.159078178762902978e+00 5.297562786018487486e+02
1.159178202768664345e+00 5.297027361645825749e+02
1.159278226774425935e+00 5.296487401704542890e+02
1.159378250780187303e+00 5.295942893965254825e+02
1.159478274785948670e+00 5.295393826224917575e+02
1.159578298791710038e+00 5.294840186307062595e+02
1.159678322797471406e+00 5.294281962062118509e+02
1.159778346803232774e+00 5.293719141367653265e+02
1.159878370808994141e+00 5.293151712128667441e+02
1.159978394814755509e+00 5.292579662277869375e+02
1.160078418820516877e+00 5.292002979775954827e+02
1.160178442826278244e+00 5.291421652611895752e+02
1.160278466832039612e+00 5.290835668803205181e+02
1.160378490837800980e+00 5.290245016396236224e+02
1.160478514843562348e+00 5.289649683466452643e+02
1.160578538849323715e+00 5.289049658118722164e+02
1.160678562855085083e+00 5.288444928487600691e+02
1.160778586860846451e+00 5.287835482737614257e+02
1.160878610866607819e+00 5.287221309063545505e+02
1.160978634872369186e+00 5.286602395690727008e+02
1.161078658878130554e+00 5.285978730875327756e+02
1.161178682883892144e+00 5.285350302904639648e+02
1.161278706889653511e+00 5.284717100097368530e+02
1.161378730895414879e+00 5.284079110803930917e+02
1.161478754901176247e+00 5.283436323406748443e+02
1.161578778906937615e+00 5.282788726320516162e+02
1.161678802912698982e+00 5.282136307992528828e+02
1.161778826918460350e+00 5.281479056902967386e+02
1.161878850924221718e+00 5.280816961565165002e+02
1.161978874929983085e+00 5.280150010525953803e+02
1.162078898935744675e+00 5.279478192365917266e+02
1.162178922941506043e+00 5.278801495699713087e+02
1.162278946947267411e+00 5.278119909176364217e+02
1.162378970953028778e+00 5.277433421479552180e+02
1.162478994958790146e+00 5.276742021327938801e+02
1.162579018964551514e+00 5.276045697475433371e+02
1.162679042970312882e+00 5.275344438711523480e+02
1.162779066976074249e+00 5.274638233861568324e+02
1.162879090981835617e+00 5.273927071787095429e+02
1.162979114987596985e+00 5.273210941386112154e+02
1.163079138993358352e+00 5.272489831593411509e+02
1.163179162999119720e+00 5.271763731380867739e+02
1.163279187004881088e+00 5.271032629757755785e+02
1.163379211010642456e+00 5.270296515771049144e+02
1.163479235016403823e+00 5.269555378505720000e+02
1.163579259022165191e+00 5.268809207085082562e+02
1.163679283027926559e+00 5.268057990671048856e+02
1.163779307033687926e+00 5.267301718464482292e+02
1.163879331039449294e+00 5.266540379705481882e+02
1.163979355045210884e+00 5.265773963673721028e+02
1.164079379050972252e+00 5.265002459688721501e+02
1.164179403056733619e+00 5.264225857110197921e+02
1.164279427062494987e+00 5.263444145338352200e+02
1.164379451068256355e+00 5.262657313814203235e+02
1.164479475074017722e+00 5.261865352019874535e+02
1.164579499079779090e+00 5.261068249478946655e+02
1.164679523085540458e+00 5.260265995756740267e+02
1.164779547091301826e+00 5.259458580460642452e+02
1.164879571097063415e+00 5.258645993240428425e+02
1.164979595102824561e+00 5.257828223788577588e+02
1.165079619108586151e+00 5.257005261840583898e+02
1.165179643114347297e+00 5.256177097175279869e+02
1.165279667120108886e+00 5.255343719615161717e+02
1.165379691125870032e+00 5.254505119026697457e+02
1.165479715131631622e+00 5.253661285320647494e+02
1.165579739137392767e+00 5.252812208452401137e+02
1.165679763143154357e+00 5.251957878422269914e+02
1.165779787148915725e+00 5.251098285275837725e+02
1.165879811154677093e+00 5.250233419104263248e+02
1.165979835160438460e+00 5.249363270044616456e+02
1.166079859166199828e+00 5.248487828280187841e+02
1.166179883171961196e+00 5.247607084040819245e+02
1.166279907177722563e+00 5.246721027603238099e+02
1.166379931183483931e+00 5.245829649291354144e+02
1.166479955189245299e+00 5.244932939476625506e+02
1.166579979195006667e+00 5.244030888578329268e+02
1.166680003200768256e+00 5.243123487063948005e+02
1.166780027206529624e+00 5.242210725449448319e+02
1.166880051212290992e+00 5.241292594299627581e+02
1.166980075218052360e+00 5.240369084228448173e+02
1.167080099223813727e+00 5.239440185899346716e+02
1.167180123229575095e+00 5.238505890025571716e+02
1.167280147235336463e+00 5.237566187370515536e+02
1.167380171241097830e+00 5.236621068748033849e+02
1.167480195246859198e+00 5.235670525022777611e+02
1.167580219252620566e+00 5.234714547110532976e+02
1.167680243258381934e+00 5.233753125978521439e+02
1.167780267264143301e+00 5.232786252645774994e+02
1.167880291269904669e+00 5.231813918183423766e+02
1.167980315275666037e+00 5.230836113715049578e+02
1.168080339281427404e+00 5.229852830417009955e+02
1.168180363287188772e+00 5.228864059518773502e+02
1.168280387292950140e+00 5.227869792303240501e+02
1.168380411298711508e+00 5.226870020107088521e+02
1.168480435304472875e+00 5.225864734321094147e+02
1.168580459310234465e+00 5.224853926390472907e+02
1.168680483315995833e+00 5.223837587815202141e+02
1.168780507321757201e+00 5.222815710150355244e+02
1.168880531327518568e+00 5.221788285006451815e+02
1.168980555333279936e+00 5.220755304049761207e+02
1.169080579339041304e+00 5.219716759002661775e+02
1.169180603344802671e+00 5.218672641643953511e+02
1.169280627350564039e+00 5.217622943809210483e+02
1.169380651356325407e+00 5.216567657391099146e+02
1.169480675362086997e+00 5.215506774339720550e+02
1.169580699367848364e+00 5.214440286662938888e+02
1.169680723373609732e+00 5.213368186426716875e+02
1.169780747379371100e+00 5.212290465755463629e+02
1.169880771385132467e+00 5.211207116832341626e+02
1.169980795390893835e+00 5.210118131899620266e+02
1.170080819396655203e+00 5.209023503258999881e+02
1.170180843402416571e+00 5.207923223271969846e+02
1.170280867408177938e+00 5.206817284360104168e+02
1.170380891413939306e+00 5.205705679005426418e+02
1.170480915419700674e+00 5.204588399750732606e+02
1.170580939425462041e+00 5.203465439199925413e+02
1.170680963431223409e+00 5.202336790018355259e+02
1.170780987436984777e+00 5.201202444933148854e+02
1.170881011442746145e+00 5.200062396733538890e+02
1.170981035448507512e+00 5.198916638271209649e+02
1.171081059454268880e+00 5.197765162460624424e+02
1.171181083460030248e+00 5.196607962279360891e+02
1.171281107465791615e+00 5.195445030768454444e+02
1.171381131471553205e+00 5.194276361032701743e+02
1.171481155477314573e+00 5.193101946241044971e+02
1.171581179483075941e+00 5.191921779626858324e+02
1.171681203488837308e+00 5.190735854488304994e+02
1.171781227494598676e+00 5.189544164188667992e+02
1.171881251500360044e+00 5.188346702156680976e+02
1.171981275506121412e+00 5.187143461886870455e+02
1.172081299511882779e+00 5.185934436939868419e+02
1.172181323517644147e+00 5.184719620942775009e+02
1.172281347523405515e+00 5.183499007589456369e+02
1.172381371529167104e+00 5.182272590640910721e+02
1.172481395534928250e+00 5.181040363925578731e+02
1.172581419540689840e+00 5.179802321339685705e+02
1.172681443546450986e+00 5.178558456847569005e+02
1.172781467552212575e+00 5.177308764482007746e+02
1.172881491557973721e+00 5.176053238344569536e+02
1.172981515563735311e+00 5.174791872605916296e+02
1.173081539569496456e+00 5.173524661506155553e+02
1.173181563575258046e+00 5.172251599355163307e+02
1.173281587581019414e+00 5.170972680532918275e+02
1.173381611586780782e+00 5.169687899489814527e+02
1.173481635592542149e+00 5.168397250747020735e+02
1.173581659598303517e+00 5.167100728896788269e+02
1.173681683604064885e+00 5.165798328602780884e+02
1.173781707609826253e+00 5.164490044600413512e+02
1.173881731615587620e+00 5.163175871697164894e+02
1.173981755621348988e+00 5.161855804772932288e+02
1.174081779627110578e+00 5.160529838780317959e+02
1.174181803632871945e+00 5.159197968744992977e+02
1.174281827638633313e+00 5.157860189766012127e+02
1.174381851644394681e+00 5.156516497016119729e+02
1.174481875650156049e+00 5.155166885742112299e+02
1.174581899655917416e+00 5.153811351265127314e+02
1.174681923661678784e+00 5.152449888980995638e+02
1.174781947667440152e+00 5.151082494360541659e+02
1.174881971673201519e+00 5.149709162949923211e+02
1.174981995678962887e+00 5.148329890370951034e+02
1.175082019684724255e+00 5.146944672321412781e+02
1.175182043690485623e+00 5.145553504575375428e+02
1.175282067696246990e+00 5.144156382983536560e+02
1.175382091702008358e+00 5.142753303473530195e+02
1.175482115707769726e+00 5.141344262050231464e+02
1.175582139713531094e+00 5.139929254796113582e+02
1.175682163719292461e+00 5.138508277871526388e+02
1.175782187725053829e+00 5.137081327515030580e+02
1.175882211730815197e+00 5.135648400043729680e+02
1.175982235736576786e+00 5.134209491853562213e+02
1.176082259742338154e+00 5.132764599419632532e+02
1.176182283748099522e+00 5.131313719296526870e+02
1.176282307753860890e+00 5.129856848118607786e+02
1.176382331759622257e+00 5.128393982600359777e+02
1.176482355765383625e+00 5.126925119536680313e+02
1.176582379771144993e+00 5.125450255803185655e+02
1.176682403776906360e+00 5.123969388356554191e+02
1.176782427782667728e+00 5.122482514234802693e+02
1.176882451788429318e+00 5.120989630557618284e+02
1.176982475794190686e+00 5.119490734526651181e+02
1.177082499799952053e+00 5.117985823425842682e+02
1.177182523805713421e+00 5.116474894621711655e+02
1.177282547811474789e+00 5.114957945563675139e+02
1.177382571817236157e+00 5.113434973784354725e+02
1.177482595822997524e+00 5.111905976899869302e+02
1.177582619828758892e+00 5.110370952610152244e+02
1.177682643834520260e+00 5.108829898699236765e+02
1.177782667840281627e+00 5.107282813035591857e+02
1.177882691846042995e+00 5.105729693572374686e+02
1.177982715851804363e+00 5.104170538347779598e+02
1.178082739857565731e+00 5.102605345485308135e+02
1.178182763863327098e+00 5.101034113194064048e+02
1.178282787869088466e+00 5.099456839769084695e+02
1.178382811874849834e+00 5.097873523591585467e+02
1.178482835880611201e+00 5.096284163129306535e+02
1.178582859886372569e+00 5.094688756936772052e+02
1.178682883892133937e+00 5.093087303655598248e+02
1.178782907897895527e+00 5.091479802014785037e+02
1.178882931903656894e+00 5.089866250830997387e+02
1.178982955909418262e+00 5.088246649008873419e+02
1.179082979915179630e+00 5.086620995541296111e+02
1.179183003920940997e+00 5.084989289509686614e+02
1.179283027926702365e+00 5.083351530084289607e+02
1.179383051932463733e+00 5.081707716524473994e+02
1.179483075938225101e+00 5.080057848178981317e+02
1.179583099943986468e+00 5.078401924486261123e+02
1.179683123949748058e+00 5.076739944974699483e+02
1.179783147955509204e+00 5.075071909262934469e+02
1.179883171961270794e+00 5.073397817060123316e+02
1.179983195967031939e+00 5.071717668166220392e+02
1.180083219972793529e+00 5.070031462472266526e+02
1.180183243978554675e+00 5.068339199960640258e+02
1.180283267984316264e+00 5.066640880705363088e+02
1.180383291990077410e+00 5.064936504872343903e+02
1.180483315995839000e+00 5.063226072719666035e+02
1.180583340001600368e+00 5.061509584597869775e+02
1.180683364007361735e+00 5.059787040950191113e+02
1.180783388013123103e+00 5.058058442312856755e+02
1.180883412018884471e+00 5.056323789315332533e+02
1.180983436024645838e+00 5.054583082680609323e+02
1.181083460030407206e+00 5.052836323225446336e+02
1.181183484036168574e+00 5.051083511860643398e+02
1.181283508041929942e+00 5.049324649591301295e+02
1.181383532047691309e+00 5.047559737517081544e+02
1.181483556053452899e+00 5.045788776832470148e+02
1.181583580059214267e+00 5.044011768827019182e+02
1.181683604064975635e+00 5.042228714885619638e+02
1.181783628070737002e+00 5.040439616488739034e+02
1.181883652076498370e+00 5.038644475212697671e+02
1.181983676082259738e+00 5.036843292729890891e+02
1.182083700088021105e+00 5.035036070809060789e+02
1.182183724093782473e+00 5.033222811315524154e+02
1.182283748099543841e+00 5.031403516211448164e+02
1.182383772105305209e+00 5.029578187556061266e+02
1.182483796111066576e+00 5.027746827505920351e+02
1.182583820116827944e+00 5.025909438315147781e+02
1.182683844122589312e+00 5.024066022335664456e+02
1.182783868128350679e+00 5.022216582017431961e+02
1.182883892134112047e+00 5.020361119908689034e+02
1.182983916139873415e+00 5.018499638656192019e+02
1.183083940145634783e+00 5.016632141005445078e+02
1.183183964151396150e+00 5.014758629800928134e+02
1.183283988157157518e+00 5.012879107986332770e+02
1.183384012162919108e+00 5.010993578604781646e+02
1.183484036168680475e+00 5.009102044799072928e+02
1.183584060174441843e+00 5.007204509811889466e+02
1.183684084180203211e+00 5.005300976986032992e+02
1.183784108185964579e+00 5.003391449764631034e+02
1.183884132191725946e+00 5.001475931691370533e+02
1.183984156197487314e+00 4.999554426410720112e+02
1.184084180203248682e+00 4.997626937668125038e+02
1.184184204209010050e+00 4.995693469310247110e+02
1.184284228214771639e+00 4.993754025285152238e+02
1.184384252220533007e+00 4.991808609642556576e+02
1.184484276226294375e+00 4.989857226533990229e+02
1.184584300232055742e+00 4.987899880213041683e+02
1.184684324237817110e+00 4.985936575035548231e+02
1.184784348243578478e+00 4.983967315459800034e+02
1.184884372249339846e+00 4.981992106046748745e+02
1.184984396255101213e+00 4.980010951460184287e+02
1.185084420260862581e+00 4.978023856466978145e+02
1.185184444266623949e+00 4.976030825937224336e+02
1.185284468272385316e+00 4.974031864844479287e+02
1.185384492278146684e+00 4.972026978265934645e+02
1.185484516283908052e+00 4.970016171382588936e+02
1.185584540289669420e+00 4.967999449479484610e+02
1.185684564295430787e+00 4.965976817945833091e+02
1.185784588301192155e+00 4.963948282275264319e+02
1.185884612306953523e+00 4.961913848065945558e+02
1.185984636312714890e+00 4.959873521020806493e+02
1.186084660318476258e+00 4.957827306947705779e+02
1.186184684324237848e+00 4.955775211759589638e+02
1.186284708329999216e+00 4.953717241474691377e+02
1.186384732335760583e+00 4.951653402216684299e+02
1.186484756341521951e+00 4.949583700214871556e+02
1.186584780347283319e+00 4.947508141804333377e+02
1.186684804353044687e+00 4.945426733426091346e+02
1.186784828358806054e+00 4.943339481627302803e+02
1.186884852364567422e+00 4.941246393061384197e+02
1.186984876370328790e+00 4.939147474488190710e+02
1.187084900376090157e+00 4.937042732774177693e+02
1.187184924381851747e+00 4.934932174892544481e+02
1.187284948387612893e+00 4.932815807923386728e+02
1.187384972393374483e+00 4.930693639053848756e+02
1.187484996399135628e+00 4.928565675578286118e+02
1.187585020404897218e+00 4.926431924898391230e+02
1.187685044410658364e+00 4.924292394523346843e+02
1.187785068416419954e+00 4.922147092069967016e+02
1.187885092422181099e+00 4.919996025262839794e+02
1.187985116427942689e+00 4.917839201934456241e+02
1.188085140433704057e+00 4.915676630025355962e+02
1.188185164439465424e+00 4.913508317584250449e+02
1.188285188445226792e+00 4.911334272768150981e+02
1.188385212450988160e+00 4.909154503842515851e+02
1.188485236456749528e+00 4.906969019181357226e+02
1.188585260462510895e+00 4.904777827267364501e+02
1.188685284468272263e+00 4.902580936692045839e+02
1.188785308474033631e+00 4.900378356155816846e+02
1.188885332479795220e+00 4.898170094468139268e+02
1.188985356485556588e+00 4.895956160547624449e+02
1.189085380491317956e+00 4.893736563422153267e+02
1.189185404497079324e+00 4.891511312228983570e+02
1.189285428502840691e+00 4.889280416214846809e+02
1.189385452508602059e+00 4.887043884736060591e+02
1.189485476514363427e+00 4.884801727258628716e+02
1.189585500520124794e+00 4.882553953358349190e+02
1.189685524525886162e+00 4.880300572720897208e+02
1.189785548531647530e+00 4.878041595141925768e+02
1.189885572537408898e+00 4.875777030527160605e+02
1.189985596543170265e+00 4.873506888892489997e+02
1.190085620548931633e+00 4.871231180364043212e+02
1.190185644554693001e+00 4.868949915178285437e+02
1.190285668560454369e+00 4.866663103682096789e+02
1.190385692566215736e+00 4.864370756332847350e+02
1.190485716571977104e+00 4.862072883698483565e+02
1.190585740577738472e+00 4.859769496457589639e+02
1.190685764583499839e+00 4.857460605399473934e+02
1.190785788589261429e+00 4.855146221424224109e+02
1.190885812595022797e+00 4.852826355542792953e+02
1.190985836600784165e+00 4.850501018877041020e+02
1.191085860606545532e+00 4.848170222659811657e+02
1.191185884612306900e+00 4.845833978234986148e+02
1.191285908618068268e+00 4.843492297057542828e+02
1.191385932623829635e+00 4.841145190693609379e+02
1.191485956629591003e+00 4.838792670820510011e+02
1.191585980635352371e+00 4.836434749226821168e+02
1.191686004641113961e+00 4.834071437812414160e+02
1.191786028646875328e+00 4.831702748588497229e+02
1.191886052652636696e+00 4.829328693677654769e+02
1.191986076658398064e+00 4.826949285313895643e+02
1.192086100664159432e+00 4.824564535842670807e+02
1.192186124669920799e+00 4.822174457720927876e+02
1.192286148675682167e+00 4.819779063517111695e+02
1.192386172681443535e+00 4.817378365911233686e+02
1.192486196687204902e+00 4.814972377694843431e+02
1.192586220692966270e+00 4.812561111771098012e+02
1.192686244698727638e+00 4.810144581154753496e+02
1.192786268704489006e+00 4.807722798972191072e+02
1.192886292710250373e+00 4.805295778461433542e+02
1.192986316716011741e+00 4.802863532972137932e+02
1.193086340721773109e+00 4.800426075965630730e+02
1.193186364727534476e+00 4.797983421014889132e+02
1.193286388733295844e+00 4.795535581804558092e+02
1.193386412739057212e+00 4.793082572130944072e+02
1.193486436744818580e+00 4.790624405902009357e+02
1.193586460750580169e+00 4.788161097137383422e+02
1.193686484756341537e+00 4.785692659968319731e+02
1.193786508762102905e+00 4.783219108637724730e+02
1.193886532767864272e+00 4.780740457500099865e+02
1.193986556773625640e+00 4.778256721021575686e+02
1.194086580779387008e+00 4.775767913779844775e+02
1.194186604785148376e+00 4.773274050464162883e+02
1.194286628790909743e+00 4.770775145875320504e+02
1.194386652796671111e+00 4.768271214925605364e+02
1.194486676802432701e+00 4.765762272638784793e+02
1.194586700808193847e+00 4.763248334150061964e+02
1.194686724813955436e+00 4.760729414706035527e+02
1.194786748819716582e+00 4.758205529664662663e+02
1.194886772825478172e+00 4.755676694495232368e+02
1.194986796831239317e+00 4.753142924778288148e+02
1.195086820837000907e+00 4.750604236205596180e+02
1.195186844842762053e+00 4.748060644580106668e+02
1.195286868848523643e+00 4.745512165815862886e+02
1.195386892854285010e+00 4.742958815937993222e+02
1.195486916860046378e+00 4.740400611082594651e+02
1.195586940865807746e+00 4.737837567496713973e+02
1.195686964871569113e+00 4.735269701538260847e+02
1.195786988877330481e+00 4.732697029675941280e+02
1.195887012883091849e+00 4.730119568489180892e+02
1.195987036888853217e+00 4.727537334668061249e+02
1.196087060894614584e+00 4.724950345013235165e+02
1.196187084900375952e+00 4.722358616435832914e+02
1.196287108906137542e+00 4.719762165957403113e+02
1.196387132911898910e+00 4.717161010709801303e+02
1.196487156917660277e+00 4.714555167935116060e+02
1.196587180923421645e+00 4.711944654985564966e+02
1.196687204929183013e+00 4.709329489323407074e+02
1.196787228934944380e+00 4.706709688520834902e+02
1.196887252940705748e+00 4.704085270259878939e+02
1.196987276946467116e+00 4.701456252332287704e+02
1.197087300952228484e+00 4.698822652639461239e+02
1.197187324957989851e+00 4.696184489192271485e+02
1.197287348963751219e+00 4.693541780111010553e+02
1.197387372969512587e+00 4.690894543625237816e+02
1.197487396975273954e+00 4.688242798073672475e+02
1.197587420981035322e+00 4.685586561904066230e+02
1.197687444986796690e+00 4.682925853673078791e+02
1.197787468992558058e+00 4.680260692046142026e+02
1.197887492998319425e+00 4.677591095797337175e+02
1.197987517004080793e+00 4.674917083809251608e+02
1.198087541009842161e+00 4.672238675072846377e+02
1.198187565015603750e+00 4.669555888687291940e+02
1.198287589021365118e+00 4.666868743859861866e+02
1.198387613027126486e+00 4.664177259905756614e+02
1.198487637032887854e+00 4.661481456247956885e+02
1.198587661038649221e+00 4.658781352417061044e+02
1.198687685044410589e+00 4.656076968051158929e+02
1.198787709050171957e+00 4.653368322895640858e+02
1.198887733055933325e+00 4.650655436803043017e+02
1.198987757061694692e+00 4.647938329732878628e+02
1.199087781067456282e+00 4.645217021751476523e+02
1.199187805073217650e+00 4.642491533031799236e+02
1.199287829078979017e+00 4.639761883853275322e+02
1.199387853084740385e+00 4.637028094601605517e+02
1.199487877090501753e+00 4.634290185768604147e+02
1.199587901096263121e+00 4.631548177951984258e+02
1.199687925102024488e+00 4.628802091855202434e+02
1.199787949107785856e+00 4.626051948287238815e+02
1.199887973113547224e+00 4.623297768162408374e+02
1.199987997119308591e+00 4.620539572500183567e+02
1.200088021125069959e+00 4.617777382424970938e+02
1.200188045130831327e+00 4.615011219165907619e+02
1.200288069136592695e+00 4.612241104056664653e+02
1.200388093142354062e+00 4.609467058535245769e+02
1.200488117148115430e+00 4.606689104143739542e+02
1.200588141153876798e+00 4.603907262528143178e+02
1.200688165159638165e+00 4.601121555438110704e+02
1.200788189165399533e+00 4.598332004726752871e+02
1.200888213171161123e+00 4.595538632350396711e+02
1.200988237176922491e+00 4.592741460368370667e+02
1.201088261182683858e+00 4.589940510942745391e+02
1.201188285188445226e+00 4.587135806338137058e+02
1.201288309194206594e+00 4.584327368921444190e+02
1.201388333199967962e+00 4.581515221161601517e+02
1.201488357205729329e+00 4.578699385629352605e+02
1.201588381211490697e+00 4.575879884996989517e+02
1.201688405217252065e+00 4.573056742038108951e+02
1.201788429223013432e+00 4.570229979627353600e+02
1.201888453228774800e+00 4.567399620740166029e+02
1.201988477234536390e+00 4.564565688452507288e+02
1.202088501240297536e+00 4.561728205940609087e+02
1.202188525246059125e+00 4.558887196480707189e+02
1.202288549251820271e+00 4.556042683448768571e+02
1.202388573257581861e+00 4.553194690320213454e+02
1.202488597263343006e+00 4.550343240669647571e+02
1.202588621269104596e+00 4.547488358170581932e+02
1.202688645274865742e+00 4.544630066595144626e+02
1.202788669280627332e+00 4.541768389813797171e+02
1.202888693286388699e+00 4.538903351795059393e+02
1.202988717292150067e+00 4.536034976605192242e+02
1.203088741297911435e+00 4.533163288407934033e+02
1.203188765303672803e+00 4.530288311464172466e+02
1.203288789309434170e+00 4.527410070131662678e+02
1.203388813315195538e+00 4.524528588864721996e+02
1.203488837320956906e+00 4.521643892213907634e+02
1.203588861326718273e+00 4.518756004825742139e+02
1.203688885332479863e+00 4.515864951442351298e+02
1.203788909338241231e+00 4.512970756901177083e+02
1.203888933344002599e+00 4.510073446134665573e+02
1.203988957349763966e+00 4.507173044169921923e+02
1.204088981355525334e+00 4.504269576128400558e+02
1.204189005361286702e+00 4.501363067225565828e+02
1.204289029367048069e+00 4.498453542770567992e+02
1.204389053372809437e+00 4.495541028165904436e+02
1.204489077378570805e+00 4.492625548907082020e+02
1.204589101384332173e+00 4.489707130582285686e+02
1.204689125390093540e+00 4.486785798872013515e+02
1.204789149395854908e+00 4.483861579548736245e+02
1.204889173401616276e+00 4.480934498476573822e+02
1.204989197407377644e+00 4.478004581610899208e+02
1.205089221413139011e+00 4.475071854998017216e+02
1.205189245418900379e+00 4.472136344774776262e+02
1.205289269424661747e+00 4.469198077168236978e+02
1.205389293430423114e+00 4.466257078495265205e+02
1.205489317436184482e+00 4.463313375162215948e+02
1.205589341441946072e+00 4.460366993664518986e+02
1.205689365447707440e+00 4.457417960586319055e+02
1.205789389453468807e+00 4.454466302600092718e+02
1.205889413459230175e+00 4.451512046466291395e+02
1.205989437464991543e+00 4.448555219032915602e+02
1.206089461470752910e+00 4.445595847235164797e+02
1.206189485476514278e+00 4.442633958095033222e+02
1.206289509482275646e+00 4.439669578720917116e+02
1.206389533488037014e+00 4.436702736307215105e+02
1.206489557493798603e+00 4.433733458133938257e+02
1.206589581499559971e+00 4.430761771566305356e+02
1.206689605505321339e+00 4.427787704054332494e+02
1.206789629511082707e+00 4.424811283132432322e+02
1.206889653516844074e+00 4.421832536418997393e+02
1.206989677522605442e+00 4.418851491615995428e+02
1.207089701528366810e+00 4.415868176508541296e+02
1.207189725534128177e+00 4.412882618964486028e+02
1.207289749539889545e+00 4.409894846933987651e+02
1.207389773545650913e+00 4.406904888449091686e+02
1.207489797551412281e+00 4.403912771623304252e+02
1.207589821557173648e+00 4.400918524651148118e+02
1.207689845562935016e+00 4.397922175807736380e+02
1.207789869568696384e+00 4.394923753448351817e+02
1.207889893574457751e+00 4.391923286007969409e+02
1.207989917580219119e+00 4.388920802000850472e+02
1.208089941585980487e+00 4.385916330020071996e+02
1.208189965591741855e+00 4.382909898737085541e+02
1.208289989597503444e+00 4.379901536901281247e+02
1.208390013603264812e+00 4.376891273339504664e+02
1.208490037609026180e+00 4.373879136955611102e+02
1.208590061614787547e+00 4.370865156730022818e+02
1.208690085620548915e+00 4.367849361719242438e+02
1.208790109626310283e+00 4.364831781055387978e+02
1.208890133632071651e+00 4.361812443945747191e+02
1.208990157637833018e+00 4.358791379672281323e+02
1.209090181643594386e+00 4.355768617591162410e+02
1.209190205649355754e+00 4.352744187132291813e+02
1.209290229655117344e+00 4.349718117798821027e+02
1.209390253660878489e+00 4.346690439166678743e+02
1.209490277666640079e+00 4.343661180884059831e+02
1.209590301672401225e+00 4.340630372670968882e+02
1.209690325678162814e+00 4.337598044318716006e+02
1.209790349683923960e+00 4.334564225689400701e+02
1.209890373689685550e+00 4.331528946715454254e+02
1.209990397695446696e+00 4.328492237399118494e+02
1.210090421701208285e+00 4.325454127811935905e+02
1.210190445706969653e+00 4.322414648094273844e+02
1.210290469712731021e+00 4.319373828454785667e+02
1.210390493718492388e+00 4.316331699169912781e+02
1.210490517724253756e+00 4.313288290583388402e+02
1.210590541730015124e+00 4.310243633105689582e+02
1.210690565735776492e+00 4.307197757213544946e+02
1.210790589741537859e+00 4.304150693449405480e+02
1.210890613747299227e+00 4.301102472420914182e+02
1.210990637753060595e+00 4.298053124800402429e+02
1.211090661758822185e+00 4.295002681324321543e+02
1.211190685764583552e+00 4.291951172792755642e+02
1.211290709770344920e+00 4.288898630068858324e+02
1.211390733776106288e+00 4.285845084078325726e+02
1.211490757781867655e+00 4.282790565808862766e+02
1.211590781787629023e+00 4.279735106309627781e+02
1.211690805793390391e+00 4.276678736690699338e+02
1.211790829799151759e+00 4.273621488122525989e+02
1.211890853804913126e+00 4.270563391835385119e+02
1.211990877810674494e+00 4.267504479118804852e+02
1.212090901816435862e+00 4.264444781321053597e+02
1.212190925822197229e+00 4.261384329848531252e+02
1.212290949827958597e+00 4.258323156165255341e+02
1.212390973833719965e+00 4.255261291792272687e+02
1.212490997839481333e+00 4.252198768307106889e+02
1.212591021845242700e+00 4.249135617343181366e+02
1.212691045851004068e+00 4.246071870589266837e+02
1.212791069856765436e+00 4.243007559788886738e+02
1.212891093862526803e+00 4.239942716739764137e+02
1.212991117868288393e+00 4.236877373293234541e+02
1.213091141874049761e+00 4.233811561353672914e+02
1.213191165879811129e+00 4.230745312877904780e+02
1.213291189885572496e+00 4.227678659874626987e+02
1.213391213891333864e+00 4.224611634403823928e+02
1.213491237897095232e+00 4.221544268576187164e+02
1.213591261902856600e+00 4.218476594552491861e+02
1.213691285908617967e+00 4.215408644543052787e+02
1.213791309914379335e+00 4.212340450807081425e+02
1.213891333920140925e+00 4.209272045652134580e+02
1.213991357925902292e+00 4.206203461433468647e+02
1.214091381931663660e+00 4.203134730553476857e+02
1.214191405937425028e+00 4.200065885461057746e+02
1.214291429943186396e+00 4.196996958651016598e+02
1.214391453948947763e+00 4.193927982663475404e+02
1.214491477954709131e+00 4.190858990083233380e+02
1.214591501960470499e+00 4.187790013539166694e+02
1.214691525966231866e+00 4.184721085703623089e+02
1.214791549971993234e+00 4.181652239291783530e+02
1.214891573977754602e+00 4.178583507061056252e+02
1.214991597983515970e+00 4.175514921810462283e+02
1.215091621989277337e+00 4.172446516379988566e+02
1.215191645995038705e+00 4.169378323649985987e+02
1.215291670000800073e+00 4.166310376540528750e+02
1.215391694006561440e+00 4.163242708010783986e+02
1.215491718012322808e+00 4.160175351058387037e+02
1.215591742018084176e+00 4.157108338718800837e+02
1.215691766023845766e+00 4.154041704064680403e+02
1.215791790029607133e+00 4.150975480205239592e+02
1.215891814035368501e+00 4.147909700285609347e+02
1.215991838041129869e+00 4.144844397486185130e+02
1.216091862046891237e+00 4.141779605022005057e+02
1.216191886052652604e+00 4.138715356142079145e+02
1.216291910058413972e+00 4.135651684128757779e+02
1.216391934064175340e+00 4.132588622297078018e+02
1.216491958069936707e+00 4.129526203994108755e+02
1.216591982075698075e+00 4.126464462598293608e+02
1.216692006081459443e+00 4.123403431518821662e+02
1.216792030087221033e+00 4.120343144194924889e+02
1.216892054092982178e+00 4.117283634095251728e+02
1.216992078098743768e+00 4.114224934717207134e+02
1.217092102104504914e+00 4.111167079586269324e+02
1.217192126110266504e+00 4.108110102255339484e+02
1.217292150116027649e+00 4.105054036304077272e+02
1.217392174121789239e+00 4.101998915338220399e+02
1.217492198127550385e+00 4.098944772988928094e+02
1.217592222133311974e+00 4.095891642912101247e+02
1.217692246139073342e+00 4.092839558787712804e+02
1.217792270144834710e+00 4.089788554319126774e+02
1.217892294150596078e+00 4.086738663232433737e+02
1.217992318156357445e+00 4.083689919275760758e+02
1.218092342162118813e+00 4.080642356218596660e+02
1.218192366167880181e+00 4.077596007851112176e+02
1.218292390173641548e+00 4.074550907983472143e+02
1.218392414179402916e+00 4.071507090445154518e+02
1.218492438185164506e+00 4.068464589084256886e+02
1.218592462190925874e+00 4.065423437766829693e+02
1.218692486196687241e+00 4.062383670376148075e+02
1.218792510202448609e+00 4.059345320812073510e+02
1.218892534208209977e+00 4.056308422990309737e+02
1.218992558213971344e+00 4.053273010841745645e+02
1.219092582219732712e+00 4.050239118311736206e+02
1.219192606225494080e+00 4.047206779359423763e+02
1.219292630231255448e+00 4.044176027957024644e+02
1.219392654237016815e+00 4.041146898089144202e+02
1.219492678242778183e+00 4.038119423752074226e+02
1.219592702248539551e+00 4.035093638953068194e+02
1.219692726254300918e+00 4.032069577709664827e+02
1.219792750260062286e+00 4.029047274048978124e+02
1.219892774265823654e+00 4.026026762006972604e+02
1.219992798271585022e+00 4.023008075627785729e+02
1.220092822277346389e+00 4.019991248962987811e+02
1.220192846283107757e+00 4.016976316070895905e+02
1.220292870288869125e+00 4.013963311015846784e+02
1.220392894294630715e+00 4.010952267867502883e+02
1.220492918300392082e+00 4.007943220700110487e+02
1.220592942306153450e+00 4.004936203591811932e+02
1.220692966311914818e+00 4.001931250623920278e+02
1.220792990317676185e+00 3.998928395880196831e+02
1.220893014323437553e+00 3.995927673446134349e+02
1.220993038329198921e+00 3.992929117408243087e+02
1.221093062334960289e+00 3.989932761853330589e+02
1.221193086340721656e+00 3.986938640867767845e+02
1.221293110346483246e+00 3.983946788536789541e+02
1.221393134352244614e+00 3.980957238943738048e+02
1.221493158358005982e+00 3.977970026169377320e+02
1.221593182363767349e+00 3.974985184291133464e+02
1.221693206369528717e+00 3.972002747382397274e+02
1.221793230375290085e+00 3.969022749511763095e+02
1.221893254381051452e+00 3.966045224742326809e+02
1.221993278386812820e+00 3.963070207130951985e+02
1.222093302392574188e+00 3.960097730727543990e+02
1.222193326398335556e+00 3.957127829574296811e+02
1.222293350404096923e+00 3.954160537704983085e+02
1.222393374409858291e+00 3.951195889144213993e+02
1.222493398415619659e+00 3.948233917906704846e+02
1.222593422421381026e+00 3.945274657996543510e+02
1.222693446427142394e+00 3.942318143406462809e+02
1.222793470432903762e+00 3.939364408117081098e+02
1.222893494438665130e+00 3.936413486096186034e+02
1.222993518444426497e+00 3.933465411297997889e+02
1.223093542450188087e+00 3.930520217662418077e+02
1.223193566455949455e+00 3.927577939114308379e+02
1.223293590461710822e+00 3.924638609562730949e+02
1.223393614467472190e+00 3.921702262900229243e+02
1.223493638473233558e+00 3.918768933002070298e+02
1.223593662478994926e+00 3.915838653725519407e+02
1.223693686484756293e+00 3.912911458909088651e+02
1.223793710490517661e+00 3.909987382371787703e+02
1.223893734496279029e+00 3.907066457912411011e+02
1.223993758502040397e+00 3.904148719308753357e+02
1.224093782507801986e+00 3.901234200316901024e+02
1.224193806513563132e+00 3.898322934670471795e+02
1.224293830519324722e+00 3.895414956079870308e+02
1.224393854525085867e+00 3.892510298231554771e+02
1.224493878530847457e+00 3.889608994787271854e+02
1.224593902536608603e+00 3.886711079383331366e+02
1.224693926542370193e+00 3.883816585629847395e+02
1.224793950548131338e+00 3.880925547110001617e+02
1.224893974553892928e+00 3.878037997379291255e+02
1.224993998559654296e+00 3.875153969964783869e+02
1.225094022565415663e+00 3.872273498364365878e+02
1.225194046571177031e+00 3.869396616046002464e+02
1.225294070576938399e+00 3.866523356446988373e+02
1.225394094582699767e+00 3.863653752973193605e+02
1.225494118588461134e+00 3.860787838998329562e+02
1.225594142594222502e+00 3.857925647863186214e+02
1.225694166599983870e+00 3.855067212874893130e+02
1.225794190605745237e+00 3.852212567306170854e+02
1.225894214611506827e+00 3.849361744394582274e+02
1.225994238617268195e+00 3.846514777341772628e+02
1.226094262623029563e+00 3.843671699312745886e+02
1.226194286628790930e+00 3.840832543435093385e+02
1.226294310634552298e+00 3.837997342798257137e+02
1.226394334640313666e+00 3.835166130452780635e+02
1.226494358646075034e+00 3.832338939409553404e+02
1.226594382651836401e+00 3.829515802639074309e+02
1.226694406657597769e+00 3.826696753070694967e+02
1.226794430663359137e+00 3.823881823591870557e+02
1.226894454669120504e+00 3.821071047047436764e+02
1.226994478674881872e+00 3.818264456238808862e+02
1.227094502680643240e+00 3.815462083923290493e+02
1.227194526686404608e+00 3.812663962813301168e+02
1.227294550692165975e+00 3.809870125575621387e+02
1.227394574697927343e+00 3.807080604830655375e+02
1.227494598703688711e+00 3.804295433151704628e+02
1.227594622709450078e+00 3.801514643064182906e+02
1.227694646715211446e+00 3.798738267044893746e+02
1.227794670720973036e+00 3.795966337521280707e+02
1.227894694726734404e+00 3.793198886870690103e+02
1.227994718732495771e+00 3.790435947419609306e+02
1.228094742738257139e+00 3.787677551442936306e+02
1.228194766744018507e+00 3.784923731163233924e+02
1.228294790749779875e+00 3.782174518749973231e+02
1.228394814755541242e+00 3.779429946318826410e+02
1.228494838761302610e+00 3.776690045930867541e+02
1.228594862767063978e+00 3.773954849591876268e+02
1.228694886772825567e+00 3.771224389251590878e+02
1.228794910778586935e+00 3.768498696802947165e+02
1.228894934784348303e+00 3.765777804081355953e+02
1.228994958790109671e+00 3.763061742863958443e+02
1.229094982795871038e+00 3.760350544868875318e+02
1.229195006801632406e+00 3.757644241754499603e+02
1.229295030807393774e+00 3.754942865118725877e+02
1.229395054813155141e+00 3.752246446498229488e+02
1.229495078818916509e+00 3.749555017367723622e+02
1.229595102824677877e+00 3.746868609139231125e+02
1.229695126830439245e+00 3.744187253161350100e+02
1.229795150836200612e+00 3.741510980718506971e+02
1.229895174841961980e+00 3.738839823030244816e+02
1.229995198847723348e+00 3.736173811250470749e+02
1.230095222853484715e+00 3.733512976466729469e+02
1.230195246859246083e+00 3.730857349699484189e+02
1.230295270865007451e+00 3.728206961901378236e+02
1.230395294870768819e+00 3.725561843956501775e+02
1.230495318876530408e+00 3.722922026679672172e+02
1.230595342882291776e+00 3.720287540815706393e+02
1.230695366888053144e+00 3.717658417038684320e+02
1.230795390893814512e+00 3.715034685951246161e+02
1.230895414899575879e+00 3.712416378083852919e+02
1.230995438905337247e+00 3.709803523894053114e+02
1.231095462911098615e+00 3.707196153765787017e+02
1.231195486916859982e+00 3.704594298008652800e+02
1.231295510922621350e+00 3.701997986857190313e+02
1.231395534928382718e+00 3.699407250470150643e+02
1.231495558934144086e+00 3.696822118929794101e+02
1.231595582939905675e+00 3.694242622241175695e+02
1.231695606945666821e+00 3.691668790331413561e+02
1.231795630951428411e+00 3.689100653048997174e+02
1.231895654957189556e+00 3.686538240163057480e+02
1.231995678962951146e+00 3.683981581362669431e+02
1.232095702968712292e+00 3.681430706256127223e+02
1.232195726974473882e+00 3.678885644370251384e+02
1.232295750980235027e+00 3.676346425149678225e+02
1.232395774985996617e+00 3.673813077956147026e+02
1.232495798991757985e+00 3.671285632067798588e+02
1.232595822997519353e+00 3.668764116678486289e+02
1.232695847003280720e+00 3.666248560897052471e+02
1.232795871009042088e+00 3.663738993746649157e+02
1.232895895014803456e+00 3.661235444164025239e+02
1.232995919020564823e+00 3.658737940998834688e+02
1.233095943026326191e+00 3.656246513012944774e+02
1.233195967032087559e+00 3.653761188879741439e+02
1.233295991037849149e+00 3.651281997183431258e+02
1.233396015043610516e+00 3.648808966418355340e+02
1.233496039049371884e+00 3.646342124988310616e+02
1.233596063055133252e+00 3.643881501205839299e+02
1.233696087060894619e+00 3.641427123291562111e+02
1.233796111066655987e+00 3.638979019373494452e+02
1.233896135072417355e+00 3.636537217486349505e+02
1.233996159078178723e+00 3.634101745570880553e+02
1.234096183083940090e+00 3.631672631473173283e+02
1.234196207089701458e+00 3.629249902943996631e+02
1.234296231095462826e+00 3.626833587638111567e+02
1.234396255101224193e+00 3.624423713113607732e+02
1.234496279106985561e+00 3.622020306831212224e+02
1.234596303112746929e+00 3.619623396153659201e+02
1.234696327118508297e+00 3.617233008344971950e+02
1.234796351124269664e+00 3.614849170569841021e+02
1.234896375130031032e+00 3.612471909892933581e+02
1.234996399135792400e+00 3.610101253278243121e+02
1.235096423141553768e+00 3.607737227588427231e+02
1.235196447147315357e+00 3.605379859584145947e+02
1.235296471153076725e+00 3.603029175923412595e+02
1.235396495158838093e+00 3.600685203160942365e+02
1.235496519164599460e+00 3.598347967747481562e+02
1.235596543170360828e+00 3.596017496029176073e+02
1.235696567176122196e+00 3.593693814246928468e+02
1.235796591181883564e+00 3.591376948535733504e+02
1.235896615187644931e+00 3.589066924924041473e+02
1.235996639193406299e+00 3.586763769333133496e+02
1.236096663199167889e+00 3.584467507576450203e+02
1.236196687204929257e+00 3.582178165358986917e+02
1.236296711210690624e+00 3.579895768276646777e+02
1.236396735216451992e+00 3.577620341815602956e+02
1.236496759222213360e+00 3.575351911351661442e+02
1.236596783227974727e+00 3.573090502149671011e+02
1.236696807233736095e+00 3.570836139362846211e+02
1.236796831239497463e+00 3.568588848032192118e+02
1.236896855245258831e+00 3.566348653085842670e+02
1.236996879251020198e+00 3.564115579338471207e+02
1.237096903256781566e+00 3.561889651490663482e+02
1.237196927262542934e+00 3.559670894128298073e+02
1.237296951268304301e+00 3.557459331721953504e+02
1.237396975274065669e+00 3.555254988626275576e+02
1.237496999279827037e+00 3.553057889079391884e+02
1.237597023285588405e+00 3.550868057202298473e+02
1.237697047291349772e+00 3.548685516998257867e+02
1.237797071297111140e+00 3.546510292352204488e+02
1.237897095302872730e+00 3.544342407030142112e+02
1.237997119308634097e+00 3.542181884678559527e+02
1.238097143314395465e+00 3.540028748823838782e+02
1.238197167320156833e+00 3.537883022871653225e+02
1.238297191325918201e+00 3.535744730106398492e+02
1.238397215331679568e+00 3.533613893690599070e+02
1.238497239337440936e+00 3.531490536664337014e+02
1.238597263343202304e+00 3.529374681944653389e+02
1.238697287348963672e+00 3.527266352325012235e+02
1.238797311354725039e+00 3.525165570474687229e+02
1.238897335360486629e+00 3.523072358938214279e+02
1.238997359366247775e+00 3.520986740134820820e+02
1.239097383372009364e+00 3.518908736357860789e+02
1.239197407377770510e+00 3.516838369774256989e+02
1.239297431383532100e+00 3.514775662423936637e+02
1.239397455389293246e+00 3.512720636219278276e+02
1.239497479395054835e+00 3.510673312944570625e+02
1.239597503400815981e+00 3.508633714255435052e+02
1.239697527406577571e+00 3.506601861678308296e+02
1.239797551412338938e+00 3.504577776609893931e+02
1.239897575418100306e+00 3.502561480316595066e+02
1.239997599423861674e+00 3.500552993934009578e+02
