1.600052011442517408e+00 5.413695125788744917e+02
1.600152033447358235e+00 5.413461896688467050e+02
1.600252055452199285e+00 5.413229967826234770e+02
1.600352077457040334e+00 5.412999338773686304e+02
1.600452099461881605e+00 5.412770009087319067e+02
1.600552121466722655e+00 5.412541978308630632e+02
1.600652143471563704e+00 5.412315245964210817e+02
1.600752165476404754e+00 5.412089811565855371e+02
1.600852187481245581e+00 5.411865674610667156e+02
1.600952209486086630e+00 5.411642834581173247e+02
1.601052231490927902e+00 5.411421290945419287e+02
1.601152253495768951e+00 5.411201043157091135e+02
1.601252275500610001e+00 5.410982090655601269e+02
1.601352297505451272e+00 5.410764432866184279e+02
1.601452319510292321e+00 5.410548069200036707e+02
1.601552341515133149e+00 5.410332999054350012e+02
1.601652363519974198e+00 5.410119221812474279e+02
1.601752385524815248e+00 5.409906736843978479e+02
1.601852407529656297e+00 5.409695543504753914e+02
1.601952429534497568e+00 5.409485641137109724e+02
1.602052451539338618e+00 5.409277029069868377e+02
1.602152473544179667e+00 5.409069706618445252e+02
1.602252495549020495e+00 5.408863673084958918e+02
1.602352517553861766e+00 5.408658927758294794e+02
1.602452539558702815e+00 5.408455469914231344e+02
1.602552561563543865e+00 5.408253298815467360e+02
1.602652583568384914e+00 5.408052413711773170e+02
1.602752605573225964e+00 5.407852813840028148e+02
1.602852627578067235e+00 5.407654498424327585e+02
1.602952649582908062e+00 5.407457466676042941e+02
1.603052671587749112e+00 5.407261717793917342e+02
1.603152693592590161e+00 5.407067250964150844e+02
1.603252715597431433e+00 5.406874065360453869e+02
1.603352737602272482e+00 5.406682160144144973e+02
1.603452759607113531e+00 5.406491534464208826e+02
1.603552781611954581e+00 5.406302187457386026e+02
1.603652803616795408e+00 5.406114118248226532e+02
1.603752825621636457e+00 5.405927325949187434e+02
1.603852847626477729e+00 5.405741809660655690e+02
1.603952869631318778e+00 5.405557568471074319e+02
1.604052891636159828e+00 5.405374601456954906e+02
1.604152913641001099e+00 5.405192907682983332e+02
1.604252935645842149e+00 5.405012486202058426e+02
1.604352957650682976e+00 5.404833336055362452e+02
1.604452979655524025e+00 5.404655456272421361e+02
1.604553001660365075e+00 5.404478845871173007e+02
1.604653023665206124e+00 5.404303503857996702e+02
1.604753045670047396e+00 5.404129429227810988e+02
1.604853067674888445e+00 5.403956620964096373e+02
1.604953089679729494e+00 5.403785078038960137e+02
1.605053111684570322e+00 5.403614799413190894e+02
1.605153133689411593e+00 5.403445784036304076e+02
1.605253155694252643e+00 5.403278030846593083e+02
1.605353177699093692e+00 5.403111538771192954e+02
1.605453199703934741e+00 5.402946306726089460e+02
1.605553221708775791e+00 5.402782333616199821e+02
1.605653243713617062e+00 5.402619618335409086e+02
1.605753265718457889e+00 5.402458159766600829e+02
1.605853287723298939e+00 5.402297956781702624e+02
1.605953309728139988e+00 5.402139008241721285e+02
1.606053331732981260e+00 5.401981312996804263e+02
1.606153353737822309e+00 5.401824869886244187e+02
1.606253375742663358e+00 5.401669677738536848e+02
1.606353397747504408e+00 5.401515735371400524e+02
1.606453419752345235e+00 5.401363041591812362e+02
1.606553441757186285e+00 5.401211595196043618e+02
1.606653463762027556e+00 5.401061394969686944e+02
1.606753485766868605e+00 5.400912439687679125e+02
1.606853507771709655e+00 5.400764728114338595e+02
1.606953529776550926e+00 5.400618259003373396e+02
1.607053551781391976e+00 5.400473031097909598e+02
1.607153573786232803e+00 5.400329043130533364e+02
1.607253595791073852e+00 5.400186293823282995e+02
1.607353617795914902e+00 5.400044781887679619e+02
1.607453639800755951e+00 5.399904506024756756e+02
1.607553661805597223e+00 5.399765464925047809e+02
1.607653683810438272e+00 5.399627657268625853e+02
1.607753705815279321e+00 5.399491081725113872e+02
1.607853727820120149e+00 5.399355736953669975e+02
1.607953749824961420e+00 5.399221621603044241e+02
1.608053771829802470e+00 5.399088734311543476e+02
1.608153793834643519e+00 5.398957073707055088e+02
1.608253815839484568e+00 5.398826638407058454e+02
1.608353837844325618e+00 5.398697427018622648e+02
1.608453859849166889e+00 5.398569438138401893e+02
1.608553881854007717e+00 5.398442670352661708e+02
1.608653903858848766e+00 5.398317122237242529e+02
1.608753925863689815e+00 5.398192792357588132e+02
1.608853947868531087e+00 5.398069679268728578e+02
1.608953969873372136e+00 5.397947781515272254e+02
1.609053991878213186e+00 5.397827097631411561e+02
1.609154013883054235e+00 5.397707626140906996e+02
1.609254035887895062e+00 5.397589365557070096e+02
1.609354057892736112e+00 5.397472314382778222e+02
1.609454079897577383e+00 5.397356471110429084e+02
1.609554101902418433e+00 5.397241834221956651e+02
1.609654123907259482e+00 5.397128402188791370e+02
1.609754145912100753e+00 5.397016173471868115e+02
1.609854167916941803e+00 5.396905146521576171e+02
1.609954189921782630e+00 5.396795319777780833e+02
1.610054211926623680e+00 5.396686691669765423e+02
1.610154233931464729e+00 5.396579260616221063e+02
1.610254255936305778e+00 5.396473025025233028e+02
1.610354277941147050e+00 5.396367983294237547e+02
1.610454299945988099e+00 5.396264133810011572e+02
1.610554321950829149e+00 5.396161474948632986e+02
1.610654343955669976e+00 5.396060005075449908e+02
1.610754365960511247e+00 5.395959722545062505e+02
1.610854387965352297e+00 5.395860625701272966e+02
1.610954409970193346e+00 5.395762712877060494e+02
1.611054431975034396e+00 5.395665982394543789e+02
1.611154453979875445e+00 5.395570432564946941e+02
1.611254475984716716e+00 5.395476061688552818e+02
1.611354497989557544e+00 5.395382868054673509e+02
1.611454519994398593e+00 5.395290849941595752e+02
1.611554541999239643e+00 5.395200005616550243e+02
1.611654564004080914e+00 5.395110333335658197e+02
1.611754586008921963e+00 5.395021831343887015e+02
1.611854608013763013e+00 5.394934497875019588e+02
1.611954630018604062e+00 5.394848331151569027e+02
1.612054652023444890e+00 5.394763329384760482e+02
1.612154674028285939e+00 5.394679490774470878e+02
1.612254696033127210e+00 5.394596813509160711e+02
1.612354718037968260e+00 5.394515295765854717e+02
1.612454740042809309e+00 5.394434935710044101e+02
1.612554762047650581e+00 5.394355731495656983e+02
1.612654784052491408e+00 5.394277681264989042e+02
1.612754806057332457e+00 5.394200783148640994e+02
1.612854828062173507e+00 5.394125035265471979e+02
1.612954850067014556e+00 5.394050435722514294e+02
1.613054872071855605e+00 5.393976982614925646e+02
1.613154894076696877e+00 5.393904674025920940e+02
1.613254916081537926e+00 5.393833508026698382e+02
1.613354938086378754e+00 5.393763482676376952e+02
1.613454960091219803e+00 5.393694596021919097e+02
1.613554982096061075e+00 5.393626846098072747e+02
1.613655004100902124e+00 5.393560230927282646e+02
1.613755026105743173e+00 5.393494748519627819e+02
1.613855048110584223e+00 5.393430396872746542e+02
1.613955070115425272e+00 5.393367173971743114e+02
1.614055092120266099e+00 5.393305077789134430e+02
1.614155114125107371e+00 5.393244106284751069e+02
1.614255136129948420e+00 5.393184257405664539e+02
1.614355158134789470e+00 5.393125529086105416e+02
1.614455180139630741e+00 5.393067919247378086e+02
1.614555202144471791e+00 5.393011425797776610e+02
1.614655224149312840e+00 5.392956046632496054e+02
1.614755246154153667e+00 5.392901779633543811e+02
1.614855268158994717e+00 5.392848622669667975e+02
1.614955290163835766e+00 5.392796573596241387e+02
1.615055312168677037e+00 5.392745630255184324e+02
1.615155334173518087e+00 5.392695790474871274e+02
1.615255356178359136e+00 5.392647052070036580e+02
1.615355378183200408e+00 5.392599412841681215e+02
1.615455400188041235e+00 5.392552870576965915e+02
1.615555422192882284e+00 5.392507423049125919e+02
1.615655444197723334e+00 5.392463068017376600e+02
1.615755466202564383e+00 5.392419803226781596e+02
1.615855488207405433e+00 5.392377626408194828e+02
1.615955510212246704e+00 5.392336535278130896e+02
1.616055532217087753e+00 5.392296527538660484e+02
1.616155554221928581e+00 5.392257600877314871e+02
1.616255576226769630e+00 5.392219752966980195e+02
1.616355598231610902e+00 5.392182981465784906e+02
1.616455620236451951e+00 5.392147284016991762e+02
1.616555642241293000e+00 5.392112658248887556e+02
1.616655664246134050e+00 5.392079101774671699e+02
1.616755686250975099e+00 5.392046612192350494e+02
1.616855708255815927e+00 5.392015187084614354e+02
1.616955730260657198e+00 5.391984824018721838e+02
1.617055752265498247e+00 5.391955520546401885e+02
1.617155774270339297e+00 5.391927274203712841e+02
1.617255796275180568e+00 5.391900082510936727e+02
1.617355818280021618e+00 5.391873942972471241e+02
1.617455840284862667e+00 5.391848853076677415e+02
1.617555862289703494e+00 5.391824810295797761e+02
1.617655884294544544e+00 5.391801812085798247e+02
1.617755906299385593e+00 5.391779855886268251e+02
1.617855928304226865e+00 5.391758939120289824e+02
1.617955950309067914e+00 5.391739059194301262e+02
1.618055972313908963e+00 5.391720213497984560e+02
1.618155994318750235e+00 5.391702399404141488e+02
1.618256016323591062e+00 5.391685614268529889e+02
1.618356038328432112e+00 5.391669855429779545e+02
1.618456060333273161e+00 5.391655120209238703e+02
1.618556082338114210e+00 5.391641405910836511e+02
1.618656104342955260e+00 5.391628709820952281e+02
1.618756126347796531e+00 5.391617029208301801e+02
1.618856148352637581e+00 5.391606361323774763e+02
1.618956170357478408e+00 5.391596703400311981e+02
1.619056192362319457e+00 5.391588052652770102e+02
1.619156214367160729e+00 5.391580406277778366e+02
1.619256236372001778e+00 5.391573761453595353e+02
1.619356258376842828e+00 5.391568115339975975e+02
1.619456280381683877e+00 5.391563465078040736e+02
1.619556302386524926e+00 5.391559807790114291e+02
1.619656324391365754e+00 5.391557140579586758e+02
1.619756346396207025e+00 5.391555460530782966e+02
1.619856368401048075e+00 5.391554764708797620e+02
1.619956390405889124e+00 5.391555050159372513e+02
1.620056412410730395e+00 5.391556313908731681e+02
1.620156434415571445e+00 5.391558552963443844e+02
1.620256456420412494e+00 5.391561764310270064e+02
1.620356478425253322e+00 5.391565944916018225e+02
1.620456500430094371e+00 5.391571091727392968e+02
1.620556522434935420e+00 5.391577201670831982e+02
1.620656544439776692e+00 5.391584271652382085e+02
1.620756566444617741e+00 5.391592298557523009e+02
1.620856588449458791e+00 5.391601279251016194e+02
1.620956610454300062e+00 5.391611210576766098e+02
1.621056632459140889e+00 5.391622089357653067e+02
1.621156654463981939e+00 5.391633912395377592e+02
1.621256676468822988e+00 5.391646676470313650e+02
1.621356698473664038e+00 5.391660378341341584e+02
1.621456720478505087e+00 5.391675014745694625e+02
1.621556742483346358e+00 5.391690582398800871e+02
1.621656764488187408e+00 5.391707077994124120e+02
1.621756786493028235e+00 5.391724498203002440e+02
1.621856808497869284e+00 5.391742839674486731e+02
1.621956830502710556e+00 5.391762099035188385e+02
1.622056852507551605e+00 5.391782272889109890e+02
1.622156874512392655e+00 5.391803357817474307e+02
1.622256896517233704e+00 5.391825350378583153e+02
1.622356918522074753e+00 5.391848247107625411e+02
1.622456940526915581e+00 5.391872044516545657e+02
1.622556962531756852e+00 5.391896739093848510e+02
1.622656984536597902e+00 5.391922327304450846e+02
1.622757006541438951e+00 5.391948805589513540e+02
1.622857028546280223e+00 5.391976170366266388e+02
1.622957050551121272e+00 5.392004418027850079e+02
1.623057072555962321e+00 5.392033544943143397e+02
1.623157094560803149e+00 5.392063547456597234e+02
1.623257116565644198e+00 5.392094421888068609e+02
1.623357138570485247e+00 5.392126164532636494e+02
1.623457160575326519e+00 5.392158771660447201e+02
1.623557182580167568e+00 5.392192239516548398e+02
1.623657204585008618e+00 5.392226564320698117e+02
1.623757226589849889e+00 5.392261742267203317e+02
1.623857248594690716e+00 5.392297769524760724e+02
1.623957270599531766e+00 5.392334642236260152e+02
1.624057292604372815e+00 5.392372356518636707e+02
1.624157314609213865e+00 5.392410908462671841e+02
1.624257336614054914e+00 5.392450294132847830e+02
1.624357358618896185e+00 5.392490509567148820e+02
1.624457380623737235e+00 5.392531550776902805e+02
1.624557402628578062e+00 5.392573413746602000e+02
1.624657424633419112e+00 5.392616094433726630e+02
1.624757446638260383e+00 5.392659588768565300e+02
1.624857468643101432e+00 5.392703892654054698e+02
1.624957490647942482e+00 5.392749001965580646e+02
1.625057512652783531e+00 5.392794912550829167e+02
1.625157534657624581e+00 5.392841620229586397e+02
1.625257556662465408e+00 5.392889120793572602e+02
1.625357578667306679e+00 5.392937410006260279e+02
1.625457600672147729e+00 5.392986483602716135e+02
1.625557622676988778e+00 5.393036337289378253e+02
1.625657644681830050e+00 5.393086966743935591e+02
1.625757666686671099e+00 5.393138367615106290e+02
1.625857688691512148e+00 5.393190535522481923e+02
1.625957710696352976e+00 5.393243466056337638e+02
1.626057732701194025e+00 5.393297154777459355e+02
1.626157754706035075e+00 5.393351597216975506e+02
1.626257776710876346e+00 5.393406788876150131e+02
1.626357798715717395e+00 5.393462725226224848e+02
1.626457820720558445e+00 5.393519401708246050e+02
1.626557842725399716e+00 5.393576813732860273e+02
1.626657864730240544e+00 5.393634956680173218e+02
1.626757886735081593e+00 5.393693825899526928e+02
1.626857908739922642e+00 5.393753416709345174e+02
1.626957930744763692e+00 5.393813724396953830e+02
1.627057952749604741e+00 5.393874744218393289e+02
1.627157974754446013e+00 5.393936471398259300e+02
1.627257996759287062e+00 5.393998901129480146e+02
1.627358018764127889e+00 5.394062028573193857e+02
1.627458040768968939e+00 5.394125848858518566e+02
1.627558062773810210e+00 5.394190357082406990e+02
1.627658084778651260e+00 5.394255548309448614e+02
1.627758106783492309e+00 5.394321417571696884e+02
1.627858128788333358e+00 5.394387959868491862e+02
1.627958150793174408e+00 5.394455170166282869e+02
1.628058172798015235e+00 5.394523043398437494e+02
1.628158194802856507e+00 5.394591574465082431e+02
1.628258216807697556e+00 5.394660758232901117e+02
1.628358238812538605e+00 5.394730589534981391e+02
1.628458260817379877e+00 5.394801063170607449e+02
1.628558282822220926e+00 5.394872173905109776e+02
1.628658304827061976e+00 5.394943916469677561e+02
1.628758326831902803e+00 5.395016285561167706e+02
1.628858348836743852e+00 5.395089275841946801e+02
1.628958370841584902e+00 5.395162881939710360e+02
1.629058392846426173e+00 5.395237098447282733e+02
1.629158414851267223e+00 5.395311919922479547e+02
1.629258436856108272e+00 5.395387340887893970e+02
1.629358458860949543e+00 5.395463355830748924e+02
1.629458480865790371e+00 5.395539959202701539e+02
1.629558502870631420e+00 5.395617145419680583e+02
1.629658524875472470e+00 5.395694908861702288e+02
1.629758546880313519e+00 5.395773243872700959e+02
1.629858568885154568e+00 5.395852144760355031e+02
1.629958590889995840e+00 5.395931605795906307e+02
1.630058612894836667e+00 5.396011621213996250e+02
1.630158634899677716e+00 5.396092185212482946e+02
1.630258656904518766e+00 5.396173291952273985e+02
1.630358678909360037e+00 5.396254935557155932e+02
1.630458700914201087e+00 5.396337110113614699e+02
1.630558722919042136e+00 5.396419809670674113e+02
1.630658744923883186e+00 5.396503028239711739e+02
1.630758766928724013e+00 5.396586759794304271e+02
1.630858788933565062e+00 5.396670998270046766e+02
1.630958810938406334e+00 5.396755737564383253e+02
1.631058832943247383e+00 5.396840971536446432e+02
1.631158854948088432e+00 5.396926694006873504e+02
1.631258876952929704e+00 5.397012898757654966e+02
1.631358898957770753e+00 5.397099579531969766e+02
1.631458920962611581e+00 5.397186730033990898e+02
1.631558942967452630e+00 5.397274343928746703e+02
1.631658964972293679e+00 5.397362414841962845e+02
1.631758986977134729e+00 5.397450936359855405e+02
1.631859008981976000e+00 5.397539902029009227e+02
1.631959030986817050e+00 5.397629305356200575e+02
1.632059052991658099e+00 5.397719139808218642e+02
1.632159074996498926e+00 5.397809398811732535e+02
1.632259097001340198e+00 5.397900075753110514e+02
1.632359119006181247e+00 5.397991163978259692e+02
1.632459141011022297e+00 5.398082656792473699e+02
1.632559163015863346e+00 5.398174547460280337e+02
1.632659185020704395e+00 5.398266829205258546e+02
1.632759207025545667e+00 5.398359495209897432e+02
1.632859229030386494e+00 5.398452538615450749e+02
1.632959251035227544e+00 5.398545952521757272e+02
1.633059273040068593e+00 5.398639729987104374e+02
1.633159295044909864e+00 5.398733864028062044e+02
1.633259317049750914e+00 5.398828347619337364e+02
1.633359339054591963e+00 5.398923173693611943e+02
1.633459361059433013e+00 5.399018335141417992e+02
1.633559383064273840e+00 5.399113824810938240e+02
1.633659405069114889e+00 5.399209635507907024e+02
1.633759427073956161e+00 5.399305759995429526e+02
1.633859449078797210e+00 5.399402190993848762e+02
1.633959471083638260e+00 5.399498921180595516e+02
1.634059493088479531e+00 5.399595943190034859e+02
1.634159515093320580e+00 5.399693249613330863e+02
1.634259537098161408e+00 5.399790832998307906e+02
1.634359559103002457e+00 5.399888685849280137e+02
1.634459581107843507e+00 5.399986800626951435e+02
1.634559603112684556e+00 5.400085169748236922e+02
1.634659625117525827e+00 5.400183785586145859e+02
1.634759647122366877e+00 5.400282640469624766e+02
1.634859669127207926e+00 5.400381726683448278e+02
1.634959691132048754e+00 5.400481036468049751e+02
1.635059713136890025e+00 5.400580562019413264e+02
1.635159735141731074e+00 5.400680295488915590e+02
1.635259757146572124e+00 5.400780228983214784e+02
1.635359779151413173e+00 5.400880354564106938e+02
1.635459801156254223e+00 5.400980664248395442e+02
1.635559823161095494e+00 5.401081150007760243e+02
1.635659845165936321e+00 5.401181803768641885e+02
1.635759867170777371e+00 5.401282617412092577e+02
1.635859889175618420e+00 5.401383582773670469e+02
1.635959911180459692e+00 5.401484691643313454e+02
1.636059933185300741e+00 5.401585935765195927e+02
1.636159955190141790e+00 5.401687306837628739e+02
1.636259977194982840e+00 5.401788796512928457e+02
1.636359999199823667e+00 5.401890396397301402e+02
1.636460021204664717e+00 5.401992098050724280e+02
1.636560043209505988e+00 5.402093892986820265e+02
1.636660065214347037e+00 5.402195772672753264e+02
1.636760087219188087e+00 5.402297728529117649e+02
1.636860109224029358e+00 5.402399751929804097e+02
1.636960131228870408e+00 5.402501834201914335e+02
1.637060153233711235e+00 5.402603966625632665e+02
1.637160175238552284e+00 5.402706140434122517e+02
1.637260197243393334e+00 5.402808346813430944e+02
1.637360219248234383e+00 5.402910576902356752e+02
1.637460241253075655e+00 5.403012821792372051e+02
1.637560263257916704e+00 5.403115072527506300e+02
1.637660285262757753e+00 5.403217320104247392e+02
1.637760307267598581e+00 5.403319555471443891e+02
1.637860329272439852e+00 5.403421769530193615e+02
1.637960351277280902e+00 5.403523953133773148e+02
1.638060373282121951e+00 5.403626097087526432e+02
1.638160395286963000e+00 5.403728192148756762e+02
1.638260417291804050e+00 5.403830229026661982e+02
1.638360439296645321e+00 5.403932198382224215e+02
1.638460461301486148e+00 5.404034090828134822e+02
1.638560483306327198e+00 5.404135896928692091e+02
1.638660505311168247e+00 5.404237607199727336e+02
1.638760527316009519e+00 5.404339212108517359e+02
1.638860549320850568e+00 5.404440702073686680e+02
1.638960571325691618e+00 5.404542067465163200e+02
1.639060593330532667e+00 5.404643298604059964e+02
1.639160615335373494e+00 5.404744385762611500e+02
1.639260637340214544e+00 5.404845319164110151e+02
1.639360659345055815e+00 5.404946088982815127e+02
1.639460681349896864e+00 5.405046685343882018e+02
1.639560703354737914e+00 5.405147098323295722e+02
1.639660725359579185e+00 5.405247317947812462e+02
1.639760747364420235e+00 5.405347334194866562e+02
1.639860769369261062e+00 5.405447136992523838e+02
1.639960791374102111e+00 5.405546716219411110e+02
1.640060813378943161e+00 5.405646061704655949e+02
1.640160835383784210e+00 5.405745163227832109e+02
1.640260857388625482e+00 5.405844010518885625e+02
1.640360879393466531e+00 5.405942593258095030e+02
1.640460901398307580e+00 5.406040901075990632e+02
1.640560923403148408e+00 5.406138923553336326e+02
1.640660945407989679e+00 5.406236650221057971e+02
1.640760967412830729e+00 5.406334070560193368e+02
1.640860989417671778e+00 5.406431174001839963e+02
1.640961011422512827e+00 5.406527949927130976e+02
1.641061033427353877e+00 5.406624387667170595e+02
1.641161055432195148e+00 5.406720476502998736e+02
1.641261077437035976e+00 5.406816205665552388e+02
1.641361099441877025e+00 5.406911564335625826e+02
1.641461121446718074e+00 5.407006541643831952e+02
1.641561143451559346e+00 5.407101126670578424e+02
1.641661165456400395e+00 5.407195308446017634e+02
1.641761187461241445e+00 5.407289075950037613e+02
1.641861209466082494e+00 5.407382418112213145e+02
1.641961231470923321e+00 5.407475323811795533e+02
1.642061253475764371e+00 5.407567781877676225e+02
1.642161275480605642e+00 5.407659781088377713e+02
1.642261297485446692e+00 5.407751310172014882e+02
1.642361319490287741e+00 5.407842357806292739e+02
1.642461341495129012e+00 5.407932912618489354e+02
1.642561363499970062e+00 5.408022963185425169e+02
1.642661385504810889e+00 5.408112498033477777e+02
1.642761407509651939e+00 5.408201505638534172e+02
1.642861429514492988e+00 5.408289974426039635e+02
1.642961451519334037e+00 5.408377892770917015e+02
1.643061473524175309e+00 5.408465248997636081e+02
1.643161495529016358e+00 5.408552031380157814e+02
1.643261517533857408e+00 5.408638228141970785e+02
1.643361539538698235e+00 5.408723827456065010e+02
1.643461561543539506e+00 5.408808817444959232e+02
1.643561583548380556e+00 5.408893186180700923e+02
1.643661605553221605e+00 5.408976921684869694e+02
1.643761627558062655e+00 5.409060011928588665e+02
1.643861649562903704e+00 5.409142444832542651e+02
1.643961671567744975e+00 5.409224208267000904e+02
1.644061693572585803e+00 5.409305290051811426e+02
1.644161715577426852e+00 5.409385677956450991e+02
1.644261737582267902e+00 5.409465359700016052e+02
1.644361759587109173e+00 5.409544322951281856e+02
1.644461781591950222e+00 5.409622555328685394e+02
1.644561803596791272e+00 5.409700044400401566e+02
1.644661825601632321e+00 5.409776777684339777e+02
1.644761847606473149e+00 5.409852742648195090e+02
1.644861869611314198e+00 5.409927926709463009e+02
1.644961891616155469e+00 5.410002317235512237e+02
1.645061913620996519e+00 5.410075901543590362e+02
1.645161935625837568e+00 5.410148666900886383e+02
1.645261957630678840e+00 5.410220600524568226e+02
1.645361979635519889e+00 5.410291689581828223e+02
1.645462001640360716e+00 5.410361921189933128e+02
1.645562023645201766e+00 5.410431282416294607e+02
1.645662045650042815e+00 5.410499760278473786e+02
1.645762067654883865e+00 5.410567341744302894e+02
1.645862089659725136e+00 5.410634013731889809e+02
1.645962111664566185e+00 5.410699763109704463e+02
1.646062133669407235e+00 5.410764576696648192e+02
1.646162155674248062e+00 5.410828441262094657e+02
1.646262177679089334e+00 5.410891343525985349e+02
1.646362199683930383e+00 5.410953270158867099e+02
1.646462221688771432e+00 5.411014207782006906e+02
1.646562243693612482e+00 5.411074142967431726e+02
1.646662265698453531e+00 5.411133062238025104e+02
1.646762287703294803e+00 5.411190952067595390e+02
1.646862309708135630e+00 5.411247798880967821e+02
1.646962331712976679e+00 5.411303589054068652e+02
1.647062353717817729e+00 5.411358308914000190e+02
1.647162375722659000e+00 5.411411944739141973e+02
1.647262397727500050e+00 5.411464482759248540e+02
1.647362419732341099e+00 5.411515909155529016e+02
1.647462441737182148e+00 5.411566210060746016e+02
1.647562463742022976e+00 5.411615371559330470e+02
1.647662485746864025e+00 5.411663379687470297e+02
1.647762507751705296e+00 5.411710220433207041e+02
1.647862529756546346e+00 5.411755879736564339e+02
1.647962551761387395e+00 5.411800343489639999e+02
1.648062573766228667e+00 5.411843597536727657e+02
1.648162595771069494e+00 5.411885627674428179e+02
1.648262617775910543e+00 5.411926419651753122e+02
1.648362639780751593e+00 5.411965959170269116e+02
1.648462661785592642e+00 5.412004231884202454e+02
1.648562683790433692e+00 5.412041223400563013e+02
1.648662705795274963e+00 5.412076919279281810e+02
1.648762727800116012e+00 5.412111305033330382e+02
1.648862749804956840e+00 5.412144366128853790e+02
1.648962771809797889e+00 5.412176087985311597e+02
1.649062793814639161e+00 5.412206455975606332e+02
1.649162815819480210e+00 5.412235455426225599e+02
1.649262837824321259e+00 5.412263071617383048e+02
1.649362859829162309e+00 5.412289289783175263e+02
1.649462881834003358e+00 5.412314095111704546e+02
1.649562903838844186e+00 5.412337472745255127e+02
1.649662925843685457e+00 5.412359407780412539e+02
1.649762947848526506e+00 5.412379885268259159e+02
1.649862969853367556e+00 5.412398890214494713e+02
1.649962991858208827e+00 5.412416407579620454e+02
1.650063013863049877e+00 5.412432422279077855e+02
1.650163035867890926e+00 5.412446919183446425e+02
1.650263057872731753e+00 5.412459883118579000e+02
1.650363079877572803e+00 5.412471298865784775e+02
1.650463101882413852e+00 5.412481151162003243e+02
1.650563123887255124e+00 5.412489424699987239e+02
1.650663145892096173e+00 5.412496104128452998e+02
1.650763167896937222e+00 5.412501174052291617e+02
1.650863189901778494e+00 5.412504619032738447e+02
1.650963211906619321e+00 5.412506423587551581e+02
1.651063233911460371e+00 5.412506572191215355e+02
1.651163255916301420e+00 5.412505049275112015e+02
1.651263277921142469e+00 5.412501839227734308e+02
1.651363299925983519e+00 5.412496926394866250e+02
1.651463321930824790e+00 5.412490295079795715e+02
1.651563343935665840e+00 5.412481929543499746e+02
1.651663365940506667e+00 5.412471814004853741e+02
1.651763387945347716e+00 5.412459932640846318e+02
1.651863409950188988e+00 5.412446269586780545e+02
1.651963431955030037e+00 5.412430808936472886e+02
1.652063453959871087e+00 5.412413534742499905e+02
1.652163475964712136e+00 5.412394431016379031e+02
1.652263497969553185e+00 5.412373481728808429e+02
1.652363519974394013e+00 5.412350670809884150e+02
1.652463541979235284e+00 5.412325982149325228e+02
1.652563563984076334e+00 5.412299399596688545e+02
1.652663585988917383e+00 5.412270906961628043e+02
1.652763607993758654e+00 5.412240488014089124e+02
1.652863629998599704e+00 5.412208126484574677e+02
1.652963652003440753e+00 5.412173806064366772e+02
1.653063674008281581e+00 5.412137510405759713e+02
1.653163696013122630e+00 5.412099223122321519e+02
1.653263718017963679e+00 5.412058927789131531e+02
1.653363740022804951e+00 5.412016607943021427e+02
1.653463762027646000e+00 5.411972247082827607e+02
1.653563784032487050e+00 5.411925828669651537e+02
1.653663806037328321e+00 5.411877336127107583e+02
1.653763828042169148e+00 5.411826752841589041e+02
1.653863850047010198e+00 5.411774062162515975e+02
1.653963872051851247e+00 5.411719247402611472e+02
1.654063894056692297e+00 5.411662291838158581e+02
1.654163916061533346e+00 5.411603178709268605e+02
1.654263938066374617e+00 5.411541891220174421e+02
1.654363960071215667e+00 5.411478412539455576e+02
1.654463982076056494e+00 5.411412725800371391e+02
1.654564004080897544e+00 5.411344814101091742e+02
1.654664026085738815e+00 5.411274660505018801e+02
1.654764048090579864e+00 5.411202248041029179e+02
1.654864070095420914e+00 5.411127559703802490e+02
1.654964092100261963e+00 5.411050578454079414e+02
1.655064114105103013e+00 5.410971287218964108e+02
1.655164136109943840e+00 5.410889668892216378e+02
1.655264158114785111e+00 5.410805706334559773e+02
1.655364180119626161e+00 5.410719382373968074e+02
1.655464202124467210e+00 5.410630679805957470e+02
1.655564224129308482e+00 5.410539581393926483e+02
1.655664246134149531e+00 5.410446069869424264e+02
1.655764268138990580e+00 5.410350127932476880e+02
1.655864290143831408e+00 5.410251738251912457e+02
1.655964312148672457e+00 5.410150883465639708e+02
1.656064334153513506e+00 5.410047546181002645e+02
1.656164356158354778e+00 5.409941708975082975e+02
1.656264378163195827e+00 5.409833354395018432e+02
1.656364400168036877e+00 5.409722464958342698e+02
1.656464422172878148e+00 5.409609023153286671e+02
1.656564444177718975e+00 5.409493011439141128e+02
1.656664466182560025e+00 5.409374412246563679e+02
1.656764488187401074e+00 5.409253207977922102e+02
1.656864510192242124e+00 5.409129381007626307e+02
1.656964532197083173e+00 5.409002913682485314e+02
1.657064554201924444e+00 5.408873788322030123e+02
1.657164576206765494e+00 5.408741987218861595e+02
1.657264598211606321e+00 5.408607492639004022e+02
1.657364620216447371e+00 5.408470286822250728e+02
1.657464642221288642e+00 5.408330351982522188e+02
1.657564664226129691e+00 5.408187670308213910e+02
1.657664686230970741e+00 5.408042223962542039e+02
1.657764708235811790e+00 5.407893995083940126e+02
1.657864730240652840e+00 5.407742965786367222e+02
1.657964752245493667e+00 5.407589118159728514e+02
1.658064774250334938e+00 5.407432434270206159e+02
1.658164796255175988e+00 5.407272896160624214e+02
1.658264818260017037e+00 5.407110485850846544e+02
1.658364840264858309e+00 5.406945185338133797e+02
1.658464862269699358e+00 5.406776976597527664e+02
1.658564884274540407e+00 5.406605841582213543e+02
1.658664906279381235e+00 5.406431762223929809e+02
1.658764928284222284e+00 5.406254720433313423e+02
1.658864950289063334e+00 5.406074698100330806e+02
1.658964972293904605e+00 5.405891677094625720e+02
1.659064994298745654e+00 5.405705639265931950e+02
1.659165016303586704e+00 5.405516566444465525e+02
1.659265038308427975e+00 5.405324440441308980e+02
1.659365060313268803e+00 5.405129243048802437e+02
1.659465082318109852e+00 5.404930956040996080e+02
1.659565104322950901e+00 5.404729561173968477e+02
1.659665126327791951e+00 5.404525040186305205e+02
1.659765148332633000e+00 5.404317374799462641e+02
1.659865170337474272e+00 5.404106546718192021e+02
1.659965192342315321e+00 5.403892537630952120e+02
1.660065214347156148e+00 5.403675329210319660e+02
1.660165236351997198e+00 5.403454903113399723e+02
1.660265258356838469e+00 5.403231240982266854e+02
1.660365280361679519e+00 5.403004324444349322e+02
1.660465302366520568e+00 5.402774135112875911e+02
1.660565324371361617e+00 5.402540654587309064e+02
1.660665346376202667e+00 5.402303864453742790e+02
1.660765368381043494e+00 5.402063746285364232e+02
1.660865390385884766e+00 5.401820281642851569e+02
1.660965412390725815e+00 5.401573452074840134e+02
1.661065434395566864e+00 5.401323239118344191e+02
1.661165456400408136e+00 5.401069624299184397e+02
1.661265478405249185e+00 5.400812589132445964e+02
1.661365500410090235e+00 5.400552115122916348e+02
1.661465522414931062e+00 5.400288183765521808e+02
1.661565544419772111e+00 5.400020776545779881e+02
1.661665566424613161e+00 5.399749874940249583e+02
1.661765588429454432e+00 5.399475460416986152e+02
1.661865610434295482e+00 5.399197514435976473e+02
1.661965632439136531e+00 5.398916018449625653e+02
1.662065654443977802e+00 5.398630953903168574e+02
1.662165676448818630e+00 5.398342302235178067e+02
1.662265698453659679e+00 5.398050044878002609e+02
1.662365720458500729e+00 5.397754163258207427e+02
1.662465742463341778e+00 5.397454638797098596e+02
1.662565764468182827e+00 5.397151452911132310e+02
1.662665786473024099e+00 5.396844587012404872e+02
1.662765808477865148e+00 5.396534022509148372e+02
1.662865830482705976e+00 5.396219740806152458e+02
1.662965852487547025e+00 5.395901723305295263e+02
1.663065874492388296e+00 5.395579951405983365e+02
1.663165896497229346e+00 5.395254406505642919e+02
1.663265918502070395e+00 5.394925070000209644e+02
1.663365940506911445e+00 5.394591923284589257e+02
1.663465962511752494e+00 5.394254947753164515e+02
1.663565984516593321e+00 5.393914124800280661e+02
1.663666006521434593e+00 5.393569435820709259e+02
1.663766028526275642e+00 5.393220862210175710e+02
1.663866050531116692e+00 5.392868385365820814e+02
1.663966072535957963e+00 5.392511986686720320e+02
1.664066094540799012e+00 5.392151647574355593e+02
1.664166116545640062e+00 5.391787349433136569e+02
1.664266138550480889e+00 5.391419073670881517e+02
1.664366160555321938e+00 5.391046801699329762e+02
1.664466182560162988e+00 5.390670514934639641e+02
1.664566204565004259e+00 5.390290194797909180e+02
1.664666226569845309e+00 5.389905822715659269e+02
1.664766248574686358e+00 5.389517380120350936e+02
1.664866270579527630e+00 5.389124848450901482e+02
1.664966292584368457e+00 5.388728209153201760e+02
1.665066314589209506e+00 5.388327443680616398e+02
1.665166336594050556e+00 5.387922533494497657e+02
1.665266358598891605e+00 5.387513460064722040e+02
1.665366380603732654e+00 5.387100204870189373e+02
1.665466402608573926e+00 5.386682749399349177e+02
1.665566424613414753e+00 5.386261075150740680e+02
1.665666446618255803e+00 5.385835163633470302e+02
1.665766468623096852e+00 5.385404996367794865e+02
1.665866490627938123e+00 5.384970554885611591e+02
1.665966512632779173e+00 5.384531820730983327e+02
1.666066534637620222e+00 5.384088775460700163e+02
1.666166556642461272e+00 5.383641400644778514e+02
1.666266578647302099e+00 5.383189677867017053e+02
1.666366600652143148e+00 5.382733588725506024e+02
1.666466622656984420e+00 5.382273114833196814e+02
1.666566644661825469e+00 5.381808237818407861e+02
1.666666666666666519e+00 5.381338939325383990e+02
1.666766688671507790e+00 5.380865201014826198e+02
1.666866710676348839e+00 5.380387004564437348e+02
1.666966732681189667e+00 5.379904331669466728e+02
1.667066754686030716e+00 5.379417164043258026e+02
1.667166776690871766e+00 5.378925483417775695e+02
1.667266798695712815e+00 5.378429271544187031e+02
1.667366820700554086e+00 5.377928510193372631e+02
1.667466842705395136e+00 5.377423181156500505e+02
1.667566864710236185e+00 5.376913266245580871e+02
1.667666886715077013e+00 5.376398747293986844e+02
1.667766908719918284e+00 5.375879606157061517e+02
1.667866930724759333e+00 5.375355824712617050e+02
1.667966952729600383e+00 5.374827384861532664e+02
1.668066974734441432e+00 5.374294268528284420e+02
1.668166996739282482e+00 5.373756457661515924e+02
1.668267018744123753e+00 5.373213934234607905e+02
1.668367040748964580e+00 5.372666680246222768e+02
1.668467062753805630e+00 5.372114677720875306e+02
1.668567084758646679e+00 5.371557908709493177e+02
1.668667106763487951e+00 5.370996355289984194e+02
1.668767128768329000e+00 5.370429999567800223e+02
1.668867150773170049e+00 5.369858823676502197e+02
1.668967172778011099e+00 5.369282809778331966e+02
1.669067194782851926e+00 5.368701940064784139e+02
1.669167216787692976e+00 5.368116196757163152e+02
1.669267238792534247e+00 5.367525562107166479e+02
1.669367260797375296e+00 5.366930018397455342e+02
1.669467282802216346e+00 5.366329547942210638e+02
1.669567304807057617e+00 5.365724133087742302e+02
1.669667326811898667e+00 5.365113756213022498e+02
1.669767348816739494e+00 5.364498399730296114e+02
1.669867370821580543e+00 5.363878046085641245e+02
1.669967392826421593e+00 5.363252677759536482e+02
1.670067414831262642e+00 5.362622277267455502e+02
1.670167436836103914e+00 5.361986827160453686e+02
1.670267458840944963e+00 5.361346310025725188e+02
1.670367480845786012e+00 5.360700708487190695e+02
1.670467502850626840e+00 5.360050005206093147e+02
1.670567524855468111e+00 5.359394182881569577e+02
1.670667546860309161e+00 5.358733224251228648e+02
1.670767568865150210e+00 5.358067112091747504e+02
1.670867590869991259e+00 5.357395829219442476e+02
1.670967612874832309e+00 5.356719358490867080e+02
1.671067634879673580e+00 5.356037682803395228e+02
1.671167656884514408e+00 5.355350785095793071e+02
1.671267678889355457e+00 5.354658648348835186e+02
1.671367700894196506e+00 5.353961255585859362e+02
1.671467722899037778e+00 5.353258589873387336e+02
1.671567744903878827e+00 5.352550634321686402e+02
1.671667766908719877e+00 5.351837372085377638e+02
1.671767788913560926e+00 5.351118786364010020e+02
1.671867810918401753e+00 5.350394860402669792e+02
1.671967832923242803e+00 5.349665577492561397e+02
1.672067854928084074e+00 5.348930920971591831e+02
1.672167876932925124e+00 5.348190874224982281e+02
1.672267898937766173e+00 5.347445420685835415e+02
1.672367920942607444e+00 5.346694543835757258e+02
1.672467942947448494e+00 5.345938227205421072e+02
1.672567964952289321e+00 5.345176454375186950e+02
1.672667986957130370e+00 5.344409208975680485e+02
1.672768008961971420e+00 5.343636474688388489e+02
1.672868030966812469e+00 5.342858235246260392e+02
1.672968052971653741e+00 5.342074474434300555e+02
1.673068074976494790e+00 5.341285176090154891e+02
1.673168096981335840e+00 5.340490324104721367e+02
1.673268118986176667e+00 5.339689902422737759e+02
1.673368140991017938e+00 5.338883895043379653e+02
1.673468162995858988e+00 5.338072286020842512e+02
1.673568185000700037e+00 5.337255059464973783e+02
1.673668207005541086e+00 5.336432199541827686e+02
1.673768229010382136e+00 5.335603690474290488e+02
1.673868251015223407e+00 5.334769516542664860e+02
1.673968273020064235e+00 5.333929662085271275e+02
1.674068295024905284e+00 5.333084111499042592e+02
1.674168317029746333e+00 5.332232849240122050e+02
1.674268339034587605e+00 5.331375859824462395e+02
1.674368361039428654e+00 5.330513127828410234e+02
1.674468383044269704e+00 5.329644637889327896e+02
1.674568405049110753e+00 5.328770374706176653e+02
1.674668427053951580e+00 5.327890323040096519e+02
1.674768449058792630e+00 5.327004467715033798e+02
1.674868471063633901e+00 5.326112793618317482e+02
1.674968493068474951e+00 5.325215285701259518e+02
1.675068515073316000e+00 5.324311928979775530e+02
1.675168537078157271e+00 5.323402708534920293e+02
1.675268559082998321e+00 5.322487609513560756e+02
1.675368581087839148e+00 5.321566617128912640e+02
1.675468603092680198e+00 5.320639716661162311e+02
1.675568625097521247e+00 5.319706893458061359e+02
1.675668647102362296e+00 5.318768132935516633e+02
1.675768669107203568e+00 5.317823420578182549e+02
1.675868691112044617e+00 5.316872741940059086e+02
1.675968713116885667e+00 5.315916082645090910e+02
1.676068735121726494e+00 5.314953428387760823e+02
1.676168757126567765e+00 5.313984764933672977e+02
1.676268779131408815e+00 5.313010078120147455e+02
1.676368801136249864e+00 5.312029353856821672e+02
1.676468823141090914e+00 5.311042578126247236e+02
1.676568845145931963e+00 5.310049736984458377e+02
1.676668867150773234e+00 5.309050816561586998e+02
1.676768889155614062e+00 5.308045803062441337e+02
1.676868911160455111e+00 5.307034682767096001e+02
1.676968933165296161e+00 5.306017442031489963e+02
1.677068955170137432e+00 5.304994067288007500e+02
1.677168977174978481e+00 5.303964545046067087e+02
1.677268999179819531e+00 5.302928861892710302e+02
1.677369021184660580e+00 5.301887004493198674e+02
1.677469043189501408e+00 5.300838959591580988e+02
1.677569065194342457e+00 5.299784714011293545e+02
1.677669087199183728e+00 5.298724254655738832e+02
1.677769109204024778e+00 5.297657568508884651e+02
1.677869131208865827e+00 5.296584642635814362e+02
1.677969153213707099e+00 5.295505464183346476e+02
1.678069175218548148e+00 5.294420020380596270e+02
1.678169197223388975e+00 5.293328298539561274e+02
1.678269219228230025e+00 5.292230286055699935e+02
1.678369241233071074e+00 5.291125970408514831e+02
1.678469263237912124e+00 5.290015339162130203e+02
1.678569285242753395e+00 5.288898379965868344e+02
1.678669307247594444e+00 5.287775080554832812e+02
1.678769329252435494e+00 5.286645428750462088e+02
1.678869351257276321e+00 5.285509412461133252e+02
1.678969373262117593e+00 5.284367019682728142e+02
1.679069395266958642e+00 5.283218238499188146e+02
1.679169417271799691e+00 5.282063057083104241e+02
1.679269439276640741e+00 5.280901463696283145e+02
1.679369461281481790e+00 5.279733446690314622e+02
1.679469483286323062e+00 5.278558994507143325e+02
1.679569505291163889e+00 5.277378095679633816e+02
1.679669527296004938e+00 5.276190738832137868e+02
1.679769549300845988e+00 5.274996912681057211e+02
1.679869571305687259e+00 5.273796606035406285e+02
1.679969593310528309e+00 5.272589807797379535e+02
1.680069615315369358e+00 5.271376506962914164e+02
1.680169637320210407e+00 5.270156692622243781e+02
1.680269659325051235e+00 5.268930353960461161e+02
1.680369681329892284e+00 5.267697480258074165e+02
1.680469703334733556e+00 5.266458060891552577e+02
1.680569725339574605e+00 5.265212085333913592e+02
1.680669747344415654e+00 5.263959543155236815e+02
1.680769769349256926e+00 5.262700424023237247e+02
1.680869791354097975e+00 5.261434717703816659e+02
1.680969813358938802e+00 5.260162414061602476e+02
1.681069835363779852e+00 5.258883503060507110e+02
1.681169857368620901e+00 5.257597974764267974e+02
1.681269879373461951e+00 5.256305819336980676e+02
1.681369901378303222e+00 5.255007027043670860e+02
1.681469923383144272e+00 5.253701588250810346e+02
1.681569945387985321e+00 5.252389493426860554e+02
1.681669967392826148e+00 5.251070733142823883e+02
1.681769989397667420e+00 5.249745298072771220e+02
1.681870011402508469e+00 5.248413178994373993e+02
1.681970033407349518e+00 5.247074366789448732e+02
1.682070055412190568e+00 5.245728852444475478e+02
1.682170077417031617e+00 5.244376627051135529e+02
1.682270099421872889e+00 5.243017681806838937e+02
1.682370121426713716e+00 5.241652008015257707e+02
1.682470143431554765e+00 5.240279597086828289e+02
1.682570165436395815e+00 5.238900440539306373e+02
1.682670187441237086e+00 5.237514529998262560e+02
1.682770209446078136e+00 5.236121857197606460e+02
1.682870231450919185e+00 5.234722413980124429e+02
1.682970253455760012e+00 5.233316192297958196e+02
1.683070275460601062e+00 5.231903184213156237e+02
1.683170297465442111e+00 5.230483381898161497e+02
1.683270319470283383e+00 5.229056777636332072e+02
1.683370341475124432e+00 5.227623363822435749e+02
1.683470363479965481e+00 5.226183132963178650e+02
1.683570385484806753e+00 5.224736077677688399e+02
1.683670407489647580e+00 5.223282190698027989e+02
1.683770429494488630e+00 5.221821464869683496e+02
1.683870451499329679e+00 5.220353893152071123e+02
1.683970473504170728e+00 5.218879468619038562e+02
1.684070495509011778e+00 5.217398184459344748e+02
1.684170517513853049e+00 5.215910033977154399e+02
1.684270539518694099e+00 5.214415010592535964e+02
1.684370561523534926e+00 5.212913107841939109e+02
1.684470583528375975e+00 5.211404319378679020e+02
1.684570605533217247e+00 5.209888638973433217e+02
1.684670627538058296e+00 5.208366060514704259e+02
1.684770649542899346e+00 5.206836578009300638e+02
1.684870671547740395e+00 5.205300185582823360e+02
1.684970693552581444e+00 5.203756877480130925e+02
1.685070715557422272e+00 5.202206648065812260e+02
1.685170737562263543e+00 5.200649491824647157e+02
1.685270759567104593e+00 5.199085403362101943e+02
1.685370781571945642e+00 5.197514377404751258e+02
1.685470803576786913e+00 5.195936408800762365e+02
1.685570825581627963e+00 5.194351492520364673e+02
1.685670847586469012e+00 5.192759623656277199e+02
1.685770869591309840e+00 5.191160797424199700e+02
1.685870891596150889e+00 5.189555009163229897e+02
1.685970913600991938e+00 5.187942254336321639e+02
1.686070935605833210e+00 5.186322528530758973e+02
1.686170957610674259e+00 5.184695827458554049e+02
1.686270979615515309e+00 5.183062146956930292e+02
1.686371001620356580e+00 5.181421482988728258e+02
1.686471023625197407e+00 5.179773831642868345e+02
1.686571045630038457e+00 5.178119189134777116e+02
1.686671067634879506e+00 5.176457551806792026e+02
1.686771089639720556e+00 5.174788916128641176e+02
1.686871111644561605e+00 5.173113278697821897e+02
1.686971133649402876e+00 5.171430636240033891e+02
1.687071155654243926e+00 5.169740985609628297e+02
1.687171177659084753e+00 5.168044323789995360e+02
1.687271199663925803e+00 5.166340647893975984e+02
1.687371221668767074e+00 5.164629955164302828e+02
1.687471243673608123e+00 5.162912242973977754e+02
1.687571265678449173e+00 5.161187508826697012e+02
1.687671287683290222e+00 5.159455750357249144e+02
1.687771309688131272e+00 5.157716965331915162e+02
1.687871331692972099e+00 5.155971151648863042e+02
1.687971353697813370e+00 5.154218307338547902e+02
1.688071375702654420e+00 5.152458430564105356e+02
1.688171397707495469e+00 5.150691519621730095e+02
1.688271419712336741e+00 5.148917572941062417e+02
1.688371441717177790e+00 5.147136589085595233e+02
1.688471463722018839e+00 5.145348566753011710e+02
1.688571485726859667e+00 5.143553504775607053e+02
1.688671507731700716e+00 5.141751402120628427e+02
1.688771529736541765e+00 5.139942257890650126e+02
1.688871551741383037e+00 5.138126071323970336e+02
1.688971573746224086e+00 5.136302841794926053e+02
1.689071595751065136e+00 5.134472568814308033e+02
1.689171617755906407e+00 5.132635252029674575e+02
1.689271639760747235e+00 5.130790891225738051e+02
1.689371661765588284e+00 5.128939486324696873e+02
1.689471683770429333e+00 5.127081037386589060e+02
1.689571705775270383e+00 5.125215544609645804e+02
1.689671727780111432e+00 5.123343008330623434e+02
1.689771749784952704e+00 5.121463429025151299e+02
1.689871771789793753e+00 5.119576807308056345e+02
1.689971793794634580e+00 5.117683143933705878e+02
1.690071815799475630e+00 5.115782439796332710e+02
1.690171837804316901e+00 5.113874695930365419e+02
1.690271859809157950e+00 5.111959913510740989e+02
1.690371881813999000e+00 5.110038093853224836e+02
1.690471903818840049e+00 5.108109238414746187e+02
1.690571925823681099e+00 5.106173348793690252e+02
1.690671947828521926e+00 5.104230426730205181e+02
1.690771969833363197e+00 5.102280474106524935e+02
1.690871991838204247e+00 5.100323492947262594e+02
1.690972013843045296e+00 5.098359485419694579e+02
1.691072035847886568e+00 5.096388453834094889e+02
1.691172057852727617e+00 5.094410400643973276e+02
1.691272079857568666e+00 5.092425328446418007e+02
1.691372101862409494e+00 5.090433239982336318e+02
1.691472123867250543e+00 5.088434138136767046e+02
1.691572145872091593e+00 5.086428025939141548e+02
1.691672167876932864e+00 5.084414906563558247e+02
1.691772189881773913e+00 5.082394783329060601e+02
1.691872211886614963e+00 5.080367659699904266e+02
1.691972233891456234e+00 5.078333539285808342e+02
1.692072255896297062e+00 5.076292425842232774e+02
1.692172277901138111e+00 5.074244323270620498e+02
1.692272299905979160e+00 5.072189235618652674e+02
1.692372321910820210e+00 5.070127167080510162e+02
1.692472343915661259e+00 5.068058121997091234e+02
1.692572365920502531e+00 5.065982104856288402e+02
1.692672387925343580e+00 5.063899120293190776e+02
1.692772409930184407e+00 5.061809173090351806e+02
1.692872431935025457e+00 5.059712268177996748e+02
1.692972453939866728e+00 5.057608410634248912e+02
1.693072475944707778e+00 5.055497605685364988e+02
1.693172497949548827e+00 5.053379858705945367e+02
1.693272519954389876e+00 5.051255175219156968e+02
1.693372541959230926e+00 5.049123560896925369e+02
1.693472563964071753e+00 5.046985021560179803e+02
1.693572585968913025e+00 5.044839563179018569e+02
1.693672607973754074e+00 5.042687191872921062e+02
1.693772629978595123e+00 5.040527913910954112e+02
1.693872651983436395e+00 5.038361735711948768e+02
1.693972673988277444e+00 5.036188663844709481e+02
1.694072695993118494e+00 5.034008705028176678e+02
1.694172717997959321e+00 5.031821866131607521e+02
1.694272740002800370e+00 5.029628154174777706e+02
1.694372762007641420e+00 5.027427576328122996e+02
1.694472784012482691e+00 5.025220139912921695e+02
1.694572806017323741e+00 5.023005852401475977e+02
1.694672828022164790e+00 5.020784721417234664e+02
1.694772850027006061e+00 5.018556754734981951e+02
1.694872872031846889e+00 5.016321960280974963e+02
1.694972894036687938e+00 5.014080346133097805e+02
1.695072916041528988e+00 5.011831920521001962e+02
1.695172938046370037e+00 5.009576691826254091e+02
1.695272960051211086e+00 5.007314668582455397e+02
1.695372982056052358e+00 5.005045859475407042e+02
1.695473004060893407e+00 5.002770273343201097e+02
1.695573026065734235e+00 5.000487919176359810e+02
1.695673048070575284e+00 4.998198806117968616e+02
1.695773070075416555e+00 4.995902943463770498e+02
1.695873092080257605e+00 4.993600340662301278e+02
1.695973114085098654e+00 4.991291007314960666e+02
1.696073136089939704e+00 4.988974953176167446e+02
1.696173158094780753e+00 4.986652188153402108e+02
1.696273180099621580e+00 4.984322722307356344e+02
1.696373202104462852e+00 4.981986565851983642e+02
1.696473224109303901e+00 4.979643729154601033e+02
1.696573246114144951e+00 4.977294222735978337e+02
1.696673268118986222e+00 4.974938057270406944e+02
1.696773290123827271e+00 4.972575243585777685e+02
1.696873312128668321e+00 4.970205792663649618e+02
1.696973334133509148e+00 4.967829715639301753e+02
1.697073356138350197e+00 4.965447023801853561e+02
1.697173378143191247e+00 4.963057728594228593e+02
1.697273400148032518e+00 4.960661841613283514e+02
1.697373422152873568e+00 4.958259374609821180e+02
1.697473444157714617e+00 4.955850339488659984e+02
1.697573466162555889e+00 4.953434748308633289e+02
1.697673488167396716e+00 4.951012613282671850e+02
1.697773510172237765e+00 4.948583946777810070e+02
1.697873532177078815e+00 4.946148761315208162e+02
1.697973554181919864e+00 4.943707069570197064e+02
1.698073576186760913e+00 4.941258884372273883e+02
1.698173598191602185e+00 4.938804218705134303e+02
1.698273620196443234e+00 4.936343085706673151e+02
1.698373642201284062e+00 4.933875498668994624e+02
1.698473664206125111e+00 4.931401471038404338e+02
1.698573686210966383e+00 4.928921016415411032e+02
1.698673708215807432e+00 4.926434148554738499e+02
1.698773730220648481e+00 4.923940881365282394e+02
1.698873752225489531e+00 4.921441228910102268e+02
1.698973774230330580e+00 4.918935205406420437e+02
1.699073796235171407e+00 4.916422825225573661e+02
1.699173818240012679e+00 4.913904102892995525e+02
1.699273840244853728e+00 4.911379053088190858e+02
1.699373862249694778e+00 4.908847690644659565e+02
1.699473884254536049e+00 4.906310030549906855e+02
1.699573906259377098e+00 4.903766087945357981e+02
1.699673928264218148e+00 4.901215878126327539e+02
1.699773950269058975e+00 4.898659416541943301e+02
1.699873972273900025e+00 4.896096718795107563e+02
1.699973994278741074e+00 4.893527800642413013e+02
1.700074016283582345e+00 4.890952677994092710e+02
1.700174038288423395e+00 4.888371366913924021e+02
1.700274060293264444e+00 4.885783883619169501e+02
1.700374082298105272e+00 4.883190244480487650e+02
1.700474104302946543e+00 4.880590466021835141e+02
1.700574126307787592e+00 4.877984564920402022e+02
1.700674148312628642e+00 4.875372558006476424e+02
1.700774170317469691e+00 4.872754462263383175e+02
1.700874192322310741e+00 4.870130294827349644e+02
1.700974214327152012e+00 4.867500072987415933e+02
1.701074236331992839e+00 4.864863814185301294e+02
1.701174258336833889e+00 4.862221536015306356e+02
1.701274280341674938e+00 4.859573256224176703e+02
1.701374302346516210e+00 4.856918992710973839e+02
1.701474324351357259e+00 4.854258763526951839e+02
1.701574346356198308e+00 4.851592586875409552e+02
1.701674368361039358e+00 4.848920481111559866e+02
1.701774390365880185e+00 4.846242464742381344e+02
1.701874412370721235e+00 4.843558556426465316e+02
1.701974434375562506e+00 4.840868774973860695e+02
1.702074456380403555e+00 4.838173139345906861e+02
1.702174478385244605e+00 4.835471668655100643e+02
1.702274500390085876e+00 4.832764382164879748e+02
1.702374522394926926e+00 4.830051299289489748e+02
1.702474544399767753e+00 4.827332439593794788e+02
1.702574566404608802e+00 4.824607822793085461e+02
1.702674588409449852e+00 4.821877468752911113e+02
1.702774610414290901e+00 4.819141397488857592e+02
1.702874632419132173e+00 4.816399629166388650e+02
1.702974654423973222e+00 4.813652184100623117e+02
1.703074676428814271e+00 4.810899082756139933e+02
1.703174698433655099e+00 4.808140345746754747e+02
1.703274720438496370e+00 4.805375993835322674e+02
1.703374742443337420e+00 4.802606047933514333e+02
1.703474764448178469e+00 4.799830529101581647e+02
1.703574786453019518e+00 4.797049458548153780e+02
1.703674808457860568e+00 4.794262857629984182e+02
1.703774830462701839e+00 4.791470747851718102e+02
1.703874852467542667e+00 4.788673150865658954e+02
1.703974874472383716e+00 4.785870088471524468e+02
1.704074896477224765e+00 4.783061582616177816e+02
1.704174918482066037e+00 4.780247655393395689e+02
1.704274940486907086e+00 4.777428329043591475e+02
1.704374962491748136e+00 4.774603625953563437e+02
1.704474984496589185e+00 4.771773568656222437e+02
1.704575006501430012e+00 4.768938179830317949e+02
1.704675028506271062e+00 4.766097482300159527e+02
1.704775050511112333e+00 4.763251499035334859e+02
1.704875072515953383e+00 4.760400253150428966e+02
1.704975094520794432e+00 4.757543767904728043e+02
1.705075116525635703e+00 4.754682066701927852e+02
1.705175138530476753e+00 4.751815173089822792e+02
1.705275160535317580e+00 4.748943110760026229e+02
1.705375182540158630e+00 4.746065903547616927e+02
1.705475204544999679e+00 4.743183575430884957e+02
1.705575226549840728e+00 4.740296150530967338e+02
1.705675248554682000e+00 4.737403653111537665e+02
1.705775270559523049e+00 4.734506107578488923e+02
1.705875292564364099e+00 4.731603538479587883e+02
1.705975314569204926e+00 4.728695970504156776e+02
1.706075336574046197e+00 4.725783428482710633e+02
1.706175358578887247e+00 4.722865937386632140e+02
1.706275380583728296e+00 4.719943522327807841e+02
1.706375402588569345e+00 4.717016208558291623e+02
1.706475424593410395e+00 4.714084021469919321e+02
1.706575446598251666e+00 4.711146986593972770e+02
1.706675468603092494e+00 4.708205129600802366e+02
1.706775490607933543e+00 4.705258476299448489e+02
1.706875512612774592e+00 4.702307052637270885e+02
1.706975534617615864e+00 4.699350884699574067e+02
1.707075556622456913e+00 4.696389998709213387e+02
1.707175578627297963e+00 4.693424421026214191e+02
1.707275600632139012e+00 4.690454178147358562e+02
1.707375622636979839e+00 4.687479296705818115e+02
1.707475644641820889e+00 4.684499803470728239e+02
1.707575666646662160e+00 4.681515725346775412e+02
1.707675688651503210e+00 4.678527089373815215e+02
1.707775710656344259e+00 4.675533922726432934e+02
1.707875732661185531e+00 4.672536252713519502e+02
1.707975754666026580e+00 4.669534106777870193e+02
1.708075776670867407e+00 4.666527512495727592e+02
1.708175798675708457e+00 4.663516497576373467e+02
1.708275820680549506e+00 4.660501089861675155e+02
1.708375842685390555e+00 4.657481317325649570e+02
1.708475864690231827e+00 4.654457208074013579e+02
1.708575886695072876e+00 4.651428790343740047e+02
1.708675908699913926e+00 4.648396092502588886e+02
1.708775930704754753e+00 4.645359143048666510e+02
1.708875952709596024e+00 4.642317970609942108e+02
1.708975974714437074e+00 4.639272603943801414e+02
1.709075996719278123e+00 4.636223071936558426e+02
1.709176018724119173e+00 4.633169403602977354e+02
1.709276040728960222e+00 4.630111628085802522e+02
1.709376062733801493e+00 4.627049774655280316e+02
1.709476084738642321e+00 4.623983872708631679e+02
1.709576106743483370e+00 4.620913951769611572e+02
1.709676128748324420e+00 4.617840041487976350e+02
1.709776150753165691e+00 4.614762171638985251e+02
1.709876172758006740e+00 4.611680372122903009e+02
1.709976194762847790e+00 4.608594672964486563e+02
1.710076216767688839e+00 4.605505104312471190e+02
1.710176238772529667e+00 4.602411696439051525e+02
1.710276260777370716e+00 4.599314479739354056e+02
1.710376282782211987e+00 4.596213484730911318e+02
1.710476304787053037e+00 4.593108742053146898e+02
1.710576326791894086e+00 4.590000282466804720e+02
1.710676348796735358e+00 4.586888136853457354e+02
1.710776370801576407e+00 4.583772336214913707e+02
1.710876392806417234e+00 4.580652911672706864e+02
1.710976414811258284e+00 4.577529894467527924e+02
1.711076436816099333e+00 4.574403315958670078e+02
1.711176458820940383e+00 4.571273207623470398e+02
1.711276480825781654e+00 4.568139601056751644e+02
1.711376502830622703e+00 4.565002527970244728e+02
1.711476524835463753e+00 4.561862020192020850e+02
1.711576546840304580e+00 4.558718109665917382e+02
1.711676568845145852e+00 4.555570828450955787e+02
1.711776590849986901e+00 4.552420208720757273e+02
1.711876612854827950e+00 4.549266282762970377e+02
1.711976634859669000e+00 4.546109082978634888e+02
1.712076656864510049e+00 4.542948641881646950e+02
1.712176678869351321e+00 4.539784992098110479e+02
1.712276700874192148e+00 4.536618166365753382e+02
1.712376722879033197e+00 4.533448197533326720e+02
1.712476744883874247e+00 4.530275118559976590e+02
1.712576766888715518e+00 4.527098962514641016e+02
1.712676788893556568e+00 4.523919762575425807e+02
1.712776810898397617e+00 4.520737552028978712e+02
1.712876832903238666e+00 4.517552364269873237e+02
1.712976854908079494e+00 4.514364232799972001e+02
1.713076876912920543e+00 4.511173191227784400e+02
1.713176898917761815e+00 4.507979273267839631e+02
1.713276920922602864e+00 4.504782512740040943e+02
1.713376942927443913e+00 4.501582943569020472e+02
1.713476964932285185e+00 4.498380599783488947e+02
1.713576986937126234e+00 4.495175515515576308e+02
1.713677008941967062e+00 4.491967725000190512e+02
1.713777030946808111e+00 4.488757262574343940e+02
1.713877052951649160e+00 4.485544162676495148e+02
1.713977074956490210e+00 4.482328459845871294e+02
1.714077096961331481e+00 4.479110188721810459e+02
1.714177118966172531e+00 4.475889384043078962e+02
1.714277140971013580e+00 4.472666080647188096e+02
1.714377162975854407e+00 4.469440313469726789e+02
1.714477184980695679e+00 4.466212117543661861e+02
1.714577206985536728e+00 4.462981527998650790e+02
1.714677228990377778e+00 4.459748580060348786e+02
1.714777250995218827e+00 4.456513309049724398e+02
1.714877273000059876e+00 4.453275750382333058e+02
1.714977295004901148e+00 4.450035939567648597e+02
1.715077317009741975e+00 4.446793912208321444e+02
1.715177339014583024e+00 4.443549703999491385e+02
1.715277361019424074e+00 4.440303350728065652e+02
1.715377383024265345e+00 4.437054888272002700e+02
1.715477405029106395e+00 4.433804352599589151e+02
1.715577427033947444e+00 4.430551779768716756e+02
1.715677449038788493e+00 4.427297205926161610e+02
1.715777471043629321e+00 4.424040667306840078e+02
1.715877493048470370e+00 4.420782200233085746e+02
1.715977515053311642e+00 4.417521841113913297e+02
1.716077537058152691e+00 4.414259626444264768e+02
1.716177559062993740e+00 4.410995592804277408e+02
1.716277581067835012e+00 4.407729776858533910e+02
1.716377603072676061e+00 4.404462215355306398e+02
1.716477625077516889e+00 4.401192945125815186e+02
1.716577647082357938e+00 4.397922003083455138e+02
1.716677669087198987e+00 4.394649426223056139e+02
1.716777691092040037e+00 4.391375251620103199e+02
1.716877713096881308e+00 4.388099516429966229e+02
1.716977735101722358e+00 4.384822257887151977e+02
1.717077757106563407e+00 4.381543513304516182e+02
1.717177779111404234e+00 4.378263320072487090e+02
1.717277801116245506e+00 4.374981715658306030e+02
1.717377823121086555e+00 4.371698737605209999e+02
1.717477845125927605e+00 4.368414423531682473e+02
1.717577867130768654e+00 4.365128811130649638e+02
1.717677889135609703e+00 4.361841938168689694e+02
1.717777911140450531e+00 4.358553842485245013e+02
1.717877933145291802e+00 4.355264561991810979e+02
1.717977955150132852e+00 4.351974134671168031e+02
1.718077977154973901e+00 4.348682598576542659e+02
1.718177999159815172e+00 4.345389991830825238e+02
1.718278021164656222e+00 4.342096352625758300e+02
1.718378043169497271e+00 4.338801719221119697e+02
1.718478065174338099e+00 4.335506129943919404e+02
1.718578087179179148e+00 4.332209623187570742e+02
1.718678109184020197e+00 4.328912237411079218e+02
1.718778131188861469e+00 4.325614011138231376e+02
1.718878153193702518e+00 4.322314982956740437e+02
1.718978175198543568e+00 4.319015191517452195e+02
1.719078197203384839e+00 4.315714675533489526e+02
1.719178219208225666e+00 4.312413473779446349e+02
1.719278241213066716e+00 4.309111625090521329e+02
1.719378263217907765e+00 4.305809168361706725e+02
1.719478285222748815e+00 4.302506142546940282e+02
1.719578307227589864e+00 4.299202586658257133e+02
1.719678329232431135e+00 4.295898539764940551e+02
1.719778351237272185e+00 4.292594040992701139e+02
1.719878373242113012e+00 4.289289129522794610e+02
1.719978395246954062e+00 4.285983844591183924e+02
1.720078417251795333e+00 4.282678225487685495e+02
1.720178439256636382e+00 4.279372311555111423e+02
1.720278461261477432e+00 4.276066142188402637e+02
1.720378483266318481e+00 4.272759756833783058e+02
1.720478505271159531e+00 4.269453194987868301e+02
1.720578527276000358e+00 4.266146496196827798e+02
1.720678549280841629e+00 4.262839700055506569e+02
1.720778571285682679e+00 4.259532846206530508e+02
1.720878593290523728e+00 4.256225974339477034e+02
1.720978615295365000e+00 4.252919124189967874e+02
1.721078637300206049e+00 4.249612335538789694e+02
1.721178659305047098e+00 4.246305648211035191e+02
1.721278681309887926e+00 4.242999102075210658e+02
1.721378703314728975e+00 4.239692737042334443e+02
1.721478725319570025e+00 4.236386593065096235e+02
1.721578747324411296e+00 4.233080710136908920e+02
1.721678769329252345e+00 4.229775128291073543e+02
1.721778791334093395e+00 4.226469887599849358e+02
1.721878813338934666e+00 4.223165028173577866e+02
1.721978835343775494e+00 4.219860590159768776e+02
1.722078857348616543e+00 4.216556613742246213e+02
1.722178879353457592e+00 4.213253139140185795e+02
1.722278901358298642e+00 4.209950206607260839e+02
1.722378923363139691e+00 4.206647856430713546e+02
1.722478945367980963e+00 4.203346128930470513e+02
1.722578967372822012e+00 4.200045064458205957e+02
1.722678989377662839e+00 4.196744703396469163e+02
1.722779011382503889e+00 4.193445086157735773e+02
1.722879033387345160e+00 4.190146253183528984e+02
1.722979055392186210e+00 4.186848244943480495e+02
1.723079077397027259e+00 4.183551101934427834e+02
1.723179099401868308e+00 4.180254864679492357e+02
1.723279121406709358e+00 4.176959573727160659e+02
1.723379143411550185e+00 4.173665269650367122e+02
1.723479165416391456e+00 4.170371993045567933e+02
1.723579187421232506e+00 4.167079784531814539e+02
1.723679209426073555e+00 4.163788684749837330e+02
1.723779231430914827e+00 4.160498734361107722e+02
1.723879253435755876e+00 4.157209974046922980e+02
1.723979275440596926e+00 4.153922444507467162e+02
1.724079297445437753e+00 4.150636186460873773e+02
1.724179319450278802e+00 4.147351240642316270e+02
1.724279341455119852e+00 4.144067647803051386e+02
1.724379363459961123e+00 4.140785448709494290e+02
1.724479385464802172e+00 4.137504684142287488e+02
1.724579407469643222e+00 4.134225394895343015e+02
1.724679429474484493e+00 4.130947621774929530e+02
1.724779451479325321e+00 4.127671405598716206e+02
1.724879473484166370e+00 4.124396787194839362e+02
1.724979495489007419e+00 4.121123807400948635e+02
1.725079517493848469e+00 4.117852507063280427e+02
1.725179539498689518e+00 4.114582927035693274e+02
1.725279561503530790e+00 4.111315108178754372e+02
1.725379583508371839e+00 4.108049091358743112e+02
1.725479605513212666e+00 4.104784917446759778e+02
1.725579627518053716e+00 4.101522627317734191e+02
1.725679649522894987e+00 4.098262261849492347e+02
1.725779671527736037e+00 4.095003861921817929e+02
1.725879693532577086e+00 4.091747468415478579e+02
1.725979715537418135e+00 4.088493122211281161e+02
1.726079737542259185e+00 4.085240864189134982e+02
1.726179759547100012e+00 4.081990735227068399e+02
1.726279781551941284e+00 4.078742776200305684e+02
1.726379803556782333e+00 4.075497027980283633e+02
1.726479825561623382e+00 4.072253531433721037e+02
1.726579847566464654e+00 4.069012327421635291e+02
1.726679869571305703e+00 4.065773456798414713e+02
1.726779891576146753e+00 4.062536960410827760e+02
1.726879913580987580e+00 4.059302879097111258e+02
1.726979935585828629e+00 4.056071253685942111e+02
1.727079957590669679e+00 4.052842124995543145e+02
1.727179979595510950e+00 4.049615533832703704e+02
1.727280001600352000e+00 4.046391520991785455e+02
1.727380023605193049e+00 4.043170127253810051e+02
1.727480045610034320e+00 4.039951393385468350e+02
1.727580067614875148e+00 4.036735360138170563e+02
1.727680089619716197e+00 4.033522068247067409e+02
1.727780111624557247e+00 4.030311558430109926e+02
1.727880133629398296e+00 4.027103871387075174e+02
1.727980155634239345e+00 4.023899047798597621e+02
1.728080177639080617e+00 4.020697128325217591e+02
1.728180199643921666e+00 4.017498153606401843e+02
1.728280221648762494e+00 4.014302164259603956e+02
1.728380243653603543e+00 4.011109200879278660e+02
1.728480265658444814e+00 4.007919304035916639e+02
1.728580287663285864e+00 4.004732514275094104e+02
1.728680309668126913e+00 4.001548872116507027e+02
1.728780331672967963e+00 3.998368418052996276e+02
1.728880353677809012e+00 3.995191192549586958e+02
1.728980375682649839e+00 3.992017236042534591e+02
1.729080397687491111e+00 3.988846588938336026e+02
1.729180419692332160e+00 3.985679291612803468e+02
1.729280441697173210e+00 3.982515384410054367e+02
1.729380463702014481e+00 3.979354907641586578e+02
1.729480485706855530e+00 3.976197901585289287e+02
1.729580507711696580e+00 3.973044406484492583e+02
1.729680529716537407e+00 3.969894462546996010e+02
1.729780551721378457e+00 3.966748109944115299e+02
1.729880573726219506e+00 3.963605388809705801e+02
1.729980595731060777e+00 3.960466339239212630e+02
1.730080617735901827e+00 3.957331001288695234e+02
1.730180639740742876e+00 3.954199414973880380e+02
1.730280661745584148e+00 3.951071620269192408e+02
1.730380683750424975e+00 3.947947657106782344e+02
1.730480705755266024e+00 3.944827565375588279e+02
1.730580727760107074e+00 3.941711384920358228e+02
1.730680749764948123e+00 3.938599155540696302e+02
1.730780771769789173e+00 3.935490916990107166e+02
1.730880793774630444e+00 3.932386708975033116e+02
1.730980815779471493e+00 3.929286571153890577e+02
1.731080837784312321e+00 3.926190543136125370e+02
1.731180859789153370e+00 3.923098664481248079e+02
1.731280881793994642e+00 3.920010974697878510e+02
1.731380903798835691e+00 3.916927513242787882e+02
1.731480925803676740e+00 3.913848319519958068e+02
1.731580947808517790e+00 3.910773432879600477e+02
1.731680969813358839e+00 3.907702892617235193e+02
1.731780991818199666e+00 3.904636737972722358e+02
1.731881013823040938e+00 3.901575008129308344e+02
1.731981035827881987e+00 3.898517742212677604e+02
1.732081057832723037e+00 3.895464979290003384e+02
1.732181079837564308e+00 3.892416758369009813e+02
1.732281101842405358e+00 3.889373118397012945e+02
1.732381123847246407e+00 3.886334098259973757e+02
1.732481145852087234e+00 3.883299736781560796e+02
1.732581167856928284e+00 3.880270072722190093e+02
1.732681189861769333e+00 3.877245144778108852e+02
1.732781211866610604e+00 3.874224991580430242e+02
1.732881233871451654e+00 3.871209651694201739e+02
1.732981255876292703e+00 3.868199163617458112e+02
1.733081277881133975e+00 3.865193565780297149e+02
1.733181299885974802e+00 3.862192896543926395e+02
1.733281321890815851e+00 3.859197194199747400e+02
1.733381343895656901e+00 3.856206496968393367e+02
1.733481365900497950e+00 3.853220842998813396e+02
1.733581387905339000e+00 3.850240270367356175e+02
1.733681409910180271e+00 3.847264817076797385e+02
1.733781431915021320e+00 3.844294521055452947e+02
1.733881453919862148e+00 3.841329420156228025e+02
1.733981475924703197e+00 3.838369552155696169e+02
1.734081497929544469e+00 3.835414954753172765e+02
1.734181519934385518e+00 3.832465665569799285e+02
1.734281541939226567e+00 3.829521722147618448e+02
1.734381563944067617e+00 3.826583161948648240e+02
1.734481585948908666e+00 3.823650022353964459e+02
1.734581607953749494e+00 3.820722340662805436e+02
1.734681629958590765e+00 3.817800154091626155e+02
1.734781651963431814e+00 3.814883499773202402e+02
1.734881673968272864e+00 3.811972414755717864e+02
1.734981695973114135e+00 3.809066936001856334e+02
1.735081717977955185e+00 3.806167100387884830e+02
1.735181739982796012e+00 3.803272944702753762e+02
1.735281761987637061e+00 3.800384505647202218e+02
1.735381783992478111e+00 3.797501819832838805e+02
1.735481805997319160e+00 3.794624923781249208e+02
1.735581828002160432e+00 3.791753853923104316e+02
1.735681850007001481e+00 3.788888646597247316e+02
1.735781872011842530e+00 3.786029338049827402e+02
1.735881894016683358e+00 3.783175964433368677e+02
1.735981916021524629e+00 3.780328561805922050e+02
1.736081938026365679e+00 3.777487166130142668e+02
1.736181960031206728e+00 3.774651813272421919e+02
1.736281982036047777e+00 3.771822539002012036e+02
1.736382004040888827e+00 3.768999378990116043e+02
1.736482026045730098e+00 3.766182368809025434e+02
1.736582048050570926e+00 3.763371543931256724e+02
1.736682070055411975e+00 3.760566939728652756e+02
1.736782092060253024e+00 3.757768591471523223e+02
1.736882114065094296e+00 3.754976534327770423e+02
1.736982136069935345e+00 3.752190803362022962e+02
1.737082158074776395e+00 3.749411433534771163e+02
1.737182180079617444e+00 3.746638459701496799e+02
1.737282202084458271e+00 3.743871916611828397e+02
1.737382224089299321e+00 3.741111838908663003e+02
1.737482246094140592e+00 3.738358261127329456e+02
1.737582268098981642e+00 3.735611217694717539e+02
1.737682290103822691e+00 3.732870742928444088e+02
1.737782312108663962e+00 3.730136871035998638e+02
1.737882334113505012e+00 3.727409636113883948e+02
1.737982356118345839e+00 3.724689072146805984e+02
1.738082378123186889e+00 3.721975213006786021e+02
1.738182400128027938e+00 3.719268092452385872e+02
1.738282422132868987e+00 3.716567744127805213e+02
1.738382444137710259e+00 3.713874201562105100e+02
1.738482466142551308e+00 3.711187498168350203e+02
1.738582488147392358e+00 3.708507667242776620e+02
1.738682510152233185e+00 3.705834741964000614e+02
1.738782532157074456e+00 3.703168755392164826e+02
1.738882554161915506e+00 3.700509740468132236e+02
1.738982576166756555e+00 3.697857730012675006e+02
1.739082598171597605e+00 3.695212756725663894e+02
1.739182620176438654e+00 3.692574853185244592e+02
1.739282642181279925e+00 3.689944051847048172e+02
1.739382664186120753e+00 3.687320385043381066e+02
1.739482686190961802e+00 3.684703884982422437e+02
1.739582708195802851e+00 3.682094583747430079e+02
1.739682730200644123e+00 3.679492513295949720e+02
1.739782752205485172e+00 3.676897705459019221e+02
1.739882774210326222e+00 3.674310191940379013e+02
1.739982796215167271e+00 3.671730004315691076e+02
1.740082818220008098e+00 3.669157174031760746e+02
1.740182840224849148e+00 3.666591732405748871e+02
1.740282862229690419e+00 3.664033710624410105e+02
1.740382884234531469e+00 3.661483139743311881e+02
1.740482906239372518e+00 3.658940050686065319e+02
1.740582928244213790e+00 3.656404474243565232e+02
1.740682950249054839e+00 3.653876441073220462e+02
1.740782972253895666e+00 3.651355981698212645e+02
1.740882994258736716e+00 3.648843126506710632e+02
1.740983016263577765e+00 3.646337905751162225e+02
1.741083038268418814e+00 3.643840349547501773e+02
1.741183060273260086e+00 3.641350487874431110e+02
1.741283082278101135e+00 3.638868350572672057e+02
1.741383104282942185e+00 3.636393967344230873e+02
1.741483126287783012e+00 3.633927367751662132e+02
1.741583148292624283e+00 3.631468581217333735e+02
1.741683170297465333e+00 3.629017637022708413e+02
1.741783192302306382e+00 3.626574564307608739e+02
1.741883214307147432e+00 3.624139392069516816e+02
1.741983236311988481e+00 3.621712149162829064e+02
1.742083258316829752e+00 3.619292864298177506e+02
1.742183280321670580e+00 3.616881566041690235e+02
1.742283302326511629e+00 3.614478282814304180e+02
1.742383324331352679e+00 3.612083042891063656e+02
1.742483346336193950e+00 3.609695874400409821e+02
1.742583368341034999e+00 3.607316805323500262e+02
1.742683390345876049e+00 3.604945863493512093e+02
1.742783412350717098e+00 3.602583076594956424e+02
1.742883434355557926e+00 3.600228472163001925e+02
1.742983456360398975e+00 3.597882077582785314e+02
1.743083478365240246e+00 3.595543920088750838e+02
1.743183500370081296e+00 3.593214026763963602e+02
1.743283522374922345e+00 3.590892424539453032e+02
1.743383544379763617e+00 3.588579140193552917e+02
1.743483566384604666e+00 3.586274200351236914e+02
1.743583588389445493e+00 3.583977631483459731e+02
1.743683610394286543e+00 3.581689459906517641e+02
1.743783632399127592e+00 3.579409711781391934e+02
1.743883654403968642e+00 3.577138413113107731e+02
1.743983676408809913e+00 3.574875589750105291e+02
1.744083698413650962e+00 3.572621267383593135e+02
1.744183720418492012e+00 3.570375471546927315e+02
1.744283742423332839e+00 3.568138227614973061e+02
1.744383764428174111e+00 3.565909560803506224e+02
1.744483786433015160e+00 3.563689496168559572e+02
1.744583808437856209e+00 3.561478058605850947e+02
1.744683830442697259e+00 3.559275272850136957e+02
1.744783852447538308e+00 3.557081163474634877e+02
1.744883874452379580e+00 3.554895754890407034e+02
1.744983896457220407e+00 3.552719071345768498e+02
1.745083918462061456e+00 3.550551136925700462e+02
1.745183940466902506e+00 3.548391975551246560e+02
1.745283962471743777e+00 3.546241610978956373e+02
1.745383984476584827e+00 3.544100066800274362e+02
1.745484006481425876e+00 3.541967366440994738e+02
1.745584028486266925e+00 3.539843533160674269e+02
1.745684050491107753e+00 3.537728590052065556e+02
1.745784072495948802e+00 3.535622560040563940e+02
1.745884094500790074e+00 3.533525465883649304e+02
1.745984116505631123e+00 3.531437330170336963e+02
1.746084138510472172e+00 3.529358175320614350e+02
1.746184160515313444e+00 3.527288023584915209e+02
1.746284182520154493e+00 3.525226897043570489e+02
1.746384204524995321e+00 3.523174817606283682e+02
1.746484226529836370e+00 3.521131807011591945e+02
1.746584248534677419e+00 3.519097886826345416e+02
1.746684270539518469e+00 3.517073078445188230e+02
1.746784292544359740e+00 3.515057403090040680e+02
1.746884314549200790e+00 3.513050881809583075e+02
1.746984336554041839e+00 3.511053535478762342e+02
1.747084358558882666e+00 3.509065384798287255e+02
1.747184380563723938e+00 3.507086450294117412e+02
1.747284402568564987e+00 3.505116752316978932e+02
1.747384424573406037e+00 3.503156311041897766e+02
1.747484446578247086e+00 3.501205146467675604e+02
1.747584468583088135e+00 3.499263278416452749e+02
1.747684490587929407e+00 3.497330726533199368e+02
1.747784512592770234e+00 3.495407510285285753e+02
1.747884534597611284e+00 3.493493648961980966e+02
1.747984556602452333e+00 3.491589161674024808e+02
1.748084578607293604e+00 3.489694067353149194e+02
1.748184600612134654e+00 3.487808384751640460e+02
1.748284622616975703e+00 3.485932132441900535e+02
1.748384644621816753e+00 3.484065328816010947e+02
1.748484666626657580e+00 3.482207992085268984e+02
1.748584688631498629e+00 3.480360140279797179e+02
1.748684710636339901e+00 3.478521791248095951e+02
1.748784732641180950e+00 3.476692962656625241e+02
1.748884754646021999e+00 3.474873671989399782e+02
1.748984776650863271e+00 3.473063936547577555e+02
1.749084798655704320e+00 3.471263773449040855e+02
1.749184820660545148e+00 3.469473199628016005e+02
1.749284842665386197e+00 3.467692231834673748e+02
1.749384864670227246e+00 3.465920886634727367e+02
1.749484886675068296e+00 3.464159180409060355e+02
1.749584908679909567e+00 3.462407129353363189e+02
1.749684930684750617e+00 3.460664749477710984e+02
1.749784952689591666e+00 3.458932056606246306e+02
1.749884974694432493e+00 3.457209066376782971e+02
1.749984996699273765e+00 3.455495794240467831e+02
1.750085018704114814e+00 3.453792255461399918e+02
1.750185040708955864e+00 3.452098465116314401e+02
1.750285062713796913e+00 3.450414438094209686e+02
1.750385084718637962e+00 3.448740189096042741e+02
1.750485106723479234e+00 3.447075732634356200e+02
1.750585128728320061e+00 3.445421083032975957e+02
1.750685150733161111e+00 3.443776254426686592e+02
1.750785172738002160e+00 3.442141260760910200e+02
1.750885194742843431e+00 3.440516115791387506e+02
1.750985216747684481e+00 3.438900833083883413e+02
1.751085238752525530e+00 3.437295426013886299e+02
1.751185260757366580e+00 3.435699907766279466e+02
1.751285282762207407e+00 3.434114291335103530e+02
1.751385304767048456e+00 3.432538589523228438e+02
1.751485326771889728e+00 3.430972814942080049e+02
1.751585348776730777e+00 3.429416980011383203e+02
1.751685370781571827e+00 3.427871096958869543e+02
1.751785392786413098e+00 3.426335177820028548e+02
1.751885414791254147e+00 3.424809234437840360e+02
1.751985436796094975e+00 3.423293278462511466e+02
1.752085458800936024e+00 3.421787321351267792e+02
1.752185480805777074e+00 3.420291374368038078e+02
1.752285502810618123e+00 3.418805448583300972e+02
1.752385524815459394e+00 3.417329554873779784e+02
1.752485546820300444e+00 3.415863703922256605e+02
1.752585568825141271e+00 3.414407906217339814e+02
1.752685590829982321e+00 3.412962172053246945e+02
1.752785612834823592e+00 3.411526511529593222e+02
1.752885634839664641e+00 3.410100934551182945e+02
1.752985656844505691e+00 3.408685450827805994e+02
1.753085678849346740e+00 3.407280069874071842e+02
1.753185700854187790e+00 3.405884801009166267e+02
1.753285722859028617e+00 3.404499653356725162e+02
1.753385744863869888e+00 3.403124635844613977e+02
1.753485766868710938e+00 3.401759757204771404e+02
1.753585788873551987e+00 3.400405025973043394e+02
1.753685810878393259e+00 3.399060450489016034e+02
1.753785832883234308e+00 3.397726038895852412e+02
1.753885854888075357e+00 3.396401799140159596e+02
1.753985876892916185e+00 3.395087738971832891e+02
1.754085898897757234e+00 3.393783865943906903e+02
1.754185920902598284e+00 3.392490187412422529e+02
1.754285942907439555e+00 3.391206710536322362e+02
1.754385964912280604e+00 3.389933442277290396e+02
1.754485986917121654e+00 3.388670389399659371e+02
1.754586008921962925e+00 3.387417558470289123e+02
1.754686030926803753e+00 3.386174955858461999e+02
1.754786052931644802e+00 3.384942587735763482e+02
1.754886074936485851e+00 3.383720460076021936e+02
1.754986096941326901e+00 3.382508578655184124e+02
1.755086118946167950e+00 3.381306949051247557e+02
1.755186140951009222e+00 3.380115576644167277e+02
1.755286162955850271e+00 3.378934466615802990e+02
1.755386184960691098e+00 3.377763623949833232e+02
1.755486206965532148e+00 3.376603053431687158e+02
1.755586228970373419e+00 3.375452759648511574e+02
1.755686250975214469e+00 3.374312746989090215e+02
1.755786272980055518e+00 3.373183019643818739e+02
1.755886294984896567e+00 3.372063581604651290e+02
1.755986316989737617e+00 3.370954436665069807e+02
1.756086338994578444e+00 3.369855588420062986e+02
1.756186360999419716e+00 3.368767040266078538e+02
1.756286383004260765e+00 3.367688795401028869e+02
1.756386405009101814e+00 3.366620856824252428e+02
1.756486427013943086e+00 3.365563227336548948e+02
1.756586449018784135e+00 3.364515909540123744e+02
1.756686471023625185e+00 3.363478905838628634e+02
1.756786493028466012e+00 3.362452218437161378e+02
1.756886515033307061e+00 3.361435849342267943e+02
1.756986537038148111e+00 3.360429800361986281e+02
1.757086559042989382e+00 3.359434073105854850e+02
1.757186581047830432e+00 3.358448668984934784e+02
1.757286603052671481e+00 3.357473589211882654e+02
1.757386625057512752e+00 3.356508834800949330e+02
1.757486647062353580e+00 3.355554406568060699e+02
1.757586669067194629e+00 3.354610305130859160e+02
1.757686691072035678e+00 3.353676530908760469e+02
1.757786713076876728e+00 3.352753084123015697e+02
1.757886735081717777e+00 3.351839964796788536e+02
1.757986757086559049e+00 3.350937172755232609e+02
1.758086779091400098e+00 3.350044707625575029e+02
1.758186801096240925e+00 3.349162568837179492e+02
1.758286823101081975e+00 3.348290755621666790e+02
1.758386845105923246e+00 3.347429267013006893e+02
1.758486867110764296e+00 3.346578101847607059e+02
1.758586889115605345e+00 3.345737258764438025e+02
1.758686911120446394e+00 3.344906736205141442e+02
1.758786933125287444e+00 3.344086532414146404e+02
1.758886955130128271e+00 3.343276645438812125e+02
1.758986977134969543e+00 3.342477073129522864e+02
1.759086999139810592e+00 3.341687813139872674e+02
1.759187021144651641e+00 3.340908862926759184e+02
1.759287043149492913e+00 3.340140219750576875e+02
1.759387065154333962e+00 3.339381880675327352e+02
1.759487087159175012e+00 3.338633842568817158e+02
1.759587109164015839e+00 3.337896102102793634e+02
1.759687131168856888e+00 3.337168655753123403e+02
1.759787153173697938e+00 3.336451499799966314e+02
1.759887175178539209e+00 3.335744630327974960e+02
1.759987197183380259e+00 3.335048043226440768e+02
1.760087219188221308e+00 3.334361734189517392e+02
1.760187241193062579e+00 3.333685698716421939e+02
1.760287263197903407e+00 3.333019932111604930e+02
1.760387285202744456e+00 3.332364429484997572e+02
1.760487307207585506e+00 3.331719185752183989e+02
1.760587329212426555e+00 3.331084195634658727e+02
1.760687351217267604e+00 3.330459453660026838e+02
1.760787373222108876e+00 3.329844954162240356e+02
1.760887395226949925e+00 3.329240691281843851e+02
1.760987417231790753e+00 3.328646658966187033e+02
1.761087439236631802e+00 3.328062850969704982e+02
1.761187461241473073e+00 3.327489260854146096e+02
1.761287483246314123e+00 3.326925881988829587e+02
1.761387505251155172e+00 3.326372707550926293e+02
1.761487527255996222e+00 3.325829730525713899e+02
1.761587549260837271e+00 3.325296943706833304e+02
1.761687571265678098e+00 3.324774339696597849e+02
1.761787593270519370e+00 3.324261910906257640e+02
1.761887615275360419e+00 3.323759649556295130e+02
1.761987637280201469e+00 3.323267547676712752e+02
1.762087659285042740e+00 3.322785597107347257e+02
1.762187681289883789e+00 3.322313789498149390e+02
1.762287703294724839e+00 3.321852116309521534e+02
1.762387725299565666e+00 3.321400568812608753e+02
1.762487747304406716e+00 3.320959138089649514e+02
1.762587769309247765e+00 3.320527815034271839e+02
1.762687791314089036e+00 3.320106590351831528e+02
1.762787813318930086e+00 3.319695454559754921e+02
1.762887835323771135e+00 3.319294397987898151e+02
1.762987857328612407e+00 3.318903410778855232e+02
1.763087879333453234e+00 3.318522482888338914e+02
1.763187901338294283e+00 3.318151604085519466e+02
1.763287923343135333e+00 3.317790763953415762e+02
1.763387945347976382e+00 3.317439951889231793e+02
1.763487967352817432e+00 3.317099157104741494e+02
1.763587989357658703e+00 3.316768368626682104e+02
1.763688011362499752e+00 3.316447575297110006e+02
1.763788033367340580e+00 3.316136765773807156e+02
1.763888055372181629e+00 3.315835928530668184e+02
1.763988077377022901e+00 3.315545051858113652e+02
1.764088099381863950e+00 3.315264123863458963e+02
1.764188121386704999e+00 3.314993132471366835e+02
1.764288143391546049e+00 3.314732065424230427e+02
1.764388165396387098e+00 3.314480910282602508e+02
1.764488187401227925e+00 3.314239654425620643e+02
1.764588209406069197e+00 3.314008285051439202e+02
1.764688231410910246e+00 3.313786789177654555e+02
1.764788253415751296e+00 3.313575153641742190e+02
1.764888275420592567e+00 3.313373365101522836e+02
1.764988297425433617e+00 3.313181410035582530e+02
1.765088319430274666e+00 3.312999274743750675e+02
1.765188341435115493e+00 3.312826945347541141e+02
1.765288363439956543e+00 3.312664407790632026e+02
1.765388385444797592e+00 3.312511647839320403e+02
1.765488407449638864e+00 3.312368651083001510e+02
1.765588429454479913e+00 3.312235402934658737e+02
1.765688451459320962e+00 3.312111888631310421e+02
1.765788473464162234e+00 3.311998093234563498e+02
1.765888495469003061e+00 3.311894001631036417e+02
1.765988517473844110e+00 3.311799598532903133e+02
1.766088539478685160e+00 3.311714868478379117e+02
1.766188561483526209e+00 3.311639795832221012e+02
1.766288583488367259e+00 3.311574364786271758e+02
1.766388605493208530e+00 3.311518559359934670e+02
1.766488627498049580e+00 3.311472363400727090e+02
1.766588649502890407e+00 3.311435760584797663e+02
1.766688671507731456e+00 3.311408734417445885e+02
1.766788693512572728e+00 3.311391268233680876e+02
1.766888715517413777e+00 3.311383345198746611e+02
1.766988737522254826e+00 3.311384948308665344e+02
1.767088759527095876e+00 3.311396060390804905e+02
1.767188781531936925e+00 3.311416664104415304e+02
1.767288803536777753e+00 3.311446741941186929e+02
1.767388825541619024e+00 3.311486276225834899e+02
1.767488847546460073e+00 3.311535249116660111e+02
1.767588869551301123e+00 3.311593642606100047e+02
1.767688891556142394e+00 3.311661438521328478e+02
1.767788913560983444e+00 3.311738618524842650e+02
1.767888935565824493e+00 3.311825164115027178e+02
1.767988957570665320e+00 3.311921056626767381e+02
1.768088979575506370e+00 3.312026277232037614e+02
1.768189001580347419e+00 3.312140806940484481e+02
1.768289023585188691e+00 3.312264626600060637e+02
1.768389045590029740e+00 3.312397716897609712e+02
1.768489067594870789e+00 3.312540058359498403e+02
1.768589089599712061e+00 3.312691631352210493e+02
1.768689111604552888e+00 3.312852416082994864e+02
1.768789133609393938e+00 3.313022392600473722e+02
1.768889155614234987e+00 3.313201540795275832e+02
1.768989177619076036e+00 3.313389840400681123e+02
1.769089199623917086e+00 3.313587270993250513e+02
1.769189221628758357e+00 3.313793811993467671e+02
1.769289243633599407e+00 3.314009442666394420e+02
1.769389265638440234e+00 3.314234142122322737e+02
1.769489287643281283e+00 3.314467889317414233e+02
1.769589309648122555e+00 3.314710663054383986e+02
1.769689331652963604e+00 3.314962441983141161e+02
1.769789353657804654e+00 3.315223204601484213e+02
1.769889375662645703e+00 3.315492929255746049e+02
1.769989397667486530e+00 3.315771594141485821e+02
1.770089419672327580e+00 3.316059177304169907e+02
1.770189441677168851e+00 3.316355656639849485e+02
1.770289463682009901e+00 3.316661009895851748e+02
1.770389485686850950e+00 3.316975214671472827e+02
1.770489507691692221e+00 3.317298248418675257e+02
1.770589529696533271e+00 3.317630088442795113e+02
1.770689551701374098e+00 3.317970711903218444e+02
1.770789573706215148e+00 3.318320095814130468e+02
1.770889595711056197e+00 3.318678217045192014e+02
1.770989617715897246e+00 3.319045052322288711e+02
1.771089639720738518e+00 3.319420578228212548e+02
1.771189661725579567e+00 3.319804771203408791e+02
1.771289683730420617e+00 3.320197607546710969e+02
1.771389705735261444e+00 3.320599063416045738e+02
1.771489727740102715e+00 3.321009114829191162e+02
1.771589749744943765e+00 3.321427737664506594e+02
1.771689771749784814e+00 3.321854907661668790e+02
1.771789793754625864e+00 3.322290600422423950e+02
1.771889815759466913e+00 3.322734791411345441e+02
1.771989837764308184e+00 3.323187455956566509e+02
1.772089859769149012e+00 3.323648569250549940e+02
1.772189881773990061e+00 3.324118106350850894e+02
1.772289903778831111e+00 3.324596042180876339e+02
1.772389925783672382e+00 3.325082351530651295e+02
1.772489947788513431e+00 3.325577009057581677e+02
1.772589969793354481e+00 3.326079989287243279e+02
1.772689991798195530e+00 3.326591266614154847e+02
1.772790013803036357e+00 3.327110815302557967e+02
1.772890035807877407e+00 3.327638609487194117e+02
1.772990057812718678e+00 3.328174623174097633e+02
1.773090079817559728e+00 3.328718830241400610e+02
1.773190101822400777e+00 3.329271204440090060e+02
1.773290123827242049e+00 3.329831719394856577e+02
1.773390145832083098e+00 3.330400348604849228e+02
1.773490167836923925e+00 3.330977065444502614e+02
1.773590189841764975e+00 3.331561843164350876e+02
1.773690211846606024e+00 3.332154654891803602e+02
1.773790233851447073e+00 3.332755473632007579e+02
1.773890255856288345e+00 3.333364272268624404e+02
1.773990277861129394e+00 3.333981023564667225e+02
1.774090299865970444e+00 3.334605700163324400e+02
1.774190321870811271e+00 3.335238274588770082e+02
1.774290343875652542e+00 3.335878719247022559e+02
1.774390365880493592e+00 3.336527006426739490e+02
1.774490387885334641e+00 3.337183108300085905e+02
1.774590409890175691e+00 3.337846996923549909e+02
1.774690431895016740e+00 3.338518644238790785e+02
1.774790453899858012e+00 3.339198022073482548e+02
1.774890475904698839e+00 3.339885102142161486e+02
1.774990497909539888e+00 3.340579856047076532e+02
1.775090519914380938e+00 3.341282255279030551e+02
1.775190541919222209e+00 3.341992271218245492e+02
1.775290563924063258e+00 3.342709875135226980e+02
1.775390585928904308e+00 3.343435038191600484e+02
1.775490607933745357e+00 3.344167731440995794e+02
1.775590629938586185e+00 3.344907925829908208e+02
1.775690651943427234e+00 3.345655592198548334e+02
1.775790673948268505e+00 3.346410701281745332e+02
1.775890695953109555e+00 3.347173223709793888e+02
1.775990717957950604e+00 3.347943130009335277e+02
1.776090739962791876e+00 3.348720390604254931e+02
1.776190761967632925e+00 3.349504975816527121e+02
1.776290783972473752e+00 3.350296855867127874e+02
1.776390805977314802e+00 3.351096000876913763e+02
1.776490827982155851e+00 3.351902380867499005e+02
1.776590849986996901e+00 3.352715965762160408e+02
1.776690871991838172e+00 3.353536725386724697e+02
1.776790893996679221e+00 3.354364629470443333e+02
1.776890916001520271e+00 3.355199647646945209e+02
1.776990938006361098e+00 3.356041749455071113e+02
1.777090960011202370e+00 3.356890904339808799e+02
1.777190982016043419e+00 3.357747081653195096e+02
1.777291004020884468e+00 3.358610250655219147e+02
1.777391026025725518e+00 3.359480380514737590e+02
1.777491048030566567e+00 3.360357440310367565e+02
1.777591070035407839e+00 3.361241399031410424e+02
1.777691092040248666e+00 3.362132225578768612e+02
1.777791114045089715e+00 3.363029888765860278e+02
1.777891136049930765e+00 3.363934357319527635e+02
1.777991158054772036e+00 3.364845599880977147e+02
1.778091180059613086e+00 3.365763585006682774e+02
1.778191202064454135e+00 3.366688281169313655e+02
1.778291224069295184e+00 3.367619656758677138e+02
1.778391246074136012e+00 3.368557680082620891e+02
1.778491268078977061e+00 3.369502319367979339e+02
1.778591290083818333e+00 3.370453542761505332e+02
1.778691312088659382e+00 3.371411318330793847e+02
1.778791334093500431e+00 3.372375614065222180e+02
1.778891356098341703e+00 3.373346397876884453e+02
1.778991378103182752e+00 3.374323637601540327e+02
1.779091400108023580e+00 3.375307300999537006e+02
1.779191422112864629e+00 3.376297355756759657e+02
1.779291444117705678e+00 3.377293769485580697e+02
1.779391466122546728e+00 3.378296509725782926e+02
1.779491488127387999e+00 3.379305543945542354e+02
1.779591510132229049e+00 3.380320839542337694e+02
1.779691532137070098e+00 3.381342363843917269e+02
1.779791554141910925e+00 3.382370084109250001e+02
1.779891576146752197e+00 3.383403967529470151e+02
1.779991598151593246e+00 3.384443981228835696e+02
1.780091620156434296e+00 3.385490092265683870e+02
1.780191642161275345e+00 3.386542267633370216e+02
1.780291664166116394e+00 3.387600474261263912e+02
1.780391686170957666e+00 3.388664679015658407e+02
1.780491708175798493e+00 3.389734848700755379e+02
1.780591730180639543e+00 3.390810950059631068e+02
1.780691752185480592e+00 3.391892949775182160e+02
1.780791774190321863e+00 3.392980814471095528e+02
1.780891796195162913e+00 3.394074510712812298e+02
1.780991818200003962e+00 3.395174005008494760e+02
1.781091840204845012e+00 3.396279263809976783e+02
1.781191862209685839e+00 3.397390253513756875e+02
1.781291884214526888e+00 3.398506940461936665e+02
1.781391906219368160e+00 3.399629290943214528e+02
1.781491928224209209e+00 3.400757271193839983e+02
1.781591950229050259e+00 3.401890847398576625e+02
1.781691972233891530e+00 3.403029985691703132e+02
1.781791994238732579e+00 3.404174652157946639e+02
1.781892016243573407e+00 3.405324812833487726e+02
1.781992038248414456e+00 3.406480433706910844e+02
1.782092060253255505e+00 3.407641480720190543e+02
1.782192082258096555e+00 3.408807919769652131e+02
1.782292104262937826e+00 3.409979716706975523e+02
1.782392126267778876e+00 3.411156837340132597e+02
1.782492148272619925e+00 3.412339247434395588e+02
1.782592170277460752e+00 3.413526912713296042e+02
1.782692192282302024e+00 3.414719798859597404e+02
1.782792214287143073e+00 3.415917871516301147e+02
1.782892236291984123e+00 3.417121096287580144e+02
1.782992258296825172e+00 3.418329438739804687e+02
1.783092280301666221e+00 3.419542864402486089e+02
1.783192302306507493e+00 3.420761338769278836e+02
1.783292324311348320e+00 3.421984827298929304e+02
1.783392346316189370e+00 3.423213295416292681e+02
1.783492368321030419e+00 3.424446708513294766e+02
1.783592390325871690e+00 3.425685031949904555e+02
1.783692412330712740e+00 3.426928231055129004e+02
1.783792434335553789e+00 3.428176271127977088e+02
1.783892456340394839e+00 3.429429117438469916e+02
1.783992478345235666e+00 3.430686735228578641e+02
1.784092500350076715e+00 3.431949089713240824e+02
1.784192522354917987e+00 3.433216146081329612e+02
1.784292544359759036e+00 3.434487869496620647e+02
1.784392566364600086e+00 3.435764225098793077e+02
1.784492588369441357e+00 3.437045178004404420e+02
1.784592610374282406e+00 3.438330693307867136e+02
1.784692632379123234e+00 3.439620736082420080e+02
1.784792654383964283e+00 3.440915271381115303e+02
1.784892676388805333e+00 3.442214264237822476e+02
1.784992698393646382e+00 3.443517679668162828e+02
1.785092720398487653e+00 3.444825482670524934e+02
1.785192742403328703e+00 3.446137638227028219e+02
1.785292764408169752e+00 3.447454111304490425e+02
1.785392786413010580e+00 3.448774866855443975e+02
1.785492808417851851e+00 3.450099869819060814e+02
1.785592830422692900e+00 3.451429085122182983e+02
1.785692852427533950e+00 3.452762477680250868e+02
1.785792874432374999e+00 3.454100012398316153e+02
1.785892896437216049e+00 3.455441654172003041e+02
1.785992918442057320e+00 3.456787367888481981e+02
1.786092940446898147e+00 3.458137118427450787e+02
1.786192962451739197e+00 3.459490870662098132e+02
1.786292984456580246e+00 3.460848589460089215e+02
1.786393006461421518e+00 3.462210239684525277e+02
1.786493028466262567e+00 3.463575786194937791e+02
1.786593050471103616e+00 3.464945193848230360e+02
1.786693072475944666e+00 3.466318427499666655e+02
1.786793094480785493e+00 3.467695452003840160e+02
1.786893116485626543e+00 3.469076232215643358e+02
1.786993138490467814e+00 3.470460732991220993e+02
1.787093160495308863e+00 3.471848919188963691e+02
1.787193182500149913e+00 3.473240755670439057e+02
1.787293204504991184e+00 3.474636207301388140e+02
1.787393226509832012e+00 3.476035238952676991e+02
1.787493248514673061e+00 3.477437815501265277e+02
1.787593270519514110e+00 3.478843901831144763e+02
1.787693292524355160e+00 3.480253462834335778e+02
1.787793314529196209e+00 3.481666463411821724e+02
1.787893336534037481e+00 3.483082868474517682e+02
1.787993358538878530e+00 3.484502642944224817e+02
1.788093380543719357e+00 3.485925751754595012e+02
1.788193402548560407e+00 3.487352159852056275e+02
1.788293424553401678e+00 3.488781832196810342e+02
1.788393446558242728e+00 3.490214733763754111e+02
1.788493468563083777e+00 3.491650829543435748e+02
1.788593490567924826e+00 3.493090084543023863e+02
1.788693512572765876e+00 3.494532463787215306e+02
1.788793534577606703e+00 3.495977932319224806e+02
1.788893556582447975e+00 3.497426455201702993e+02
1.788993578587289024e+00 3.498877997517689664e+02
1.789093600592130073e+00 3.500332524371563636e+02
1.789193622596971345e+00 3.501790000889958492e+02
1.789293644601812394e+00 3.503250392222739151e+02
1.789393666606653444e+00 3.504713663543898292e+02
1.789493688611494271e+00 3.506179780052526098e+02
1.789593710616335320e+00 3.507648706973727144e+02
1.789693732621176370e+00 3.509120409559554332e+02
1.789793754626017641e+00 3.510594853089947947e+02
1.789893776630858691e+00 3.512072002873650263e+02
1.789993798635699740e+00 3.513551824249139486e+02
1.790093820640541011e+00 3.515034282585571646e+02
1.790193842645381839e+00 3.516519343283675880e+02
1.790293864650222888e+00 3.518006971776695764e+02
1.790393886655063937e+00 3.519497133531289705e+02
1.790493908659904987e+00 3.520989794048483645e+02
1.790593930664746036e+00 3.522484918864549854e+02
1.790693952669587308e+00 3.523982473551938028e+02
1.790793974674428357e+00 3.525482423720177962e+02
1.790893996679269184e+00 3.526984735016819741e+02
1.790994018684110234e+00 3.528489373128284115e+02
1.791094040688951505e+00 3.529996303780833955e+02
1.791194062693792555e+00 3.531505492741420085e+02
1.791294084698633604e+00 3.533016905818618625e+02
1.791394106703474653e+00 3.534530508863521732e+02
1.791494128708315703e+00 3.536046267770626059e+02
1.791594150713156530e+00 3.537564148478736570e+02
1.791694172717997802e+00 3.539084116971846470e+02
1.791794194722838851e+00 3.540606139280049547e+02
1.791894216727679900e+00 3.542130181480401916e+02
1.791994238732521172e+00 3.543656209697826398e+02
1.792094260737362221e+00 3.545184190105982225e+02
1.792194282742203271e+00 3.546714088928154069e+02
1.792294304747044098e+00 3.548245872438126298e+02
1.792394326751885147e+00 3.549779506961059496e+02
1.792494348756726197e+00 3.551314958874361309e+02
1.792594370761567468e+00 3.552852194608561263e+02
1.792694392766408518e+00 3.554391180648168529e+02
1.792794414771249567e+00 3.555931883532559823e+02
1.792894436776090838e+00 3.557474269856805336e+02
1.792994458780931666e+00 3.559018306272566861e+02
1.793094480785772715e+00 3.560563959488932824e+02
1.793194502790613765e+00 3.562111196273265250e+02
1.793294524795454814e+00 3.563659983452084816e+02
1.793394546800295863e+00 3.565210287911894511e+02
1.793494568805137135e+00 3.566762076600011824e+02
1.793594590809978184e+00 3.568315316525458911e+02
1.793694612814819012e+00 3.569869974759748743e+02
1.793794634819660061e+00 3.571426018437767880e+02
1.793894656824501332e+00 3.572983414758583649e+02
1.793994678829342382e+00 3.574542130986297934e+02
1.794094700834183431e+00 3.576102134450844119e+02
1.794194722839024481e+00 3.577663392548847696e+02
1.794294744843865530e+00 3.579225872744434014e+02
1.794394766848706357e+00 3.580789542570031472e+02
1.794494788853547629e+00 3.582354369627223605e+02
1.794594810858388678e+00 3.583920321587548301e+02
1.794694832863229728e+00 3.585487366193282810e+02
1.794794854868070999e+00 3.587055471258297530e+02
1.794894876872912048e+00 3.588624604668818847e+02
1.794994898877753098e+00 3.590194734384260187e+02
1.795094920882593925e+00 3.591765828438004746e+02
1.795194942887434975e+00 3.593337854938206419e+02
1.795294964892276024e+00 3.594910782068576509e+02
1.795394986897117295e+00 3.596484578089173851e+02
1.795495008901958345e+00 3.598059211337198917e+02
1.795595030906799394e+00 3.599634650227754378e+02
1.795695052911640666e+00 3.601210863254660239e+02
1.795795074916481493e+00 3.602787818991178028e+02
1.795895096921322542e+00 3.604365486090827062e+02
1.795995118926163592e+00 3.605943833288128531e+02
1.796095140931004641e+00 3.607522829399401871e+02
1.796195162935845691e+00 3.609102443323459397e+02
1.796295184940686962e+00 3.610682644042448715e+02
1.796395206945528011e+00 3.612263400622538825e+02
1.796495228950368839e+00 3.613844682214706268e+02
1.796595250955209888e+00 3.615426458055476928e+02
1.796695272960051160e+00 3.617008697467670117e+02
1.796795294964892209e+00 3.618591369861123894e+02
1.796895316969733258e+00 3.620174444733452219e+02
1.796995338974574308e+00 3.621757891670764025e+02
1.797095360979415357e+00 3.623341680348402747e+02
1.797195382984256184e+00 3.624925780531667669e+02
1.797295404989097456e+00 3.626510162076522192e+02
1.797395426993938505e+00 3.628094794930338480e+02
1.797495448998779555e+00 3.629679649132594932e+02
1.797595471003620826e+00 3.631264694815579901e+02
1.797695493008461876e+00 3.632849902205121566e+02
1.797795515013302925e+00 3.634435241621264367e+02
1.797895537018143752e+00 3.636020683478991486e+02
1.797995559022984802e+00 3.637606198288907535e+02
1.798095581027825851e+00 3.639191756657929773e+02
1.798195603032667123e+00 3.640777329289977047e+02
1.798295625037508172e+00 3.642362886986662716e+02
1.798395647042349221e+00 3.643948400647950052e+02
1.798495669047190493e+00 3.645533841272855398e+02
1.798595691052031320e+00 3.647119179960108113e+02
1.798695713056872370e+00 3.648704387908811100e+02
1.798795735061713419e+00 3.650289436419117237e+02
1.798895757066554468e+00 3.651874296892885354e+02
1.798995779071395518e+00 3.653458940834326540e+02
1.799095801076236789e+00 3.655043339850664097e+02
1.799195823081077839e+00 3.656627465652780984e+02
1.799295845085918666e+00 3.658211290055861582e+02
1.799395867090759715e+00 3.659794784980027202e+02
1.799495889095600987e+00 3.661377922450980691e+02
1.799595911100442036e+00 3.662960674600624884e+02
1.799695933105283085e+00 3.664543013667688456e+02
1.799795955110124135e+00 3.666124911998373364e+02
1.799895977114965184e+00 3.667706342046936925e+02
1.799995999119806012e+00 3.669287276376328464e+02
1.800096021124647283e+00 3.670867687658796967e+02
1.800196043129488332e+00 3.672447548676477709e+02
1.800296065134329382e+00 3.674026832322036853e+02
1.800396087139170653e+00 3.675605511599202941e+02
1.800496109144011703e+00 3.677183559623416045e+02
1.800596131148852752e+00 3.678760949622400176e+02
1.800696153153693579e+00 3.680337654936729450e+02
1.800796175158534629e+00 3.681913649020415278e+02
1.800896197163375678e+00 3.683488905441498105e+02
1.800996219168216950e+00 3.685063397882596519e+02
1.801096241173057999e+00 3.686637100141483643e+02
1.801196263177899048e+00 3.688209986131645337e+02
1.801296285182740320e+00 3.689782029882841243e+02
1.801396307187581147e+00 3.691353205541637976e+02
1.801496329192422197e+00 3.692923487372000864e+02
1.801596351197263246e+00 3.694492849755776547e+02
1.801696373202104295e+00 3.696061267193291542e+02
1.801796395206945345e+00 3.697628714303839388e+02
1.801896417211786616e+00 3.699195165826249081e+02
1.801996439216627666e+00 3.700760596619370517e+02
1.802096461221468493e+00 3.702324981662630989e+02
1.802196483226309542e+00 3.703888296056535410e+02
1.802296505231150814e+00 3.705450515023165963e+02
1.802396527235991863e+00 3.707011613906713592e+02
1.802496549240832913e+00 3.708571568173963442e+02
1.802596571245673962e+00 3.710130353414788829e+02
1.802696593250515011e+00 3.711687945342666808e+02
1.802796615255355839e+00 3.713244319795132355e+02
1.802896637260197110e+00 3.714799452734291663e+02
1.802996659265038160e+00 3.716353320247278589e+02
1.803096681269879209e+00 3.717905898546756589e+02
1.803196703274720480e+00 3.719457163971344471e+02
1.803296725279561530e+00 3.721007092986125713e+02
1.803396747284402579e+00 3.722555662183074219e+02
1.803496769289243407e+00 3.724102848281529532e+02
1.803596791294084456e+00 3.725648628128641917e+02
1.803696813298925505e+00 3.727192978699815740e+02
1.803796835303766777e+00 3.728735877099135223e+02
1.803896857308607826e+00 3.730277300559823175e+02
1.803996879313448876e+00 3.731817226444672997e+02
1.804096901318290147e+00 3.733355632246442042e+02
1.804196923323130974e+00 3.734892495588313182e+02
1.804296945327972024e+00 3.736427794224278500e+02
1.804396967332813073e+00 3.737961506039563346e+02
1.804496989337654123e+00 3.739493609051046406e+02
1.804597011342495172e+00 3.741024081407633730e+02
1.804697033347336443e+00 3.742552901390664601e+02
1.804797055352177271e+00 3.744080047414327055e+02
1.804897077357018320e+00 3.745605498025994962e+02
1.804997099361859370e+00 3.747129231906661744e+02
1.805097121366700641e+00 3.748651227871285982e+02
1.805197143371541690e+00 3.750171464869163174e+02
1.805297165376382740e+00 3.751689921984312832e+02
1.805397187381223789e+00 3.753206578435813867e+02
1.805497209386064617e+00 3.754721413578180318e+02
1.805597231390905666e+00 3.756234406901712077e+02
1.805697253395746937e+00 3.757745538032822310e+02
1.805797275400587987e+00 3.759254786734402387e+02
1.805897297405429036e+00 3.760762132906148736e+02
1.805997319410270308e+00 3.762267556584882300e+02
1.806097341415111357e+00 3.763771037944911768e+02
1.806197363419952184e+00 3.765272557298294487e+02
1.806297385424793234e+00 3.766772095095221857e+02
1.806397407429634283e+00 3.768269631924276268e+02
1.806497429434475332e+00 3.769765148512765904e+02
1.806597451439316604e+00 3.771258625727014078e+02
1.806697473444157653e+00 3.772750044572660499e+02
1.806797495448998703e+00 3.774239386194946064e+02
1.806897517453839530e+00 3.775726631879011279e+02
1.806997539458680802e+00 3.777211763050163995e+02
1.807097561463521851e+00 3.778694761274157372e+02
1.807197583468362900e+00 3.780175608257459885e+02
1.807297605473203950e+00 3.781654285847532719e+02
1.807397627478044999e+00 3.783130776033070788e+02
1.807497649482886271e+00 3.784605060944271600e+02
1.807597671487727098e+00 3.786077122853079118e+02
1.807697693492568147e+00 3.787546944173430461e+02
1.807797715497409197e+00 3.789014507461495782e+02
1.807897737502250468e+00 3.790479795415904505e+02
1.807997759507091518e+00 3.791942790877998846e+02
1.808097781511932567e+00 3.793403476832023671e+02
1.808197803516773616e+00 3.794861836405369786e+02
1.808297825521614444e+00 3.796317852868775731e+02
1.808397847526455493e+00 3.797771509636547762e+02
1.808497869531296764e+00 3.799222790266756533e+02
1.808597891536137814e+00 3.800671678461429792e+02
1.808697913540978863e+00 3.802118158066750198e+02
1.808797935545820135e+00 3.803562213073248586e+02
1.808897957550661184e+00 3.805003827615980185e+02
1.808997979555502011e+00 3.806442985974704243e+02
1.809098001560343061e+00 3.807879672574052279e+02
1.809198023565184110e+00 3.809313871983699755e+02
1.809298045570025160e+00 3.810745568918531490e+02
1.809398067574866431e+00 3.812174748238786037e+02
1.809498089579707480e+00 3.813601394950214285e+02
1.809598111584548530e+00 3.815025494204235201e+02
1.809698133589389357e+00 3.816447031298060324e+02
1.809798155594230629e+00 3.817865991674832458e+02
1.809898177599071678e+00 3.819282360923762099e+02
1.809998199603912727e+00 3.820696124780266700e+02
1.810098221608753777e+00 3.822107269126057645e+02
1.810198243613594826e+00 3.823515779989273824e+02
1.810298265618436098e+00 3.824921643544601011e+02
1.810398287623276925e+00 3.826324846113353715e+02
1.810498309628117974e+00 3.827725374163592278e+02
1.810598331632959024e+00 3.829123214310222352e+02
1.810698353637800295e+00 3.830518353315046625e+02
1.810798375642641345e+00 3.831910778086897835e+02
1.810898397647482394e+00 3.833300475681689932e+02
1.810998419652323443e+00 3.834687433302490263e+02
1.811098441657164271e+00 3.836071638299594042e+02
1.811198463662005320e+00 3.837453078170581193e+02
1.811298485666846592e+00 3.838831740560397634e+02
1.811398507671687641e+00 3.840207613261365509e+02
1.811498529676528690e+00 3.841580684213274708e+02
1.811598551681369962e+00 3.842950941503390254e+02
1.811698573686211011e+00 3.844318373366506876e+02
1.811798595691051839e+00 3.845682968184987658e+02
1.811898617695892888e+00 3.847044714488770296e+02
1.811998639700733937e+00 3.848403600955396087e+02
1.812098661705574987e+00 3.849759616410040053e+02
1.812198683710416258e+00 3.851112749825498440e+02
1.812298705715257308e+00 3.852462990322210317e+02
1.812398727720098357e+00 3.853810327168266667e+02
1.812498749724939184e+00 3.855154749779375152e+02
1.812598771729780456e+00 3.856496247718881136e+02
1.812698793734621505e+00 3.857834810697739840e+02
1.812798815739462555e+00 3.859170428574495304e+02
1.812898837744303604e+00 3.860503091355255947e+02
1.812998859749144653e+00 3.861832789193672966e+02
1.813098881753985925e+00 3.863159512390893724e+02
1.813198903758826752e+00 3.864483251395527077e+02
1.813298925763667802e+00 3.865803996803587097e+02
1.813398947768508851e+00 3.867121739358472610e+02
1.813498969773350122e+00 3.868436469950870560e+02
1.813598991778191172e+00 3.869748179618727590e+02
1.813699013783032221e+00 3.871056859547162503e+02
1.813799035787873271e+00 3.872362501068407710e+02
1.813899057792714098e+00 3.873665095661739883e+02
1.813999079797555147e+00 3.874964634953367408e+02
1.814099101802396419e+00 3.876261110716383769e+02
1.814199123807237468e+00 3.877554514870649882e+02
1.814299145812078518e+00 3.878844839482698035e+02
1.814399167816919789e+00 3.880132076765651163e+02
1.814499189821760838e+00 3.881416219079097232e+02
1.814599211826601666e+00 3.882697258928984638e+02
1.814699233831442715e+00 3.883975188967489771e+02
1.814799255836283765e+00 3.885250001992939701e+02
1.814899277841124814e+00 3.886521690949617778e+02
1.814999299845966085e+00 3.887790248927703374e+02
1.815099321850807135e+00 3.889055669163079187e+02
1.815199343855648184e+00 3.890317945037226082e+02
1.815299365860489011e+00 3.891577070077051417e+02
1.815399387865330283e+00 3.892833037954760016e+02
1.815499409870171332e+00 3.894085842487672267e+02
1.815599431875012382e+00 3.895335477638095654e+02
1.815699453879853431e+00 3.896581937513116713e+02
1.815799475884694480e+00 3.897825216364469725e+02
1.815899497889535752e+00 3.899065308588340599e+02
1.815999519894376579e+00 3.900302208725177024e+02
1.816099541899217629e+00 3.901535911459529871e+02
1.816199563904058678e+00 3.902766411619832070e+02
1.816299585908899950e+00 3.903993704178228086e+02
1.816399607913740999e+00 3.905217784250347677e+02
1.816499629918582048e+00 3.906438647095135366e+02
1.816599651923423098e+00 3.907656288114602603e+02
1.816699673928263925e+00 3.908870702853636772e+02
1.816799695933104974e+00 3.910081886999771541e+02
1.816899717937946246e+00 3.911289836382968019e+02
1.816999739942787295e+00 3.912494546975379421e+02
1.817099761947628345e+00 3.913696014891119148e+02
1.817199783952469616e+00 3.914894236386020339e+02
1.817299805957310666e+00 3.916089207857393149e+02
1.817399827962151493e+00 3.917280925843789419e+02
1.817499849966992542e+00 3.918469387024708794e+02
1.817599871971833592e+00 3.919654588220395794e+02
1.817699893976674641e+00 3.920836526391532288e+02
1.817799915981515912e+00 3.922015198638999891e+02
1.817899937986356962e+00 3.923190602203579260e+02
1.817999959991198011e+00 3.924362734465700555e+02
1.818099981996038839e+00 3.925531592945150692e+02
1.818200004000880110e+00 3.926697175300782874e+02
1.818300026005721159e+00 3.927859479330234649e+02
1.818400048010562209e+00 3.929018502969622091e+02
1.818500070015403258e+00 3.930174244293250467e+02
1.818600092020244308e+00 3.931326701513303306e+02
1.818700114025085579e+00 3.932475872979541691e+02
1.818800136029926406e+00 3.933621757178975713e+02
1.818900158034767456e+00 3.934764352735560351e+02
1.819000180039608505e+00 3.935903658409864647e+02
1.819100202044449777e+00 3.937039673098754520e+02
1.819200224049290826e+00 3.938172395835044313e+02
1.819300246054131875e+00 3.939301825787176767e+02
1.819400268058972925e+00 3.940427962258873436e+02
1.819500290063813752e+00 3.941550804688799303e+02
1.819600312068654802e+00 3.942670352650202403e+02
1.819700334073496073e+00 3.943786605850561955e+02
1.819800356078337122e+00 3.944899564131235934e+02
1.819900378083178172e+00 3.946009227467093297e+02
1.820000400088019443e+00 3.947115595966151886e+02
1.820100422092860493e+00 3.948218669869206678e+02
1.820200444097701320e+00 3.949318449549443244e+02
1.820300466102542369e+00 3.950414935512077363e+02
1.820400488107383419e+00 3.951508128393954848e+02
1.820500510112224468e+00 3.952598028963159322e+02
1.820600532117065740e+00 3.953684638118655243e+02
1.820700554121906789e+00 3.954767956889836569e+02
1.820800576126747838e+00 3.955847986436168640e+02
1.820900598131588666e+00 3.956924728046764130e+02
1.821000620136429937e+00 3.957998183139975481e+02
1.821100642141270987e+00 3.959068353262989604e+02
1.821200664146112036e+00 3.960135240091397009e+02
1.821300686150953085e+00 3.961198845428781965e+02
1.821400708155794135e+00 3.962259171206287647e+02
1.821500730160635406e+00 3.963316219482188671e+02
1.821600752165476234e+00 3.964369992441461363e+02
1.821700774170317283e+00 3.965420492395348333e+02
1.821800796175158332e+00 3.966467721780891225e+02
1.821900818179999604e+00 3.967511683160520874e+02
1.822000840184840653e+00 3.968552379221580395e+02
1.822100862189681703e+00 3.969589812775890891e+02
1.822200884194522530e+00 3.970623986759267154e+02
1.822300906199363579e+00 3.971654904231087357e+02
1.822400928204204629e+00 3.972682568373795675e+02
1.822500950209045900e+00 3.973706982492462885e+02
1.822600972213886950e+00 3.974728150014286712e+02
1.822700994218727999e+00 3.975746074488131399e+02
1.822801016223569270e+00 3.976760759584029188e+02
1.822901038228410098e+00 3.977772209092726143e+02
1.823001060233251147e+00 3.978780426925158054e+02
1.823101082238092197e+00 3.979785417111972947e+02
1.823201104242933246e+00 3.980787183803046219e+02
1.823301126247774295e+00 3.981785731266950279e+02
1.823401148252615567e+00 3.982781063890489008e+02
1.823501170257456616e+00 3.983773186178160586e+02
1.823601192262297443e+00 3.984762102751656130e+02
1.823701214267138493e+00 3.985747818349348108e+02
1.823801236271979764e+00 3.986730337825764536e+02
1.823901258276820814e+00 3.987709666151080228e+02
1.824001280281661863e+00 3.988685808410576783e+02
1.824101302286502913e+00 3.989658769804112808e+02
1.824201324291343962e+00 3.990628555645614597e+02
1.824301346296184789e+00 3.991595171362505994e+02
1.824401368301026061e+00 3.992558622495196801e+02
1.824501390305867110e+00 3.993518914696518323e+02
1.824601412310708159e+00 3.994476053731205525e+02
1.824701434315549431e+00 3.995430045475309271e+02
1.824801456320390480e+00 3.996380895915679048e+02
1.824901478325231530e+00 3.997328611149380890e+02
1.825001500330072357e+00 3.998273197383147703e+02
1.825101522334913406e+00 3.999214660932818788e+02
1.825201544339754456e+00 4.000153008222771973e+02
1.825301566344595727e+00 4.001088245785345521e+02
1.825401588349436777e+00 4.002020380260274806e+02
1.825501610354277826e+00 4.002949418394111945e+02
1.825601632359119098e+00 4.003875367039649404e+02
1.825701654363959925e+00 4.004798233155331673e+02
1.825801676368800974e+00 4.005718023804677728e+02
1.825901698373642024e+00 4.006634746155681341e+02
1.826001720378483073e+00 4.007548407480229002e+02
1.826101742383324122e+00 4.008459015153506471e+02
1.826201764388165394e+00 4.009366576653380889e+02
1.826301786393006443e+00 4.010271099559833488e+02
1.826401808397847271e+00 4.011172591554318387e+02
1.826501830402688320e+00 4.012071060419190189e+02
1.826601852407529591e+00 4.012966514037064485e+02
1.826701874412370641e+00 4.013858960390224411e+02
1.826801896417211690e+00 4.014748407559998213e+02
1.826901918422052740e+00 4.015634863726140793e+02
1.827001940426893789e+00 4.016518337166210699e+02
1.827101962431734616e+00 4.017398836254952812e+02
1.827201984436575888e+00 4.018276369463659421e+02
1.827302006441416937e+00 4.019150945359551770e+02
1.827402028446257987e+00 4.020022572605135451e+02
1.827502050451099258e+00 4.020891259957589341e+02
1.827602072455940307e+00 4.021757016268089160e+02
1.827702094460781357e+00 4.022619850481213462e+02
1.827802116465622184e+00 4.023479771634243889e+02
1.827902138470463234e+00 4.024336788856583098e+02
1.828002160475304283e+00 4.025190911369056721e+02
1.828102182480145554e+00 4.026042148483277288e+02
1.828202204484986604e+00 4.026890509601004169e+02
1.828302226489827653e+00 4.027736004213472825e+02
1.828402248494668925e+00 4.028578641900738262e+02
1.828502270499509752e+00 4.029418432331015083e+02
1.828602292504350801e+00 4.030255385260023218e+02
1.828702314509191851e+00 4.031089510530298980e+02
1.828802336514032900e+00 4.031920818070558994e+02
1.828902358518873950e+00 4.032749317895007266e+02
1.829002380523715221e+00 4.033575020102658755e+02
1.829102402528556270e+00 4.034397934876685099e+02
1.829202424533397098e+00 4.035218072483722835e+02
1.829302446538238147e+00 4.036035443273202077e+02
1.829402468543079419e+00 4.036850057676642791e+02
1.829502490547920468e+00 4.037661926207013607e+02
1.829602512552761517e+00 4.038471059457995125e+02
1.829702534557602567e+00 4.039277468103334741e+02
1.829802556562443616e+00 4.040081162896124738e+02
1.829902578567284444e+00 4.040882154668141766e+02
1.830002600572125715e+00 4.041680454329110717e+02
1.830102622576966764e+00 4.042476072866051027e+02
1.830202644581807814e+00 4.043269021342559881e+02
1.830302666586649085e+00 4.044059310898098261e+02
1.830402688591490135e+00 4.044846952747309388e+02
1.830502710596331184e+00 4.045631958179313870e+02
1.830602732601172011e+00 4.046414338556981534e+02
1.830702754606013061e+00 4.047194105316256696e+02
1.830802776610854110e+00 4.047971269965420902e+02
1.830902798615695382e+00 4.048745844084394321e+02
1.831002820620536431e+00 4.049517839324021224e+02
1.831102842625377480e+00 4.050287267405356033e+02
1.831202864630218752e+00 4.051054140118940836e+02
1.831302886635059579e+00 4.051818469324095986e+02
1.831402908639900629e+00 4.052580266948190229e+02
1.831502930644741678e+00 4.053339544985932434e+02
1.831602952649582727e+00 4.054096315498634340e+02
1.831702974654423777e+00 4.054850590613495456e+02
1.831802996659265048e+00 4.055602382522875473e+02
1.831903018664106098e+00 4.056351703483560982e+02
1.832003040668946925e+00 4.057098565816048676e+02
1.832103062673787974e+00 4.057842981903799000e+02
1.832203084678629246e+00 4.058584964192513098e+02
1.832303106683470295e+00 4.059324525189412043e+02
1.832403128688311345e+00 4.060061677462464331e+02
1.832503150693152394e+00 4.060796433639699217e+02
1.832603172697993443e+00 4.061528806408432501e+02
1.832703194702834271e+00 4.062258808514538373e+02
1.832803216707675542e+00 4.062986452761723513e+02
1.832903238712516591e+00 4.063711752010764258e+02
1.833003260717357641e+00 4.064434719178777868e+02
1.833103282722198912e+00 4.065155367238480721e+02
1.833203304727039962e+00 4.065873709217425471e+02
1.833303326731881011e+00 4.066589758197297897e+02
1.833403348736721838e+00 4.067303527313110294e+02
1.833503370741562888e+00 4.068015029752510827e+02
1.833603392746403937e+00 4.068724278754995112e+02
1.833703414751245209e+00 4.069431287611176913e+02
1.833803436756086258e+00 4.070136069662032696e+02
1.833903458760927307e+00 4.070838638298162095e+02
1.834003480765768579e+00 4.071539006959004610e+02
1.834103502770609406e+00 4.072237189132114281e+02
1.834203524775450456e+00 4.072933198352409363e+02
1.834303546780291505e+00 4.073627048201389016e+02
1.834403568785132554e+00 4.074318752306400597e+02
1.834503590789973604e+00 4.075008324339888759e+02
1.834603612794814875e+00 4.075695778018616693e+02
1.834703634799655925e+00 4.076381127102919208e+02
1.834803656804496752e+00 4.077064385395954105e+02
1.834903678809337801e+00 4.077745566742928531e+02
1.835003700814179073e+00 4.078424685030352634e+02
1.835103722819020122e+00 4.079101754185262507e+02
1.835203744823861172e+00 4.079776788174483499e+02
1.835303766828702221e+00 4.080449801003848620e+02
1.835403788833543270e+00 4.081120806717441951e+02
1.835503810838384098e+00 4.081789819396856274e+02
1.835603832843225369e+00 4.082456853160392143e+02
1.835703854848066419e+00 4.083121922162338251e+02
1.835803876852907468e+00 4.083785040592175619e+02
1.835903898857748739e+00 4.084446222673833518e+02
1.836003920862589789e+00 4.085105482664913552e+02
1.836103942867430838e+00 4.085762834855946721e+02
1.836203964872271666e+00 4.086418293569595335e+02
1.836303986877112715e+00 4.087071873159922006e+02
1.836404008881953764e+00 4.087723588011613174e+02
1.836504030886795036e+00 4.088373452539199207e+02
1.836604052891636085e+00 4.089021481186323399e+02
1.836704074896477135e+00 4.089667688424943890e+02
1.836804096901318406e+00 4.090312088754591855e+02
1.836904118906159233e+00 4.090954696701592184e+02
1.837004140911000283e+00 4.091595526818308599e+02
1.837104162915841332e+00 4.092234593682379682e+02
1.837204184920682382e+00 4.092871911895944095e+02
1.837304206925523431e+00 4.093507496084882291e+02
1.837404228930364702e+00 4.094141360898061635e+02
1.837504250935205752e+00 4.094773521006550254e+02
1.837604272940046579e+00 4.095403991102882060e+02
1.837704294944887629e+00 4.096032785900254112e+02
1.837804316949728900e+00 4.096659920131816648e+02
1.837904338954569949e+00 4.097285408549847716e+02
1.838004360959410999e+00 4.097909265925049453e+02
1.838104382964252048e+00 4.098531507045736930e+02
1.838204404969093098e+00 4.099152146717119649e+02
1.838304426973933925e+00 4.099771199760496074e+02
1.838404448978775196e+00 4.100388681012525467e+02
1.838504470983616246e+00 4.101004605324459931e+02
1.838604492988457295e+00 4.101618987561363951e+02
1.838704514993298567e+00 4.102231842601389644e+02
1.838804536998139616e+00 4.102843185334979808e+02
1.838904559002980665e+00 4.103453030664143171e+02
1.839004581007821493e+00 4.104061393501673365e+02
1.839104603012662542e+00 4.104668288770401432e+02
1.839204625017503592e+00 4.105273731402436397e+02
1.839304647022344863e+00 4.105877736338400723e+02
1.839404669027185912e+00 4.106480318526702149e+02
1.839504691032026962e+00 4.107081492922745269e+02
1.839604713036867789e+00 4.107681274488195413e+02
1.839704735041709061e+00 4.108279678190232289e+02
1.839804757046550110e+00 4.108876719000771800e+02
1.839904779051391159e+00 4.109472411895754931e+02
1.840004801056232209e+00 4.110066771854353078e+02
