2.000040008801936331e+00 5.388776990261727633e+02
2.000140030806777602e+00 5.390020261700924493e+02
2.000240052811618430e+00 5.391264119815273261e+02
2.000340074816459701e+00 5.392508538450769038e+02
2.000440096821300529e+00 5.393753491431448310e+02
2.000540118826141356e+00 5.394998952560249563e+02
2.000640140830982627e+00 5.396244895619870476e+02
2.000740162835823899e+00 5.397491294373606934e+02
2.000840184840664726e+00 5.398738122566195443e+02
2.000940206845505998e+00 5.399985353924686251e+02
2.001040228850347269e+00 5.401232962159280078e+02
2.001140250855187652e+00 5.402480920964171673e+02
2.001240272860028924e+00 5.403729204018432029e+02
2.001340294864870195e+00 5.404977784986809866e+02
2.001440316869711022e+00 5.406226637520627492e+02
2.001540338874552294e+00 5.407475735258618670e+02
2.001640360879393565e+00 5.408725051827766492e+02
2.001740382884234393e+00 5.409974560844175357e+02
2.001840404889075220e+00 5.411224235913899747e+02
2.001940426893916491e+00 5.412474050633827574e+02
2.002040448898757319e+00 5.413723978592493040e+02
2.002140470903598590e+00 5.414973993370952030e+02
2.002240492908439862e+00 5.416224068543643853e+02
2.002340514913280689e+00 5.417474177679212062e+02
2.002440536918121960e+00 5.418724294341370751e+02
2.002540558922962788e+00 5.419974392089760613e+02
2.002640580927804059e+00 5.421224444480783404e+02
2.002740602932644887e+00 5.422474425068478467e+02
2.002840624937486158e+00 5.423724307405340141e+02
2.002940646942326985e+00 5.424974065043188602e+02
2.003040668947168257e+00 5.426223671534014557e+02
2.003140690952009528e+00 5.427473100430828481e+02
2.003240712956850356e+00 5.428722325288496222e+02
2.003340734961691183e+00 5.429971319664609837e+02
2.003440756966532454e+00 5.431220057120320917e+02
2.003540778971373726e+00 5.432468511221188692e+02
2.003640800976214553e+00 5.433716655538019040e+02
2.003740822981055825e+00 5.434964463647730781e+02
2.003840844985896652e+00 5.436211909134178768e+02
2.003940866990737923e+00 5.437458965589021318e+02
2.004040888995578751e+00 5.438705606612534211e+02
2.004140911000420022e+00 5.439951805814482668e+02
2.004240933005260850e+00 5.441197536814950126e+02
2.004340955010102121e+00 5.442442773245184071e+02
2.004440977014943392e+00 5.443687488748422538e+02
2.004540999019784220e+00 5.444931656980769503e+02
2.004641021024625047e+00 5.446175251611998647e+02
2.004741043029466319e+00 5.447418246326401459e+02
2.004841065034307590e+00 5.448660614823645574e+02
2.004941087039148417e+00 5.449902330819585359e+02
2.005041109043989689e+00 5.451143368047102058e+02
2.005141131048830516e+00 5.452383700256963266e+02
2.005241153053671788e+00 5.453623301218624420e+02
2.005341175058512615e+00 5.454862144721082586e+02
2.005441197063353886e+00 5.456100204573701831e+02
2.005541219068194714e+00 5.457337454607046539e+02
2.005641241073035985e+00 5.458573868673704510e+02
2.005741263077877257e+00 5.459809420649128242e+02
2.005841285082718084e+00 5.461044084432455747e+02
2.005941307087559355e+00 5.462277833947329100e+02
2.006041329092400183e+00 5.463510643142743675e+02
2.006141351097241010e+00 5.464742485993838272e+02
2.006241373102082282e+00 5.465973336502747770e+02
2.006341395106923553e+00 5.467203168699415983e+02
2.006441417111764380e+00 5.468431956642407386e+02
2.006541439116605652e+00 5.469659674419731346e+02
2.006641461121446923e+00 5.470886296149666350e+02
2.006741483126287307e+00 5.472111795981566047e+02
2.006841505131128578e+00 5.473336148096688021e+02
2.006941527135969849e+00 5.474559326708982780e+02
2.007041549140810677e+00 5.475781306065935041e+02
2.007141571145651948e+00 5.477002060449352712e+02
2.007241593150493220e+00 5.478221564176192260e+02
2.007341615155334047e+00 5.479439791599349974e+02
2.007441637160174874e+00 5.480656717108471412e+02
2.007541659165016146e+00 5.481872315130772222e+02
2.007641681169856973e+00 5.483086560131819169e+02
2.007741703174698245e+00 5.484299426616348683e+02
2.007841725179539516e+00 5.485510889129045609e+02
2.007941747184380343e+00 5.486720922255364030e+02
2.008041769189221615e+00 5.487929500622308296e+02
2.008141791194062442e+00 5.489136598899231103e+02
2.008241813198903714e+00 5.490342191798624754e+02
2.008341835203744541e+00 5.491546254076920377e+02
2.008441857208585812e+00 5.492748760535262136e+02
2.008541879213426640e+00 5.493949686020309855e+02
2.008641901218267911e+00 5.495149005424996176e+02
2.008741923223109183e+00 5.496346693689355334e+02
2.008841945227950010e+00 5.497542725801262122e+02
2.008941967232790837e+00 5.498737076797234522e+02
2.009041989237632109e+00 5.499929721763194266e+02
2.009142011242473380e+00 5.501120635835268331e+02
2.009242033247314208e+00 5.502309794200534725e+02
2.009342055252155479e+00 5.503497172097795556e+02
2.009442077256996306e+00 5.504682744818381934e+02
2.009542099261837578e+00 5.505866487706862245e+02
2.009642121266678405e+00 5.507048376161865235e+02
2.009742143271519677e+00 5.508228385636801931e+02
2.009842165276360504e+00 5.509406491640647801e+02
2.009942187281201775e+00 5.510582669738695358e+02
2.010042209286043047e+00 5.511756895553291997e+02
2.010142231290883874e+00 5.512929144764632383e+02
2.010242253295724701e+00 5.514099393111482641e+02
2.010342275300565973e+00 5.515267616391927277e+02
2.010442297305407244e+00 5.516433790464132016e+02
2.010542319310248072e+00 5.517597891247081634e+02
2.010642341315089343e+00 5.518759894721313231e+02
2.010742363319930170e+00 5.519919776929673390e+02
2.010842385324771442e+00 5.521077513978033267e+02
2.010942407329612269e+00 5.522233082036058249e+02
2.011042429334453541e+00 5.523386457337896900e+02
2.011142451339294368e+00 5.524537616182942656e+02
2.011242473344135639e+00 5.525686534936550061e+02
2.011342495348976911e+00 5.526833190030758942e+02
2.011442517353817738e+00 5.527977557965026563e+02
2.011542539358659010e+00 5.529119615306930200e+02
2.011642561363499837e+00 5.530259338692899291e+02
2.011742583368340664e+00 5.531396704828919155e+02
2.011842605373181936e+00 5.532531690491252903e+02
2.011942627378023207e+00 5.533664272527150843e+02
2.012042649382864035e+00 5.534794427855537151e+02
2.012142671387705306e+00 5.535922133467743151e+02
2.012242693392546578e+00 5.537047366428182613e+02
2.012342715397386961e+00 5.538170103875067980e+02
2.012442737402228232e+00 5.539290323021101585e+02
2.012542759407069504e+00 5.540408001154153226e+02
2.012642781411910331e+00 5.541523115637978663e+02
2.012742803416751602e+00 5.542635643912879004e+02
2.012842825421592874e+00 5.543745563496395334e+02
2.012942847426433701e+00 5.544852851984003337e+02
2.013042869431274529e+00 5.545957487049765859e+02
2.013142891436115800e+00 5.547059446447022992e+02
2.013242913440956627e+00 5.548158708009063957e+02
2.013342935445797899e+00 5.549255249649805819e+02
2.013442957450639170e+00 5.550349049364436951e+02
2.013542979455479998e+00 5.551440085230092336e+02
2.013643001460320825e+00 5.552528335406520910e+02
2.013743023465162096e+00 5.553613778136732435e+02
2.013843045470003368e+00 5.554696391747661437e+02
2.013943067474844195e+00 5.555776154650794751e+02
2.014043089479685467e+00 5.556853045342861606e+02
2.014143111484526294e+00 5.557927042406431610e+02
2.014243133489367565e+00 5.558998124510596881e+02
2.014343155494208393e+00 5.560066270411570031e+02
2.014443177499049664e+00 5.561131458953362880e+02
2.014543199503890492e+00 5.562193669068384452e+02
2.014643221508731763e+00 5.563252879778085571e+02
2.014743243513573034e+00 5.564309070193573916e+02
2.014843265518413862e+00 5.565362219516254072e+02
2.014943287523255133e+00 5.566412307038425524e+02
2.015043309528095961e+00 5.567459312143914758e+02
2.015143331532937232e+00 5.568503214308670977e+02
2.015243353537778059e+00 5.569543993101393653e+02
2.015343375542619331e+00 5.570581628184119154e+02
2.015443397547460158e+00 5.571616099312841470e+02
2.015543419552301430e+00 5.572647386338097704e+02
2.015643441557142701e+00 5.573675469205563786e+02
2.015743463561983528e+00 5.574700327956649062e+02
2.015843485566824356e+00 5.575721942729086322e+02
2.015943507571665627e+00 5.576740293757518430e+02
2.016043529576506899e+00 5.577755361374067888e+02
2.016143551581347726e+00 5.578767126008930290e+02
2.016243573586188997e+00 5.579775568190929107e+02
2.016343595591029825e+00 5.580780668548104586e+02
2.016443617595870652e+00 5.581782407808281050e+02
2.016543639600711924e+00 5.582780766799605772e+02
2.016643661605553195e+00 5.583775726451145829e+02
2.016743683610394022e+00 5.584767267793398560e+02
2.016843705615235294e+00 5.585755371958894102e+02
2.016943727620076565e+00 5.586740020182701301e+02
2.017043749624917393e+00 5.587721193803004098e+02
2.017143771629758220e+00 5.588698874261617675e+02
2.017243793634599491e+00 5.589673043104540966e+02
2.017343815639440319e+00 5.590643681982498947e+02
2.017443837644281590e+00 5.591610772651445131e+02
2.017543859649122862e+00 5.592574296973120909e+02
2.017643881653963689e+00 5.593534236915542124e+02
2.017743903658804960e+00 5.594490574553549322e+02
2.017843925663645788e+00 5.595443292069307972e+02
2.017943947668486615e+00 5.596392371752824602e+02
2.018043969673327886e+00 5.597337796002453842e+02
2.018143991678169158e+00 5.598279547325379326e+02
2.018244013683009985e+00 5.599217608338163927e+02
2.018344035687851257e+00 5.600151961767196553e+02
2.018444057692692528e+00 5.601082590449203735e+02
2.018544079697533355e+00 5.602009477331739618e+02
2.018644101702374183e+00 5.602932605473665717e+02
2.018744123707215454e+00 5.603851958045628407e+02
2.018844145712056282e+00 5.604767518330543226e+02
2.018944167716897553e+00 5.605679269724056439e+02
2.019044189721738825e+00 5.606587195735023670e+02
2.019144211726579652e+00 5.607491279985963502e+02
2.019244233731420479e+00 5.608391506213521325e+02
2.019344255736261751e+00 5.609287858268927494e+02
2.019444277741103022e+00 5.610180320118463442e+02
2.019544299745943849e+00 5.611068875843860724e+02
2.019644321750785121e+00 5.611953509642810332e+02
2.019744343755625948e+00 5.612834205829358325e+02
2.019844365760467220e+00 5.613710948834343526e+02
2.019944387765308047e+00 5.614583723205853403e+02
2.020044409770149318e+00 5.615452513609631069e+02
2.020144431774990146e+00 5.616317304829505019e+02
2.020244453779831417e+00 5.617178081767806361e+02
2.020344475784672689e+00 5.618034829445782634e+02
2.020444497789513516e+00 5.618887533004016177e+02
2.020544519794354787e+00 5.619736177702823170e+02
2.020644541799195615e+00 5.620580748922652674e+02
2.020744563804036886e+00 5.621421232164494768e+02
2.020844585808877714e+00 5.622257613050276177e+02
2.020944607813718985e+00 5.623089877323229757e+02
2.021044629818559812e+00 5.623918010848302629e+02
2.021144651823401084e+00 5.624741999612529071e+02
2.021244673828242355e+00 5.625561829725402276e+02
2.021344695833083183e+00 5.626377487419254066e+02
2.021444717837924010e+00 5.627188959049619825e+02
2.021544739842765281e+00 5.627996231095607982e+02
2.021644761847606553e+00 5.628799290160249029e+02
2.021744783852447380e+00 5.629598122970858185e+02
2.021844805857288652e+00 5.630392716379394642e+02
2.021944827862129479e+00 5.631183057362787849e+02
2.022044849866970306e+00 5.631969133023303584e+02
2.022144871871811578e+00 5.632750930588853180e+02
2.022244893876652849e+00 5.633528437413364145e+02
2.022344915881493677e+00 5.634301640977075749e+02
2.022444937886334948e+00 5.635070528886885768e+02
2.022544959891176219e+00 5.635835088876658574e+02
2.022644981896017047e+00 5.636595308807546871e+02
2.022745003900857874e+00 5.637351176668311155e+02
2.022845025905699146e+00 5.638102680575603927e+02
2.022945047910539973e+00 5.638849808774292569e+02
2.023045069915381244e+00 5.639592549637770844e+02
2.023145091920222516e+00 5.640330891668204458e+02
2.023245113925063343e+00 5.641064823496878944e+02
2.023345135929904615e+00 5.641794333884449770e+02
2.023445157934745442e+00 5.642519411721212919e+02
2.023545179939586269e+00 5.643240046027426615e+02
2.023645201944427541e+00 5.643956225953537569e+02
2.023745223949268812e+00 5.644667940780470872e+02
2.023845245954109640e+00 5.645375179919892616e+02
2.023945267958950911e+00 5.646077932914462281e+02
2.024045289963792182e+00 5.646776189438086249e+02
2.024145311968633010e+00 5.647469939296169059e+02
2.024245333973473837e+00 5.648159172425866927e+02
2.024345355978315109e+00 5.648843878896310571e+02
2.024445377983155936e+00 5.649524048908853047e+02
2.024545399987997207e+00 5.650199672797302810e+02
2.024645421992838479e+00 5.650870741028144266e+02
2.024745443997679306e+00 5.651537244200758323e+02
2.024845466002520133e+00 5.652199173047648628e+02
2.024945488007361405e+00 5.652856518434649615e+02
2.025045510012202676e+00 5.653509271361128867e+02
2.025145532017043504e+00 5.654157422960206532e+02
2.025245554021884775e+00 5.654800964498942903e+02
2.025345576026725603e+00 5.655439887378535104e+02
2.025445598031566874e+00 5.656074183134509212e+02
2.025545620036407701e+00 5.656703843436911257e+02
2.025645642041248973e+00 5.657328860090468652e+02
2.025745664046089800e+00 5.657949225034797109e+02
2.025845686050931072e+00 5.658564930344550703e+02
2.025945708055772343e+00 5.659175968229592399e+02
2.026045730060613170e+00 5.659782331035161178e+02
2.026145752065454442e+00 5.660384011242033466e+02
2.026245774070295269e+00 5.660981001466667522e+02
2.026345796075136541e+00 5.661573294461351225e+02
2.026445818079977368e+00 5.662160883114365788e+02
2.026545840084818639e+00 5.662743760450107402e+02
2.026645862089659467e+00 5.663321919629220247e+02
2.026745884094500738e+00 5.663895353948751108e+02
2.026845906099342010e+00 5.664464056842236914e+02
2.026945928104182837e+00 5.665028021879861626e+02
2.027045950109023664e+00 5.665587242768554006e+02
2.027145972113864936e+00 5.666141713352120632e+02
2.027245994118706207e+00 5.666691427611306153e+02
2.027346016123547034e+00 5.667236379663962680e+02
2.027446038128388306e+00 5.667776563765088440e+02
2.027546060133229133e+00 5.668311974306957381e+02
2.027646082138069961e+00 5.668842605819204437e+02
2.027746104142911232e+00 5.669368452968885776e+02
2.027846126147752503e+00 5.669889510560583403e+02
2.027946148152593331e+00 5.670405773536479046e+02
2.028046170157434602e+00 5.670917236976411004e+02
2.028146192162275874e+00 5.671423896097956003e+02
2.028246214167116701e+00 5.671925746256468983e+02
2.028346236171957528e+00 5.672422782945166091e+02
2.028446258176798800e+00 5.672915001795154240e+02
2.028546280181639627e+00 5.673402398575494772e+02
2.028646302186480899e+00 5.673884969193247798e+02
2.028746324191322170e+00 5.674362709693475608e+02
2.028846346196162997e+00 5.674835616259330209e+02
2.028946368201004269e+00 5.675303685212045366e+02
2.029046390205845096e+00 5.675766913010965027e+02
2.029146412210685924e+00 5.676225296253580836e+02
2.029246434215527195e+00 5.676678831675527590e+02
2.029346456220368466e+00 5.677127516150607107e+02
2.029446478225209294e+00 5.677571346690782548e+02
2.029546500230050565e+00 5.678010320446189780e+02
2.029646522234891837e+00 5.678444434705135109e+02
2.029746544239732664e+00 5.678873686894072534e+02
2.029846566244573491e+00 5.679298074577613988e+02
2.029946588249414763e+00 5.679717595458497499e+02
2.030046610254255590e+00 5.680132247377550812e+02
2.030146632259096862e+00 5.680542028313707306e+02
2.030246654263938133e+00 5.680946936383943466e+02
2.030346676268778960e+00 5.681346969843241368e+02
2.030446698273619788e+00 5.681742127084562526e+02
2.030546720278461059e+00 5.682132406638809243e+02
2.030646742283302331e+00 5.682517807174755262e+02
2.030746764288143158e+00 5.682898327499000288e+02
2.030846786292984429e+00 5.683273966555921106e+02
2.030946808297825257e+00 5.683644723427602230e+02
2.031046830302666528e+00 5.684010597333757460e+02
2.031146852307507356e+00 5.684371587631675311e+02
2.031246874312348627e+00 5.684727693816141709e+02
2.031346896317189454e+00 5.685078915519350176e+02
2.031446918322030726e+00 5.685425252510805194e+02
2.031546940326871997e+00 5.685766704697271052e+02
2.031646962331712825e+00 5.686103272122639964e+02
2.031746984336553652e+00 5.686434954967845670e+02
2.031847006341394923e+00 5.686761753550763387e+02
2.031947028346236195e+00 5.687083668326092720e+02
2.032047050351077022e+00 5.687400699885265567e+02
2.032147072355918294e+00 5.687712848956304015e+02
2.032247094360759121e+00 5.688020116403711199e+02
2.032347116365600392e+00 5.688322503228351934e+02
2.032447138370441220e+00 5.688620010567300369e+02
2.032547160375282491e+00 5.688912639693730853e+02
2.032647182380123319e+00 5.689200392016769001e+02
2.032747204384964590e+00 5.689483269081339358e+02
2.032847226389805861e+00 5.689761272568025561e+02
2.032947248394646689e+00 5.690034404292921408e+02
2.033047270399487960e+00 5.690302666207460334e+02
2.033147292404328788e+00 5.690566060398273294e+02
2.033247314409169615e+00 5.690824589087000049e+02
2.033347336414010886e+00 5.691078254630141373e+02
2.033447358418852158e+00 5.691327059518873739e+02
2.033547380423692985e+00 5.691571006378858328e+02
2.033647402428534257e+00 5.691810097970092102e+02
2.033747424433375528e+00 5.692044337186666780e+02
2.033847446438215911e+00 5.692273727056640382e+02
2.033947468443057183e+00 5.692498270741788247e+02
2.034047490447898454e+00 5.692717971537431367e+02
2.034147512452739281e+00 5.692932832872218114e+02
2.034247534457580553e+00 5.693142858307921870e+02
2.034347556462421824e+00 5.693348051539217067e+02
2.034447578467262652e+00 5.693548416393482512e+02
2.034547600472103479e+00 5.693743956830554680e+02
2.034647622476944751e+00 5.693934676942507167e+02
2.034747644481785578e+00 5.694120580953440367e+02
2.034847666486626849e+00 5.694301673219216582e+02
2.034947688491468121e+00 5.694477958227234922e+02
2.035047710496308948e+00 5.694649440596202794e+02
2.035147732501150220e+00 5.694816125075844866e+02
2.035247754505991047e+00 5.694978016546706385e+02
2.035347776510832318e+00 5.695135120019843953e+02
2.035447798515673146e+00 5.695287440636622023e+02
2.035547820520514417e+00 5.695434983668375253e+02
2.035647842525355244e+00 5.695577754516217510e+02
2.035747864530196516e+00 5.695715758710709906e+02
2.035847886535037787e+00 5.695849001911617506e+02
2.035947908539878615e+00 5.695977489907609197e+02
2.036047930544719442e+00 5.696101228615984837e+02
2.036147952549560713e+00 5.696220224082377399e+02
2.036247974554401985e+00 5.696334482480463066e+02
2.036347996559242812e+00 5.696444010111661100e+02
2.036448018564084084e+00 5.696548813404841667e+02
2.036548040568924911e+00 5.696648898916002963e+02
2.036648062573766182e+00 5.696744273327981318e+02
2.036748084578607010e+00 5.696834943450112405e+02
2.036848106583448281e+00 5.696920916217941340e+02
2.036948128588289109e+00 5.697002198692878210e+02
2.037048150593130380e+00 5.697078798061882026e+02
2.037148172597971651e+00 5.697150721637137849e+02
2.037248194602812479e+00 5.697217976855711186e+02
2.037348216607653306e+00 5.697280571279198966e+02
2.037448238612494578e+00 5.697338512593421456e+02
2.037548260617335849e+00 5.697391808608056181e+02
2.037648282622176676e+00 5.697440467256276406e+02
2.037748304627017948e+00 5.697484496594423717e+02
2.037848326631858775e+00 5.697523904801630579e+02
2.037948348636700047e+00 5.697558700179470179e+02
2.038048370641540874e+00 5.697588891151585813e+02
2.038148392646382145e+00 5.697614486263325944e+02
2.038248414651222973e+00 5.697635494181358808e+02
2.038348436656064244e+00 5.697651923693321123e+02
2.038448458660905516e+00 5.697663783707415632e+02
2.038548480665746343e+00 5.697671083252024573e+02
2.038648502670587614e+00 5.697673831475340194e+02
2.038748524675428442e+00 5.697672037644966849e+02
2.038848546680269269e+00 5.697665711147509455e+02
2.038948568685110541e+00 5.697654861488206279e+02
2.039048590689951812e+00 5.697639498290485562e+02
2.039148612694792639e+00 5.697619631295596037e+02
2.039248634699633911e+00 5.697595270362169231e+02
2.039348656704475182e+00 5.697566425465824977e+02
2.039448678709315566e+00 5.697533106698742813e+02
2.039548700714156837e+00 5.697495324269243611e+02
2.039648722718998108e+00 5.697453088501370075e+02
2.039748744723838936e+00 5.697406409834438819e+02
2.039848766728680207e+00 5.697355298822637906e+02
2.039948788733521479e+00 5.697299766134580068e+02
2.040048810738362306e+00 5.697239822552839996e+02
2.040148832743203133e+00 5.697175478973542795e+02
2.040248854748044405e+00 5.697106746405910371e+02
2.040348876752885232e+00 5.697033635971802141e+02
2.040448898757726504e+00 5.696956158905276197e+02
2.040548920762567775e+00 5.696874326552103867e+02
2.040648942767408602e+00 5.696788150369363848e+02
2.040748964772249874e+00 5.696697641924911295e+02
2.040848986777090701e+00 5.696602812896967407e+02
2.040949008781931973e+00 5.696503675073615796e+02
2.041049030786772800e+00 5.696400240352347737e+02
2.041149052791614071e+00 5.696292520739568772e+02
2.041249074796454899e+00 5.696180528350139411e+02
2.041349096801296170e+00 5.696064275406866955e+02
2.041449118806137442e+00 5.695943774240038238e+02
2.041549140810978269e+00 5.695819037286921684e+02
2.041649162815819096e+00 5.695690077091272769e+02
2.041749184820660368e+00 5.695556906302846301e+02
2.041849206825501639e+00 5.695419537676879145e+02
2.041949228830342467e+00 5.695277984073600237e+02
2.042049250835183738e+00 5.695132258457733769e+02
2.042149272840024565e+00 5.694982373897962589e+02
2.042249294844865837e+00 5.694828343566439344e+02
2.042349316849706664e+00 5.694670180738262388e+02
2.042449338854547936e+00 5.694507898790952822e+02
2.042549360859388763e+00 5.694341511203941764e+02
2.042649382864230034e+00 5.694171031558039431e+02
2.042749404869071306e+00 5.693996473534905363e+02
2.042849426873912133e+00 5.693817850916526595e+02
2.042949448878752960e+00 5.693635177584674238e+02
2.043049470883594232e+00 5.693448467520370286e+02
2.043149492888435503e+00 5.693257734803348740e+02
2.043249514893276331e+00 5.693062993611507636e+02
2.043349536898117602e+00 5.692864258220373586e+02
2.043449558902958429e+00 5.692661543002540157e+02
2.043549580907799701e+00 5.692454862427131275e+02
2.043649602912640528e+00 5.692244231059227104e+02
2.043749624917481800e+00 5.692029663559322898e+02
2.043849646922322627e+00 5.691811174682767387e+02
2.043949668927163899e+00 5.691588779279194341e+02
2.044049690932005170e+00 5.691362492291956414e+02
2.044149712936845997e+00 5.691132328757560117e+02
2.044249734941687269e+00 5.690898303805093974e+02
2.044349756946528096e+00 5.690660432655654404e+02
2.044449778951368923e+00 5.690418730621767054e+02
2.044549800956210195e+00 5.690173213106816092e+02
2.044649822961051466e+00 5.689923895604449626e+02
2.044749844965892294e+00 5.689670793697999898e+02
2.044849866970733565e+00 5.689413923059900071e+02
2.044949888975574837e+00 5.689153299451090788e+02
2.045049910980415220e+00 5.688888938720430133e+02
2.045149932985256491e+00 5.688620856804096775e+02
2.045249954990097763e+00 5.688349069724987430e+02
2.045349976994938590e+00 5.688073593592130237e+02
2.045449998999779861e+00 5.687794444600073120e+02
2.045550021004621133e+00 5.687511639028273294e+02
2.045650043009461960e+00 5.687225193240503813e+02
2.045750065014302788e+00 5.686935123684240807e+02
2.045850087019144059e+00 5.686641446890026828e+02
2.045950109023984886e+00 5.686344179470908102e+02
2.046050131028826158e+00 5.686043338121762645e+02
2.046150153033667429e+00 5.685738939618715904e+02
2.046250175038508257e+00 5.685431000818496159e+02
2.046350197043349528e+00 5.685119538657841076e+02
2.046450219048190355e+00 5.684804570152841734e+02
2.046550241053031627e+00 5.684486112398323030e+02
2.046650263057872454e+00 5.684164182567230910e+02
2.046750285062713726e+00 5.683838797909962750e+02
2.046850307067554553e+00 5.683509975753779599e+02
2.046950329072395824e+00 5.683177733502117235e+02
2.047050351077237096e+00 5.682842088634004085e+02
2.047150373082077923e+00 5.682503058703368879e+02
2.047250395086918751e+00 5.682160661338419914e+02
2.047350417091760022e+00 5.681814914241007273e+02
2.047450439096601293e+00 5.681465835185957758e+02
2.047550461101442121e+00 5.681113442020441653e+02
2.047650483106283392e+00 5.680757752663306519e+02
2.047750505111124220e+00 5.680398785104436001e+02
2.047850527115965491e+00 5.680036557404087034e+02
2.047950549120806318e+00 5.679671087692233868e+02
2.048050571125647590e+00 5.679302394167916646e+02
2.048150593130488417e+00 5.678930495098567235e+02
2.048250615135329689e+00 5.678555408819357808e+02
2.048350637140170960e+00 5.678177153732520992e+02
2.048450659145011787e+00 5.677795748306708674e+02
2.048550681149852615e+00 5.677411211076300788e+02
2.048650703154693886e+00 5.677023560640745927e+02
2.048750725159535158e+00 5.676632815663884912e+02
2.048850747164375985e+00 5.676238994873289130e+02
2.048950769169217256e+00 5.675842117059556813e+02
2.049050791174058084e+00 5.675442201075677531e+02
2.049150813178898911e+00 5.675039265836318236e+02
2.049250835183740183e+00 5.674633330317163882e+02
2.049350857188581454e+00 5.674224413554212560e+02
2.049450879193422281e+00 5.673812534643137724e+02
2.049550901198263553e+00 5.673397712738554901e+02
2.049650923203104824e+00 5.672979967053353221e+02
2.049750945207945652e+00 5.672559316858016700e+02
2.049850967212786479e+00 5.672135781479934167e+02
2.049950989217627750e+00 5.671709380302689851e+02
2.050051011222468578e+00 5.671280132765385815e+02
2.050151033227309849e+00 5.670848058361964377e+02
2.050251055232151121e+00 5.670413176640468009e+02
2.050351077236991948e+00 5.669975507202394738e+02
2.050451099241833219e+00 5.669535069701963721e+02
2.050551121246674047e+00 5.669091883845441089e+02
2.050651143251514874e+00 5.668645969390415758e+02
2.050751165256356146e+00 5.668197346145119582e+02
2.050851187261197417e+00 5.667746033967722497e+02
2.050951209266038244e+00 5.667292052765609469e+02
2.051051231270879516e+00 5.666835422494701788e+02
2.051151253275720787e+00 5.666376163158729469e+02
2.051251275280561615e+00 5.665914294808538898e+02
2.051351297285402442e+00 5.665449837541377747e+02
2.051451319290243713e+00 5.664982811500191247e+02
2.051551341295084541e+00 5.664513236872900279e+02
2.051651363299925812e+00 5.664041133891706750e+02
2.051751385304767084e+00 5.663566522832361443e+02
2.051851407309607911e+00 5.663089424013475082e+02
2.051951429314448738e+00 5.662609857795778225e+02
2.052051451319290010e+00 5.662127844581424370e+02
2.052151473324131281e+00 5.661643404813271445e+02
2.052251495328972108e+00 5.661156558974153086e+02
2.052351517333813380e+00 5.660667327586182864e+02
2.052451539338654207e+00 5.660175731210005097e+02
2.052551561343495479e+00 5.659681790444101352e+02
2.052651583348336306e+00 5.659185525924063995e+02
2.052751605353177577e+00 5.658686958321873135e+02
2.052851627358018405e+00 5.658186108345162211e+02
2.052951649362859676e+00 5.657682996736524501e+02
2.053051671367700948e+00 5.657177644272762791e+02
2.053151693372541775e+00 5.656670071764185650e+02
2.053251715377383047e+00 5.656160300053857100e+02
2.053351737382223874e+00 5.655648350016913355e+02
2.053451759387065145e+00 5.655134242559786344e+02
2.053551781391905973e+00 5.654617998619524997e+02
2.053651803396747244e+00 5.654099639163034681e+02
2.053751825401588071e+00 5.653579185186372342e+02
2.053851847406429343e+00 5.653056657713995037e+02
2.053951869411270614e+00 5.652532077798070986e+02
2.054051891416111442e+00 5.652005466517697414e+02
2.054151913420952269e+00 5.651476844978222971e+02
2.054251935425793540e+00 5.650946234310482623e+02
2.054351957430634812e+00 5.650413655670096205e+02
2.054451979435475639e+00 5.649879130236711262e+02
2.054552001440316911e+00 5.649342679213291376e+02
2.054652023445157738e+00 5.648804323825377196e+02
2.054752045449998565e+00 5.648264085320370214e+02
2.054852067454839837e+00 5.647721984966767650e+02
2.054952089459681108e+00 5.647178044053476924e+02
2.055052111464521936e+00 5.646632283889047130e+02
2.055152133469363207e+00 5.646084725800951674e+02
2.055252155474204478e+00 5.645535391134870906e+02
2.055352177479045306e+00 5.644984301253930425e+02
2.055452199483886133e+00 5.644431477537983710e+02
2.055552221488727405e+00 5.643876941382902714e+02
2.055652243493568232e+00 5.643320714199791155e+02
2.055752265498409503e+00 5.642762817414319443e+02
2.055852287503250775e+00 5.642203272465936834e+02
2.055952309508091602e+00 5.641642100807166571e+02
2.056052331512932874e+00 5.641079323902881697e+02
2.056152353517773701e+00 5.640514963229542218e+02
2.056252375522614528e+00 5.639949040274495928e+02
2.056352397527455800e+00 5.639381576535223530e+02
2.056452419532297071e+00 5.638812593518633776e+02
2.056552441537137899e+00 5.638242112740290395e+02
2.056652463541979170e+00 5.637670155723731114e+02
2.056752485546820441e+00 5.637096743999697992e+02
2.056852507551661269e+00 5.636521899105430293e+02
2.056952529556502096e+00 5.635945642583913013e+02
2.057052551561343368e+00 5.635367995983170886e+02
2.057152573566184195e+00 5.634788980855521459e+02
2.057252595571025466e+00 5.634208618756861142e+02
2.057352617575866738e+00 5.633626931245908054e+02
2.057452639580707565e+00 5.633043939883515350e+02
2.057552661585548393e+00 5.632459666231907249e+02
2.057652683590389664e+00 5.631874131853967356e+02
2.057752705595230935e+00 5.631287358312516744e+02
2.057852727600071763e+00 5.630699367169567040e+02
2.057952749604913034e+00 5.630110179985617833e+02
2.058052771609753862e+00 5.629519818318927946e+02
2.058152793614595133e+00 5.628928303724761690e+02
2.058252815619435960e+00 5.628335657754710155e+02
2.058352837624277232e+00 5.627741901955928370e+02
2.058452859629118059e+00 5.627147057870433855e+02
2.058552881633959331e+00 5.626551147034375617e+02
2.058652903638800602e+00 5.625954190977333838e+02
2.058752925643641429e+00 5.625356211221553622e+02
2.058852947648482701e+00 5.624757229281264017e+02
2.058952969653323528e+00 5.624157266661957237e+02
2.059052991658164800e+00 5.623556344859644014e+02
2.059153013663005627e+00 5.622954485360157832e+02
2.059253035667846898e+00 5.622351709638430748e+02
2.059353057672687726e+00 5.621748039157787389e+02
2.059453079677528997e+00 5.621143495369196899e+02
2.059553101682370269e+00 5.620538099710606730e+02
2.059653123687211096e+00 5.619931873606196859e+02
2.059753145692051923e+00 5.619324838465674929e+02
2.059853167696893195e+00 5.618717015683566842e+02
2.059953189701734466e+00 5.618108426638493711e+02
2.060053211706575294e+00 5.617499092692490876e+02
2.060153233711416565e+00 5.616889035190276900e+02
2.060253255716257392e+00 5.616278275458546432e+02
2.060353277721098220e+00 5.615666834805272174e+02
2.060453299725939491e+00 5.615054734518994337e+02
2.060553321730780763e+00 5.614441995868129425e+02
2.060653343735621590e+00 5.613828640100246048e+02
2.060753365740462861e+00 5.613214688441382805e+02
2.060853387745304133e+00 5.612600162095334326e+02
2.060953409750144960e+00 5.611985082242954377e+02
2.061053431754985787e+00 5.611369470041474870e+02
2.061153453759827059e+00 5.610753346623777134e+02
2.061253475764667886e+00 5.610136733097732531e+02
2.061353497769509158e+00 5.609519650545473723e+02
2.061453519774350429e+00 5.608902120022738700e+02
2.061553541779191256e+00 5.608284162558140906e+02
2.061653563784032528e+00 5.607665799152512136e+02
2.061753585788873355e+00 5.607047050778189714e+02
2.061853607793714183e+00 5.606427938378344606e+02
2.061953629798555454e+00 5.605808482866293616e+02
2.062053651803396725e+00 5.605188705124804756e+02
2.062153673808237553e+00 5.604568626005433316e+02
2.062253695813078824e+00 5.603948266327819283e+02
2.062353717817920096e+00 5.603327646879023405e+02
2.062453739822760923e+00 5.602706788412840524e+02
2.062553761827601750e+00 5.602085711649132236e+02
2.062653783832443022e+00 5.601464437273136809e+02
2.062753805837283849e+00 5.600842985934812077e+02
2.062853827842125121e+00 5.600221378248153314e+02
2.062953849846966392e+00 5.599599634790531582e+02
2.063053871851807219e+00 5.598977776102021835e+02
2.063153893856648047e+00 5.598355822684721943e+02
2.063253915861489318e+00 5.597733795002112629e+02
2.063353937866330590e+00 5.597111713478383308e+02
2.063453959871171417e+00 5.596489598497765883e+02
2.063553981876012688e+00 5.595867470403881043e+02
2.063654003880853516e+00 5.595245349499080021e+02
2.063754025885694787e+00 5.594623256043784068e+02
2.063854047890535615e+00 5.594001210255837577e+02
2.063954069895376886e+00 5.593379232309854387e+02
2.064054091900217713e+00 5.592757342336559532e+02
2.064154113905058985e+00 5.592135560422157141e+02
2.064254135909900256e+00 5.591513906607652871e+02
2.064354157914741084e+00 5.590892400888257043e+02
2.064454179919582355e+00 5.590271063212696845e+02
2.064554201924423182e+00 5.589649913482603552e+02
2.064654223929264454e+00 5.589028971551857694e+02
2.064754245934105281e+00 5.588408257225974012e+02
2.064854267938946553e+00 5.587787790261428427e+02
2.064954289943787380e+00 5.587167590365072556e+02
2.065054311948628651e+00 5.586547677193470918e+02
2.065154333953469923e+00 5.585928070352288159e+02
2.065254355958310750e+00 5.585308789395649001e+02
2.065354377963151578e+00 5.584689853825537966e+02
2.065454399967992849e+00 5.584071283091144551e+02
2.065554421972834120e+00 5.583453096588280005e+02
2.065654443977674948e+00 5.582835313658723635e+02
2.065754465982516219e+00 5.582217953589649824e+02
2.065854487987357047e+00 5.581601035612967507e+02
2.065954509992197874e+00 5.580984578904748332e+02
2.066054531997039145e+00 5.580368602584607061e+02
2.066154554001880417e+00 5.579753125715079705e+02
2.066254576006721244e+00 5.579138167301039175e+02
2.066354598011562516e+00 5.578523746289089331e+02
2.066454620016403787e+00 5.577909881566965851e+02
2.066554642021244170e+00 5.577296591962929142e+02
2.066654664026085442e+00 5.576683896245189089e+02
2.066754686030926713e+00 5.576071813121294554e+02
2.066854708035767541e+00 5.575460361237564939e+02
2.066954730040608812e+00 5.574849559178472873e+02
2.067054752045450083e+00 5.574239425466096236e+02
2.067154774050290911e+00 5.573629978559511073e+02
2.067254796055131738e+00 5.573021236854216340e+02
2.067354818059973010e+00 5.572413218681562057e+02
2.067454840064813837e+00 5.571805942308171780e+02
2.067554862069655108e+00 5.571199425935373029e+02
2.067654884074496380e+00 5.570593687698624308e+02
2.067754906079337207e+00 5.569988745666959176e+02
2.067854928084178479e+00 5.569384617842401894e+02
2.067954950089019306e+00 5.568781322159420597e+02
2.068054972093860577e+00 5.568178876484370221e+02
2.068154994098701405e+00 5.567577298614930896e+02
2.068255016103542676e+00 5.566976606279552016e+02
2.068355038108383503e+00 5.566376817136909949e+02
2.068455060113224775e+00 5.565777948775341883e+02
2.068555082118066046e+00 5.565180018712333094e+02
2.068655104122906874e+00 5.564583044393933733e+02
2.068755126127747701e+00 5.563987043194251783e+02
2.068855148132588972e+00 5.563392032414905088e+02
2.068955170137430244e+00 5.562798029284475660e+02
2.069055192142271071e+00 5.562205050957998083e+02
2.069155214147112343e+00 5.561613114516411542e+02
2.069255236151953170e+00 5.561022236966050514e+02
2.069355258156794442e+00 5.560432435238104745e+02
2.069455280161635269e+00 5.559843726188115625e+02
2.069555302166476540e+00 5.559256126595449814e+02
2.069655324171317368e+00 5.558669653162784243e+02
2.069755346176158639e+00 5.558084322515601343e+02
2.069855368180999911e+00 5.557500151201664949e+02
2.069955390185840738e+00 5.556917155690538266e+02
2.070055412190681565e+00 5.556335352373058640e+02
2.070155434195522837e+00 5.555754757560846429e+02
2.070255456200364108e+00 5.555175387485818419e+02
2.070355478205204935e+00 5.554597258299675104e+02
2.070455500210046207e+00 5.554020386073415239e+02
2.070555522214887034e+00 5.553444786796861763e+02
2.070655544219728306e+00 5.552870476378159310e+02
2.070755566224569133e+00 5.552297470643308088e+02
2.070855588229410404e+00 5.551725785335663659e+02
2.070955610234251232e+00 5.551155436115485600e+02
2.071055632239092503e+00 5.550586438559446378e+02
2.071155654243933775e+00 5.550018808160173194e+02
2.071255676248774602e+00 5.549452560325778450e+02
2.071355698253615873e+00 5.548887710379385680e+02
2.071455720258456701e+00 5.548324273558689583e+02
2.071555742263297528e+00 5.547762265015496723e+02
2.071655764268138800e+00 5.547201699815230995e+02
2.071755786272980071e+00 5.546642592936553910e+02
2.071855808277820898e+00 5.546084959270845047e+02
2.071955830282662170e+00 5.545528813621818927e+02
2.072055852287503441e+00 5.544974170705039569e+02
2.072155874292343825e+00 5.544421045147505538e+02
2.072255896297185096e+00 5.543869451487203150e+02
2.072355918302026367e+00 5.543319404172690383e+02
2.072455940306867195e+00 5.542770917562648947e+02
2.072555962311708466e+00 5.542224005925477286e+02
2.072655984316549738e+00 5.541678683438864255e+02
2.072756006321390565e+00 5.541134964189353695e+02
2.072856028326231392e+00 5.540592862171954494e+02
2.072956050331072664e+00 5.540052391289718798e+02
2.073056072335913491e+00 5.539513565353327067e+02
2.073156094340754763e+00 5.538976398080691297e+02
2.073256116345596034e+00 5.538440903096558259e+02
2.073356138350436861e+00 5.537907093932082034e+02
2.073456160355278133e+00 5.537374984024477271e+02
2.073556182360118960e+00 5.536844586716591721e+02
2.073656204364960232e+00 5.536315915256514018e+02
2.073756226369801059e+00 5.535788982797213293e+02
2.073856248374642330e+00 5.535263802396151505e+02
2.073956270379483158e+00 5.534740387014895759e+02
2.074056292384324429e+00 5.534218749518731784e+02
2.074156314389165701e+00 5.533698902676338776e+02
2.074256336394006528e+00 5.533180859159375586e+02
2.074356358398847355e+00 5.532664631542132838e+02
2.074456380403688627e+00 5.532150232301169126e+02
2.074556402408529898e+00 5.531637673814973368e+02
2.074656424413370726e+00 5.531126968363572587e+02
2.074756446418211997e+00 5.530618128128226090e+02
2.074856468423052824e+00 5.530111165191027567e+02
2.074956490427894096e+00 5.529606091534615189e+02
2.075056512432734923e+00 5.529102919041795303e+02
2.075156534437576195e+00 5.528601659495216154e+02
2.075256556442417022e+00 5.528102324577040463e+02
2.075356578447258293e+00 5.527604925868610053e+02
2.075456600452099565e+00 5.527109474850119568e+02
2.075556622456940392e+00 5.526615982900300423e+02
2.075656644461781219e+00 5.526124461296097934e+02
2.075756666466622491e+00 5.525634921212346171e+02
2.075856688471463762e+00 5.525147373721483746e+02
2.075956710476304590e+00 5.524661829793215020e+02
2.076056732481145861e+00 5.524178300294227029e+02
2.076156754485986689e+00 5.523696795987875703e+02
2.076256776490827960e+00 5.523217327533899379e+02
2.076356798495668787e+00 5.522739905488119803e+02
2.076456820500510059e+00 5.522264540302149953e+02
2.076556842505350886e+00 5.521791242323107554e+02
2.076656864510192158e+00 5.521320021793341084e+02
2.076756886515033429e+00 5.520850888850143292e+02
2.076856908519874256e+00 5.520383853525481754e+02
2.076956930524715528e+00 5.519918925745703291e+02
2.077056952529556355e+00 5.519456115331314550e+02
2.077156974534397182e+00 5.518995431996661409e+02
2.077256996539238454e+00 5.518536885349709564e+02
2.077357018544079725e+00 5.518080484891777360e+02
2.077457040548920553e+00 5.517626240017256123e+02
2.077557062553761824e+00 5.517174160013405526e+02
2.077657084558603096e+00 5.516724254060070507e+02
2.077757106563443479e+00 5.516276531229459579e+02
2.077857128568284750e+00 5.515831000485887898e+02
2.077957150573126022e+00 5.515387670685560124e+02
2.078057172577966849e+00 5.514946550576337359e+02
2.078157194582808120e+00 5.514507648797494994e+02
2.078257216587649392e+00 5.514070973879513531e+02
2.078357238592490219e+00 5.513636534243847791e+02
2.078457260597331047e+00 5.513204338202718873e+02
2.078557282602172318e+00 5.512774393958897008e+02
2.078657304607013145e+00 5.512346709605495789e+02
2.078757326611854417e+00 5.511921293125757302e+02
2.078857348616695688e+00 5.511498152392865677e+02
2.078957370621536516e+00 5.511077295169740182e+02
2.079057392626377787e+00 5.510658729108836269e+02
2.079157414631218614e+00 5.510242461751957990e+02
2.079257436636059886e+00 5.509828500530090878e+02
2.079357458640900713e+00 5.509416852763185943e+02
2.079457480645741985e+00 5.509007525660002784e+02
2.079557502650582812e+00 5.508600526317932236e+02
2.079657524655424083e+00 5.508195861722813333e+02
2.079757546660265355e+00 5.507793538748773017e+02
2.079857568665106182e+00 5.507393564158074923e+02
2.079957590669947010e+00 5.506995944600928397e+02
2.080057612674788281e+00 5.506600686615360019e+02
2.080157634679629552e+00 5.506207796627040807e+02
2.080257656684470380e+00 5.505817280949162296e+02
2.080357678689311651e+00 5.505429145782259184e+02
2.080457700694152479e+00 5.505043397214088827e+02
2.080557722698993750e+00 5.504660041219490267e+02
2.080657744703834577e+00 5.504279083660247807e+02
2.080757766708675849e+00 5.503900530284956858e+02
2.080857788713516676e+00 5.503524386728904574e+02
2.080957810718357948e+00 5.503150658513947064e+02
2.081057832723199219e+00 5.502779351048384342e+02
2.081157854728040046e+00 5.502410469626850045e+02
2.081257876732880874e+00 5.502044019430192066e+02
2.081357898737722145e+00 5.501680005525377055e+02
2.081457920742563417e+00 5.501318432865373325e+02
2.081557942747404244e+00 5.500959306289068991e+02
2.081657964752245515e+00 5.500602630521159426e+02
2.081757986757086343e+00 5.500248410172050626e+02
2.081858008761927614e+00 5.499896649737792131e+02
2.081958030766768442e+00 5.499547353599972439e+02
2.082058052771609713e+00 5.499200526025646241e+02
2.082158074776450540e+00 5.498856171167250295e+02
2.082258096781291812e+00 5.498514293062540901e+02
2.082358118786133083e+00 5.498174895634514314e+02
2.082458140790973911e+00 5.497837982691338539e+02
2.082558162795815182e+00 5.497503557926304438e+02
2.082658184800656009e+00 5.497171624917752979e+02
2.082758206805496837e+00 5.496842187129027479e+02
2.082858228810338108e+00 5.496515247908414494e+02
2.082958250815179380e+00 5.496190810489116529e+02
2.083058272820020207e+00 5.495868877989178145e+02
2.083158294824861478e+00 5.495549453411463219e+02
2.083258316829702750e+00 5.495232539643629934e+02
2.083358338834543133e+00 5.494918139458072801e+02
2.083458360839384405e+00 5.494606255511912423e+02
2.083558382844225676e+00 5.494296890346963664e+02
2.083658404849066503e+00 5.493990046389714053e+02
2.083758426853907775e+00 5.493685725951306722e+02
2.083858448858749046e+00 5.493383931227533594e+02
2.083958470863589874e+00 5.493084664298808093e+02
2.084058492868430701e+00 5.492787927130187882e+02
2.084158514873271972e+00 5.492493721571330525e+02
2.084258536878112800e+00 5.492202049356533280e+02
2.084358558882954071e+00 5.491912912104722864e+02
2.084458580887795343e+00 5.491626311319453180e+02
2.084558602892636170e+00 5.491342248388940561e+02
2.084658624897476997e+00 5.491060724586056949e+02
2.084758646902318269e+00 5.490781741068359452e+02
2.084858668907159540e+00 5.490505298878130134e+02
2.084958690912000367e+00 5.490231398942361238e+02
2.085058712916841639e+00 5.489960042072826809e+02
2.085158734921682466e+00 5.489691228966099743e+02
2.085258756926523738e+00 5.489424960203583623e+02
2.085358778931364565e+00 5.489161236251576383e+02
2.085458800936205837e+00 5.488900057461281676e+02
2.085558822941046664e+00 5.488641424068893002e+02
2.085658844945887935e+00 5.488385336195624404e+02
2.085758866950729207e+00 5.488131793847769586e+02
2.085858888955570034e+00 5.487880796916762165e+02
2.085958910960411306e+00 5.487632345179260938e+02
2.086058932965252133e+00 5.487386438297174891e+02
2.086158954970093404e+00 5.487143075817765521e+02
2.086258976974934232e+00 5.486902257173719590e+02
2.086358998979775503e+00 5.486663981683211659e+02
2.086459020984616330e+00 5.486428248549993896e+02
2.086559042989457602e+00 5.486195056863485888e+02
2.086659064994298873e+00 5.485964405598858775e+02
2.086759086999139701e+00 5.485736293617120509e+02
2.086859109003980528e+00 5.485510719665227271e+02
2.086959131008821799e+00 5.485287682376171006e+02
2.087059153013663071e+00 5.485067180269086293e+02
2.087159175018503898e+00 5.484849211749357210e+02
2.087259197023345170e+00 5.484633775108728742e+02
2.087359219028185997e+00 5.484420868525407968e+02
2.087459241033026824e+00 5.484210490064215264e+02
2.087559263037868096e+00 5.484002637676653649e+02
2.087659285042709367e+00 5.483797309201083863e+02
2.087759307047550195e+00 5.483594502362809635e+02
2.087859329052391466e+00 5.483394214774250486e+02
2.087959351057232738e+00 5.483196443935033813e+02
2.088059373062073565e+00 5.483001187232171105e+02
2.088159395066914392e+00 5.482808441940169359e+02
2.088259417071755664e+00 5.482618205221192511e+02
2.088359439076596491e+00 5.482430474125219462e+02
2.088459461081437762e+00 5.482245245590164586e+02
2.088559483086279034e+00 5.482062516442064180e+02
2.088659505091119861e+00 5.481882283395219702e+02
2.088759527095961133e+00 5.481704543052367171e+02
2.088859549100801960e+00 5.481529291904835191e+02
2.088959571105642787e+00 5.481356526332717749e+02
2.089059593110484059e+00 5.481186242605058396e+02
2.089159615115325330e+00 5.481018436880007130e+02
2.089259637120166158e+00 5.480853105205010252e+02
2.089359659125007429e+00 5.480690243516984310e+02
2.089459681129848700e+00 5.480529847642524146e+02
2.089559703134689528e+00 5.480371913298066602e+02
2.089659725139530355e+00 5.480216436090091747e+02
2.089759747144371627e+00 5.480063411515330927e+02
2.089859769149212454e+00 5.479912834960948658e+02
2.089959791154053725e+00 5.479764701704759773e+02
2.090059813158894997e+00 5.479619006915415866e+02
2.090159835163735824e+00 5.479475745652644036e+02
2.090259857168576652e+00 5.479334912867441290e+02
2.090359879173417923e+00 5.479196503402273493e+02
2.090459901178259194e+00 5.479060511991336853e+02
2.090559923183100022e+00 5.478926933260744363e+02
2.090659945187941293e+00 5.478795761728764546e+02
2.090759967192782121e+00 5.478666991806044280e+02
2.090859989197623392e+00 5.478540617795868002e+02
2.090960011202464219e+00 5.478416633894343022e+02
2.091060033207305491e+00 5.478295034190682600e+02
2.091160055212146318e+00 5.478175812667428772e+02
2.091260077216987590e+00 5.478058963200691096e+02
2.091360099221828861e+00 5.477944479560414948e+02
2.091460121226669688e+00 5.477832355410614582e+02
2.091560143231510960e+00 5.477722584309628928e+02
2.091660165236351787e+00 5.477615159710388753e+02
2.091760187241193059e+00 5.477510074960673592e+02
2.091860209246033886e+00 5.477407323303363000e+02
2.091960231250875157e+00 5.477306897876717358e+02
2.092060253255715985e+00 5.477208791714659810e+02
2.092160275260557256e+00 5.477112997747010468e+02
2.092260297265398528e+00 5.477019508799789946e+02
2.092360319270239355e+00 5.476928317595504723e+02
2.092460341275080182e+00 5.476839416753400656e+02
2.092560363279921454e+00 5.476752798789776762e+02
2.092660385284762725e+00 5.476668456118247832e+02
2.092760407289603553e+00 5.476586381050059344e+02
2.092860429294444824e+00 5.476506565794370545e+02
2.092960451299285651e+00 5.476429002458542072e+02
2.093060473304126479e+00 5.476353683048449739e+02
2.093160495308967750e+00 5.476280599468781247e+02
2.093260517313809022e+00 5.476209743523336329e+02
2.093360539318649849e+00 5.476141106915348473e+02
2.093460561323491120e+00 5.476074681247783928e+02
2.093560583328332392e+00 5.476010458023665706e+02
2.093660605333173219e+00 5.475948428646379398e+02
2.093760627338014046e+00 5.475888584420006282e+02
2.093860649342855318e+00 5.475830916549631411e+02
2.093960671347696145e+00 5.475775416141684673e+02
2.094060693352537417e+00 5.475722074204256842e+02
2.094160715357378688e+00 5.475670881647432680e+02
2.094260737362219515e+00 5.475621829283637680e+02
2.094360759367060787e+00 5.475574907827952984e+02
2.094460781371901614e+00 5.475530107898484857e+02
2.094560803376742442e+00 5.475487420016663691e+02
2.094660825381583713e+00 5.475446834607641904e+02
2.094760847386424985e+00 5.475408342000571338e+02
2.094860869391265812e+00 5.475371932429054596e+02
2.094960891396107083e+00 5.475337596031399698e+02
2.095060913400948355e+00 5.475305322851017991e+02
2.095160935405789182e+00 5.475275102836790211e+02
2.095260957410630009e+00 5.475246925843416648e+02
2.095360979415471281e+00 5.475220781631780937e+02
2.095461001420312108e+00 5.475196659869308178e+02
2.095561023425153380e+00 5.475174550130356010e+02
2.095661045429994651e+00 5.475154441896560229e+02
2.095761067434835478e+00 5.475136324557225862e+02
2.095861089439676306e+00 5.475120187409704613e+02
2.095961111444517577e+00 5.475106019659758658e+02
2.096061133449358849e+00 5.475093810421957414e+02
2.096161155454199676e+00 5.475083548720045883e+02
2.096261177459040947e+00 5.475075223487356197e+02
2.096361199463881775e+00 5.475068823567169147e+02
2.096461221468723046e+00 5.475064337713122313e+02
2.096561243473563874e+00 5.475061754589595466e+02
2.096661265478405145e+00 5.475061062772115292e+02
2.096761287483245972e+00 5.475062250747743064e+02
2.096861309488087244e+00 5.475065306915496421e+02
2.096961331492928515e+00 5.475070219586713165e+02
2.097061353497769343e+00 5.475076976985506008e+02
2.097161375502610614e+00 5.475085567249136602e+02
2.097261397507451441e+00 5.475095978428430499e+02
2.097361419512292713e+00 5.475108198488212565e+02
2.097461441517133540e+00 5.475122215307683291e+02
2.097561463521974812e+00 5.475138016680874671e+02
2.097661485526815639e+00 5.475155590317043561e+02
2.097761507531656910e+00 5.475174923841109376e+02
2.097861529536498182e+00 5.475196004794062219e+02
2.097961551541339009e+00 5.475218820633414225e+02
2.098061573546179837e+00 5.475243358733596324e+02
2.098161595551021108e+00 5.475269606386409578e+02
2.098261617555862379e+00 5.475297550801451507e+02
2.098361639560703207e+00 5.475327179106560607e+02
2.098461661565544478e+00 5.475358478348235849e+02
2.098561683570385306e+00 5.475391435492083474e+02
2.098661705575226133e+00 5.475426037423274011e+02
2.098761727580067404e+00 5.475462270946957233e+02
2.098861749584908676e+00 5.475500122788726003e+02
2.098961771589749503e+00 5.475539579595061923e+02
2.099061793594590775e+00 5.475580627933778715e+02
2.099161815599432046e+00 5.475623254294473554e+02
2.099261837604272873e+00 5.475667445088992054e+02
2.099361859609113701e+00 5.475713186651871638e+02
2.099461881613954972e+00 5.475760465240799704e+02
2.099561903618795800e+00 5.475809267037077461e+02
2.099661925623637071e+00 5.475859578146080366e+02
2.099761947628478342e+00 5.475911384597723099e+02
2.099861969633319170e+00 5.475964672346916586e+02
2.099961991638160441e+00 5.476019427274034115e+02
2.100062013643001269e+00 5.476075635185400188e+02
2.100162035647842096e+00 5.476133281813733902e+02
2.100262057652683367e+00 5.476192352818642348e+02
2.100362079657524639e+00 5.476252833787079908e+02
2.100462101662365466e+00 5.476314710233823462e+02
2.100562123667206738e+00 5.476377967601973751e+02
2.100662145672048009e+00 5.476442591263404438e+02
2.100762167676888836e+00 5.476508566519266878e+02
2.100862189681729664e+00 5.476575878600448277e+02
2.100962211686570935e+00 5.476644512668075322e+02
2.101062233691411762e+00 5.476714453814004173e+02
2.101162255696253034e+00 5.476785687061288854e+02
2.101262277701094305e+00 5.476858197364688294e+02
2.101362299705935133e+00 5.476931969611136992e+02
2.101462321710775960e+00 5.477006988620273660e+02
2.101562343715617232e+00 5.477083239144882327e+02
2.101662365720458503e+00 5.477160705871443724e+02
2.101762387725299330e+00 5.477239373420591164e+02
2.101862409730140602e+00 5.477319226347633503e+02
2.101962431734981429e+00 5.477400249143045130e+02
2.102062453739822701e+00 5.477482426232969601e+02
2.102162475744663528e+00 5.477565741979715312e+02
2.102262497749504799e+00 5.477650180682287555e+02
2.102362519754345627e+00 5.477735726576847810e+02
2.102462541759186898e+00 5.477822363837271951e+02
2.102562563764028170e+00 5.477910076575619769e+02
2.102662585768868997e+00 5.477998848842669304e+02
2.102762607773709824e+00 5.478088664628419338e+02
2.102862629778551096e+00 5.478179507862603259e+02
2.102962651783392367e+00 5.478271362415202930e+02
2.103062673788233194e+00 5.478364212096955725e+02
2.103162695793074466e+00 5.478458040659904782e+02
2.103262717797915293e+00 5.478552831797862837e+02
2.103362739802756565e+00 5.478648569146987484e+02
2.103462761807597392e+00 5.478745236286259797e+02
2.103562783812438663e+00 5.478842816738031161e+02
2.103662805817279491e+00 5.478941293968530317e+02
2.103762827822120762e+00 5.479040651388406786e+02
2.103862849826962034e+00 5.479140872353226541e+02
2.103962871831802861e+00 5.479241940164038169e+02
2.104062893836644133e+00 5.479343838067861725e+02
2.104162915841484960e+00 5.479446549258234427e+02
2.104262937846325787e+00 5.479550056875759765e+02
2.104362959851167059e+00 5.479654344008589533e+02
2.104462981856008330e+00 5.479759393693014999e+02
2.104563003860849157e+00 5.479865188913953489e+02
2.104663025865690429e+00 5.479971712605492939e+02
2.104763047870531700e+00 5.480078947651448971e+02
2.104863069875372084e+00 5.480186876885876472e+02
2.104963091880213355e+00 5.480295483093617577e+02
2.105063113885054626e+00 5.480404749010826890e+02
2.105163135889895454e+00 5.480514657325535381e+02
2.105263157894736725e+00 5.480625190678152876e+02
2.105363179899577997e+00 5.480736331662055818e+02
2.105463201904418824e+00 5.480848062824081808e+02
2.105563223909259651e+00 5.480960366665095762e+02
2.105663245914100923e+00 5.481073225640544706e+02
2.105763267918941750e+00 5.481186622160961406e+02
2.105863289923783022e+00 5.481300538592557814e+02
2.105963311928624293e+00 5.481414957257726428e+02
2.106063333933465120e+00 5.481529860435614410e+02
2.106163355938306392e+00 5.481645230362667007e+02
2.106263377943147219e+00 5.481761049233161884e+02
2.106363399947988491e+00 5.481877299199770732e+02
2.106463421952829318e+00 5.481993962374095872e+02
2.106563443957670589e+00 5.482111020827234142e+02
2.106663465962511417e+00 5.482228456590308951e+02
2.106763487967352688e+00 5.482346251655039850e+02
2.106863509972193960e+00 5.482464387974290503e+02
2.106963531977034787e+00 5.482582847462591644e+02
2.107063553981875614e+00 5.482701611996737938e+02
2.107163575986716886e+00 5.482820663416320031e+02
2.107263597991558157e+00 5.482939983524258878e+02
2.107363619996398985e+00 5.483059554087395782e+02
2.107463642001240256e+00 5.483179356837025580e+02
2.107563664006081083e+00 5.483299373469451439e+02
2.107663686010922355e+00 5.483419585646540781e+02
2.107763708015763182e+00 5.483539974996292585e+02
2.107863730020604454e+00 5.483660523113379668e+02
2.107963752025445281e+00 5.483781211559713711e+02
2.108063774030286552e+00 5.483902021865002325e+02
2.108163796035127824e+00 5.484022935527286791e+02
2.108263818039968651e+00 5.484143934013532089e+02
2.108363840044809479e+00 5.484264998760161234e+02
2.108463862049650750e+00 5.484386111173621430e+02
2.108563884054492021e+00 5.484507252630944549e+02
2.108663906059332849e+00 5.484628404480293966e+02
2.108763928064174120e+00 5.484749548041543221e+02
2.108863950069014948e+00 5.484870664606812625e+02
2.108963972073856219e+00 5.484991735441049059e+02
2.109063994078697046e+00 5.485112741782575085e+02
2.109164016083538318e+00 5.485233664843647148e+02
2.109264038088379145e+00 5.485354485811009226e+02
2.109364060093220417e+00 5.485475185846484010e+02
2.109464082098061688e+00 5.485595746087489033e+02
2.109564104102902515e+00 5.485716147647635808e+02
2.109664126107743787e+00 5.485836371617251643e+02
2.109764148112584614e+00 5.485956399063978779e+02
2.109864170117425441e+00 5.486076211033305299e+02
2.109964192122266713e+00 5.486195788549149484e+02
2.110064214127107984e+00 5.486315112614393001e+02
2.110164236131948812e+00 5.486434164211461848e+02
2.110264258136790083e+00 5.486552924302882275e+02
2.110364280141631355e+00 5.486671373831829897e+02
2.110464302146471738e+00 5.486789493722710631e+02
2.110564324151313009e+00 5.486907264881699575e+02
2.110664346156154281e+00 5.487024668197312849e+02
2.110764368160995108e+00 5.487141684540968072e+02
2.110864390165836380e+00 5.487258294767535745e+02
2.110964412170677651e+00 5.487374479715904272e+02
2.111064434175518478e+00 5.487490220209538165e+02
2.111164456180359306e+00 5.487605497057033972e+02
2.111264478185200577e+00 5.487720291052689845e+02
2.111364500190041404e+00 5.487834582977052378e+02
2.111464522194882676e+00 5.487948353597478217e+02
2.111564544199723947e+00 5.488061583668697949e+02
2.111664566204564775e+00 5.488174253933362934e+02
2.111764588209406046e+00 5.488286345122603507e+02
2.111864610214246873e+00 5.488397837956611056e+02
2.111964632219088145e+00 5.488508713145157571e+02
2.112064654223928972e+00 5.488618951388175446e+02
2.112164676228770244e+00 5.488728533376313408e+02
2.112264698233611071e+00 5.488837439791469706e+02
2.112364720238452342e+00 5.488945651307385560e+02
2.112464742243293614e+00 5.489053148590161300e+02
2.112564764248134441e+00 5.489159912298844120e+02
2.112664786252975269e+00 5.489265923085953318e+02
2.112764808257816540e+00 5.489371161598052140e+02
2.112864830262657811e+00 5.489475608476287789e+02
2.112964852267498639e+00 5.489579244356968957e+02
2.113064874272339910e+00 5.489682049872075140e+02
2.113164896277180738e+00 5.489784005649853498e+02
2.113264918282022009e+00 5.489885092315342945e+02
2.113364940286862836e+00 5.489985290490919851e+02
2.113464962291704108e+00 5.490084580796876708e+02
2.113564984296544935e+00 5.490182943851934851e+02
2.113665006301386207e+00 5.490280360273823135e+02
2.113765028306227478e+00 5.490376810679803157e+02
2.113865050311068305e+00 5.490472275687235424e+02
2.113965072315909133e+00 5.490566735914111405e+02
2.114065094320750404e+00 5.490660171979602637e+02
2.114165116325591676e+00 5.490752564504607562e+02
2.114265138330432503e+00 5.490843894112301768e+02
2.114365160335273774e+00 5.490934141428664361e+02
2.114465182340114602e+00 5.491023287083038440e+02
2.114565204344955873e+00 5.491111311708673384e+02
2.114665226349796701e+00 5.491198195943238716e+02
2.114765248354637972e+00 5.491283920429395948e+02
2.114865270359478799e+00 5.491368465815331774e+02
2.114965292364320071e+00 5.491451812755277615e+02
2.115065314369161342e+00 5.491533941910072372e+02
2.115165336374002170e+00 5.491614833947680836e+02
2.115265358378843441e+00 5.491694469543738251e+02
2.115365380383684268e+00 5.491772829382088048e+02
2.115465402388525096e+00 5.491849894155305947e+02
2.115565424393366367e+00 5.491925644565236553e+02
2.115665446398207639e+00 5.492000061323545879e+02
2.115765468403048466e+00 5.492073125152209059e+02
2.115865490407889737e+00 5.492144816784084469e+02
2.115965512412731009e+00 5.492215116963418495e+02
2.116065534417571392e+00 5.492284006446375315e+02
2.116165556422412664e+00 5.492351466001586004e+02
2.116265578427253935e+00 5.492417476410633981e+02
2.116365600432094762e+00 5.492482018468621163e+02
2.116465622436936034e+00 5.492545072984670469e+02
2.116565644441777305e+00 5.492606620782451046e+02
2.116665666446618133e+00 5.492666642700702369e+02
2.116765688451458960e+00 5.492725119593756062e+02
2.116865710456300231e+00 5.492782032332054314e+02
2.116965732461141059e+00 5.492837361802660325e+02
2.117065754465982330e+00 5.492891088909797190e+02
2.117165776470823602e+00 5.492943194575335610e+02
2.117265798475664429e+00 5.492993659739333907e+02
2.117365820480505700e+00 5.493042465360537108e+02
2.117465842485346528e+00 5.493089592416885125e+02
2.117565864490187799e+00 5.493135021906048223e+02
2.117665886495028627e+00 5.493178734845906774e+02
2.117765908499869898e+00 5.493220712275081041e+02
2.117865930504710725e+00 5.493260935253425714e+02
2.117965952509551997e+00 5.493299384862547186e+02
2.118065974514393268e+00 5.493336042206300363e+02
2.118165996519234096e+00 5.493370888411292299e+02
2.118266018524074923e+00 5.493403904627386964e+02
2.118366040528916194e+00 5.493435072028210016e+02
2.118466062533757466e+00 5.493464371811634237e+02
2.118566084538598293e+00 5.493491785200296817e+02
2.118666106543439565e+00 5.493517293442081382e+02
2.118766128548280392e+00 5.493540877810611391e+02
2.118866150553121663e+00 5.493562519605760599e+02
2.118966172557962491e+00 5.493582200154130533e+02
2.119066194562803762e+00 5.493599900809547307e+02
2.119166216567644589e+00 5.493615602953547068e+02
2.119266238572485861e+00 5.493629287995861432e+02
2.119366260577327132e+00 5.493640937374914301e+02
2.119466282582167960e+00 5.493650532558311852e+02
2.119566304587008787e+00 5.493658055043291597e+02
2.119666326591850058e+00 5.493663486357251031e+02
2.119766348596691330e+00 5.493666808058184188e+02
2.119866370601532157e+00 5.493668001735204598e+02
2.119966392606373429e+00 5.493667049008976164e+02
2.120066414611214256e+00 5.493663931532229299e+02
2.120166436616055083e+00 5.493658630990200891e+02
2.120266458620896355e+00 5.493651129101140214e+02
2.120366480625737626e+00 5.493641407616751167e+02
2.120466502630578454e+00 5.493629448322682265e+02
2.120566524635419725e+00 5.493615233038973429e+02
2.120666546640260997e+00 5.493598743620545974e+02
2.120766568645101824e+00 5.493579961957641444e+02
2.120866590649942651e+00 5.493558869976311598e+02
2.120966612654783923e+00 5.493535449638850423e+02
2.121066634659624750e+00 5.493509682944282986e+02
2.121166656664466021e+00 5.493481551928796307e+02
2.121266678669307293e+00 5.493451038666210025e+02
2.121366700674148120e+00 5.493418125268424319e+02
2.121466722678989392e+00 5.493382793885880346e+02
2.121566744683830219e+00 5.493345026708000205e+02
2.121666766688671046e+00 5.493304805963648505e+02
2.121766788693512318e+00 5.493262113921564378e+02
2.121866810698353589e+00 5.493216932890804856e+02
2.121966832703194417e+00 5.493169245221216670e+02
2.122066854708035688e+00 5.493119033303853485e+02
2.122166876712876959e+00 5.493066279571404493e+02
2.122266898717717787e+00 5.493010966498676453e+02
2.122366920722558614e+00 5.492953076602965439e+02
2.122466942727399886e+00 5.492892592444559341e+02
2.122566964732240713e+00 5.492829496627123262e+02
2.122666986737081984e+00 5.492763771798151993e+02
2.122767008741923256e+00 5.492695400649381554e+02
2.122867030746764083e+00 5.492624365917230307e+02
2.122967052751604911e+00 5.492550650383225275e+02
2.123067074756446182e+00 5.492474236874412554e+02
2.123167096761287453e+00 5.492395108263781367e+02
2.123267118766128281e+00 5.492313247470694932e+02
2.123367140770969552e+00 5.492228637461294056e+02
2.123467162775810380e+00 5.492141261248920046e+02
2.123567184780651651e+00 5.492051101894519434e+02
2.123667206785492478e+00 5.491958142507064622e+02
2.123767228790333750e+00 5.491862366243957467e+02
2.123867250795174577e+00 5.491763756311439693e+02
2.123967272800015849e+00 5.491662295964997611e+02
2.124067294804857120e+00 5.491557968509764578e+02
2.124167316809697947e+00 5.491450757300908663e+02
2.124267338814539219e+00 5.491340645744066933e+02
2.124367360819380046e+00 5.491227617295700156e+02
2.124467382824221318e+00 5.491111655463522538e+02
2.124567404829062145e+00 5.490992743806871204e+02
2.124667426833903416e+00 5.490870865937113194e+02
2.124767448838744244e+00 5.490746005518018364e+02
2.124867470843585515e+00 5.490618146266160693e+02
2.124967492848426787e+00 5.490487271951299135e+02
2.125067514853267614e+00 5.490353366396753927e+02
2.125167536858108441e+00 5.490216413479793118e+02
2.125267558862949713e+00 5.490076397132011152e+02
2.125367580867790984e+00 5.489933301339697209e+02
2.125467602872631812e+00 5.489787110144228564e+02
2.125567624877473083e+00 5.489637807642409371e+02
2.125667646882313910e+00 5.489485377986878802e+02
2.125767668887154738e+00 5.489329805386452108e+02
2.125867690891996009e+00 5.489171074106490096e+02
2.125967712896837281e+00 5.489009168469277711e+02
2.126067734901678108e+00 5.488844072854360547e+02
2.126167756906519379e+00 5.488675771698933659e+02
2.126267778911360651e+00 5.488504249498173522e+02
2.126367800916201478e+00 5.488329490805590467e+02
2.126467822921042305e+00 5.488151480233410666e+02
2.126567844925883577e+00 5.487970202452895592e+02
2.126667866930724404e+00 5.487785642194716047e+02
2.126767888935565676e+00 5.487597784249262531e+02
2.126867910940406947e+00 5.487406613467028365e+02
2.126967932945247775e+00 5.487212114758920052e+02
2.127067954950089046e+00 5.487014273096613124e+02
2.127167976954929873e+00 5.486813073512890924e+02
2.127267998959770701e+00 5.486608501101964066e+02
2.127368020964611972e+00 5.486400541019818320e+02
2.127468042969453244e+00 5.486189178484530657e+02
2.127568064974294071e+00 5.485974398776612588e+02
2.127668086979135342e+00 5.485756187239320525e+02
2.127768108983976614e+00 5.485534529278984337e+02
2.127868130988817441e+00 5.485309410365339318e+02
2.127968152993658268e+00 5.485080816031820632e+02
2.128068174998499540e+00 5.484848731875910062e+02
2.128168197003340367e+00 5.484613143559420223e+02
2.128268219008181639e+00 5.484374036808825394e+02
2.128368241013022910e+00 5.484131397415571882e+02
2.128468263017863737e+00 5.483885211236363375e+02
2.128568285022704565e+00 5.483635464193492908e+02
2.128668307027545836e+00 5.483382142275127080e+02
2.128768329032387108e+00 5.483125231535616422e+02
2.128868351037227935e+00 5.482864718095785292e+02
2.128968373042069206e+00 5.482600588143234290e+02
2.129068395046910034e+00 5.482332827932624468e+02
2.129168417051751305e+00 5.482061423785978604e+02
2.129268439056592133e+00 5.481786362092959735e+02
2.129368461061433404e+00 5.481507629311165601e+02
2.129468483066274231e+00 5.481225211966402640e+02
2.129568505071115503e+00 5.480939096652978151e+02
2.129668527075956774e+00 5.480649270033965195e+02
2.129768549080797602e+00 5.480355718841503858e+02
2.129868571085638873e+00 5.480058429877039998e+02
2.129968593090479700e+00 5.479757390011626512e+02
2.130068615095320972e+00 5.479452586186176859e+02
2.130168637100161799e+00 5.479144005411743592e+02
2.130268659105003071e+00 5.478831634769763923e+02
2.130368681109843898e+00 5.478515461412351897e+02
2.130468703114685169e+00 5.478195472562522355e+02
2.130568725119526441e+00 5.477871655514481972e+02
2.130668747124367268e+00 5.477543997633854360e+02
2.130768769129208096e+00 5.477212486357956323e+02
2.130868791134049367e+00 5.476877109196034326e+02
2.130968813138890638e+00 5.476537853729515746e+02
2.131068835143731466e+00 5.476194707612253296e+02
2.131168857148572737e+00 5.475847658570772865e+02
2.131268879153413565e+00 5.475496694404505433e+02
2.131368901158254392e+00 5.475141802986033781e+02
2.131468923163095663e+00 5.474782972261322129e+02
2.131568945167936935e+00 5.474420190249941243e+02
2.131668967172777762e+00 5.474053445045332182e+02
2.131768989177619034e+00 5.473682724814989342e+02
2.131869011182460305e+00 5.473308017800710559e+02
2.131969033187301132e+00 5.472929312318832444e+02
2.132069055192141960e+00 5.472546596760421380e+02
2.132169077196983231e+00 5.472159859591512259e+02
2.132269099201824059e+00 5.471769089353323352e+02
2.132369121206665330e+00 5.471374274662459811e+02
2.132469143211506601e+00 5.470975404211139903e+02
2.132569165216347429e+00 5.470572466767387141e+02
2.132669187221188700e+00 5.470165451175250837e+02
2.132769209226029528e+00 5.469754346354995960e+02
2.132869231230870355e+00 5.469339141303315728e+02
2.132969253235711626e+00 5.468919825093531699e+02
2.133069275240552898e+00 5.468496386875781354e+02
2.133169297245393725e+00 5.468068815877219322e+02
2.133269319250234997e+00 5.467637101402195867e+02
2.133369341255076268e+00 5.467201232832470623e+02
2.133469363259917095e+00 5.466761199627374026e+02
2.133569385264757923e+00 5.466316991324008541e+02
2.133669407269599194e+00 5.465868597537423739e+02
2.133769429274440022e+00 5.465416007960787965e+02
2.133869451279281293e+00 5.464959212365586154e+02
2.133969473284122564e+00 5.464498200601768758e+02
2.134069495288963392e+00 5.464032962597948426e+02
2.134169517293804219e+00 5.463563488361545524e+02
2.134269539298645491e+00 5.463089767978977989e+02
2.134369561303486762e+00 5.462611791615811399e+02
2.134469583308327589e+00 5.462129549516920406e+02
2.134569605313168861e+00 5.461643032006661542e+02
2.134669627318009688e+00 5.461152229489014189e+02
2.134769649322850960e+00 5.460657132447744289e+02
2.134869671327691787e+00 5.460157731446557818e+02
2.134969693332533058e+00 5.459654017129250860e+02
2.135069715337373886e+00 5.459145980219850571e+02
2.135169737342215157e+00 5.458633611522768661e+02
2.135269759347056429e+00 5.458116901922930992e+02
2.135369781351897256e+00 5.457595842385943570e+02
2.135469803356738527e+00 5.457070423958190304e+02
2.135569825361579355e+00 5.456540637767011503e+02
2.135669847366420626e+00 5.456006475020806192e+02
2.135769869371261453e+00 5.455467927009174218e+02
2.135869891376102725e+00 5.454924985103045856e+02
2.135969913380943552e+00 5.454377640754803451e+02
2.136069935385784824e+00 5.453825885498399657e+02
2.136169957390625651e+00 5.453269710949499540e+02
2.136269979395466923e+00 5.452709108805563574e+02
2.136370001400307750e+00 5.452144070845997703e+02
2.136470023405149021e+00 5.451574588932248844e+02
2.136570045409990293e+00 5.451000655007915157e+02
2.136670067414831120e+00 5.450422261098866556e+02
2.136770089419672392e+00 5.449839399313340209e+02
2.136870111424513219e+00 5.449252061842043986e+02
2.136970133429354046e+00 5.448660240958265604e+02
2.137070155434195318e+00 5.448063929017966984e+02
2.137170177439036589e+00 5.447463118459885436e+02
2.137270199443877416e+00 5.446857801805613235e+02
2.137370221448718688e+00 5.446247971659714722e+02
2.137470243453559959e+00 5.445633620709783145e+02
2.137570265458400343e+00 5.445014741726565717e+02
2.137670287463241614e+00 5.444391327564011362e+02
2.137770309468082885e+00 5.443763371159386679e+02
2.137870331472923713e+00 5.443130865533315728e+02
2.137970353477764984e+00 5.442493803789901676e+02
2.138070375482606256e+00 5.441852179116780235e+02
2.138170397487447083e+00 5.441205984785176497e+02
2.138270419492287910e+00 5.440555214150011807e+02
2.138370441497129182e+00 5.439899860649940138e+02
2.138470463501970009e+00 5.439239917807431084e+02
2.138570485506811281e+00 5.438575379228826705e+02
2.138670507511652552e+00 5.437906238604398368e+02
2.138770529516493379e+00 5.437232489708429739e+02
2.138870551521334651e+00 5.436554126399229290e+02
2.138970573526175478e+00 5.435871142619230341e+02
2.139070595531016750e+00 5.435183532395012662e+02
2.139170617535857577e+00 5.434491289837359318e+02
2.139270639540698848e+00 5.433794409141312372e+02
2.139370661545539676e+00 5.433092884586204718e+02
2.139470683550380947e+00 5.432386710535712382e+02
2.139570705555222219e+00 5.431675881437890894e+02
2.139670727560063046e+00 5.430960391825208262e+02
2.139770749564903873e+00 5.430240236314600679e+02
2.139870771569745145e+00 5.429515409607460015e+02
2.139970793574586416e+00 5.428785906489727040e+02
2.140070815579427244e+00 5.428051721831869827e+02
2.140170837584268515e+00 5.427312850588940591e+02
2.140270859589109342e+00 5.426569287800577968e+02
2.140370881593950614e+00 5.425821028591045661e+02
2.140470903598791441e+00 5.425068068169233584e+02
2.140570925603632713e+00 5.424310401828702197e+02
2.140670947608473540e+00 5.423548024947673412e+02
2.140770969613314811e+00 5.422780932989060148e+02
2.140870991618156083e+00 5.422009121500454967e+02
2.140971013622996910e+00 5.421232586114164178e+02
2.141071035627837738e+00 5.420451322547198743e+02
2.141171057632679009e+00 5.419665326601284505e+02
2.141271079637520280e+00 5.418874594162859921e+02
2.141371101642361108e+00 5.418079121203077193e+02
2.141471123647202379e+00 5.417278903777799997e+02
2.141571145652043207e+00 5.416473938027590975e+02
2.141671167656884478e+00 5.415664220177732204e+02
2.141771189661725305e+00 5.414849746538177442e+02
2.141871211666566577e+00 5.414030513503562361e+02
2.141971233671407404e+00 5.413206517553187496e+02
2.142071255676248676e+00 5.412377755251012559e+02
2.142171277681089947e+00 5.411544223245622334e+02
2.142271299685930774e+00 5.410705918270207349e+02
2.142371321690772046e+00 5.409862837142554781e+02
2.142471343695612873e+00 5.409014976765020037e+02
2.142571365700453700e+00 5.408162334124489234e+02
2.142671387705294972e+00 5.407304906292367832e+02
2.142771409710136243e+00 5.406442690424528337e+02
2.142871431714977071e+00 5.405575683761305754e+02
2.142971453719818342e+00 5.404703883627433925e+02
2.143071475724659614e+00 5.403827287432036428e+02
2.143171497729499997e+00 5.402945892668551551e+02
2.143271519734341268e+00 5.402059696914741380e+02
2.143371541739182540e+00 5.401168697832596308e+02
2.143471563744023367e+00 5.400272893168324799e+02
2.143571585748864639e+00 5.399372280752291999e+02
2.143671607753705910e+00 5.398466858498974261e+02
2.143771629758546737e+00 5.397556624406905712e+02
2.143871651763387565e+00 5.396641576558632778e+02
2.143971673768228836e+00 5.395721713120641425e+02
2.144071695773069663e+00 5.394797032343323053e+02
2.144171717777910935e+00 5.393867532560890368e+02
2.144271739782752206e+00 5.392933212191331904e+02
2.144371761787593034e+00 5.391994069736358597e+02
2.144471783792434305e+00 5.391050103781296912e+02
2.144571805797275132e+00 5.390101312995078615e+02
2.144671827802116404e+00 5.389147696130123677e+02
2.144771849806957231e+00 5.388189252022295932e+02
2.144871871811798503e+00 5.387225979590813267e+02
2.144971893816639330e+00 5.386257877838193053e+02
2.145071915821480601e+00 5.385284945850149825e+02
2.145171937826321873e+00 5.384307182795541848e+02
2.145271959831162700e+00 5.383324587926265394e+02
2.145371981836003528e+00 5.382337160577192208e+02
2.145472003840844799e+00 5.381344900166074012e+02
2.145572025845686071e+00 5.380347806193453835e+02
2.145672047850526898e+00 5.379345878242586423e+02
2.145772069855368169e+00 5.378339115979349572e+02
2.145872091860208997e+00 5.377327519152138393e+02
2.145972113865050268e+00 5.376311087591765272e+02
2.146072135869891095e+00 5.375289821211415529e+02
2.146172157874732367e+00 5.374263720006468930e+02
2.146272179879573194e+00 5.373232784054466720e+02
2.146372201884414466e+00 5.372197013514979744e+02
2.146472223889255737e+00 5.371156408629515226e+02
2.146572245894096564e+00 5.370110969721398533e+02
2.146672267898937392e+00 5.369060697195685634e+02
2.146772289903778663e+00 5.368005591539041461e+02
2.146872311908619935e+00 5.366945653319630765e+02
2.146972333913460762e+00 5.365880883187005566e+02
2.147072355918302033e+00 5.364811281872001700e+02
2.147172377923142861e+00 5.363736850186602396e+02
2.147272399927984132e+00 5.362657589023848459e+02
2.147372421932824960e+00 5.361573499357688206e+02
2.147472443937666231e+00 5.360484582242885381e+02
2.147572465942507058e+00 5.359390838814883864e+02
2.147672487947348330e+00 5.358292270289673525e+02
2.147772509952189601e+00 5.357188877963674258e+02
2.147872531957030429e+00 5.356080663213618891e+02
2.147972553961871700e+00 5.354967627496399700e+02
2.148072575966712527e+00 5.353849772348964962e+02
2.148172597971553355e+00 5.352727099388172292e+02
2.148272619976394626e+00 5.351599610310630624e+02
2.148372641981235898e+00 5.350467306892617216e+02
2.148472663986076725e+00 5.349330190989894618e+02
2.148572685990917996e+00 5.348188264537590157e+02
2.148672707995759268e+00 5.347041529550056111e+02
2.148772730000599651e+00 5.345889988120727594e+02
2.148872752005440923e+00 5.344733642421971354e+02
2.148972774010282194e+00 5.343572494704940254e+02
2.149072796015123021e+00 5.342406547299436852e+02
2.149172818019964293e+00 5.341235802613761052e+02
2.149272840024805564e+00 5.340060263134544130e+02
2.149372862029646392e+00 5.338879931426621397e+02
2.149472884034487219e+00 5.337694810132871908e+02
2.149572906039328490e+00 5.336504901974047925e+02
2.149672928044169318e+00 5.335310209748640773e+02
2.149772950049010589e+00 5.334110736332705756e+02
2.149872972053851861e+00 5.332906484679720052e+02
2.149972994058692688e+00 5.331697457820397403e+02
2.150073016063533959e+00 5.330483658862561924e+02
2.150173038068374787e+00 5.329265090990944600e+02
2.150273060073216058e+00 5.328041757467051411e+02
2.150373082078056886e+00 5.326813661628974614e+02
2.150473104082898157e+00 5.325580806891236989e+02
2.150573126087738984e+00 5.324343196744625857e+02
2.150673148092580256e+00 5.323100834755995265e+02
2.150773170097421527e+00 5.321853724568140933e+02
2.150873192102262355e+00 5.320601869899581970e+02
2.150973214107103182e+00 5.319345274544417634e+02
2.151073236111944453e+00 5.318083942372129513e+02
2.151173258116785725e+00 5.316817877327416682e+02
2.151273280121626552e+00 5.315547083430010389e+02
2.151373302126467824e+00 5.314271564774498984e+02
2.151473324131308651e+00 5.312991325530152835e+02
2.151573346136149922e+00 5.311706369940714012e+02
2.151673368140990750e+00 5.310416702324254175e+02
2.151773390145832021e+00 5.309122327072954022e+02
2.151873412150672848e+00 5.307823248652931625e+02
2.151973434155514120e+00 5.306519471604052569e+02
2.152073456160355391e+00 5.305211000539743509e+02
2.152173478165196219e+00 5.303897840146798899e+02
2.152273500170037046e+00 5.302579995185186590e+02
2.152373522174878318e+00 5.301257470487869341e+02
2.152473544179719589e+00 5.299930270960584267e+02
2.152573566184560416e+00 5.298598401581673443e+02
2.152673588189401688e+00 5.297261867401883819e+02
2.152773610194242515e+00 5.295920673544154624e+02
2.152873632199083787e+00 5.294574825203425235e+02
2.152973654203924614e+00 5.293224327646456686e+02
2.153073676208765885e+00 5.291869186211595206e+02
2.153173698213606713e+00 5.290509406308588041e+02
2.153273720218447984e+00 5.289144993418389049e+02
2.153373742223289256e+00 5.287775953092944974e+02
2.153473764228130083e+00 5.286402290954980572e+02
2.153573786232970910e+00 5.285024012697813305e+02
2.153673808237812182e+00 5.283641124085125966e+02
2.153773830242653009e+00 5.282253630950775687e+02
2.153873852247494280e+00 5.280861539198565424e+02
2.153973874252335552e+00 5.279464854802058653e+02
2.154073896257176379e+00 5.278063583804331529e+02
2.154173918262017651e+00 5.276657732317795535e+02
2.154273940266858478e+00 5.275247306523976931e+02
2.154373962271699305e+00 5.273832312673272327e+02
2.154473984276540577e+00 5.272412757084778150e+02
2.154574006281381848e+00 5.270988646146031442e+02
2.154674028286222676e+00 5.269559986312834781e+02
2.154774050291063947e+00 5.268126784108997072e+02
2.154874072295905219e+00 5.266689046126135736e+02
2.154974094300746046e+00 5.265246779023453882e+02
2.155074116305586873e+00 5.263799989527526577e+02
2.155174138310428145e+00 5.262348684432054142e+02
2.155274160315268972e+00 5.260892870597666615e+02
2.155374182320110243e+00 5.259432554951683869e+02
2.155474204324951515e+00 5.257967744487898472e+02
2.155574226329792342e+00 5.256498446266342626e+02
2.155674248334633170e+00 5.255024667413068755e+02
2.155774270339474441e+00 5.253546415119911899e+02
2.155874292344315712e+00 5.252063696644275979e+02
2.155974314349156540e+00 5.250576519308892784e+02
2.156074336353997811e+00 5.249084890501593463e+02
2.156174358358838639e+00 5.247588817675085693e+02
2.156274380363679910e+00 5.246088308346724034e+02
2.156374402368520737e+00 5.244583370098255273e+02
2.156474424373362009e+00 5.243074010575606962e+02
2.156574446378202836e+00 5.241560237488656639e+02
2.156674468383044108e+00 5.240042058610977165e+02
2.156774490387885379e+00 5.238519481779613898e+02
2.156874512392726206e+00 5.236992514894851638e+02
2.156974534397567478e+00 5.235461165919978157e+02
2.157074556402408305e+00 5.233925442881032950e+02
2.157174578407249577e+00 5.232385353866582136e+02
2.157274600412090404e+00 5.230840907027483127e+02
2.157374622416931675e+00 5.229292110576627692e+02
2.157474644421772503e+00 5.227738972788720275e+02
2.157574666426613774e+00 5.226181502000029013e+02
2.157674688431455046e+00 5.224619706608141314e+02
2.157774710436295873e+00 5.223053595071736481e+02
2.157874732441136700e+00 5.221483175910310592e+02
2.157974754445977972e+00 5.219908457703984368e+02
2.158074776450819243e+00 5.218329449093212133e+02
2.158174798455660071e+00 5.216746158778558993e+02
2.158274820460501342e+00 5.215158595520455265e+02
2.158374842465342169e+00 5.213566768138947509e+02
2.158474864470182997e+00 5.211970685513455237e+02
2.158574886475024268e+00 5.210370356582513978e+02
2.158674908479865540e+00 5.208765790343557001e+02
2.158774930484706367e+00 5.207156995852625414e+02
2.158874952489547638e+00 5.205543982224155570e+02
2.158974974494388910e+00 5.203926758630717586e+02
2.159074996499229737e+00 5.202305334302761821e+02
2.159175018504070565e+00 5.200679718528381272e+02
2.159275040508911836e+00 5.199049920653039862e+02
2.159375062513752663e+00 5.197415950079350750e+02
2.159475084518593935e+00 5.195777816266811442e+02
2.159575106523435206e+00 5.194135528731535487e+02
2.159675128528276034e+00 5.192489097046037614e+02
2.159775150533117305e+00 5.190838530838954057e+02
2.159875172537958132e+00 5.189183839794795858e+02
2.159975194542798960e+00 5.187525033653694209e+02
2.160075216547640231e+00 5.185862122211165115e+02
2.160175238552481503e+00 5.184195115317824047e+02
2.160275260557322330e+00 5.182524022879161976e+02
2.160375282562163601e+00 5.180848854855277068e+02
2.160475304567004873e+00 5.179169621260610938e+02
2.160575326571845700e+00 5.177486332163717861e+02
2.160675348576686527e+00 5.175798997686991925e+02
2.160775370581527799e+00 5.174107628006408959e+02
2.160875392586368626e+00 5.172412233351286659e+02
2.160975414591209898e+00 5.170712824004008326e+02
2.161075436596051169e+00 5.169009410299789806e+02
2.161175458600891996e+00 5.167302002626403237e+02
2.161275480605732824e+00 5.165590611423921246e+02
2.161375502610574095e+00 5.163875247184475938e+02
2.161475524615415367e+00 5.162155920451988322e+02
2.161575546620256194e+00 5.160432641821903417e+02
2.161675568625097466e+00 5.158705421940956057e+02
2.161775590629938293e+00 5.156974271506896912e+02
2.161875612634779564e+00 5.155239201268220768e+02
2.161975634639620392e+00 5.153500222023944843e+02
2.162075656644461663e+00 5.151757344623318886e+02
2.162175678649302490e+00 5.150010579965578472e+02
2.162275700654143762e+00 5.148259938999684664e+02
2.162375722658985033e+00 5.146505432724054572e+02
2.162475744663825861e+00 5.144747072186337391e+02
2.162575766668667132e+00 5.142984868483099490e+02
2.162675788673507959e+00 5.141218832759615225e+02
2.162775810678349231e+00 5.139448976209582725e+02
2.162875832683190058e+00 5.137675310074864683e+02
2.162975854688031330e+00 5.135897845645239386e+02
2.163075876692872157e+00 5.134116594258133546e+02
2.163175898697713428e+00 5.132331567298352866e+02
2.163275920702554700e+00 5.130542776197854664e+02
2.163375942707395527e+00 5.128750232435438647e+02
2.163475964712236355e+00 5.126953947536539999e+02
2.163575986717077626e+00 5.125153933072933796e+02
2.163676008721918897e+00 5.123350200662474663e+02
2.163776030726759725e+00 5.121542761968860304e+02
2.163876052731600996e+00 5.119731628701351838e+02
2.163976074736441824e+00 5.117916812614525952e+02
2.164076096741282651e+00 5.116098325507999789e+02
2.164176118746123922e+00 5.114276179226192198e+02
2.164276140750965194e+00 5.112450385658031564e+02
2.164376162755806021e+00 5.110620956736740936e+02
2.164476184760647293e+00 5.108787904439532213e+02
2.164576206765488564e+00 5.106951240787391271e+02
2.164676228770329391e+00 5.105110977844768740e+02
2.164776250775170219e+00 5.103267127719358314e+02
2.164876272780011490e+00 5.101419702561823897e+02
2.164976294784852318e+00 5.099568714565543814e+02
2.165076316789693589e+00 5.097714175966340804e+02
2.165176338794534860e+00 5.095856099042241567e+02
2.165276360799375688e+00 5.093994496113196533e+02
2.165376382804216959e+00 5.092129379540846799e+02
2.165476404809057787e+00 5.090260761728226271e+02
2.165576426813898614e+00 5.088388655119552482e+02
2.165676448818739885e+00 5.086513072199919065e+02
2.165776470823581157e+00 5.084634025495076912e+02
2.165876492828421984e+00 5.082751527571154497e+02
2.165976514833263256e+00 5.080865591034400950e+02
2.166076536838104527e+00 5.078976228530939920e+02
2.166176558842945354e+00 5.077083452746491616e+02
2.166276580847786182e+00 5.075187276406146566e+02
2.166376602852627453e+00 5.073287712274075716e+02
2.166476624857468281e+00 5.071384773153296806e+02
2.166576646862309552e+00 5.069478471885404929e+02
2.166676668867150823e+00 5.067568821350317876e+02
2.166776690871991651e+00 5.065655834466016358e+02
2.166876712876832478e+00 5.063739524188316068e+02
2.166976734881673750e+00 5.061819903510563563e+02
2.167076756886515021e+00 5.059896985463427654e+02
2.167176778891355848e+00 5.057970783114606093e+02
2.167276800896197120e+00 5.056041309568603879e+02
2.167376822901037947e+00 5.054108577966451321e+02
2.167476844905879219e+00 5.052172601485466998e+02
2.167576866910720046e+00 5.050233393339000258e+02
2.167676888915561317e+00 5.048290966776163486e+02
2.167776910920402145e+00 5.046345335081614394e+02
2.167876932925243416e+00 5.044396511575255317e+02
2.167976954930084688e+00 5.042444509612022898e+02
2.168076976934925515e+00 5.040489342581606707e+02
2.168176998939766786e+00 5.038531023908213911e+02
2.168277020944607614e+00 5.036569567050310070e+02
2.168377042949448885e+00 5.034604985500376984e+02
2.168477064954289713e+00 5.032637292784645524e+02
2.168577086959130984e+00 5.030666502462860876e+02
2.168677108963971811e+00 5.028692628128027877e+02
2.168777130968813083e+00 5.026715683406151811e+02
2.168877152973654354e+00 5.024735681956010467e+02
2.168977174978495182e+00 5.022752637468880721e+02
2.169077196983336009e+00 5.020766563668311733e+02
2.169177218988177280e+00 5.018777474309861191e+02
2.169277240993018552e+00 5.016785383180854296e+02
2.169377262997859379e+00 5.014790304100137632e+02
2.169477285002700651e+00 5.012792250917825072e+02
2.169577307007541478e+00 5.010791237515077796e+02
2.169677329012382305e+00 5.008787277803810412e+02
2.169777351017223577e+00 5.006780385726491431e+02
2.169877373022064848e+00 5.004770575255881795e+02
2.169977395026905675e+00 5.002757860394780778e+02
2.170077417031746947e+00 5.000742255175793503e+02
2.170177439036588218e+00 4.998723773661089922e+02
2.170277461041429046e+00 4.996702429942155277e+02
2.170377483046269873e+00 4.994678238139539985e+02
2.170477505051111144e+00 4.992651212402644205e+02
2.170577527055951972e+00 4.990621366909448398e+02
2.170677549060793243e+00 4.988588715866292773e+02
2.170777571065634515e+00 4.986553273507612971e+02
2.170877593070475342e+00 4.984515054095738265e+02
2.170977615075316169e+00 4.982474071920598817e+02
2.171077637080157441e+00 4.980430341299559132e+02
2.171177659084998268e+00 4.978383876577094043e+02
2.171277681089839540e+00 4.976334692124636376e+02
2.171377703094680811e+00 4.974282802340264880e+02
2.171477725099521638e+00 4.972228221648531417e+02
2.171577747104362910e+00 4.970170964500183572e+02
2.171677769109203737e+00 4.968111045371932732e+02
2.171777791114045009e+00 4.966048478766243761e+02
2.171877813118885836e+00 4.963983279211079207e+02
2.171977835123727107e+00 4.961915461259679319e+02
2.172077857128567935e+00 4.959845039490306817e+02
2.172177879133409206e+00 4.957772028506045103e+02
2.172277901138250478e+00 4.955696442934544734e+02
2.172377923143091305e+00 4.953618297427804009e+02
2.172477945147932132e+00 4.951537606661927384e+02
2.172577967152773404e+00 4.949454385336904352e+02
2.172677989157614675e+00 4.947368648176379224e+02
2.172778011162455503e+00 4.945280409927420919e+02
2.172878033167296774e+00 4.943189685360289332e+02
2.172978055172137601e+00 4.941096489268226151e+02
2.173078077176978873e+00 4.939000836467203044e+02
2.173178099181819700e+00 4.936902741795717589e+02
2.173278121186660972e+00 4.934802220114551119e+02
2.173378143191501799e+00 4.932699286306561817e+02
2.173478165196343070e+00 4.930593955276434031e+02
2.173578187201184342e+00 4.928486241950494104e+02
2.173678209206025169e+00 4.926376161276443213e+02
2.173778231210865997e+00 4.924263728223172052e+02
2.173878253215707268e+00 4.922148957780516412e+02
2.173978275220548539e+00 4.920031864959049130e+02
2.174078297225389367e+00 4.917912464789856699e+02
2.174178319230230638e+00 4.915790772324309614e+02
2.174278341235071466e+00 4.913666802633863426e+02
2.174378363239912737e+00 4.911540570809825681e+02
2.174478385244753564e+00 4.909412091963135936e+02
2.174578407249594836e+00 4.907281381224180450e+02
2.174678429254435663e+00 4.905148453742529000e+02
2.174778451259276935e+00 4.903013324686750138e+02
2.174878473264118206e+00 4.900876009244191209e+02
2.174978495268959033e+00 4.898736522620764049e+02
2.175078517273800305e+00 4.896594880040738644e+02
2.175178539278641132e+00 4.894451096746507233e+02
2.175278561283481960e+00 4.892305187998407519e+02
2.175378583288323231e+00 4.890157169074482226e+02
2.175478605293164502e+00 4.888007055270282422e+02
2.175578627298005330e+00 4.885854861898664012e+02
2.175678649302846601e+00 4.883700604289563216e+02
2.175778671307687873e+00 4.881544297789797611e+02
2.175878693312528256e+00 4.879385957762866610e+02
2.175978715317369527e+00 4.877225599588726368e+02
2.176078737322210799e+00 4.875063238663606171e+02
2.176178759327051626e+00 4.872898890399789593e+02
2.176278781331892898e+00 4.870732570225407017e+02
2.176378803336734169e+00 4.868564293584244638e+02
2.176478825341574996e+00 4.866394075935542674e+02
2.176578847346415824e+00 4.864221932753766851e+02
2.176678869351257095e+00 4.862047879528450949e+02
2.176778891356097922e+00 4.859871931763954080e+02
2.176878913360939194e+00 4.857694104979296981e+02
2.176978935365780465e+00 4.855514414707935771e+02
2.177078957370621293e+00 4.853332876497580060e+02
2.177178979375462564e+00 4.851149505909986601e+02
2.177279001380303391e+00 4.848964318520763754e+02
2.177379023385144663e+00 4.846777329919192425e+02
2.177479045389985490e+00 4.844588555708012336e+02
2.177579067394826762e+00 4.842398011503229327e+02
2.177679089399667589e+00 4.840205712933922086e+02
2.177779111404508861e+00 4.838011675642071623e+02
2.177879133409350132e+00 4.835815915282335027e+02
2.177979155414190959e+00 4.833618447521876647e+02
2.178079177419031787e+00 4.831419288040184483e+02
2.178179199423873058e+00 4.829218452528845660e+02
2.178279221428714330e+00 4.827015956691408292e+02
2.178379243433555157e+00 4.824811816243138765e+02
2.178479265438396428e+00 4.822606046910896112e+02
2.178579287443237256e+00 4.820398664432882470e+02
2.178679309448078527e+00 4.818189684558508930e+02
2.178779331452919354e+00 4.815979123048177826e+02
2.178879353457760626e+00 4.813766995673117890e+02
2.178979375462601453e+00 4.811553318215196100e+02
2.179079397467442725e+00 4.809338106466728391e+02
2.179179419472283996e+00 4.807121376230307987e+02
2.179279441477124823e+00 4.804903143318620664e+02
2.179379463481965651e+00 4.802683423554269098e+02
2.179479485486806922e+00 4.800462232769583011e+02
2.179579507491648194e+00 4.798239586806452621e+02
2.179679529496489021e+00 4.796015501516154700e+02
2.179779551501330292e+00 4.793789992759150209e+02
2.179879573506171120e+00 4.791563076404945605e+02
2.179979595511012391e+00 4.789334768331885925e+02
2.180079617515853219e+00 4.787105084427003021e+02
2.180179639520694490e+00 4.784874040585826265e+02
2.180279661525535317e+00 4.782641652712229074e+02
2.180379683530376589e+00 4.780407936718229394e+02
2.180479705535217860e+00 4.778172908523844171e+02
2.180579727540058688e+00 4.775936584056904621e+02
2.180679749544899959e+00 4.773698979252905019e+02
2.180779771549740786e+00 4.771460110054800339e+02
2.180879793554581614e+00 4.769219992412874944e+02
2.180979815559422885e+00 4.766978642284557850e+02
2.181079837564264157e+00 4.764736075634259578e+02
2.181179859569104984e+00 4.762492308433199355e+02
2.181279881573946255e+00 4.760247356659260731e+02
2.181379903578787527e+00 4.758001236296801153e+02
2.181479925583627910e+00 4.755753963336518382e+02
2.181579947588469182e+00 4.753505553775256089e+02
2.181679969593310453e+00 4.751256023615873119e+02
2.181779991598151280e+00 4.749005388867060447e+02
2.181880013602992552e+00 4.746753665543204193e+02
2.181980035607833823e+00 4.744500869664193488e+02
2.182080057612674651e+00 4.742247017255305082e+02
2.182180079617515478e+00 4.739992124347003823e+02
2.182280101622356749e+00 4.737736206974812490e+02
2.182380123627197577e+00 4.735479281179157169e+02
2.182480145632038848e+00 4.733221363005194462e+02
2.182580167636880120e+00 4.730962468502672209e+02
2.182680189641720947e+00 4.728702613725766355e+02
2.182780211646562218e+00 4.726441814732944522e+02
2.182880233651403046e+00 4.724180087586788659e+02
2.182980255656244317e+00 4.721917448353871123e+02
2.183080277661085145e+00 4.719653913104588128e+02
2.183180299665926416e+00 4.717389497913021046e+02
2.183280321670767243e+00 4.715124218856761900e+02
2.183380343675608515e+00 4.712858092016808769e+02
2.183480365680449786e+00 4.710591133477377639e+02
2.183580387685290614e+00 4.708323359325785873e+02
2.183680409690131441e+00 4.706054785652286228e+02
2.183780431694972712e+00 4.703785428549932703e+02
2.183880453699813984e+00 4.701515304114434457e+02
2.183980475704654811e+00 4.699244428444017103e+02
2.184080497709496083e+00 4.696972817639268669e+02
2.184180519714336910e+00 4.694700487803007150e+02
2.184280541719178181e+00 4.692427455040138966e+02
2.184380563724019009e+00 4.690153735457519133e+02
2.184480585728860280e+00 4.687879345163802327e+02
2.184580607733701108e+00 4.685604300269325790e+02
2.184680629738542379e+00 4.683328616885943347e+02
2.184780651743383650e+00 4.681052311126909444e+02
2.184880673748224478e+00 4.678775399106744430e+02
2.184980695753065305e+00 4.676497896941069712e+02
2.185080717757906577e+00 4.674219820746520213e+02
2.185180739762747848e+00 4.671941186640558499e+02
2.185280761767588675e+00 4.669662010741388372e+02
2.185380783772429947e+00 4.667382309167791163e+02
2.185480805777270774e+00 4.665102098038993290e+02
2.185580827782112046e+00 4.662821393474573597e+02
2.185680849786952873e+00 4.660540211594268385e+02
2.185780871791794144e+00 4.658258568517909453e+02
2.185880893796634972e+00 4.655976480365243333e+02
2.185980915801476243e+00 4.653693963255838071e+02
2.186080937806317515e+00 4.651411033308922924e+02
2.186180959811158342e+00 4.649127706643292868e+02
2.186280981815999613e+00 4.646843999377170462e+02
2.186381003820840441e+00 4.644559927628066589e+02
2.186481025825681268e+00 4.642275507512680974e+02
2.186581047830522539e+00 4.639990755146762922e+02
2.186681069835363811e+00 4.637705686644974321e+02
2.186781091840204638e+00 4.635420318120810634e+02
2.186881113845045910e+00 4.633134665686421840e+02
2.186981135849887181e+00 4.630848745452540811e+02
2.187081157854727564e+00 4.628562573528342341e+02
2.187181179859568836e+00 4.626276166021308427e+02
2.187281201864410107e+00 4.623989539037137320e+02
2.187381223869250935e+00 4.621702708679605394e+02
2.187481245874092206e+00 4.619415691050458008e+02
2.187581267878933478e+00 4.617128502249288431e+02
2.187681289883774305e+00 4.614841158373419603e+02
2.187781311888615132e+00 4.612553675517800684e+02
2.187881333893456404e+00 4.610266069774872904e+02
2.187981355898297231e+00 4.607978357234464966e+02
2.188081377903138502e+00 4.605690553983687323e+02
2.188181399907979774e+00 4.603402676106794615e+02
2.188281421912820601e+00 4.601114739685098129e+02
2.188381443917661429e+00 4.598826760796848703e+02
2.188481465922502700e+00 4.596538755517103709e+02
2.188581487927343971e+00 4.594250739917657143e+02
2.188681509932184799e+00 4.591962730066881591e+02
2.188781531937026070e+00 4.589674742029656613e+02
2.188881553941866898e+00 4.587386791867241982e+02
2.188981575946708169e+00 4.585098895637165697e+02
2.189081597951548996e+00 4.582811069393136449e+02
2.189181619956390268e+00 4.580523329184915156e+02
2.189281641961231095e+00 4.578235691058217753e+02
2.189381663966072367e+00 4.575948171054607201e+02
2.189481685970913638e+00 4.573660785211394000e+02
2.189581707975754465e+00 4.571373549561524214e+02
2.189681729980595737e+00 4.569086480133473742e+02
2.189781751985436564e+00 4.566799592951152249e+02
2.189881773990277836e+00 4.564512904033790619e+02
2.189981795995118663e+00 4.562226429395857963e+02
2.190081817999959934e+00 4.559940185046930310e+02
2.190181840004800762e+00 4.557654186991612164e+02
2.190281862009642033e+00 4.555368451229433049e+02
2.190381884014483305e+00 4.553082993754729273e+02
2.190481906019324132e+00 4.550797830556571171e+02
2.190581928024164959e+00 4.548512977618642026e+02
2.190681950029006231e+00 4.546228450919142006e+02
2.190781972033847502e+00 4.543944266430713697e+02
2.190881994038688330e+00 4.541660440120315343e+02
2.190982016043529601e+00 4.539376987949119666e+02
2.191082038048370428e+00 4.537093925872468390e+02
2.191182060053211256e+00 4.534811269839702845e+02
2.191282082058052527e+00 4.532529035794125321e+02
2.191382104062893799e+00 4.530247239672883097e+02
2.191482126067734626e+00 4.527965897406866134e+02
2.191582148072575897e+00 4.525685024920636579e+02
2.191682170077417169e+00 4.523404638132296895e+02
2.191782192082257996e+00 4.521124752953449502e+02
2.191882214087098824e+00 4.518845385289048409e+02
2.191982236091940095e+00 4.516566551037344652e+02
2.192082258096780922e+00 4.514288266089786816e+02
2.192182280101622194e+00 4.512010546330920988e+02
2.192282302106463465e+00 4.509733407638298104e+02
2.192382324111304293e+00 4.507456865882404031e+02
2.192482346116145564e+00 4.505180936926544177e+02
2.192582368120986391e+00 4.502905636626775276e+02
2.192682390125827219e+00 4.500630980831797388e+02
2.192782412130668490e+00 4.498356985382877156e+02
2.192882434135509762e+00 4.496083666113768800e+02
2.192982456140350589e+00 4.493811038850593036e+02
2.193082478145191860e+00 4.491539119411784213e+02
2.193182500150033132e+00 4.489267923607989133e+02
2.193282522154873959e+00 4.486997467241976096e+02
2.193382544159714787e+00 4.484727766108554761e+02
2.193482566164556058e+00 4.482458835994499964e+02
2.193582588169396885e+00 4.480190692678439746e+02
2.193682610174238157e+00 4.477923351930795661e+02
2.193782632179079428e+00 4.475656829513688422e+02
2.193882654183920256e+00 4.473391141180834438e+02
2.193982676188761083e+00 4.471126302677512854e+02
2.194082698193602354e+00 4.468862329740431960e+02
2.194182720198443626e+00 4.466599238097658144e+02
2.194282742203284453e+00 4.464337043468552793e+02
2.194382764208125725e+00 4.462075761563659739e+02
2.194482786212966552e+00 4.459815408084652404e+02
2.194582808217807823e+00 4.457555998724227493e+02
2.194682830222648651e+00 4.455297549166044746e+02
2.194782852227489922e+00 4.453040075084620071e+02
2.194882874232330749e+00 4.450783592145270404e+02
2.194982896237172021e+00 4.448528116004019353e+02
2.195082918242013292e+00 4.446273662307507948e+02
2.195182940246854120e+00 4.444020246692945193e+02
2.195282962251695391e+00 4.441767884787986986e+02
2.195382984256536218e+00 4.439516592210698036e+02
2.195483006261377490e+00 4.437266384569435331e+02
2.195583028266218317e+00 4.435017277462789025e+02
2.195683050271059589e+00 4.432769286479513653e+02
2.195783072275900416e+00 4.430522427198421838e+02
2.195883094280741687e+00 4.428276715188324602e+02
2.195983116285582959e+00 4.426032166007950082e+02
2.196083138290423786e+00 4.423788795205866791e+02
2.196183160295264614e+00 4.421546618320398920e+02
2.196283182300105885e+00 4.419305650879563245e+02
2.196383204304947157e+00 4.417065908400969647e+02
2.196483226309787984e+00 4.414827406391766544e+02
2.196583248314629255e+00 4.412590160348559039e+02
2.196683270319470083e+00 4.410354185757313985e+02
2.196783292324310910e+00 4.408119498093305992e+02
2.196883314329152181e+00 4.405886112821038978e+02
2.196983336333993453e+00 4.403654045394144987e+02
2.197083358338834280e+00 4.401423311255362023e+02
2.197183380343675552e+00 4.399193925836386256e+02
2.197283402348516823e+00 4.396965904557858948e+02
2.197383424353357650e+00 4.394739262829250492e+02
2.197483446358198478e+00 4.392514016048820054e+02
2.197583468363039749e+00 4.390290179603502452e+02
2.197683490367880577e+00 4.388067768868867233e+02
2.197783512372721848e+00 4.385846799209022038e+02
2.197883534377563119e+00 4.383627285976548933e+02
2.197983556382403947e+00 4.381409244512420855e+02
2.198083578387245218e+00 4.379192690145943629e+02
2.198183600392086046e+00 4.376977638194655924e+02
2.198283622396926873e+00 4.374764103964280366e+02
2.198383644401768144e+00 4.372552102748639413e+02
2.198483666406609416e+00 4.370341649829575204e+02
2.198583688411450243e+00 4.368132760476883050e+02
2.198683710416291515e+00 4.365925449948243227e+02
2.198783732421132786e+00 4.363719733489132295e+02
2.198883754425973613e+00 4.361515626332758870e+02
2.198983776430814441e+00 4.359313143699990860e+02
2.199083798435655712e+00 4.357112300799279865e+02
2.199183820440496540e+00 4.354913112826583870e+02
2.199283842445337811e+00 4.352715594965302444e+02
2.199383864450179082e+00 4.350519762386190905e+02
2.199483886455019910e+00 4.348325630247307458e+02
2.199583908459860737e+00 4.346133213693910875e+02
2.199683930464702009e+00 4.343942527858416724e+02
2.199783952469543280e+00 4.341753587860303014e+02
2.199883974474384107e+00 4.339566408806043682e+02
2.199983996479225379e+00 4.337381005789044366e+02
2.200084018484066206e+00 4.335197393889551449e+02
2.200184040488907478e+00 4.333015588174595223e+02
2.200284062493748305e+00 4.330835603697901774e+02
2.200384084498589576e+00 4.328657455499836715e+02
2.200484106503430404e+00 4.326481158607317639e+02
2.200584128508271675e+00 4.324306728033747049e+02
2.200684150513112947e+00 4.322134178778934483e+02
2.200784172517953774e+00 4.319963525829029436e+02
2.200884194522795045e+00 4.317794784156447463e+02
2.200984216527635873e+00 4.315627968719786622e+02
2.201084238532477144e+00 4.313463094463762104e+02
2.201184260537317972e+00 4.311300176319141428e+02
2.201284282542159243e+00 4.309139229202654064e+02
2.201384304547000070e+00 4.306980268016918671e+02
2.201484326551841342e+00 4.304823307650381707e+02
2.201584348556682613e+00 4.302668362977236711e+02
2.201684370561523441e+00 4.300515448857349838e+02
2.201784392566364268e+00 4.298364580136182553e+02
2.201884414571205539e+00 4.296215771644722849e+02
2.201984436576046811e+00 4.294069038199413626e+02
2.202084458580887638e+00 4.291924394602058896e+02
2.202184480585728910e+00 4.289781855639784567e+02
2.202284502590569737e+00 4.287641436084924180e+02
2.202384524595410564e+00 4.285503150694974011e+02
2.202484546600251836e+00 4.283367014212497565e+02
2.202584568605093107e+00 4.281233041365067038e+02
2.202684590609933935e+00 4.279101246865180315e+02
2.202784612614775206e+00 4.276971645410174006e+02
2.202884634619616477e+00 4.274844251682172853e+02
2.202984656624457305e+00 4.272719080347990825e+02
2.203084678629298132e+00 4.270596146059074272e+02
2.203184700634139404e+00 4.268475463451410405e+02
2.203284722638980231e+00 4.266357047145448291e+02
2.203384744643821502e+00 4.264240911746043139e+02
2.203484766648662774e+00 4.262127071842361943e+02
2.203584788653503601e+00 4.260015542007816407e+02
2.203684810658344873e+00 4.257906336799974270e+02
2.203784832663185700e+00 4.255799470760481427e+02
2.203884854668026527e+00 4.253694958415013616e+02
2.203984876672867799e+00 4.251592814273161594e+02
2.204084898677709070e+00 4.249493052828368036e+02
2.204184920682549897e+00 4.247395688557851940e+02
2.204284942687391169e+00 4.245300735922527338e+02
2.204384964692232440e+00 4.243208209366924848e+02
2.204484986697073268e+00 4.241118123319110964e+02
2.204585008701914095e+00 4.239030492190618133e+02
2.204685030706755366e+00 4.236945330376349261e+02
2.204785052711596194e+00 4.234862652254503246e+02
2.204885074716437465e+00 4.232782472186507903e+02
2.204985096721278737e+00 4.230704804516927879e+02
2.205085118726119564e+00 4.228629663573379958e+02
2.205185140730960391e+00 4.226557063666465410e+02
2.205285162735801663e+00 4.224487019089676778e+02
2.205385184740642934e+00 4.222419544119318289e+02
2.205485206745483762e+00 4.220354653014436508e+02
2.205585228750325033e+00 4.218292360016728253e+02
2.205685250755165860e+00 4.216232679350455328e+02
2.205785272760007132e+00 4.214175625222355848e+02
2.205885294764847959e+00 4.212121211821592510e+02
2.205985316769689231e+00 4.210069453319632657e+02
2.206085338774530058e+00 4.208020363870181200e+02
2.206185360779371329e+00 4.205973957609102172e+02
2.206285382784212601e+00 4.203930248654324373e+02
2.206385404789053428e+00 4.201889251105759513e+02
2.206485426793894256e+00 4.199850979045215240e+02
2.206585448798735527e+00 4.197815446536317268e+02
2.206685470803576798e+00 4.195782667624418423e+02
2.206785492808417626e+00 4.193752656336511109e+02
2.206885514813258897e+00 4.191725426681143176e+02
2.206985536818099725e+00 4.189700992648332658e+02
2.207085558822940996e+00 4.187679368209481936e+02
2.207185580827781823e+00 4.185660567317283949e+02
2.207285602832623095e+00 4.183644603905631243e+02
2.207385624837463922e+00 4.181631491889550034e+02
2.207485646842305194e+00 4.179621245165083678e+02
2.207585668847146465e+00 4.177613877609217639e+02
2.207685690851987292e+00 4.175609403079787967e+02
2.207785712856828564e+00 4.173607835415408545e+02
2.207885734861669391e+00 4.171609188435334090e+02
2.207985756866510219e+00 4.169613475939431169e+02
2.208085778871351490e+00 4.167620711708026420e+02
2.208185800876192761e+00 4.165630909501861652e+02
2.208285822881033589e+00 4.163644083061988681e+02
2.208385844885874860e+00 4.161660246109664740e+02
2.208485866890716132e+00 4.159679412346270055e+02
2.208585888895556515e+00 4.157701595453211212e+02
2.208685910900397786e+00 4.155726809091833047e+02
2.208785932905239058e+00 4.153755066903313491e+02
2.208885954910079885e+00 4.151786382508592510e+02
2.208985976914921157e+00 4.149820769508243643e+02
2.209085998919762428e+00 4.147858241482410335e+02
2.209186020924603255e+00 4.145898811990683726e+02
2.209286042929444083e+00 4.143942494572028181e+02
2.209386064934285354e+00 4.141989302744673296e+02
2.209486086939126182e+00 4.140039250006016118e+02
2.209586108943967453e+00 4.138092349832531909e+02
2.209686130948808724e+00 4.136148615679663294e+02
2.209786152953649552e+00 4.134208060981728181e+02
2.209886174958490823e+00 4.132270699151832218e+02
2.209986196963331651e+00 4.130336543581751130e+02
2.210086218968172922e+00 4.128405607641830102e+02
2.210186240973013749e+00 4.126477904680908750e+02
2.210286262977855021e+00 4.124553448026190381e+02
2.210386284982695848e+00 4.122632250983156155e+02
2.210486306987537120e+00 4.120714326835460497e+02
2.210586328992378391e+00 4.118799688844820821e+02
2.210686350997219218e+00 4.116888350250939652e+02
2.210786373002060046e+00 4.114980324271364225e+02
2.210886395006901317e+00 4.113075624101405765e+02
2.210986417011742589e+00 4.111174262914043425e+02
2.211086439016583416e+00 4.109276253859792405e+02
2.211186461021424687e+00 4.107381610066617554e+02
2.211286483026265515e+00 4.105490344639827072e+02
2.211386505031106786e+00 4.103602470661959956e+02
2.211486527035947613e+00 4.101718001192674024e+02
2.211586549040788885e+00 4.099836949268652120e+02
2.211686571045629712e+00 4.097959327903488429e+02
2.211786593050470984e+00 4.096085150087565694e+02
2.211886615055312255e+00 4.094214428787985298e+02
2.211986637060153083e+00 4.092347176948397873e+02
2.212086659064993910e+00 4.090483407488956118e+02
2.212186681069835181e+00 4.088623133306153932e+02
2.212286703074676453e+00 4.086766367272745129e+02
2.212386725079517280e+00 4.084913122237621792e+02
2.212486747084358552e+00 4.083063411025701157e+02
2.212586769089199379e+00 4.081217246437815334e+02
2.212686791094040650e+00 4.079374641250590798e+02
2.212786813098881478e+00 4.077535608216352330e+02
2.212886835103722749e+00 4.075700160062978057e+02
2.212986857108563576e+00 4.073868309493830111e+02
2.213086879113404848e+00 4.072040069187584095e+02
2.213186901118246119e+00 4.070215451798151776e+02
2.213286923123086947e+00 4.068394469954553188e+02
2.213386945127928218e+00 4.066577136260801240e+02
2.213486967132769045e+00 4.064763463295783481e+02
2.213586989137609873e+00 4.062953463613130225e+02
2.213687011142451144e+00 4.061147149741123030e+02
2.213787033147292416e+00 4.059344534182547477e+02
2.213887055152133243e+00 4.057545629414594828e+02
2.213987077156974514e+00 4.055750447888722192e+02
2.214087099161815786e+00 4.053959002030554757e+02
2.214187121166656169e+00 4.052171304239735719e+02
2.214287143171497441e+00 4.050387366889819987e+02
2.214387165176338712e+00 4.048607202328159929e+02
2.214487187181179539e+00 4.046830822875770082e+02
2.214587209186020811e+00 4.045058240827195846e+02
2.214687231190862082e+00 4.043289468450407185e+02
2.214787253195702910e+00 4.041524517986655383e+02
2.214887275200543737e+00 4.039763401650360493e+02
2.214987297205385008e+00 4.038006131628986850e+02
2.215087319210225836e+00 4.036252720082901533e+02
2.215187341215067107e+00 4.034503179145254990e+02
2.215287363219908379e+00 4.032757520921860532e+02
2.215387385224749206e+00 4.031015757491054501e+02
2.215487407229590477e+00 4.029277900903566092e+02
2.215587429234431305e+00 4.027543963182401399e+02
2.215687451239272576e+00 4.025813956322697322e+02
2.215787473244113404e+00 4.024087892291598223e+02
2.215887495248954675e+00 4.022365783028132000e+02
2.215987517253795502e+00 4.020647640443060595e+02
2.216087539258636774e+00 4.018933476418758914e+02
2.216187561263478045e+00 4.017223302809085226e+02
2.216287583268318873e+00 4.015517131439229388e+02
2.216387605273159700e+00 4.013814974105600299e+02
2.216487627278000971e+00 4.012116842575676401e+02
2.216587649282842243e+00 4.010422748587882893e+02
2.216687671287683070e+00 4.008732703851436554e+02
2.216787693292524342e+00 4.007046720046227506e+02
2.216887715297365169e+00 4.005364808822677105e+02
2.216987737302206440e+00 4.003686981801582760e+02
2.217087759307047268e+00 4.002013250574012773e+02
2.217187781311888539e+00 4.000343626701140920e+02
2.217287803316729367e+00 3.998678121714117424e+02
2.217387825321570638e+00 3.997016747113917745e+02
2.217487847326411909e+00 3.995359514371227192e+02
2.217587869331252737e+00 3.993706434926272095e+02
2.217687891336093564e+00 3.992057520188690205e+02
2.217787913340934836e+00 3.990412781537387445e+02
2.217887935345776107e+00 3.988772230320396943e+02
2.217987957350616934e+00 3.987135877854735213e+02
2.218087979355458206e+00 3.985503735426253797e+02
2.218188001360299033e+00 3.983875814289497725e+02
2.218288023365140305e+00 3.982252125667556584e+02
2.218388045369981132e+00 3.980632680751928092e+02
2.218488067374822403e+00 3.979017490702360078e+02
2.218588089379663231e+00 3.977406566646718602e+02
2.218688111384504502e+00 3.975799919680817425e+02
2.218788133389345774e+00 3.974197560868295227e+02
2.218888155394186601e+00 3.972599501240451332e+02
2.218988177399027872e+00 3.971005751796103596e+02
2.219088199403868700e+00 3.969416323501436068e+02
2.219188221408709527e+00 3.967831227289844946e+02
2.219288243413550799e+00 3.966250474061791920e+02
2.219388265418392070e+00 3.964674074684666607e+02
2.219488287423232897e+00 3.963102039992604659e+02
2.219588309428074169e+00 3.961534380786354177e+02
2.219688331432915440e+00 3.959971107833127917e+02
2.219788353437755823e+00 3.958412231866444699e+02
2.219888375442597095e+00 3.956857763585962857e+02
2.219988397447438366e+00 3.955307713657346085e+02
2.220088419452279194e+00 3.953762092712092340e+02
2.220188441457120465e+00 3.952220911347392303e+02
2.220288463461961737e+00 3.950684180125949752e+02
2.220388485466802564e+00 3.949151909575865602e+02
2.220488507471643391e+00 3.947624110190437250e+02
2.220588529476484663e+00 3.946100792428023851e+02
2.220688551481325490e+00 3.944581966711899099e+02
2.220788573486166761e+00 3.943067643430049429e+02
2.220888595491008033e+00 3.941557832935073975e+02
2.220988617495848860e+00 3.940052545543969700e+02
2.221088639500690132e+00 3.938551791538018279e+02
2.221188661505530959e+00 3.937055581162584303e+02
2.221288683510372231e+00 3.935563924626990229e+02
2.221388705515213058e+00 3.934076832104316850e+02
2.221488727520054329e+00 3.932594313731286775e+02
2.221588749524895157e+00 3.931116379608054672e+02
2.221688771529736428e+00 3.929643039798089603e+02
2.221788793534577700e+00 3.928174304327968116e+02
2.221888815539418527e+00 3.926710183187237249e+02
2.221988837544259354e+00 3.925250686328247980e+02
2.222088859549100626e+00 3.923795823665986404e+02
2.222188881553941897e+00 3.922345605077906612e+02
2.222288903558782724e+00 3.920900040403763001e+02
2.222388925563623996e+00 3.919459139445445999e+02
2.222488947568464823e+00 3.918022911966824608e+02
2.222588969573306095e+00 3.916591367693561097e+02
2.222688991578146922e+00 3.915164516312961496e+02
2.222789013582988193e+00 3.913742367473797117e+02
2.222889035587829021e+00 3.912324930786132313e+02
2.222989057592670292e+00 3.910912215821168729e+02
2.223089079597511564e+00 3.909504232111069655e+02
2.223189101602352391e+00 3.908100989148778126e+02
2.223289123607193218e+00 3.906702496387866290e+02
2.223389145612034490e+00 3.905308763242355781e+02
2.223489167616875761e+00 3.903919799086544913e+02
2.223589189621716589e+00 3.902535613254840996e+02
2.223689211626557860e+00 3.901156215041578434e+02
2.223789233631398687e+00 3.899781613700867524e+02
2.223889255636239515e+00 3.898411818446403458e+02
2.223989277641080786e+00 3.897046838451294661e+02
2.224089299645922058e+00 3.895686682847893962e+02
2.224189321650762885e+00 3.894331360727633751e+02
2.224289343655604156e+00 3.892980881140823612e+02
2.224389365660445428e+00 3.891635253096514475e+02
2.224489387665286255e+00 3.890294485562288287e+02
2.224589409670127083e+00 3.888958587464106813e+02
2.224689431674968354e+00 3.887627567686113252e+02
2.224789453679809181e+00 3.886301435070491834e+02
2.224889475684650453e+00 3.884980198417255224e+02
2.224989497689491724e+00 3.883663866484077971e+02
2.225089519694332552e+00 3.882352447986132802e+02
2.225189541699173823e+00 3.881045951595901897e+02
2.225289563704014650e+00 3.879744385942998974e+02
2.225389585708855478e+00 3.878447759613990797e+02
2.225489607713696749e+00 3.877156081152229490e+02
2.225589629718538021e+00 3.875869359057656993e+02
2.225689651723378848e+00 3.874587601786636242e+02
2.225789673728220119e+00 3.873310817751781201e+02
2.225889695733061391e+00 3.872039015321756779e+02
2.225989717737902218e+00 3.870772202821103178e+02
2.226089739742743046e+00 3.869510388530076739e+02
2.226189761747584317e+00 3.868253580684443591e+02
2.226289783752425144e+00 3.867001787475315382e+02
2.226389805757266416e+00 3.865755017048956006e+02
2.226489827762107687e+00 3.864513277506612781e+02
2.226589849766948515e+00 3.863276576904325452e+02
2.226689871771789342e+00 3.862044923252752824e+02
2.226789893776630613e+00 3.860818324516974940e+02
2.226889915781471885e+00 3.859596788616347567e+02
2.226989937786312712e+00 3.858380323424259473e+02
2.227089959791153984e+00 3.857168936768014191e+02
2.227189981795994811e+00 3.855962636428606629e+02
2.227290003800836082e+00 3.854761430140546850e+02
2.227390025805676910e+00 3.853565325591683290e+02
2.227490047810518181e+00 3.852374330423025413e+02
2.227590069815359008e+00 3.851188452228544179e+02
2.227690091820200280e+00 3.850007698554998683e+02
2.227790113825041551e+00 3.848832076901739470e+02
2.227890135829882379e+00 3.847661594720559037e+02
2.227990157834723650e+00 3.846496259415454233e+02
2.228090179839564478e+00 3.845336078342490396e+02
2.228190201844405749e+00 3.844181058809585920e+02
2.228290223849246576e+00 3.843031208076339453e+02
2.228390245854087848e+00 3.841886533353856521e+02
2.228490267858928675e+00 3.840747041804531818e+02
2.228590289863769947e+00 3.839612740541898006e+02
2.228690311868611218e+00 3.838483636630419937e+02
2.228790333873452045e+00 3.837359737085316738e+02
2.228890355878292873e+00 3.836241048872386727e+02
2.228990377883134144e+00 3.835127578907785164e+02
2.229090399887975416e+00 3.834019334057889523e+02
2.229190421892816243e+00 3.832916321139077809e+02
2.229290443897657514e+00 3.831818546917550634e+02
2.229390465902498342e+00 3.830726018109156144e+02
2.229490487907339169e+00 3.829638741379181397e+02
2.229590509912180440e+00 3.828556723342192640e+02
2.229690531917021712e+00 3.827479970561836922e+02
2.229790553921862539e+00 3.826408489550653940e+02
2.229890575926703811e+00 3.825342286769890165e+02
2.229990597931545082e+00 3.824281368629322060e+02
2.230090619936385909e+00 3.823225741487054847e+02
2.230190641941226737e+00 3.822175411649344596e+02
2.230290663946068008e+00 3.821130385370426552e+02
2.230390685950908836e+00 3.820090668852299132e+02
2.230490707955750107e+00 3.819056268244553962e+02
2.230590729960591379e+00 3.818027189644201371e+02
2.230690751965432206e+00 3.817003439095454951e+02
2.230790773970273477e+00 3.815985022589578648e+02
2.230890795975114305e+00 3.814971946064679287e+02
2.230990817979955132e+00 3.813964215405522395e+02
2.231090839984796403e+00 3.812961836443355423e+02
2.231190861989637675e+00 3.811964814955705947e+02
2.231290883994478502e+00 3.810973156666233876e+02
2.231390905999319774e+00 3.809986867244490440e+02
2.231490928004161045e+00 3.809005952305772098e+02
2.231590950009001872e+00 3.808030417410926134e+02
2.231690972013842700e+00 3.807060268066163076e+02
2.231790994018683971e+00 3.806095509722873658e+02
2.231891016023524799e+00 3.805136147777438964e+02
2.231991038028366070e+00 3.804182187571050235e+02
2.232091060033207341e+00 3.803233634389523559e+02
2.232191082038048169e+00 3.802290493463116263e+02
2.232291104042888996e+00 3.801352769966339338e+02
2.232391126047730268e+00 3.800420469017776099e+02
2.232491148052571539e+00 3.799493595679894042e+02
2.232591170057412366e+00 3.798572154958867486e+02
2.232691192062253638e+00 3.797656151804392266e+02
2.232791214067094465e+00 3.796745591109495308e+02
2.232891236071935737e+00 3.795840477710362393e+02
2.232991258076776564e+00 3.794940816386143752e+02
2.233091280081617835e+00 3.794046611858782398e+02
2.233191302086458663e+00 3.793157868792822569e+02
2.233291324091299934e+00 3.792274591795238621e+02
2.233391346096141206e+00 3.791396785415232671e+02
2.233491368100982033e+00 3.790524454144074866e+02
2.233591390105823304e+00 3.789657602414919211e+02
2.233691412110664132e+00 3.788796234602604045e+02
2.233791434115505403e+00 3.787940355023488337e+02
2.233891456120346231e+00 3.787089967935270352e+02
2.233991478125187502e+00 3.786245077536798362e+02
2.234091500130028329e+00 3.785405687967891595e+02
2.234191522134869601e+00 3.784571803309175948e+02
2.234291544139710872e+00 3.783743427581891865e+02
2.234391566144551700e+00 3.782920564747706749e+02
2.234491588149392527e+00 3.782103218708556938e+02
2.234591610154233798e+00 3.781291393306463533e+02
2.234691632159075070e+00 3.780485092323335721e+02
2.234791654163915897e+00 3.779684319480822978e+02
2.234891676168757169e+00 3.778889078440116123e+02
2.234991698173597996e+00 3.778099372801776212e+02
2.235091720178438823e+00 3.777315206105566858e+02
2.235191742183280095e+00 3.776536581830275168e+02
2.235291764188121366e+00 3.775763503393518477e+02
2.235391786192962194e+00 3.774995974151601672e+02
2.235491808197803465e+00 3.774233997399315967e+02
2.235591830202644736e+00 3.773477576369773487e+02
2.235691852207485564e+00 3.772726714234237306e+02
2.235791874212326391e+00 3.771981414101951486e+02
2.235891896217167663e+00 3.771241679019949515e+02
2.235991918222008490e+00 3.770507511972917314e+02
2.236091940226849761e+00 3.769778915882975525e+02
2.236191962231691033e+00 3.769055893609549344e+02
2.236291984236531860e+00 3.768338447949183774e+02
2.236392006241373132e+00 3.767626581635366279e+02
2.236492028246213959e+00 3.766920297338352270e+02
2.236592050251054786e+00 3.766219597665031529e+02
2.236692072255896058e+00 3.765524485158719017e+02
2.236792094260737329e+00 3.764834962299008794e+02
2.236892116265578156e+00 3.764151031501601778e+02
2.236992138270419428e+00 3.763472695118136926e+02
2.237092160275260699e+00 3.762799955436038886e+02
2.237192182280101527e+00 3.762132814678326440e+02
2.237292204284942354e+00 3.761471275003476649e+02
2.237392226289783626e+00 3.760815338505240675e+02
2.237492248294624453e+00 3.760165007212488035e+02
2.237592270299465724e+00 3.759520283089048576e+02
2.237692292304306996e+00 3.758881168033533982e+02
2.237792314309147823e+00 3.758247663879203060e+02
2.237892336313988650e+00 3.757619772393775293e+02
2.237992358318829922e+00 3.756997495279284180e+02
2.238092380323671193e+00 3.756380834171914671e+02
2.238192402328512021e+00 3.755769790641845134e+02
2.238292424333353292e+00 3.755164366193092746e+02
2.238392446338194119e+00 3.754564562263346374e+02
2.238492468343035391e+00 3.753970380223823327e+02
2.238592490347876218e+00 3.753381821379102803e+02
2.238692512352717490e+00 3.752798886966977534e+02
2.238792534357558317e+00 3.752221578158301440e+02
2.238892556362399588e+00 3.751649896056826492e+02
2.238992578367240860e+00 3.751083841699060599e+02
2.239092600372081687e+00 3.750523416054110726e+02
2.239192622376922959e+00 3.749968620023531116e+02
2.239292644381763786e+00 3.749419454441175503e+02
2.239392666386605057e+00 3.748875920073054431e+02
2.239492688391445885e+00 3.748338017617170976e+02
2.239592710396287156e+00 3.747805747703383759e+02
2.239692732401127984e+00 3.747279110893266534e+02
2.239792754405969255e+00 3.746758107679942782e+02
2.239892776410810526e+00 3.746242738487963493e+02
2.239992798415651354e+00 3.745733003673140047e+02
