1.400008001760387089e+00 5.095905003765664105e+02
1.400108023765228360e+00 5.095797175055288335e+02
1.400208045770069409e+00 5.095690266938794935e+02
1.400308067774910459e+00 5.095584283125810998e+02
1.400408089779751286e+00 5.095479227294225666e+02
1.400508111784592558e+00 5.095375103090036077e+02
1.400608133789433607e+00 5.095271914127193327e+02
1.400708155794274656e+00 5.095169663987442163e+02
1.400808177799115706e+00 5.095068356220156716e+02
1.400908199803956755e+00 5.094967994342184738e+02
1.401008221808798027e+00 5.094868581837711190e+02
1.401108243813638854e+00 5.094770122158072923e+02
1.401208265818479903e+00 5.094672618721631920e+02
1.401308287823320953e+00 5.094576074913613866e+02
1.401408309828162224e+00 5.094480494085939313e+02
1.401508331833003274e+00 5.094385879557116823e+02
1.401608353837844323e+00 5.094292234612044012e+02
1.401708375842685372e+00 5.094199562501894434e+02
1.401808397847526200e+00 5.094107866443952730e+02
1.401908419852367249e+00 5.094017149621488443e+02
1.402008441857208521e+00 5.093927415183574681e+02
1.402108463862049570e+00 5.093838666245000013e+02
1.402208485866890619e+00 5.093750905886062128e+02
1.402308507871731891e+00 5.093664137152480293e+02
1.402408529876572940e+00 5.093578363055221985e+02
1.402508551881413768e+00 5.093493586570380671e+02
1.402608573886254817e+00 5.093409810639030866e+02
1.402708595891095866e+00 5.093327038167093406e+02
1.402808617895936916e+00 5.093245272025193344e+02
1.402908639900778187e+00 5.093164515048542285e+02
1.403008661905619237e+00 5.093084770036786040e+02
1.403108683910460286e+00 5.093006039753877303e+02
1.403208705915301113e+00 5.092928326927961393e+02
1.403308727920142385e+00 5.092851634251210271e+02
1.403408749924983434e+00 5.092775964379739548e+02
1.403508771929824483e+00 5.092701319933441937e+02
1.403608793934665533e+00 5.092627703495884361e+02
1.403708815939506582e+00 5.092555117614170967e+02
1.403808837944347410e+00 5.092483564798820339e+02
1.403908859949188681e+00 5.092413047523659770e+02
1.404008881954029730e+00 5.092343568225669515e+02
1.404108903958870780e+00 5.092275129304891834e+02
1.404208925963712051e+00 5.092207733124316746e+02
1.404308947968553101e+00 5.092141382009720587e+02
1.404408969973394150e+00 5.092076078249600641e+02
1.404508991978234977e+00 5.092011824095031329e+02
1.404609013983076027e+00 5.091948621759560183e+02
1.404709035987917076e+00 5.091886473419087906e+02
1.404809057992758348e+00 5.091825381211758099e+02
1.404909079997599397e+00 5.091765347237850960e+02
1.405009102002440446e+00 5.091706373559675285e+02
1.405109124007281718e+00 5.091648462201457050e+02
1.405209146012122545e+00 5.091591615149225163e+02
1.405309168016963595e+00 5.091535834350723349e+02
1.405409190021804644e+00 5.091481121715293625e+02
1.405509212026645693e+00 5.091427479113773984e+02
1.405609234031486743e+00 5.091374908378406303e+02
1.405709256036328014e+00 5.091323411302726640e+02
1.405809278041169064e+00 5.091272989641462914e+02
1.405909300046009891e+00 5.091223645110450207e+02
1.406009322050850940e+00 5.091175379386534132e+02
1.406109344055692212e+00 5.091128194107454306e+02
1.406209366060533261e+00 5.091082090871779542e+02
1.406309388065374311e+00 5.091037071238794169e+02
1.406409410070215360e+00 5.090993136728413901e+02
1.406509432075056409e+00 5.090950288821104550e+02
1.406609454079897237e+00 5.090908528957790509e+02
1.406709476084738508e+00 5.090867858539741064e+02
1.406809498089579558e+00 5.090828278928529471e+02
1.406909520094420607e+00 5.090789791445915853e+02
1.407009542099261878e+00 5.090752397373776148e+02
1.407109564104102928e+00 5.090716097954030488e+02
1.407209586108943977e+00 5.090680894388531215e+02
1.407309608113784805e+00 5.090646787839009448e+02
1.407409630118625854e+00 5.090613779427005170e+02
1.407509652123466903e+00 5.090581870233775703e+02
1.407609674128308175e+00 5.090551061300199081e+02
1.407709696133149224e+00 5.090521353626760401e+02
1.407809718137990274e+00 5.090492748173420523e+02
1.407909740142831545e+00 5.090465245859572860e+02
1.408009762147672372e+00 5.090438847563978015e+02
1.408109784152513422e+00 5.090413554124687039e+02
1.408209806157354471e+00 5.090389366338961281e+02
1.408309828162195521e+00 5.090366284963244539e+02
1.408409850167036570e+00 5.090344310713056757e+02
1.408509872171877841e+00 5.090323444262969019e+02
1.408609894176718891e+00 5.090303686246513166e+02
1.408709916181559718e+00 5.090285037256141436e+02
1.408809938186400768e+00 5.090267497843152569e+02
1.408909960191242039e+00 5.090251068517655995e+02
1.409009982196083088e+00 5.090235749748499074e+02
1.409110004200924138e+00 5.090221541963212530e+02
1.409210026205765187e+00 5.090208445547981455e+02
1.409310048210606237e+00 5.090196460847558342e+02
1.409410070215447064e+00 5.090185588165246600e+02
1.409510092220288335e+00 5.090175827762827225e+02
1.409610114225129385e+00 5.090167179860532087e+02
1.409710136229970434e+00 5.090159644636984240e+02
1.409810158234811706e+00 5.090153222229160974e+02
1.409910180239652755e+00 5.090147912732349482e+02
1.410010202244493804e+00 5.090143716200112749e+02
1.410110224249334632e+00 5.090140632644236689e+02
1.410210246254175681e+00 5.090138662034698882e+02
1.410310268259016730e+00 5.090137804299635604e+02
1.410410290263858002e+00 5.090138059325303743e+02
1.410510312268699051e+00 5.090139426956044417e+02
1.410610334273540101e+00 5.090141906994254555e+02
1.410710356278381372e+00 5.090145499200361314e+02
1.410810378283222200e+00 5.090150203292776609e+02
1.410910400288063249e+00 5.090156018947875509e+02
1.411010422292904298e+00 5.090162945799987710e+02
1.411110444297745348e+00 5.090170983441352632e+02
1.411210466302586397e+00 5.090180131422094405e+02
1.411310488307427669e+00 5.090190389250213912e+02
1.411410510312268718e+00 5.090201756391564913e+02
1.411510532317109545e+00 5.090214232269818240e+02
1.411610554321950595e+00 5.090227816266475429e+02
1.411710576326791866e+00 5.090242507720819845e+02
1.411810598331632916e+00 5.090258305929931453e+02
1.411910620336473965e+00 5.090275210148645328e+02
1.412010642341315014e+00 5.090293219589563023e+02
1.412110664346156064e+00 5.090312333423032101e+02
1.412210686350996891e+00 5.090332550777141023e+02
1.412310708355838162e+00 5.090353870737706075e+02
1.412410730360679212e+00 5.090376292348269089e+02
1.412510752365520261e+00 5.090399814610096314e+02
1.412610774370361533e+00 5.090424436482178407e+02
1.412710796375202582e+00 5.090450156881215662e+02
1.412810818380043631e+00 5.090476974681629940e+02
1.412910840384884459e+00 5.090504888715572633e+02
1.413010862389725508e+00 5.090533897772899081e+02
1.413110884394566558e+00 5.090564000601212342e+02
1.413210906399407829e+00 5.090595195905838750e+02
1.413310928404248878e+00 5.090627482349851789e+02
1.413410950409089928e+00 5.090660858554075503e+02
1.413510972413931199e+00 5.090695323097098708e+02
1.413610994418772027e+00 5.090730874515284086e+02
1.413711016423613076e+00 5.090767511302776711e+02
1.413811038428454125e+00 5.090805231911537021e+02
1.413911060433295175e+00 5.090844034751344225e+02
1.414011082438136224e+00 5.090883918189798578e+02
1.414111104442977496e+00 5.090924880552394711e+02
1.414211126447818545e+00 5.090966920122465922e+02
1.414311148452659372e+00 5.091010035141281378e+02
1.414411170457500422e+00 5.091054223808019401e+02
1.414511192462341693e+00 5.091099484279818626e+02
1.414611214467182743e+00 5.091145814671797325e+02
1.414711236472023792e+00 5.091193213057078992e+02
1.414811258476864841e+00 5.091241677466836109e+02
1.414911280481705891e+00 5.091291205890299807e+02
1.415011302486546718e+00 5.091341796274808758e+02
1.415111324491387990e+00 5.091393446525854642e+02
1.415211346496229039e+00 5.091446154507083293e+02
1.415311368501070088e+00 5.091499918040368016e+02
1.415411390505911360e+00 5.091554734905835176e+02
1.415511412510752409e+00 5.091610602841898299e+02
1.415611434515593459e+00 5.091667519545305822e+02
1.415711456520434286e+00 5.091725482671193959e+02
1.415811478525275335e+00 5.091784489833113980e+02
1.415911500530116385e+00 5.091844538603102706e+02
1.416011522534957656e+00 5.091905626511702394e+02
1.416111544539798706e+00 5.091967751048032369e+02
1.416211566544639755e+00 5.092030909659828808e+02
1.416311588549481026e+00 5.092095099753510112e+02
1.416411610554321854e+00 5.092160318694210446e+02
1.416511632559162903e+00 5.092226563805857040e+02
1.416611654564003953e+00 5.092293832371222493e+02
1.416711676568845002e+00 5.092362121631956597e+02
1.416811698573686051e+00 5.092431428788697758e+02
1.416911720578527323e+00 5.092501751001093453e+02
1.417011742583368372e+00 5.092573085387866740e+02
1.417111764588209200e+00 5.092645429026907777e+02
1.417211786593050249e+00 5.092718778955305083e+02
1.417311808597891520e+00 5.092793132169447290e+02
1.417411830602732570e+00 5.092868485625065773e+02
1.417511852607573619e+00 5.092944836237313098e+02
1.417611874612414669e+00 5.093022180880845440e+02
1.417711896617255718e+00 5.093100516389878862e+02
1.417811918622096545e+00 5.093179839558284243e+02
1.417911940626937817e+00 5.093260147139635592e+02
1.418011962631778866e+00 5.093341435847325442e+02
1.418111984636619916e+00 5.093423702354604075e+02
1.418212006641461187e+00 5.093506943294698317e+02
1.418312028646302236e+00 5.093591155260863275e+02
1.418412050651143286e+00 5.093676334806484647e+02
1.418512072655984113e+00 5.093762478445156034e+02
1.418612094660825163e+00 5.093849582650765342e+02
1.418712116665666212e+00 5.093937643857595958e+02
1.418812138670507483e+00 5.094026658460389854e+02
1.418912160675348533e+00 5.094116622814463540e+02
1.419012182680189582e+00 5.094207533235799019e+02
1.419112204685030854e+00 5.094299386001113703e+02
1.419212226689871681e+00 5.094392177347989445e+02
1.419312248694712730e+00 5.094485903474935640e+02
1.419412270699553780e+00 5.094580560541525642e+02
1.419512292704394829e+00 5.094676144668453617e+02
1.419612314709235878e+00 5.094772651937673800e+02
1.419712336714077150e+00 5.094870078392476103e+02
1.419812358718918199e+00 5.094968420037600367e+02
1.419912380723759027e+00 5.095067672839359147e+02
1.420012402728600076e+00 5.095167832725706489e+02
1.420112424733441348e+00 5.095268895586378903e+02
1.420212446738282397e+00 5.095370857272993135e+02
1.420312468743123446e+00 5.095473713599154166e+02
1.420412490747964496e+00 5.095577460340572884e+02
1.420512512752805545e+00 5.095682093235182606e+02
1.420612534757646372e+00 5.095787607983243106e+02
1.420712556762487644e+00 5.095894000247469648e+02
1.420812578767328693e+00 5.096001265653145538e+02
1.420912600772169743e+00 5.096109399788241490e+02
1.421012622777011014e+00 5.096218398203536708e+02
1.421112644781852064e+00 5.096328256412745645e+02
1.421212666786692891e+00 5.096438969892627711e+02
1.421312688791533940e+00 5.096550534083140178e+02
1.421412710796374990e+00 5.096662944387529137e+02
1.421512732801216039e+00 5.096776196172482969e+02
1.421612754806057310e+00 5.096890284768253991e+02
1.421712776810898360e+00 5.097005205468793179e+02
1.421812798815739409e+00 5.097120953531863847e+02
1.421912820820580237e+00 5.097237524179209345e+02
1.422012842825421508e+00 5.097354912596636041e+02
1.422112864830262557e+00 5.097473113934217963e+02
1.422212886835103607e+00 5.097592123306371263e+02
1.422312908839944656e+00 5.097711935792020199e+02
1.422412930844785706e+00 5.097832546434747769e+02
1.422512952849626977e+00 5.097953950242907695e+02
1.422612974854467804e+00 5.098076142189798929e+02
1.422712996859308854e+00 5.098199117213782756e+02
1.422813018864149903e+00 5.098322870218447065e+02
1.422913040868991175e+00 5.098447396072737092e+02
1.423013062873832224e+00 5.098572689611125952e+02
1.423113084878673273e+00 5.098698745633736280e+02
1.423213106883514323e+00 5.098825558906511901e+02
1.423313128888355150e+00 5.098953124161353117e+02
1.423413150893196200e+00 5.099081436096294055e+02
1.423513172898037471e+00 5.099210489375623183e+02
1.423613194902878520e+00 5.099340278630074295e+02
1.423713216907719570e+00 5.099470798456952707e+02
1.423813238912560841e+00 5.099602043420313748e+02
1.423913260917401891e+00 5.099734008051118508e+02
1.424013282922242718e+00 5.099866686847391861e+02
1.424113304927083767e+00 5.100000074274375947e+02
1.424213326931924817e+00 5.100134164764714910e+02
1.424313348936765866e+00 5.100268952718594164e+02
1.424413370941607138e+00 5.100404432503926273e+02
1.424513392946448187e+00 5.100540598456508405e+02
1.424613414951289236e+00 5.100677444880194571e+02
1.424713436956130064e+00 5.100814966047057624e+02
1.424813458960971335e+00 5.100953156197571730e+02
1.424913480965812385e+00 5.101092009540773233e+02
1.425013502970653434e+00 5.101231520254439715e+02
1.425113524975494483e+00 5.101371682485262795e+02
1.425213546980335533e+00 5.101512490349026621e+02
1.425313568985176804e+00 5.101653937930782376e+02
1.425413590990017632e+00 5.101796019285006878e+02
1.425513612994858681e+00 5.101938728435832218e+02
1.425613634999699730e+00 5.102082059377174232e+02
1.425713657004541002e+00 5.102226006072934297e+02
1.425813679009382051e+00 5.102370562457185201e+02
1.425913701014223101e+00 5.102515722434349073e+02
1.426013723019064150e+00 5.102661479879389503e+02
1.426113745023904977e+00 5.102807828637991179e+02
1.426213767028746027e+00 5.102954762526739501e+02
1.426313789033587298e+00 5.103102275333328635e+02
1.426413811038428348e+00 5.103250360816730336e+02
1.426513833043269397e+00 5.103399012707406541e+02
1.426613855048110668e+00 5.103548224707478198e+02
1.426713877052951718e+00 5.103697990490935013e+02
1.426813899057792545e+00 5.103848303703820761e+02
1.426913921062633595e+00 5.103999157964425990e+02
1.427013943067474644e+00 5.104150546863498903e+02
1.427113965072315693e+00 5.104302463964426124e+02
1.427213987077156965e+00 5.104454902803435061e+02
1.427314009081998014e+00 5.104607856889802520e+02
1.427414031086839064e+00 5.104761319706039444e+02
1.427514053091679891e+00 5.104915284708111471e+02
1.427614075096521162e+00 5.105069745325623671e+02
1.427714097101362212e+00 5.105224694962033709e+02
1.427814119106203261e+00 5.105380126994855345e+02
1.427914141111044311e+00 5.105536034775855114e+02
1.428014163115885360e+00 5.105692411631286518e+02
1.428114185120726631e+00 5.105849250862058284e+02
1.428214207125567459e+00 5.106006545743970264e+02
1.428314229130408508e+00 5.106164289527914661e+02
1.428414251135249557e+00 5.106322475440092035e+02
1.428514273140090829e+00 5.106481096682217071e+02
1.428614295144931878e+00 5.106640146431729477e+02
1.428714317149772928e+00 5.106799617842017369e+02
1.428814339154613977e+00 5.106959504042621916e+02
1.428914361159454804e+00 5.107119798139461295e+02
1.429014383164295854e+00 5.107280493215035335e+02
1.429114405169137125e+00 5.107441582328655727e+02
1.429214427173978175e+00 5.107603058516669421e+02
1.429314449178819224e+00 5.107764914792646778e+02
1.429414471183660496e+00 5.107927144147643048e+02
1.429514493188501545e+00 5.108089739550391073e+02
1.429614515193342372e+00 5.108252693947529224e+02
1.429714537198183422e+00 5.108416000263839010e+02
1.429814559203024471e+00 5.108579651402439481e+02
1.429914581207865520e+00 5.108743640245054394e+02
1.430014603212706792e+00 5.108907959652200361e+02
1.430114625217547841e+00 5.109072602463418207e+02
1.430214647222388891e+00 5.109237561497529896e+02
1.430314669227229718e+00 5.109402829552828393e+02
1.430414691232070989e+00 5.109568399407340280e+02
1.430514713236912039e+00 5.109734263819025273e+02
1.430614735241753088e+00 5.109900415526041684e+02
1.430714757246594138e+00 5.110066847246936277e+02
1.430814779251435187e+00 5.110233551680914843e+02
1.430914801256276458e+00 5.110400521508058205e+02
1.431014823261117286e+00 5.110567749389564369e+02
1.431114845265958335e+00 5.110735227967953733e+02
1.431214867270799385e+00 5.110902949867361258e+02
1.431314889275640656e+00 5.111070907693712684e+02
1.431414911280481705e+00 5.111239094035018979e+02
1.431514933285322755e+00 5.111407501461555967e+02
1.431614955290163804e+00 5.111576122526146833e+02
1.431714977295004632e+00 5.111744949764396893e+02
1.431814999299845681e+00 5.111913975694904479e+02
1.431915021304686952e+00 5.112083192819537771e+02
1.432015043309528002e+00 5.112252593623659891e+02
1.432115065314369051e+00 5.112422170576365943e+02
1.432215087319210323e+00 5.112591916130740515e+02
1.432315109324051372e+00 5.112761822724087324e+02
1.432415131328892199e+00 5.112931882778189561e+02
1.432515153333733249e+00 5.113102088699542946e+02
1.432615175338574298e+00 5.113272432879606981e+02
1.432715197343415348e+00 5.113442907695044823e+02
1.432815219348256619e+00 5.113613505507983632e+02
1.432915241353097668e+00 5.113784218666258425e+02
1.433015263357938718e+00 5.113955039503645139e+02
1.433115285362779545e+00 5.114125960340130064e+02
1.433215307367620817e+00 5.114296973482159956e+02
1.433315329372461866e+00 5.114468071222869980e+02
1.433415351377302915e+00 5.114639245842366222e+02
1.433515373382143965e+00 5.114810489607947375e+02
1.433615395386985014e+00 5.114981794774379296e+02
1.433715417391826286e+00 5.115153153584136021e+02
1.433815439396667113e+00 5.115324558267662951e+02
1.433915461401508162e+00 5.115496001043619572e+02
1.434015483406349212e+00 5.115667474119144913e+02
1.434115505411190483e+00 5.115838969690100271e+02
1.434215527416031533e+00 5.116010479941346603e+02
1.434315549420872582e+00 5.116181997046971901e+02
1.434415571425713631e+00 5.116353513170566316e+02
1.434515593430554459e+00 5.116525020465487046e+02
1.434615615435395508e+00 5.116696511075097078e+02
1.434715637440236780e+00 5.116867977133028376e+02
1.434815659445077829e+00 5.117039410763459841e+02
1.434915681449918878e+00 5.117210804081346396e+02
1.435015703454760150e+00 5.117382149192692395e+02
1.435115725459601199e+00 5.117553438194833575e+02
1.435215747464442027e+00 5.117724663176655326e+02
1.435315769469283076e+00 5.117895816218889422e+02
1.435415791474124125e+00 5.118066889394355030e+02
1.435515813478965175e+00 5.118237874768240090e+02
1.435615835483806446e+00 5.118408764398335506e+02
1.435715857488647496e+00 5.118579550335329031e+02
1.435815879493488545e+00 5.118750224623050258e+02
1.435915901498329372e+00 5.118920779298740626e+02
1.436015923503170644e+00 5.119091206393302969e+02
1.436115945508011693e+00 5.119261497931598797e+02
1.436215967512852743e+00 5.119431645932670563e+02
1.436315989517693792e+00 5.119601642410051454e+02
1.436416011522534841e+00 5.119771479371991632e+02
1.436516033527376113e+00 5.119941148821749834e+02
1.436616055532216940e+00 5.120110642757847472e+02
1.436716077537057989e+00 5.120279953174340335e+02
1.436816099541899039e+00 5.120449072061086326e+02
1.436916121546740310e+00 5.120617991404001259e+02
1.437016143551581360e+00 5.120786703185347051e+02
1.437116165556422409e+00 5.120955199383977288e+02
1.437216187561263459e+00 5.121123471975624852e+02
1.437316209566104286e+00 5.121291512933155445e+02
1.437416231570945335e+00 5.121459314226839297e+02
1.437516253575786607e+00 5.121626867824625151e+02
1.437616275580627656e+00 5.121794165692410843e+02
1.437716297585468705e+00 5.121961199794301365e+02
1.437816319590309977e+00 5.122127962092890812e+02
1.437916341595151026e+00 5.122294444549524997e+02
1.438016363599991854e+00 5.122460639124561794e+02
1.438116385604832903e+00 5.122626537777673548e+02
1.438216407609673952e+00 5.122792132468078989e+02
1.438316429614515002e+00 5.122957415154839964e+02
1.438416451619356273e+00 5.123122377797113813e+02
1.438516473624197323e+00 5.123287012354436456e+02
1.438616495629038150e+00 5.123451310787006605e+02
1.438716517633879199e+00 5.123615265055908594e+02
1.438816539638720471e+00 5.123778867123438658e+02
1.438916561643561520e+00 5.123942108953348225e+02
1.439016583648402570e+00 5.124104982511116759e+02
1.439116605653243619e+00 5.124267479764221207e+02
1.439216627658084668e+00 5.124429592682423618e+02
1.439316649662925496e+00 5.124591313238023531e+02
1.439416671667766767e+00 5.124752633406150153e+02
1.439516693672607817e+00 5.124913545164996549e+02
1.439616715677448866e+00 5.125074040496148200e+02
1.439716737682290137e+00 5.125234111384797870e+02
1.439816759687131187e+00 5.125393749820058247e+02
1.439916781691972236e+00 5.125552947795208638e+02
1.440016803696813064e+00 5.125711697307992836e+02
1.440116825701654113e+00 5.125869990360853308e+02
1.440216847706495162e+00 5.126027818961244975e+02
1.440316869711336434e+00 5.126185175121872817e+02
1.440416891716177483e+00 5.126342050860989730e+02
1.440516913721018533e+00 5.126498438202645502e+02
1.440616935725859804e+00 5.126654329176978990e+02
1.440716957730700631e+00 5.126809715820476185e+02
1.440816979735541681e+00 5.126964590176246475e+02
1.440917001740382730e+00 5.127118944294303446e+02
1.441017023745223780e+00 5.127272770231808181e+02
1.441117045750064829e+00 5.127426060053383026e+02
1.441217067754906100e+00 5.127578805831335558e+02
1.441317089759747150e+00 5.127730999645980319e+02
1.441417111764587977e+00 5.127882633585854819e+02
1.441517133769429027e+00 5.128033699748044683e+02
1.441617155774270298e+00 5.128184190238420115e+02
1.441717177779111347e+00 5.128334097171906478e+02
1.441817199783952397e+00 5.128483412672778741e+02
1.441917221788793446e+00 5.128632128874903628e+02
1.442017243793634496e+00 5.128780237922034075e+02
1.442117265798475323e+00 5.128927731968061607e+02
1.442217287803316594e+00 5.129074603177303970e+02
1.442317309808157644e+00 5.129220843724737051e+02
1.442417331812998693e+00 5.129366445796331391e+02
1.442517353817839965e+00 5.129511401589242041e+02
1.442617375822681014e+00 5.129655703312140531e+02
1.442717397827522063e+00 5.129799343185447924e+02
1.442817419832362891e+00 5.129942313441622446e+02
1.442917441837203940e+00 5.130084606325413006e+02
1.443017463842044990e+00 5.130226214094141142e+02
1.443117485846886261e+00 5.130367129017953403e+02
1.443217507851727310e+00 5.130507343380101020e+02
1.443317529856568360e+00 5.130646849477208207e+02
1.443417551861409631e+00 5.130785639619519998e+02
1.443517573866250459e+00 5.130923706131194422e+02
1.443617595871091508e+00 5.131061041350551477e+02
1.443717617875932557e+00 5.131197637630341433e+02
1.443817639880773607e+00 5.131333487338013128e+02
1.443917661885614656e+00 5.131468582855986824e+02
1.444017683890455928e+00 5.131602916581896352e+02
1.444117705895296977e+00 5.131736480928875608e+02
1.444217727900137804e+00 5.131869268325810935e+02
1.444317749904978854e+00 5.132001271217612839e+02
1.444417771909820125e+00 5.132132482065466093e+02
1.444517793914661175e+00 5.132262893347111685e+02
1.444617815919502224e+00 5.132392497557088973e+02
1.444717837924343273e+00 5.132521287207007390e+02
1.444817859929184323e+00 5.132649254825801108e+02
1.444917881934025150e+00 5.132776392960015528e+02
1.445017903938866421e+00 5.132902694174028966e+02
1.445117925943707471e+00 5.133028151050335737e+02
1.445217947948548520e+00 5.133152756189814454e+02
1.445317969953389792e+00 5.133276502211951993e+02
1.445417991958230841e+00 5.133399381755141349e+02
1.445518013963071891e+00 5.133521387476915834e+02
1.445618035967912718e+00 5.133642512054215103e+02
1.445718057972753767e+00 5.133762748183640952e+02
1.445818079977594817e+00 5.133882088581718790e+02
1.445918101982436088e+00 5.134000525985139802e+02
1.446018123987277137e+00 5.134118053151025833e+02
1.446118145992118187e+00 5.134234662857187459e+02
1.446218167996959458e+00 5.134350347902370686e+02
1.446318190001800286e+00 5.134465101106513885e+02
1.446418212006641335e+00 5.134578915311004721e+02
1.446518234011482384e+00 5.134691783378927994e+02
1.446618256016323434e+00 5.134803698195313473e+02
1.446718278021164483e+00 5.134914652667396240e+02
1.446818300026005755e+00 5.135024639724869076e+02
1.446918322030846804e+00 5.135133652320113242e+02
1.447018344035687631e+00 5.135241683428474744e+02
1.447118366040528681e+00 5.135348726048489425e+02
1.447218388045369952e+00 5.135454773202148999e+02
1.447318410050211002e+00 5.135559817935138653e+02
1.447418432055052051e+00 5.135663853317080338e+02
1.447518454059893100e+00 5.135766872441799933e+02
1.447618476064734150e+00 5.135868868427536427e+02
1.447718498069574977e+00 5.135969834417225002e+02
1.447818520074416249e+00 5.136069763578711900e+02
1.447918542079257298e+00 5.136168649105018176e+02
1.448018564084098347e+00 5.136266484214572756e+02
1.448118586088939619e+00 5.136363262151436402e+02
1.448218608093780668e+00 5.136458976185592746e+02
1.448318630098621718e+00 5.136553619613129058e+02
1.448418652103462545e+00 5.136647185756518184e+02
1.448518674108303594e+00 5.136739667964837963e+02
1.448618696113144644e+00 5.136831059614020205e+02
1.448718718117985915e+00 5.136921354107071238e+02
1.448818740122826965e+00 5.137010544874323159e+02
1.448918762127668014e+00 5.137098625373669165e+02
1.449018784132509285e+00 5.137185589090789790e+02
1.449118806137350113e+00 5.137271429539396195e+02
1.449218828142191162e+00 5.137356140261446171e+02
1.449318850147032212e+00 5.137439714827405624e+02
1.449418872151873261e+00 5.137522146836450929e+02
1.449518894156714310e+00 5.137603429916711093e+02
1.449618916161555582e+00 5.137683557725508763e+02
1.449718938166396631e+00 5.137762523949569413e+02
1.449818960171237459e+00 5.137840322305254404e+02
1.449918982176078508e+00 5.137916946538801994e+02
1.450019004180919779e+00 5.137992390426535394e+02
1.450119026185760829e+00 5.138066647775100364e+02
1.450219048190601878e+00 5.138139712421684635e+02
1.450319070195442928e+00 5.138211578234246417e+02
1.450419092200283977e+00 5.138282239111716763e+02
1.450519114205124804e+00 5.138351688984251950e+02
1.450619136209966076e+00 5.138419921813433575e+02
1.450719158214807125e+00 5.138486931592494784e+02
1.450819180219648175e+00 5.138552712346538556e+02
1.450919202224489446e+00 5.138617258132749157e+02
1.451019224229330495e+00 5.138680563040625202e+02
1.451119246234171545e+00 5.138742621192167235e+02
1.451219268239012372e+00 5.138803426742132388e+02
1.451319290243853422e+00 5.138862973878204912e+02
1.451419312248694471e+00 5.138921256821248562e+02
1.451519334253535742e+00 5.138978269825479401e+02
1.451619356258376792e+00 5.139034007178715910e+02
1.451719378263217841e+00 5.139088463202558614e+02
1.451819400268059113e+00 5.139141632252611771e+02
1.451919422272899940e+00 5.139193508718690282e+02
1.452019444277740989e+00 5.139244087025023191e+02
1.452119466282582039e+00 5.139293361630467416e+02
1.452219488287423088e+00 5.139341327028694195e+02
1.452319510292264138e+00 5.139387977748416461e+02
1.452419532297105409e+00 5.139433308353568464e+02
1.452519554301946458e+00 5.139477313443529738e+02
1.452619576306787286e+00 5.139519987653295630e+02
1.452719598311628335e+00 5.139561325653709218e+02
1.452819620316469607e+00 5.139601322151634122e+02
1.452919642321310656e+00 5.139639971890164816e+02
1.453019664326151705e+00 5.139677269648821039e+02
1.453119686330992755e+00 5.139713210243728554e+02
1.453219708335833804e+00 5.139747788527831744e+02
1.453319730340674631e+00 5.139780999391086880e+02
1.453419752345515903e+00 5.139812837760620141e+02
1.453519774350356952e+00 5.139843298600958406e+02
1.453619796355198002e+00 5.139872376914198639e+02
1.453719818360039273e+00 5.139900067740190934e+02
1.453819840364880323e+00 5.139926366156745416e+02
1.453919862369721372e+00 5.139951267279786862e+02
1.454019884374562199e+00 5.139974766263566153e+02
1.454119906379403249e+00 5.139996858300830809e+02
1.454219928384244298e+00 5.140017538623004612e+02
1.454319950389085569e+00 5.140036802500382009e+02
1.454419972393926619e+00 5.140054645242271363e+02
1.454519994398767668e+00 5.140071062197237097e+02
1.454620016403608940e+00 5.140086048753204295e+02
1.454720038408449767e+00 5.140099600337680386e+02
1.454820060413290816e+00 5.140111712417927947e+02
1.454920082418131866e+00 5.140122380501101134e+02
1.455020104422972915e+00 5.140131600134462815e+02
1.455120126427813965e+00 5.140139366905525549e+02
1.455220148432655236e+00 5.140145676442234617e+02
1.455320170437496285e+00 5.140150524413124913e+02
1.455420192442337113e+00 5.140153906527509662e+02
1.455520214447178162e+00 5.140155818535600929e+02
1.455620236452019434e+00 5.140156256228740403e+02
1.455720258456860483e+00 5.140155215439485801e+02
1.455820280461701532e+00 5.140152692041837099e+02
1.455920302466542582e+00 5.140148681951360459e+02
1.456020324471383409e+00 5.140143181125362162e+02
1.456120346476224459e+00 5.140136185563035269e+02
1.456220368481065730e+00 5.140127691305618782e+02
1.456320390485906779e+00 5.140117694436562488e+02
1.456420412490747829e+00 5.140106191081667930e+02
1.456520434495589100e+00 5.140093177409249847e+02
1.456620456500430150e+00 5.140078649630270320e+02
1.456720478505270977e+00 5.140062603998516124e+02
1.456820500510112026e+00 5.140045036810724923e+02
1.456920522514953076e+00 5.140025944406726239e+02
1.457020544519794125e+00 5.140005323169610847e+02
1.457120566524635397e+00 5.139983169525859239e+02
1.457220588529476446e+00 5.139959479945489420e+02
1.457320610534317495e+00 5.139934250942183098e+02
1.457420632539158323e+00 5.139907479073453942e+02
1.457520654543999594e+00 5.139879160940753309e+02
1.457620676548840644e+00 5.139849293189633954e+02
1.457720698553681693e+00 5.139817872509873951e+02
1.457820720558522742e+00 5.139784895635602879e+02
1.457920742563363792e+00 5.139750359345453035e+02
1.458020764568205063e+00 5.139714260462676521e+02
1.458120786573045891e+00 5.139676595855274854e+02
1.458220808577886940e+00 5.139637362436135390e+02
1.458320830582727989e+00 5.139596557163163197e+02
1.458420852587569261e+00 5.139554177039375418e+02
1.458520874592410310e+00 5.139510219113062703e+02
1.458620896597251360e+00 5.139464680477898355e+02
1.458720918602092409e+00 5.139417558273041777e+02
1.458820940606933236e+00 5.139368849683296503e+02
1.458920962611774286e+00 5.139318551939179542e+02
1.459020984616615557e+00 5.139266662317081682e+02
1.459121006621456607e+00 5.139213178139359570e+02
1.459221028626297656e+00 5.139158096774449405e+02
1.459321050631138927e+00 5.139101415636991987e+02
1.459421072635979977e+00 5.139043132187928222e+02
1.459521094640820804e+00 5.138983243934624170e+02
1.459621116645661854e+00 5.138921748430954040e+02
1.459721138650502903e+00 5.138858643277442297e+02
1.459821160655343952e+00 5.138793926121331879e+02
1.459921182660185224e+00 5.138727594656716064e+02
1.460021204665026273e+00 5.138659646624615789e+02
1.460121226669867323e+00 5.138590079813100147e+02
1.460221248674708150e+00 5.138518892057375069e+02
1.460321270679549421e+00 5.138446081239883370e+02
1.460421292684390471e+00 5.138371645290387733e+02
1.460521314689231520e+00 5.138295582186090087e+02
1.460621336694072570e+00 5.138217889951698680e+02
1.460721358698913619e+00 5.138138566659539492e+02
1.460821380703754890e+00 5.138057610429625583e+02
1.460921402708595718e+00 5.137975019429763961e+02
1.461021424713436767e+00 5.137890791875624927e+02
1.461121446718277817e+00 5.137804926030837578e+02
1.461221468723119088e+00 5.137717420207083023e+02
1.461321490727960137e+00 5.137628272764135318e+02
1.461421512732801187e+00 5.137537482109992197e+02
1.461521534737642236e+00 5.137445046700927378e+02
1.461621556742483063e+00 5.137350965041561039e+02
1.461721578747324113e+00 5.137255235684948502e+02
1.461821600752165384e+00 5.137157857232652987e+02
1.461921622757006434e+00 5.137058828334812688e+02
1.462021644761847483e+00 5.136958147690212400e+02
1.462121666766688755e+00 5.136855814046359683e+02
1.462221688771529804e+00 5.136751826199531479e+02
1.462321710776370631e+00 5.136646182994868468e+02
1.462421732781211681e+00 5.136538883326411451e+02
1.462521754786052730e+00 5.136429926137188886e+02
1.462621776790893779e+00 5.136319310419265776e+02
1.462721798795735051e+00 5.136207035213792551e+02
1.462821820800576100e+00 5.136093099611081243e+02
1.462921842805417150e+00 5.135977502750658914e+02
1.463021864810257977e+00 5.135860243821304039e+02
1.463121886815099248e+00 5.135741322061126084e+02
1.463221908819940298e+00 5.135620736757593932e+02
1.463321930824781347e+00 5.135498487247599542e+02
1.463421952829622397e+00 5.135374572917494334e+02
1.463521974834463446e+00 5.135248993203156260e+02
1.463621996839304717e+00 5.135121747590009136e+02
1.463722018844145545e+00 5.134992835613082889e+02
1.463822040848986594e+00 5.134862256857048806e+02
1.463922062853827644e+00 5.134730010956253636e+02
1.464022084858668915e+00 5.134596097594778712e+02
1.464122106863509964e+00 5.134460516506456997e+02
1.464222128868351014e+00 5.134323267474906061e+02
1.464322150873192063e+00 5.134184350333574685e+02
1.464422172878032891e+00 5.134043764965772425e+02
1.464522194882873940e+00 5.133901511304691212e+02
1.464622216887715211e+00 5.133757589333445139e+02
1.464722238892556261e+00 5.133611999085081834e+02
1.464822260897397310e+00 5.133464740642624520e+02
1.464922282902238582e+00 5.133315814139084523e+02
1.465022304907079631e+00 5.133165219757488558e+02
1.465122326911920458e+00 5.133012957730893504e+02
1.465222348916761508e+00 5.132859028342418242e+02
1.465322370921602557e+00 5.132703431925231143e+02
1.465422392926443607e+00 5.132546168862610330e+02
1.465522414931284878e+00 5.132387239587914110e+02
1.465622436936125927e+00 5.132226644584615087e+02
1.465722458940966977e+00 5.132064384386309257e+02
1.465822480945807804e+00 5.131900459576723961e+02
1.465922502950649076e+00 5.131734870789707657e+02
1.466022524955490125e+00 5.131567618709276530e+02
1.466122546960331174e+00 5.131398704069567884e+02
1.466222568965172224e+00 5.131228127654885611e+02
1.466322590970013273e+00 5.131055890299662678e+02
1.466422612974854545e+00 5.130881992888492960e+02
1.466522634979695372e+00 5.130706436356113045e+02
1.466622656984536421e+00 5.130529221687388599e+02
1.466722678989377471e+00 5.130350349917337098e+02
1.466822700994218742e+00 5.130169822131074397e+02
1.466922722999059792e+00 5.129987639463863616e+02
1.467022745003900841e+00 5.129803803101040103e+02
1.467122767008741890e+00 5.129618314278063735e+02
1.467222789013582718e+00 5.129431174280450705e+02
1.467322811018423767e+00 5.129242384443783749e+02
1.467422833023265039e+00 5.129051946153679182e+02
1.467522855028106088e+00 5.128859860845800540e+02
1.467622877032947137e+00 5.128666130005792638e+02
1.467722899037788409e+00 5.128470755169292943e+02
1.467822921042629458e+00 5.128273737921894053e+02
1.467922943047470286e+00 5.128075079899106186e+02
1.468022965052311335e+00 5.127874782786366268e+02
1.468122987057152384e+00 5.127672848318948127e+02
1.468223009061993434e+00 5.127469278282006826e+02
1.468323031066834705e+00 5.127264074510472938e+02
1.468423053071675755e+00 5.127057238889077553e+02
1.468523075076516804e+00 5.126848773352276112e+02
1.468623097081357631e+00 5.126638679884231351e+02
1.468723119086198903e+00 5.126426960518761007e+02
1.468823141091039952e+00 5.126213617339309394e+02
1.468923163095881002e+00 5.125998652478905342e+02
1.469023185100722051e+00 5.125782068120101940e+02
1.469123207105563100e+00 5.125563866494948115e+02
1.469223229110404372e+00 5.125344049884921560e+02
1.469323251115245199e+00 5.125122620620913949e+02
1.469423273120086249e+00 5.124899581083134308e+02
1.469523295124927298e+00 5.124674933701105601e+02
1.469623317129768569e+00 5.124448680953560142e+02
1.469723339134609619e+00 5.124220825368430496e+02
1.469823361139450668e+00 5.123991369522763080e+02
1.469923383144291718e+00 5.123760316042654495e+02
1.470023405149132545e+00 5.123527667603233340e+02
1.470123427153973594e+00 5.123293426928539702e+02
1.470223449158814866e+00 5.123057596791514925e+02
1.470323471163655915e+00 5.122820180013891331e+02
1.470423493168496965e+00 5.122581179466159256e+02
1.470523515173338236e+00 5.122340598067476094e+02
1.470623537178179285e+00 5.122098438785609460e+02
1.470723559183020113e+00 5.121854704636862152e+02
1.470823581187861162e+00 5.121609398685985752e+02
1.470923603192702211e+00 5.121362524046137423e+02
1.471023625197543261e+00 5.121114083878760539e+02
1.471123647202384532e+00 5.120864081393542619e+02
1.471223669207225582e+00 5.120612519848318698e+02
1.471323691212066631e+00 5.120359402548984917e+02
1.471423713216907458e+00 5.120104732849436004e+02
1.471523735221748730e+00 5.119848514151448171e+02
1.471623757226589779e+00 5.119590749904639324e+02
1.471723779231430829e+00 5.119331443606329231e+02
1.471823801236271878e+00 5.119070598801482106e+02
1.471923823241112927e+00 5.118808219082612254e+02
1.472023845245954199e+00 5.118544308089690844e+02
1.472123867250795026e+00 5.118278869510031654e+02
1.472223889255636076e+00 5.118011907078227409e+02
1.472323911260477125e+00 5.117743424576032680e+02
1.472423933265318396e+00 5.117473425832265548e+02
1.472523955270159446e+00 5.117201914722716083e+02
1.472623977275000495e+00 5.116928895170035503e+02
1.472723999279841545e+00 5.116654371143629305e+02
1.472824021284682372e+00 5.116378346659574845e+02
1.472924043289523421e+00 5.116100825780482637e+02
1.473024065294364693e+00 5.115821812615415070e+02
1.473124087299205742e+00 5.115541311319751117e+02
1.473224109304046792e+00 5.115259326095109031e+02
1.473324131308888063e+00 5.114975861189191164e+02
1.473424153313728890e+00 5.114690920895712338e+02
1.473524175318569940e+00 5.114404509554249216e+02
1.473624197323410989e+00 5.114116631550145371e+02
1.473724219328252039e+00 5.113827291314377135e+02
1.473824241333093088e+00 5.113536493323442755e+02
1.473924263337934359e+00 5.113244242099239045e+02
1.474024285342775409e+00 5.112950542208934053e+02
1.474124307347616236e+00 5.112655398264842006e+02
1.474224329352457286e+00 5.112358814924308490e+02
1.474324351357298557e+00 5.112060796889555832e+02
1.474424373362139606e+00 5.111761348907575666e+02
1.474524395366980656e+00 5.111460475770010135e+02
1.474624417371821705e+00 5.111158182312974532e+02
1.474724439376662755e+00 5.110854473416965220e+02
1.474824461381503582e+00 5.110549354006714111e+02
1.474924483386344853e+00 5.110242829051032345e+02
1.475024505391185903e+00 5.109934903562692057e+02
1.475124527396026952e+00 5.109625582598284836e+02
1.475224549400868224e+00 5.109314871258069388e+02
1.475324571405709273e+00 5.109002774685836812e+02
1.475424593410550322e+00 5.108689298068771336e+02
1.475524615415391150e+00 5.108374446637286042e+02
1.475624637420232199e+00 5.108058225664900078e+02
1.475724659425073249e+00 5.107740640468068705e+02
1.475824681429914520e+00 5.107421696406040610e+02
1.475924703434755569e+00 5.107101398880716374e+02
1.476024725439596619e+00 5.106779753336481349e+02
1.476124747444437890e+00 5.106456765260055590e+02
1.476224769449278718e+00 5.106132440180342087e+02
1.476324791454119767e+00 5.105806783668267599e+02
1.476424813458960816e+00 5.105479801336618948e+02
1.476524835463801866e+00 5.105151498839894089e+02
1.476624857468642915e+00 5.104821881874132714e+02
1.476724879473484187e+00 5.104490956176741747e+02
1.476824901478325236e+00 5.104158727526365169e+02
1.476924923483166063e+00 5.103825201742685067e+02
1.477024945488007113e+00 5.103490384686271568e+02
1.477124967492848384e+00 5.103154282258403214e+02
1.477224989497689434e+00 5.102816900400920872e+02
1.477325011502530483e+00 5.102478245096019691e+02
1.477425033507371532e+00 5.102138322366120065e+02
1.477525055512212582e+00 5.101797138273653331e+02
1.477625077517053409e+00 5.101454698920910573e+02
1.477725099521894681e+00 5.101111010449861851e+02
1.477825121526735730e+00 5.100766079041985108e+02
1.477925143531576779e+00 5.100419910918067217e+02
1.478025165536418051e+00 5.100072512338037996e+02
1.478125187541259100e+00 5.099723889600797975e+02
1.478225209546100150e+00 5.099374049044013759e+02
1.478325231550940977e+00 5.099022997043951477e+02
1.478425253555782026e+00 5.098670740015276124e+02
1.478525275560623076e+00 5.098317284410883303e+02
1.478625297565464347e+00 5.097962636721687204e+02
1.478725319570305397e+00 5.097606803476460300e+02
1.478825341575146446e+00 5.097249791241622461e+02
1.478925363579987717e+00 5.096891606621049959e+02
1.479025385584828545e+00 5.096532256255895277e+02
1.479125407589669594e+00 5.096171746824375077e+02
1.479225429594510643e+00 5.095810085041587740e+02
1.479325451599351693e+00 5.095447277659321230e+02
1.479425473604192742e+00 5.095083331465837659e+02
1.479525495609034014e+00 5.094718253285682295e+02
1.479625517613875063e+00 5.094352049979488584e+02
1.479725539618715890e+00 5.093984728443774657e+02
1.479825561623556940e+00 5.093616295610731868e+02
1.479925583628398211e+00 5.093246758448032665e+02
1.480025605633239261e+00 5.092876123958617995e+02
1.480125627638080310e+00 5.092504399180489258e+02
1.480225649642921359e+00 5.092131591186507649e+02
1.480325671647762409e+00 5.091757707084186677e+02
1.480425693652603236e+00 5.091382754015471050e+02
1.480525715657444508e+00 5.091006739156529193e+02
1.480625737662285557e+00 5.090629669717556567e+02
1.480725759667126606e+00 5.090251552942538638e+02
1.480825781671967878e+00 5.089872396109058741e+02
1.480925803676808927e+00 5.089492206528062752e+02
1.481025825681649977e+00 5.089110991543660703e+02
1.481125847686490804e+00 5.088728758532883489e+02
1.481225869691331853e+00 5.088345514905507798e+02
1.481325891696172903e+00 5.087961268103779844e+02
1.481425913701014174e+00 5.087576025602248251e+02
1.481525935705855224e+00 5.087189794907495184e+02
1.481625957710696273e+00 5.086802583557955586e+02
1.481725979715537544e+00 5.086414399123664225e+02
1.481826001720378372e+00 5.086025249206030026e+02
1.481926023725219421e+00 5.085635141437635411e+02
1.482026045730060471e+00 5.085244083481986195e+02
1.482126067734901520e+00 5.084852083033281360e+02
1.482226089739742569e+00 5.084459147816203313e+02
1.482326111744583841e+00 5.084065285585666061e+02
1.482426133749424890e+00 5.083670504126606602e+02
1.482526155754265718e+00 5.083274811253722874e+02
1.482626177759106767e+00 5.082878214811267981e+02
1.482726199763948038e+00 5.082480722672805200e+02
1.482826221768789088e+00 5.082082342740973218e+02
1.482926243773630137e+00 5.081683082947238859e+02
1.483026265778471187e+00 5.081282951251679378e+02
1.483126287783312236e+00 5.080881955642734056e+02
1.483226309788153063e+00 5.080480104136959199e+02
1.483326331792994335e+00 5.080077404778805885e+02
1.483426353797835384e+00 5.079673865640355643e+02
1.483526375802676434e+00 5.079269494821097055e+02
1.483626397807517705e+00 5.078864300447680762e+02
1.483726419812358754e+00 5.078458290673656848e+02
1.483826441817199804e+00 5.078051473679262244e+02
1.483926463822040631e+00 5.077643857671145042e+02
1.484026485826881681e+00 5.077235450882135979e+02
1.484126507831722730e+00 5.076826261570994347e+02
1.484226529836564001e+00 5.076416298022159594e+02
1.484326551841405051e+00 5.076005568545509163e+02
1.484426573846246100e+00 5.075594081476095880e+02
1.484526595851087372e+00 5.075181845173917736e+02
1.484626617855928199e+00 5.074768868023633104e+02
1.484726639860769248e+00 5.074355158434349846e+02
1.484826661865610298e+00 5.073940724839339964e+02
1.484926683870451347e+00 5.073525575695798580e+02
1.485026705875292397e+00 5.073109719484584161e+02
1.485126727880133668e+00 5.072693164709977509e+02
1.485226749884974717e+00 5.072275919899406063e+02
1.485326771889815545e+00 5.071857993603188106e+02
1.485426793894656594e+00 5.071439394394299143e+02
1.485526815899497866e+00 5.071020130868079150e+02
1.485626837904338915e+00 5.070600211641998385e+02
1.485726859909179964e+00 5.070179645355398748e+02
1.485826881914021014e+00 5.069758440669200468e+02
1.485926903918862063e+00 5.069336606265678711e+02
1.486026925923702890e+00 5.068914150848196414e+02
1.486126947928544162e+00 5.068491083140902447e+02
1.486226969933385211e+00 5.068067411888523566e+02
1.486326991938226261e+00 5.067643145856060301e+02
1.486427013943067532e+00 5.067218293828534570e+02
1.486527035947908582e+00 5.066792864610728202e+02
1.486627057952749631e+00 5.066366867026921454e+02
1.486727079957590458e+00 5.065940309920603681e+02
1.486827101962431508e+00 5.065513202154228907e+02
1.486927123967272557e+00 5.065085552608932176e+02
1.487027145972113829e+00 5.064657370184274896e+02
1.487127167976954878e+00 5.064228663797964600e+02
1.487227189981795927e+00 5.063799442385587781e+02
1.487327211986637199e+00 5.063369714900335339e+02
1.487427233991478026e+00 5.062939490312750763e+02
1.487527255996319075e+00 5.062508777610429433e+02
1.487627278001160125e+00 5.062077585797765664e+02
1.487727300006001174e+00 5.061645923895678720e+02
1.487827322010842224e+00 5.061213800941336558e+02
1.487927344015683495e+00 5.060781225987862513e+02
1.488027366020524545e+00 5.060348208104105652e+02
1.488127388025365372e+00 5.059914756374324725e+02
1.488227410030206421e+00 5.059480879897935779e+02
1.488327432035047693e+00 5.059046587789217710e+02
1.488427454039888742e+00 5.058611889177054763e+02
1.488527476044729791e+00 5.058176793204647197e+02
1.488627498049570841e+00 5.057741309029249805e+02
1.488727520054411890e+00 5.057305445821859280e+02
1.488827542059252718e+00 5.056869212766980013e+02
1.488927564064093989e+00 5.056432619062311460e+02
1.489027586068935038e+00 5.055995673918491207e+02
1.489127608073776088e+00 5.055558386558804500e+02
1.489227630078617359e+00 5.055120766218892641e+02
1.489327652083458409e+00 5.054682822146512535e+02
1.489427674088299458e+00 5.054244563601201321e+02
1.489527696093140285e+00 5.053805999854037623e+02
1.489627718097981335e+00 5.053367140187353357e+02
1.489727740102822384e+00 5.052927993894423366e+02
1.489827762107663656e+00 5.052488570279219289e+02
1.489927784112504705e+00 5.052048878656114539e+02
1.490027806117345754e+00 5.051608928349585881e+02
1.490127828122187026e+00 5.051168728693942285e+02
1.490227850127027853e+00 5.050728289033067426e+02
1.490327872131868903e+00 5.050287618720080900e+02
1.490427894136709952e+00 5.049846727117094360e+02
1.490527916141551001e+00 5.049405623594921622e+02
1.490627938146392051e+00 5.048964317532779660e+02
1.490727960151233322e+00 5.048522818318019745e+02
1.490827982156074150e+00 5.048081135345838106e+02
1.490928004160915199e+00 5.047639278018970117e+02
1.491028026165756248e+00 5.047197255747448708e+02
1.491128048170597520e+00 5.046755077948269559e+02
1.491228070175438569e+00 5.046312754045135307e+02
1.491328092180279619e+00 5.045870293468158820e+02
1.491428114185120668e+00 5.045427705653588646e+02
1.491528136189961495e+00 5.044985000043499781e+02
1.491628158194802545e+00 5.044542186085520257e+02
1.491728180199643816e+00 5.044099273232553742e+02
1.491828202204484866e+00 5.043656270942470883e+02
1.491928224209325915e+00 5.043213188677835888e+02
1.492028246214167186e+00 5.042770035905621739e+02
1.492128268219008236e+00 5.042326822096910064e+02
1.492228290223849063e+00 5.041883556726610323e+02
1.492328312228690113e+00 5.041440249273171048e+02
1.492428334233531162e+00 5.040996909218292785e+02
1.492528356238372211e+00 5.040553546046642168e+02
1.492628378243213483e+00 5.040110169245559746e+02
1.492728400248054532e+00 5.039666788304767238e+02
1.492828422252895582e+00 5.039223412716093549e+02
1.492928444257736409e+00 5.038780051973174068e+02
1.493028466262577680e+00 5.038336715571165314e+02
1.493128488267418730e+00 5.037893413006449350e+02
1.493228510272259779e+00 5.037450153776364346e+02
1.493328532277100829e+00 5.037006947378903305e+02
1.493428554281941878e+00 5.036563803312420760e+02
1.493528576286783149e+00 5.036120731075358776e+02
1.493628598291623977e+00 5.035677740165936029e+02
1.493728620296465026e+00 5.035234840081888024e+02
1.493828642301306076e+00 5.034792040320159003e+02
1.493928664306147347e+00 5.034349350376618304e+02
1.494028686310988396e+00 5.033906779745764197e+02
1.494128708315829446e+00 5.033464337920457865e+02
1.494228730320670495e+00 5.033022034391617581e+02
1.494328752325511322e+00 5.032579878647921987e+02
1.494428774330352372e+00 5.032137880175546343e+02
1.494528796335193643e+00 5.031696048457858979e+02
1.494628818340034693e+00 5.031254392975140490e+02
1.494728840344875742e+00 5.030812923204289291e+02
1.494828862349717014e+00 5.030371648618532276e+02
1.494928884354558063e+00 5.029930578687149136e+02
1.495028906359398890e+00 5.029489722875174493e+02
1.495128928364239940e+00 5.029049090643119371e+02
1.495228950369080989e+00 5.028608691446677881e+02
1.495328972373922038e+00 5.028168534736433912e+02
1.495428994378763310e+00 5.027728629957600219e+02
1.495529016383604359e+00 5.027288986549698961e+02
1.495629038388445409e+00 5.026849613946295676e+02
1.495729060393286236e+00 5.026410521574713925e+02
1.495829082398127508e+00 5.025971718855736867e+02
1.495929104402968557e+00 5.025533215203334976e+02
1.496029126407809606e+00 5.025095020024373298e+02
1.496129148412650656e+00 5.024657142718333489e+02
1.496229170417491705e+00 5.024219592677017658e+02
1.496329192422332977e+00 5.023782379284272679e+02
1.496429214427173804e+00 5.023345511915705401e+02
1.496529236432014853e+00 5.022908999938391617e+02
1.496629258436855903e+00 5.022472852710612869e+02
1.496729280441697174e+00 5.022037079581540411e+02
1.496829302446538223e+00 5.021601689890984517e+02
1.496929324451379273e+00 5.021166692969088672e+02
1.497029346456220322e+00 5.020732098136063541e+02
1.497129368461061150e+00 5.020297914701891386e+02
1.497229390465902199e+00 5.019864151966065151e+02
1.497329412470743470e+00 5.019430819217278668e+02
1.497429434475584520e+00 5.018997925733164038e+02
1.497529456480425569e+00 5.018565480780014241e+02
1.497629478485266841e+00 5.018133493612498341e+02
1.497729500490107890e+00 5.017701973473365342e+02
1.497829522494948717e+00 5.017270929593199753e+02
1.497929544499789767e+00 5.016840371190116912e+02
1.498029566504630816e+00 5.016410307469487861e+02
1.498129588509471866e+00 5.015980747623660818e+02
1.498229610514313137e+00 5.015551700831706512e+02
1.498329632519154186e+00 5.015123176259106685e+02
1.498429654523995236e+00 5.014695183057500003e+02
1.498529676528836063e+00 5.014267730364398403e+02
1.498629698533677335e+00 5.013840827302910839e+02
1.498729720538518384e+00 5.013414482981481228e+02
1.498829742543359433e+00 5.012988706493594009e+02
1.498929764548200483e+00 5.012563506917508676e+02
1.499029786553041532e+00 5.012138893316005124e+02
1.499129808557882804e+00 5.011714874736072716e+02
1.499229830562723631e+00 5.011291460208667559e+02
1.499329852567564680e+00 5.010868658748431130e+02
1.499429874572405730e+00 5.010446479353421410e+02
1.499529896577247001e+00 5.010024931004843438e+02
1.499629918582088051e+00 5.009604022666771357e+02
1.499729940586929100e+00 5.009183763285890905e+02
1.499829962591770149e+00 5.008764161791214065e+02
1.499929984596610977e+00 5.008345227093835206e+02
1.500030006601452026e+00 5.095402493359364371e+02
1.500130028606293298e+00 5.096058995710675958e+02
1.500230050611134347e+00 5.096712691989613973e+02
1.500330072615975396e+00 5.097363562517442688e+02
1.500430094620816668e+00 5.098011587617866667e+02
1.500530116625657717e+00 5.098656747617465044e+02
1.500630138630498545e+00 5.099299022846128082e+02
1.500730160635339594e+00 5.099938393637453373e+02
1.500830182640180643e+00 5.100574840329190920e+02
1.500930204645021693e+00 5.101208343263677421e+02
1.501030226649862964e+00 5.101838882788243268e+02
1.501130248654704014e+00 5.102466439255647401e+02
1.501230270659545063e+00 5.103090993024520117e+02
1.501330292664385890e+00 5.103712524459756992e+02
1.501430314669227162e+00 5.104331013932986707e+02
1.501530336674068211e+00 5.104946441822973497e+02
1.501630358678909261e+00 5.105558788516058826e+02
1.501730380683750310e+00 5.106168034406582592e+02
1.501830402688591359e+00 5.106774159897314007e+02
1.501930424693432631e+00 5.107377145399897813e+02
1.502030446698273458e+00 5.107976971335262988e+02
1.502130468703114508e+00 5.108573618134062713e+02
1.502230490707955557e+00 5.109167066237117751e+02
1.502330512712796828e+00 5.109757296095828565e+02
1.502430534717637878e+00 5.110344288172615848e+02
1.502530556722478927e+00 5.110928022941359359e+02
1.502630578727319977e+00 5.111508480887816859e+02
1.502730600732160804e+00 5.112085642510068055e+02
1.502830622737001853e+00 5.112659488318951730e+02
1.502930644741843125e+00 5.113229998838481265e+02
1.503030666746684174e+00 5.113797154606292565e+02
1.503130688751525224e+00 5.114360936174078347e+02
1.503230710756366495e+00 5.114921324108005365e+02
1.503330732761207544e+00 5.115478298989178256e+02
1.503430754766048372e+00 5.116031841414046539e+02
1.503530776770889421e+00 5.116581931994855950e+02
1.503630798775730470e+00 5.117128551360070787e+02
1.503730820780571520e+00 5.117671680154823548e+02
1.503830842785412791e+00 5.118211299041334428e+02
1.503930864790253841e+00 5.118747388699364365e+02
1.504030886795094890e+00 5.119279929826626585e+02
1.504130908799935717e+00 5.119808903139251015e+02
1.504230930804776989e+00 5.120334289372193552e+02
1.504330952809618038e+00 5.120856069279695930e+02
1.504430974814459088e+00 5.121374223635687031e+02
1.504530996819300137e+00 5.121888733234268329e+02
1.504631018824141186e+00 5.122399578890102703e+02
1.504731040828982458e+00 5.122906741438875997e+02
1.504831062833823285e+00 5.123410201737734724e+02
1.504931084838664335e+00 5.123909940665698741e+02
1.505031106843505384e+00 5.124405939124126235e+02
1.505131128848346656e+00 5.124898178037140042e+02
1.505231150853187705e+00 5.125386638352048294e+02
1.505331172858028754e+00 5.125871301039799164e+02
1.505431194862869804e+00 5.126352147095412874e+02
1.505531216867710631e+00 5.126829157538412574e+02
1.505631238872551680e+00 5.127302313413268848e+02
1.505731260877392952e+00 5.127771595789822641e+02
1.505831282882234001e+00 5.128236985763737721e+02
1.505931304887075051e+00 5.128698464456919055e+02
1.506031326891916322e+00 5.129156013017966416e+02
1.506131348896757371e+00 5.129609612622596160e+02
1.506231370901598199e+00 5.130059244474077786e+02
1.506331392906439248e+00 5.130504889803683000e+02
1.506431414911280298e+00 5.130946529871099528e+02
1.506531436916121347e+00 5.131384145964889285e+02
1.506631458920962618e+00 5.131817719402902185e+02
1.506731480925803668e+00 5.132247231532725209e+02
1.506831502930644717e+00 5.132672663732115552e+02
1.506931524935485545e+00 5.133093997409424674e+02
1.507031546940326816e+00 5.133511214004045087e+02
1.507131568945167865e+00 5.133924294986836685e+02
1.507231590950008915e+00 5.134333221860567846e+02
1.507331612954849964e+00 5.134737976160334938e+02
1.507431634959691014e+00 5.135138539454019337e+02
1.507531656964532285e+00 5.135534893342683063e+02
1.507631678969373112e+00 5.135927019461042846e+02
1.507731700974214162e+00 5.136314899477888503e+02
1.507831722979055211e+00 5.136698515096489928e+02
1.507931744983896483e+00 5.137077848055068898e+02
1.508031766988737532e+00 5.137452880127202661e+02
1.508131788993578581e+00 5.137823593122266175e+02
1.508231810998419409e+00 5.138189968885859571e+02
1.508331833003260458e+00 5.138551989300244713e+02
1.508431855008101508e+00 5.138909636284766975e+02
1.508531877012942779e+00 5.139262891796294070e+02
1.508631899017783828e+00 5.139611737829629874e+02
1.508731921022624878e+00 5.139956156417968032e+02
1.508831943027466149e+00 5.140296129633294413e+02
1.508931965032306977e+00 5.140631639586840720e+02
1.509031987037148026e+00 5.140962668429491487e+02
1.509132009041989075e+00 5.141289198352218364e+02
1.509232031046830125e+00 5.141611211586510990e+02
1.509332053051671174e+00 5.141928690404797635e+02
1.509432075056512446e+00 5.142241617120887440e+02
1.509532097061353495e+00 5.142549974090360365e+02
1.509632119066194322e+00 5.142853743711038987e+02
1.509732141071035372e+00 5.143152908423365943e+02
1.509832163075876643e+00 5.143447450710871180e+02
1.509932185080717693e+00 5.143737353100566452e+02
1.510032207085558742e+00 5.144022598163369366e+02
1.510132229090399791e+00 5.144303168514547906e+02
1.510232251095240841e+00 5.144579046814120602e+02
1.510332273100081668e+00 5.144850215767283999e+02
1.510432295104922940e+00 5.145116658124841251e+02
1.510532317109763989e+00 5.145378356683609127e+02
1.510632339114605038e+00 5.145635294286847738e+02
1.510732361119446310e+00 5.145887453824675504e+02
1.510832383124287359e+00 5.146134818234484101e+02
1.510932405129128409e+00 5.146377370501371615e+02
1.511032427133969236e+00 5.146615093658529076e+02
1.511132449138810285e+00 5.146847970787699751e+02
1.511232471143651335e+00 5.147075985019545215e+02
1.511332493148492606e+00 5.147299119534103511e+02
1.511432515153333656e+00 5.147517357561182507e+02
1.511532537158174705e+00 5.147730682380774851e+02
1.511632559163015976e+00 5.147939077323477477e+02
1.511732581167856804e+00 5.148142525770887232e+02
1.511832603172697853e+00 5.148341011156039713e+02
1.511932625177538903e+00 5.148534516963799206e+02
1.512032647182379952e+00 5.148723026731274786e+02
1.512132669187221001e+00 5.148906524048226174e+02
1.512232691192062273e+00 5.149084992557475289e+02
1.512332713196903322e+00 5.149258415955317787e+02
1.512432735201744149e+00 5.149426777991930066e+02
1.512532757206585199e+00 5.149590062471754663e+02
1.512632779211426470e+00 5.149748253253941357e+02
1.512732801216267520e+00 5.149901334252723473e+02
1.512832823221108569e+00 5.150049289437823745e+02
1.512932845225949618e+00 5.150192102834878369e+02
1.513032867230790668e+00 5.150329758525812167e+02
1.513132889235631495e+00 5.150462240649253545e+02
1.513232911240472767e+00 5.150589533400935807e+02
1.513332933245313816e+00 5.150711621034092786e+02
1.513432955250154865e+00 5.150828487859855613e+02
1.513532977254996137e+00 5.150940118247654027e+02
1.513632999259837186e+00 5.151046496625604050e+02
1.513733021264678236e+00 5.151147607480920669e+02
1.513833043269519063e+00 5.151243435360297553e+02
1.513933065274360112e+00 5.151333964870295858e+02
1.514033087279201162e+00 5.151419180677764871e+02
1.514133109284042433e+00 5.151499067510196710e+02
1.514233131288883483e+00 5.151573610156142422e+02
1.514333153293724532e+00 5.151642793465600789e+02
1.514433175298565804e+00 5.151706602350388948e+02
1.514533197303406631e+00 5.151765021784549390e+02
1.514633219308247680e+00 5.151818036804733083e+02
1.514733241313088730e+00 5.151865632510560999e+02
1.514833263317929779e+00 5.151907794065053849e+02
1.514933285322770828e+00 5.151944506694975416e+02
1.515033307327612100e+00 5.151975755691232735e+02
1.515133329332453149e+00 5.152001526409250118e+02
1.515233351337293977e+00 5.152021804269368204e+02
1.515333373342135026e+00 5.152036574757189555e+02
1.515433395346976297e+00 5.152045823423989077e+02
1.515533417351817347e+00 5.152049535887076672e+02
1.515633439356658396e+00 5.152047697830163315e+02
1.515733461361499446e+00 5.152040295003758956e+02
1.515833483366340495e+00 5.152027313225523812e+02
1.515933505371181322e+00 5.152008738380658315e+02
1.516033527376022594e+00 5.151984556422257810e+02
1.516133549380863643e+00 5.151954753371695688e+02
1.516233571385704693e+00 5.151919315318984900e+02
1.516333593390545964e+00 5.151878228423147448e+02
1.516433615395387013e+00 5.151831478912583862e+02
1.516533637400228063e+00 5.151779053085434725e+02
1.516633659405068890e+00 5.151720937309944475e+02
1.516733681409909940e+00 5.151657118024818374e+02
1.516833703414750989e+00 5.151587581739604502e+02
1.516933725419592260e+00 5.151512315035022311e+02
1.517033747424433310e+00 5.151431304563354843e+02
1.517133769429274359e+00 5.151344537048776147e+02
1.517233791434115631e+00 5.151251999287735543e+02
1.517333813438956458e+00 5.151153678149279358e+02
1.517433835443797507e+00 5.151049560575453370e+02
1.517533857448638557e+00 5.150939633581593853e+02
1.517633879453479606e+00 5.150823884256726615e+02
1.517733901458320656e+00 5.150702299763902374e+02
1.517833923463161927e+00 5.150574867340533274e+02
1.517933945468002976e+00 5.150441574298755540e+02
1.518033967472843804e+00 5.150302408025773957e+02
1.518133989477684853e+00 5.150157355984187006e+02
1.518234011482526125e+00 5.150006405712358628e+02
1.518334033487367174e+00 5.149849544824736540e+02
1.518434055492208223e+00 5.149686761012201259e+02
1.518534077497049273e+00 5.149518042042402612e+02
1.518634099501890322e+00 5.149343375760105346e+02
1.518734121506731150e+00 5.149162750087509721e+02
1.518834143511572421e+00 5.148976153024595988e+02
1.518934165516413470e+00 5.148783572649457483e+02
1.519034187521254520e+00 5.148584997118630326e+02
1.519134209526095791e+00 5.148380414667415153e+02
1.519234231530936841e+00 5.148169813610223855e+02
1.519334253535777890e+00 5.147953182340879721e+02
1.519434275540618717e+00 5.147730509332976681e+02
1.519534297545459767e+00 5.147501783140173757e+02
1.519634319550300816e+00 5.147266992396536125e+02
1.519734341555142088e+00 5.147026125816839794e+02
1.519834363559983137e+00 5.146779172196903573e+02
1.519934385564824186e+00 5.146526120413902845e+02
1.520034407569665458e+00 5.146266959426695848e+02
1.520134429574506285e+00 5.146001678276113580e+02
1.520234451579347335e+00 5.145730266085298581e+02
1.520334473584188384e+00 5.145452712060000522e+02
1.520434495589029433e+00 5.145169005488892253e+02
1.520534517593870483e+00 5.144879135743882443e+02
1.520634539598711754e+00 5.144583092280410028e+02
1.520734561603552804e+00 5.144280864637757986e+02
1.520834583608393631e+00 5.143972442439362567e+02
1.520934605613234680e+00 5.143657815393103192e+02
1.521034627618075952e+00 5.143336973291601453e+02
1.521134649622917001e+00 5.143009906012540569e+02
1.521234671627758051e+00 5.142676603518929142e+02
1.521334693632599100e+00 5.142337055859433121e+02
1.521434715637440149e+00 5.141991253168642970e+02
1.521534737642280977e+00 5.141639185667373795e+02
1.521634759647122248e+00 5.141280843662952975e+02
1.521734781651963297e+00 5.140916217549516887e+02
1.521834803656804347e+00 5.140545297808292844e+02
1.521934825661645618e+00 5.140168075007876496e+02
1.522034847666486668e+00 5.139784539804533097e+02
1.522134869671327717e+00 5.139394682942456711e+02
1.522234891676168544e+00 5.138998495254072623e+02
1.522334913681009594e+00 5.138595967660298811e+02
1.522434935685850643e+00 5.138187091170832446e+02
1.522534957690691915e+00 5.137771856884418185e+02
1.522634979695532964e+00 5.137350255989122161e+02
1.522735001700374013e+00 5.136922279762610515e+02
1.522835023705215285e+00 5.136487919572405190e+02
1.522935045710056112e+00 5.136047166876165875e+02
1.523035067714897162e+00 5.135600013221946938e+02
1.523135089719738211e+00 5.135146450248465726e+02
1.523235111724579260e+00 5.134686469685357224e+02
1.523335133729420310e+00 5.134220063353449177e+02
1.523435155734261581e+00 5.133747223164997422e+02
1.523535177739102631e+00 5.133267941123971241e+02
1.523635199743943458e+00 5.132782209326284146e+02
1.523735221748784507e+00 5.132290019960057634e+02
1.523835243753625779e+00 5.131791365305878116e+02
1.523935265758466828e+00 5.131286237737029978e+02
1.524035287763307878e+00 5.130774629719757058e+02
1.524135309768148927e+00 5.130256533813495707e+02
1.524235331772989976e+00 5.129731942671141951e+02
1.524335353777830804e+00 5.129200849039262948e+02
1.524435375782672075e+00 5.128663245758353924e+02
1.524535397787513125e+00 5.128119125763079182e+02
1.524635419792354174e+00 5.127568482082492665e+02
1.524735441797195445e+00 5.127011307840294876e+02
1.524835463802036495e+00 5.126447596255039798e+02
1.524935485806877544e+00 5.125877340640386137e+02
1.525035507811718372e+00 5.125300534405307644e+02
1.525135529816559421e+00 5.124717171054336404e+02
1.525235551821400470e+00 5.124127244187784527e+02
1.525335573826241742e+00 5.123530747501945370e+02
1.525435595831082791e+00 5.122927674789343655e+02
1.525535617835923841e+00 5.122318019938938960e+02
1.525635639840764668e+00 5.121701776936337183e+02
1.525735661845605939e+00 5.121078939864021322e+02
1.525835683850446989e+00 5.120449502901550431e+02
1.525935705855288038e+00 5.119813460325770507e+02
1.526035727860129088e+00 5.119170806511037313e+02
1.526135749864970137e+00 5.118521535929406809e+02
1.526235771869811408e+00 5.117865643150842061e+02
1.526335793874652236e+00 5.117203122843422420e+02
1.526435815879493285e+00 5.116533969773547028e+02
1.526535837884334335e+00 5.115858178806122396e+02
1.526635859889175606e+00 5.115175744904761359e+02
1.526735881894016655e+00 5.114486663131986006e+02
1.526835903898857705e+00 5.113790928649407306e+02
1.526935925903698754e+00 5.113088536717923489e+02
1.527035947908539582e+00 5.112379482697915591e+02
1.527135969913380631e+00 5.111663762049413435e+02
1.527235991918221902e+00 5.110941370332300835e+02
1.527336013923062952e+00 5.110212303206478168e+02
1.527436035927904001e+00 5.109476556432059624e+02
1.527536057932745273e+00 5.108734125869544300e+02
1.527636079937586322e+00 5.107985007479990145e+02
1.527736101942427149e+00 5.107229197325183350e+02
1.527836123947268199e+00 5.106466691567820817e+02
1.527936145952109248e+00 5.105697486471672164e+02
1.528036167956950298e+00 5.104921578401751958e+02
1.528136189961791569e+00 5.104138963824481152e+02
1.528236211966632618e+00 5.103349639307847383e+02
1.528336233971473668e+00 5.102553601521572091e+02
1.528436255976314495e+00 5.101750847237269682e+02
1.528536277981155767e+00 5.100941373328595319e+02
1.528636299985996816e+00 5.100125176771417728e+02
1.528736321990837865e+00 5.099302254643944252e+02
1.528836343995678915e+00 5.098472604126891383e+02
1.528936366000519964e+00 5.097636222503633689e+02
1.529036388005361236e+00 5.096793107160337399e+02
1.529136410010202063e+00 5.095943255586118426e+02
1.529236432015043112e+00 5.095086665373162873e+02
1.529336454019884162e+00 5.094223334216894159e+02
1.529436476024725433e+00 5.093353259916086699e+02
1.529536498029566483e+00 5.092476440373012565e+02
1.529636520034407532e+00 5.091592873593574495e+02
1.529736542039248581e+00 5.090702557687430385e+02
1.529836564044089409e+00 5.089805490868125730e+02
1.529936586048930458e+00 5.088901671453228914e+02
1.530036608053771729e+00 5.087991097864425569e+02
1.530136630058612779e+00 5.087073768627674326e+02
1.530236652063453828e+00 5.086149682373318228e+02
1.530336674068295100e+00 5.085218837836185344e+02
1.530436696073136149e+00 5.084281233855720643e+02
1.530536718077976976e+00 5.083336869376099685e+02
1.530636740082818026e+00 5.082385743446316155e+02
1.530736762087659075e+00 5.081427855220328524e+02
1.530836784092500125e+00 5.080463203957132237e+02
1.530936806097341396e+00 5.079491789020883061e+02
1.531036828102182445e+00 5.078513609880986905e+02
1.531136850107023495e+00 5.077528666112211795e+02
1.531236872111864322e+00 5.076536957394776550e+02
1.531336894116705594e+00 5.075538483514451400e+02
1.531436916121546643e+00 5.074533244362638698e+02
1.531536938126387692e+00 5.073521239936484335e+02
1.531636960131228742e+00 5.072502470338947091e+02
1.531736982136069791e+00 5.071476935778895268e+02
1.531837004140911063e+00 5.070444636571178307e+02
1.531937026145751890e+00 5.069405573136727412e+02
1.532037048150592939e+00 5.068359746002620909e+02
1.532137070155433989e+00 5.067307155802163834e+02
1.532237092160275260e+00 5.066247803274964099e+02
1.532337114165116310e+00 5.065181689267001275e+02
1.532437136169957359e+00 5.064108814730708445e+02
1.532537158174798408e+00 5.063029180725016545e+02
1.532637180179639236e+00 5.061942788415450423e+02
1.532737202184480285e+00 5.060849639074168635e+02
1.532837224189321557e+00 5.059749734080031089e+02
1.532937246194162606e+00 5.058643074918660432e+02
1.533037268199003655e+00 5.057529663182498325e+02
1.533137290203844927e+00 5.056409500570857745e+02
1.533237312208685976e+00 5.055282588889972430e+02
1.533337334213526804e+00 5.054148930053048616e+02
1.533437356218367853e+00 5.053008526080321303e+02
1.533537378223208902e+00 5.051861379099076999e+02
1.533637400228049952e+00 5.050707491343721358e+02
1.533737422232891223e+00 5.049546865155793398e+02
1.533837444237732273e+00 5.048379502984038254e+02
1.533937466242573322e+00 5.047205407384404339e+02
1.534037488247414149e+00 5.046024581020105870e+02
1.534137510252255421e+00 5.044837026661639356e+02
1.534237532257096470e+00 5.043642747186809174e+02
1.534337554261937520e+00 5.042441745580765655e+02
1.534437576266778569e+00 5.041234024936028391e+02
1.534537598271619618e+00 5.040019588452499875e+02
1.534637620276460890e+00 5.038798439437479715e+02
1.534737642281301717e+00 5.037570581305706696e+02
1.534837664286142767e+00 5.036336017579344571e+02
1.534937686290983816e+00 5.035094751888009341e+02
1.535037708295825087e+00 5.033846787968782905e+02
1.535137730300666137e+00 5.032592129666208507e+02
1.535237752305507186e+00 5.031330780932306652e+02
1.535337774310348236e+00 5.030062745826567152e+02
1.535437796315189063e+00 5.028788028515975839e+02
1.535537818320030112e+00 5.027506633274963406e+02
1.535637840324871384e+00 5.026218564485463389e+02
1.535737862329712433e+00 5.024923826636852482e+02
1.535837884334553483e+00 5.023622424325976681e+02
1.535937906339394754e+00 5.022314362257125140e+02
1.536037928344235803e+00 5.020999645242013685e+02
1.536137950349076631e+00 5.019678278199784813e+02
1.536237972353917680e+00 5.018350266156970747e+02
1.536337994358758730e+00 5.017015614247491158e+02
1.536438016363599779e+00 5.015674327712617355e+02
1.536538038368441050e+00 5.014326411900952962e+02
1.536638060373282100e+00 5.012971872268408333e+02
1.536738082378123149e+00 5.011610714378156786e+02
1.536838104382963976e+00 5.010242943900636305e+02
1.536938126387805248e+00 5.008868566613477924e+02
1.537038148392646297e+00 5.007487588401480139e+02
1.537138170397487347e+00 5.006100015256587881e+02
1.537238192402328396e+00 5.004705853277831693e+02
1.537338214407169446e+00 5.003305108671285666e+02
1.537438236412010717e+00 5.001897787750034468e+02
1.537538258416851544e+00 5.000483896934114227e+02
1.537638280421692594e+00 4.999063442750452850e+02
1.537738302426533643e+00 4.997636431832851827e+02
1.537838324431374915e+00 4.996202870921882777e+02
1.537938346436215964e+00 4.994762766864874948e+02
1.538038368441057013e+00 4.993316126615821418e+02
1.538138390445898063e+00 4.991862957235339877e+02
1.538238412450738890e+00 4.990403265890589068e+02
1.538338434455579939e+00 4.988937059855219331e+02
1.538438456460421211e+00 4.987464346509298707e+02
1.538538478465262260e+00 4.985985133339224831e+02
1.538638500470103310e+00 4.984499427937677183e+02
1.538738522474944581e+00 4.983007238003520456e+02
1.538838544479785631e+00 4.981508571341738048e+02
1.538938566484626458e+00 4.980003435863345658e+02
1.539038588489467507e+00 4.978491839585311141e+02
1.539138610494308557e+00 4.976973790630464123e+02
1.539238632499149606e+00 4.975449297227415855e+02
1.539338654503990877e+00 4.973918367710455755e+02
1.539438676508831927e+00 4.972381010519480924e+02
1.539538698513672976e+00 4.970837234199874501e+02
1.539638720518513804e+00 4.969287047402431199e+02
1.539738742523355075e+00 4.967730458883247024e+02
1.539838764528196124e+00 4.966167477503619239e+02
1.539938786533037174e+00 4.964598112229946310e+02
1.540038808537878223e+00 4.963022372133613658e+02
1.540138830542719273e+00 4.961440266390891338e+02
1.540238852547560544e+00 4.959851804282821490e+02
1.540338874552401371e+00 4.958256995195107493e+02
1.540438896557242421e+00 4.956655848617996298e+02
1.540538918562083470e+00 4.955048374146152810e+02
1.540638940566924742e+00 4.953434581478561540e+02
1.540738962571765791e+00 4.951814480418381663e+02
1.540838984576606840e+00 4.950188080872826504e+02
1.540939006581447890e+00 4.948555392853058379e+02
1.541039028586288717e+00 4.946916426474026025e+02
1.541139050591129767e+00 4.945271191954353753e+02
1.541239072595971038e+00 4.943619699616212984e+02
1.541339094600812087e+00 4.941961959885168767e+02
1.541439116605653137e+00 4.940297983290047341e+02
1.541539138610494408e+00 4.938627780462807664e+02
1.541639160615335458e+00 4.936951362138379409e+02
1.541739182620176285e+00 4.935268739154537343e+02
1.541839204625017334e+00 4.933579922451738184e+02
1.541939226629858384e+00 4.931884923072976790e+02
1.542039248634699433e+00 4.930183752163638928e+02
1.542139270639540705e+00 4.928476420971344965e+02
1.542239292644381754e+00 4.926762940845785010e+02
1.542339314649222803e+00 4.925043323238575113e+02
1.542439336654063631e+00 4.923317579703082174e+02
1.542539358658904902e+00 4.921585721894277867e+02
1.542639380663745952e+00 4.919847761568553324e+02
1.542739402668587001e+00 4.918103710583560542e+02
1.542839424673428050e+00 4.916353580898056634e+02
1.542939446678269100e+00 4.914597384571716248e+02
1.543039468683109927e+00 4.912835133764945681e+02
1.543139490687951199e+00 4.911066840738738506e+02
1.543239512692792248e+00 4.909292517854481162e+02
1.543339534697633297e+00 4.907512177573755707e+02
1.543439556702474569e+00 4.905725832458186346e+02
1.543539578707315618e+00 4.903933495169246157e+02
1.543639600712156668e+00 4.902135178468044501e+02
1.543739622716997495e+00 4.900330895215170131e+02
1.543839644721838544e+00 4.898520658370493948e+02
1.543939666726679594e+00 4.896704480992956974e+02
1.544039688731520865e+00 4.894882376240394706e+02
1.544139710736361915e+00 4.893054357369321679e+02
1.544239732741202964e+00 4.891220437734745019e+02
1.544339754746044235e+00 4.889380630789956967e+02
1.544439776750885063e+00 4.887534950086328536e+02
1.544539798755726112e+00 4.885683409273109987e+02
1.544639820760567162e+00 4.883826022097209716e+02
1.544739842765408211e+00 4.881962802402991883e+02
1.544839864770249260e+00 4.880093764132070078e+02
1.544939886775090532e+00 4.878218921323067434e+02
1.545039908779931581e+00 4.876338288111430757e+02
1.545139930784772409e+00 4.874451878729189502e+02
1.545239952789613458e+00 4.872559707504734092e+02
1.545339974794454729e+00 4.870661788862610138e+02
1.545439996799295779e+00 4.868758137323276287e+02
1.545540018804136828e+00 4.866848767502880264e+02
1.545640040808977878e+00 4.864933694113026377e+02
1.545740062813818927e+00 4.863012931960557808e+02
1.545840084818659754e+00 4.861086495947294566e+02
1.545940106823501026e+00 4.859154401069832261e+02
1.546040128828342075e+00 4.857216662419273234e+02
1.546140150833183124e+00 4.855273295181003732e+02
1.546240172838024396e+00 4.853324314634443226e+02
1.546340194842865445e+00 4.851369736152806809e+02
1.546440216847706495e+00 4.849409575202850533e+02
1.546540238852547322e+00 4.847443847344632104e+02
1.546640260857388371e+00 4.845472568231254513e+02
1.546740282862229421e+00 4.843495753608606833e+02
1.546840304867070692e+00 4.841513419315127180e+02
1.546940326871911742e+00 4.839525581281524182e+02
1.547040348876752791e+00 4.837532255530548468e+02
1.547140370881594063e+00 4.835533458176697650e+02
1.547240392886434890e+00 4.833529205425968485e+02
1.547340414891275939e+00 4.831519513575605060e+02
1.547440436896116989e+00 4.829504399013806051e+02
1.547540458900958038e+00 4.827483878219487110e+02
1.547640480905799087e+00 4.825457967761975624e+02
1.547740502910640359e+00 4.823426684300771399e+02
1.547840524915481408e+00 4.821390044585241412e+02
1.547940546920322236e+00 4.819348065454364587e+02
1.548040568925163285e+00 4.817300763836454394e+02
1.548140590930004556e+00 4.815248156748862129e+02
1.548240612934845606e+00 4.813190261297707480e+02
1.548340634939686655e+00 4.811127094677583500e+02
1.548440656944527705e+00 4.809058674171286611e+02
1.548540678949368754e+00 4.806985017149512487e+02
1.548640700954209581e+00 4.804906141070575814e+02
1.548740722959050853e+00 4.802822063480117549e+02
1.548840744963891902e+00 4.800732802010801947e+02
1.548940766968732952e+00 4.798638374382027223e+02
1.549040788973574223e+00 4.796538798399637358e+02
1.549140810978415272e+00 4.794434091955607755e+02
1.549240832983256322e+00 4.792324273027746244e+02
1.549340854988097149e+00 4.790209359679394652e+02
1.549440876992938199e+00 4.788089370059130374e+02
1.549540898997779248e+00 4.785964322400446349e+02
1.549640921002620519e+00 4.783834235021441827e+02
1.549740943007461569e+00 4.781699126324521103e+02
1.549840965012302618e+00 4.779559014796086558e+02
1.549940987017143890e+00 4.777413919006198739e+02
1.550041009021984717e+00 4.775263857608290436e+02
1.550141031026825766e+00 4.773108849338831305e+02
1.550241053031666816e+00 4.770948913017010682e+02
1.550341075036507865e+00 4.768784067544418122e+02
1.550441097041348915e+00 4.766614331904722803e+02
1.550541119046190186e+00 4.764439725163337016e+02
1.550641141051031235e+00 4.762260266467116026e+02
1.550741163055872063e+00 4.760075975043990866e+02
1.550841185060713112e+00 4.757886870202674459e+02
1.550941207065554384e+00 4.755692971332305774e+02
1.551041229070395433e+00 4.753494297902128096e+02
1.551141251075236482e+00 4.751290869461152511e+02
1.551241273080077532e+00 4.749082705637815138e+02
1.551341295084918581e+00 4.746869826139635506e+02
1.551441317089759409e+00 4.744652250752896521e+02
1.551541339094600680e+00 4.742429999342274982e+02
1.551641361099441729e+00 4.740203091850526675e+02
1.551741383104282779e+00 4.737971548298098128e+02
1.551841405109124050e+00 4.735735388782836139e+02
1.551941427113965100e+00 4.733494633479587037e+02
1.552041449118806149e+00 4.731249302639877214e+02
1.552141471123646976e+00 4.728999416591551608e+02
1.552241493128488026e+00 4.726744995738416719e+02
1.552341515133329075e+00 4.724486060559894440e+02
1.552441537138170347e+00 4.722222631610649159e+02
1.552541559143011396e+00 4.719954729520248407e+02
1.552641581147852445e+00 4.717682374992789391e+02
1.552741603152693717e+00 4.715405588806543165e+02
1.552841625157534544e+00 4.713124391813580587e+02
1.552941647162375594e+00 4.710838804939431270e+02
1.553041669167216643e+00 4.708548849182684535e+02
1.553141691172057692e+00 4.706254545614655171e+02
1.553241713176898742e+00 4.703955915378980421e+02
1.553341735181740013e+00 4.701652979691275505e+02
1.553441757186581063e+00 4.699345759838752201e+02
1.553541779191421890e+00 4.697034277179838000e+02
1.553641801196262939e+00 4.694718553143803206e+02
1.553741823201104211e+00 4.692398609230399416e+02
1.553841845205945260e+00 4.690074467009446835e+02
1.553941867210786310e+00 4.687746148120501175e+02
1.554041889215627359e+00 4.685413674272416529e+02
1.554141911220468408e+00 4.683077067243015108e+02
1.554241933225309236e+00 4.680736348878662625e+02
1.554341955230150507e+00 4.678391541093909609e+02
1.554441977234991557e+00 4.676042665871086115e+02
1.554541999239832606e+00 4.673689745259925417e+02
1.554642021244673877e+00 4.671332801377160422e+02
1.554742043249514927e+00 4.668971856406145662e+02
1.554842065254355976e+00 4.666606932596455408e+02
1.554942087259196803e+00 4.664238052263490886e+02
1.555042109264037853e+00 4.661865237788089757e+02
1.555142131268878902e+00 4.659488511616115147e+02
1.555242153273720174e+00 4.657107896258075357e+02
1.555342175278561223e+00 4.654723414288711183e+02
1.555442197283402272e+00 4.652335088346596876e+02
1.555542219288243544e+00 4.649942941133742238e+02
1.555642241293084371e+00 4.647546995415181641e+02
1.555742263297925421e+00 4.645147274018576695e+02
1.555842285302766470e+00 4.642743799833801859e+02
1.555942307307607519e+00 4.640336595812540850e+02
1.556042329312448569e+00 4.637925684967877373e+02
1.556142351317289840e+00 4.635511090373885281e+02
1.556242373322130890e+00 4.633092835165214183e+02
1.556342395326971717e+00 4.630670942536674488e+02
1.556442417331812766e+00 4.628245435742844052e+02
1.556542439336654038e+00 4.625816338097610014e+02
1.556642461341495087e+00 4.623383672973797047e+02
1.556742483346336137e+00 4.620947463802724542e+02
1.556842505351177186e+00 4.618507734073793358e+02
1.556942527356018235e+00 4.616064507334064047e+02
1.557042549360859063e+00 4.613617807187843027e+02
1.557142571365700334e+00 4.611167657296245466e+02
1.557242593370541384e+00 4.608714081376790546e+02
1.557342615375382433e+00 4.606257103202956387e+02
1.557442637380223704e+00 4.603796746603767360e+02
1.557542659385064754e+00 4.601333035463369470e+02
1.557642681389905803e+00 4.598865993720584697e+02
1.557742703394746631e+00 4.596395645368511964e+02
1.557842725399587680e+00 4.593922014454056466e+02
1.557942747404428729e+00 4.591445125077529497e+02
1.558042769409270001e+00 4.588965001392209615e+02
1.558142791414111050e+00 4.586481667603898131e+02
1.558242813418952100e+00 4.583995147970498465e+02
1.558342835423793371e+00 4.581505466801565376e+02
1.558442857428634198e+00 4.579012648457880914e+02
1.558542879433475248e+00 4.576516717351008765e+02
1.558642901438316297e+00 4.574017697942866789e+02
1.558742923443157347e+00 4.571515614745268863e+02
1.558842945447998396e+00 4.569010492319497985e+02
1.558942967452839667e+00 4.566502355275862328e+02
1.559042989457680717e+00 4.563991228273243337e+02
1.559143011462521544e+00 4.561477136018671104e+02
1.559243033467362594e+00 4.558960103266854276e+02
1.559343055472203865e+00 4.556440154819759414e+02
1.559443077477044914e+00 4.553917315526138623e+02
1.559543099481885964e+00 4.551391610281112321e+02
1.559643121486727013e+00 4.548863064025694030e+02
1.559743143491568063e+00 4.546331701746356657e+02
1.559843165496408890e+00 4.543797548474573773e+02
1.559943187501250161e+00 4.541260629286374524e+02
1.560043209506091211e+00 4.538720969301880928e+02
1.560143231510932260e+00 4.536178593684882117e+02
1.560243253515773532e+00 4.533633527642346053e+02
1.560343275520614581e+00 4.531085796423982970e+02
1.560443297525455408e+00 4.528535425321787784e+02
1.560543319530296458e+00 4.525982439669592168e+02
1.560643341535137507e+00 4.523426864842592181e+02
1.560743363539978557e+00 4.520868726256901482e+02
1.560843385544819828e+00 4.518308049369086916e+02
1.560943407549660877e+00 4.515744859675716043e+02
1.561043429554501927e+00 4.513179182712882493e+02
1.561143451559342754e+00 4.510611044055772823e+02
1.561243473564184026e+00 4.508040469318171404e+02
1.561343495569025075e+00 4.505467484152024440e+02
1.561443517573866124e+00 4.502892114246969868e+02
1.561543539578707174e+00 4.500314385329858169e+02
1.561643561583548223e+00 4.497734323164315811e+02
1.561743583588389495e+00 4.495151953550259805e+02
1.561843605593230322e+00 4.492567302323431022e+02
1.561943627598071371e+00 4.489980395354953089e+02
1.562043649602912421e+00 4.487391258550825341e+02
1.562143671607753692e+00 4.484799917851492523e+02
1.562243693612594742e+00 4.482206399231361047e+02
1.562343715617435791e+00 4.479610728698318098e+02
1.562443737622276840e+00 4.477012932293289964e+02
1.562543759627117668e+00 4.474413036089748061e+02
1.562643781631958717e+00 4.471811066193249076e+02
1.562743803636799989e+00 4.469207048740960886e+02
1.562843825641641038e+00 4.466601009901193038e+02
1.562943847646482087e+00 4.463992975872924944e+02
1.563043869651323359e+00 4.461382972885336358e+02
1.563143891656164408e+00 4.458771027197310559e+02
1.563243913661005235e+00 4.456157165097001212e+02
1.563343935665846285e+00 4.453541412901328727e+02
1.563443957670687334e+00 4.450923796955506191e+02
1.563543979675528384e+00 4.448304343632586892e+02
1.563644001680369655e+00 4.445683079332955572e+02
1.563744023685210704e+00 4.443060030483879927e+02
1.563844045690051754e+00 4.440435223539021763e+02
1.563944067694892581e+00 4.437808684977966323e+02
1.564044089699733853e+00 4.435180441305730596e+02
1.564144111704574902e+00 4.432550519052304026e+02
1.564244133709415951e+00 4.429918944772161922e+02
1.564344155714257001e+00 4.427285745043777752e+02
1.564444177719098050e+00 4.424650946469164410e+02
1.564544199723939322e+00 4.422014575673380250e+02
1.564644221728780149e+00 4.419376659304048758e+02
1.564744243733621198e+00 4.416737224030894140e+02
1.564844265738462248e+00 4.414096296545232008e+02
1.564944287743303519e+00 4.411453903559519176e+02
1.565044309748144569e+00 4.408810071806855717e+02
1.565144331752985618e+00 4.406164828040513157e+02
1.565244353757826667e+00 4.403518199033437668e+02
1.565344375762667495e+00 4.400870211577788496e+02
1.565444397767508544e+00 4.398220892484441720e+02
1.565544419772349816e+00 4.395570268582511062e+02
1.565644441777190865e+00 4.392918366718862444e+02
1.565744463782031914e+00 4.390265213757648439e+02
1.565844485786873186e+00 4.387610836579796683e+02
1.565944507791714235e+00 4.384955262082552281e+02
1.566044529796555063e+00 4.382298517178985549e+02
1.566144551801396112e+00 4.379640628797495765e+02
1.566244573806237161e+00 4.376981623881349606e+02
1.566344595811078211e+00 4.374321529388186036e+02
1.566444617815919482e+00 4.371660372289523480e+02
1.566544639820760532e+00 4.368998179570299953e+02
1.566644661825601581e+00 4.366334978228364889e+02
1.566744683830442408e+00 4.363670795274001648e+02
1.566844705835283680e+00 4.361005657729456857e+02
1.566944727840124729e+00 4.358339592628428818e+02
1.567044749844965779e+00 4.355672627015617309e+02
1.567144771849806828e+00 4.353004787946204601e+02
1.567244793854647877e+00 4.350336102485396168e+02
1.567344815859489149e+00 4.347666597707921028e+02
1.567444837864329976e+00 4.344996300697553693e+02
1.567544859869171026e+00 4.342325238546634409e+02
1.567644881874012075e+00 4.339653438355563253e+02
1.567744903878853346e+00 4.336980927232347085e+02
1.567844925883694396e+00 4.334307732292091941e+02
1.567944947888535445e+00 4.331633880656512474e+02
1.568044969893376495e+00 4.328959399453477204e+02
1.568144991898217322e+00 4.326284315816496360e+02
1.568245013903058371e+00 4.323608656884244397e+02
1.568345035907899643e+00 4.320932449800088762e+02
1.568445057912740692e+00 4.318255721711581145e+02
1.568545079917581742e+00 4.315578499769994210e+02
1.568645101922423013e+00 4.312900811129828185e+02
1.568745123927264062e+00 4.310222682948331681e+02
1.568845145932104890e+00 4.307544142385008854e+02
1.568945167936945939e+00 4.304865216601144766e+02
1.569045189941786989e+00 4.302185932759319371e+02
1.569145211946628038e+00 4.299506318022920368e+02
1.569245233951469309e+00 4.296826399555658327e+02
1.569345255956310359e+00 4.294146204521100572e+02
1.569445277961151408e+00 4.291465760082162433e+02
1.569545299965992236e+00 4.288785093400642268e+02
1.569645321970833507e+00 4.286104231636737723e+02
1.569745343975674556e+00 4.283423201948557448e+02
1.569845365980515606e+00 4.280742031491639636e+02
1.569945387985356655e+00 4.278060747418472829e+02
1.570045409990197705e+00 4.275379376878020707e+02
1.570145431995038976e+00 4.272697947015220734e+02
1.570245453999879803e+00 4.270016484970535657e+02
1.570345476004720853e+00 4.267335017879435668e+02
1.570445498009561902e+00 4.264653572871944220e+02
1.570545520014403174e+00 4.261972177072157137e+02
1.570645542019244223e+00 4.259290857597739546e+02
1.570745564024085272e+00 4.256609641559484203e+02
1.570845586028926322e+00 4.253928556060792516e+02
1.570945608033767149e+00 4.251247628197226049e+02
1.571045630038608198e+00 4.248566885056013689e+02
1.571145652043449470e+00 4.245886353715578707e+02
1.571245674048290519e+00 4.243206061245063552e+02
1.571345696053131569e+00 4.240526034703839287e+02
1.571445718057972840e+00 4.237846301141048002e+02
1.571545740062813890e+00 4.235166887595123626e+02
1.571645762067654717e+00 4.232487821093295679e+02
1.571745784072495766e+00 4.229809128651137939e+02
1.571845806077336816e+00 4.227130837272080726e+02
1.571945828082177865e+00 4.224452973946952739e+02
1.572045850087019137e+00 4.221775565653476292e+02
1.572145872091860186e+00 4.219098639355831324e+02
1.572245894096701235e+00 4.216422222004151763e+02
1.572345916101542063e+00 4.213746340534070214e+02
1.572445938106383334e+00 4.211071021866241040e+02
1.572545960111224383e+00 4.208396292905871405e+02
1.572645982116065433e+00 4.205722180542254023e+02
1.572746004120906482e+00 4.203048711648283415e+02
1.572846026125747532e+00 4.200375913079997758e+02
1.572946048130588803e+00 4.197703811676111059e+02
1.573046070135429630e+00 4.195032434257540785e+02
1.573146092140270680e+00 4.192361807626939481e+02
1.573246114145111729e+00 4.189691958568232621e+02
1.573346136149953001e+00 4.187022913846141137e+02
1.573446158154794050e+00 4.184354700205730069e+02
1.573546180159635099e+00 4.181687344371938480e+02
1.573646202164476149e+00 4.179020873049104807e+02
1.573746224169316976e+00 4.176355312920514393e+02
1.573846246174158026e+00 4.173690690647941324e+02
1.573946268178999297e+00 4.171027032871166966e+02
1.574046290183840346e+00 4.168364366207531475e+02
1.574146312188681396e+00 4.165702717251480749e+02
1.574246334193522667e+00 4.163042112574080988e+02
1.574346356198363717e+00 4.160382578722585549e+02
1.574446378203204544e+00 4.157724142219952341e+02
1.574546400208045593e+00 4.155066829564420345e+02
1.574646422212886643e+00 4.152410667229002570e+02
1.574746444217727692e+00 4.149755681661082463e+02
1.574846466222568964e+00 4.147101899281910278e+02
1.574946488227410013e+00 4.144449346486190962e+02
1.575046510232251062e+00 4.141798049641593593e+02
1.575146532237091890e+00 4.139148035088319375e+02
1.575246554241933161e+00 4.136499329138657117e+02
1.575346576246774211e+00 4.133851958076496658e+02
1.575446598251615260e+00 4.131205948156907652e+02
1.575546620256456309e+00 4.128561325605695629e+02
1.575646642261297359e+00 4.125918116618922795e+02
1.575746664266138630e+00 4.123276347362477168e+02
1.575846686270979458e+00 4.120636043971636013e+02
1.575946708275820507e+00 4.117997232550596891e+02
1.576046730280661556e+00 4.115359939172050190e+02
1.576146752285502828e+00 4.112724189876718697e+02
1.576246774290343877e+00 4.110090010672930703e+02
1.576346796295184927e+00 4.107457427536170371e+02
1.576446818300025976e+00 4.104826466408625834e+02
1.576546840304866803e+00 4.102197153198766273e+02
1.576646862309707853e+00 4.099569513780886041e+02
1.576746884314549124e+00 4.096943573994678900e+02
1.576846906319390174e+00 4.094319359644788960e+02
1.576946928324231223e+00 4.091696896500386060e+02
1.577046950329072494e+00 4.089076210294721818e+02
1.577146972333913544e+00 4.086457326724684549e+02
1.577246994338754371e+00 4.083840271450383739e+02
1.577347016343595421e+00 4.081225070094724288e+02
1.577447038348436470e+00 4.078611748242933572e+02
1.577547060353277519e+00 4.076000331442178890e+02
1.577647082358118791e+00 4.073390845201108732e+02
1.577747104362959840e+00 4.070783314989432711e+02
1.577847126367800668e+00 4.068177766237496940e+02
1.577947148372641717e+00 4.065574224335840654e+02
1.578047170377482988e+00 4.062972714634813656e+02
1.578147192382324038e+00 4.060373262444085185e+02
1.578247214387165087e+00 4.057775893032296608e+02
1.578347236392006137e+00 4.055180631626561762e+02
1.578447258396847186e+00 4.052587503412128740e+02
1.578547280401688013e+00 4.049996533531878526e+02
1.578647302406529285e+00 4.047407747085968026e+02
1.578747324411370334e+00 4.044821169131386682e+02
1.578847346416211384e+00 4.042236824681540384e+02
1.578947368421052655e+00 4.039654738705838781e+02
1.579047390425893704e+00 4.037074936129286584e+02
1.579147412430734754e+00 4.034497441832058371e+02
1.579247434435575581e+00 4.031922280649109780e+02
1.579347456440416630e+00 4.029349477369739816e+02
1.579447478445257680e+00 4.026779056737201472e+02
1.579547500450098951e+00 4.024211043448289615e+02
1.579647522454940001e+00 4.021645462152927166e+02
1.579747544459781050e+00 4.019082337453767195e+02
1.579847566464622322e+00 4.016521693905792745e+02
1.579947588469463149e+00 4.013963556015897325e+02
1.580047610474304198e+00 4.011407948242509747e+02
1.580147632479145248e+00 4.008854894995161544e+02
1.580247654483986297e+00 4.006304420634123176e+02
1.580347676488827346e+00 4.003756549469977699e+02
1.580447698493668618e+00 4.001211305763238784e+02
1.580547720498509667e+00 3.998668713723952806e+02
1.580647742503350495e+00 3.996128797511305493e+02
1.580747764508191544e+00 3.993591581233230841e+02
1.580847786513032815e+00 3.991057088946019462e+02
1.580947808517873865e+00 3.988525344653924662e+02
1.581047830522714914e+00 3.985996372308781588e+02
1.581147852527555964e+00 3.983470195809616712e+02
1.581247874532397013e+00 3.980946839002260731e+02
1.581347896537237840e+00 3.978426325678974536e+02
1.581447918542079112e+00 3.975908679578037663e+02
1.581547940546920161e+00 3.973393924383419744e+02
1.581647962551761211e+00 3.970882083724345080e+02
1.581747984556602482e+00 3.968373181174940783e+02
1.581848006561443531e+00 3.965867240253868999e+02
1.581948028566284581e+00 3.963364284423925028e+02
1.582048050571125408e+00 3.960864337091693983e+02
1.582148072575966458e+00 3.958367421607147776e+02
1.582248094580807507e+00 3.955873561263290981e+02
1.582348116585648778e+00 3.953382779295795899e+02
1.582448138590489828e+00 3.950895098882617731e+02
1.582548160595330877e+00 3.948410543143640439e+02
1.582648182600172149e+00 3.945929135140311246e+02
1.582748204605012976e+00 3.943450897875264900e+02
1.582848226609854025e+00 3.940975854291975793e+02
1.582948248614695075e+00 3.938504027274394730e+02
1.583048270619536124e+00 3.936035439646579448e+02
1.583148292624377174e+00 3.933570114172340482e+02
1.583248314629218445e+00 3.931108073554899534e+02
1.583348336634059494e+00 3.928649340436518287e+02
1.583448358638900322e+00 3.926193937398140861e+02
1.583548380643741371e+00 3.923741886959070371e+02
1.583648402648582643e+00 3.921293211576584099e+02
1.583748424653423692e+00 3.918847933645608350e+02
1.583848446658264741e+00 3.916406075498358632e+02
1.583948468663105791e+00 3.913967659404011670e+02
1.584048490667946840e+00 3.911532707568341038e+02
1.584148512672787668e+00 3.909101242133386336e+02
1.584248534677628939e+00 3.906673285177111552e+02
1.584348556682469988e+00 3.904248858713062873e+02
1.584448578687311038e+00 3.901827984690035009e+02
1.584548600692152309e+00 3.899410684991734684e+02
1.584648622696993359e+00 3.896996981436450369e+02
1.584748644701834408e+00 3.894586895776701567e+02
1.584848666706675235e+00 3.892180449698942653e+02
1.584948688711516285e+00 3.889777664823192254e+02
1.585048710716357334e+00 3.887378562702745057e+02
1.585148732721198606e+00 3.884983164823816537e+02
1.585248754726039655e+00 3.882591492605232020e+02
1.585348776730880704e+00 3.880203567398104951e+02
1.585448798735721976e+00 3.877819410485509479e+02
1.585548820740562803e+00 3.875439043082166677e+02
1.585648842745403853e+00 3.873062486334131904e+02
1.585748864750244902e+00 3.870689761318460000e+02
1.585848886755085951e+00 3.868320889042914246e+02
1.585948908759927001e+00 3.865955890445646332e+02
1.586048930764768272e+00 3.863594786394869516e+02
1.586148952769609322e+00 3.861237597688576102e+02
1.586248974774450149e+00 3.858884345054214577e+02
1.586348996779291198e+00 3.856535049148390044e+02
1.586449018784132470e+00 3.854189730556547602e+02
1.586549040788973519e+00 3.851848409792689836e+02
1.586649062793814569e+00 3.849511107299071000e+02
1.586749084798655618e+00 3.847177843445882104e+02
1.586849106803496667e+00 3.844848638530980907e+02
1.586949128808337495e+00 3.842523512779571320e+02
1.587049150813178766e+00 3.840202486343933401e+02
1.587149172818019816e+00 3.837885579303112991e+02
1.587249194822860865e+00 3.835572811662644312e+02
1.587349216827702136e+00 3.833264203354254960e+02
1.587449238832543186e+00 3.830959774235586792e+02
1.587549260837384235e+00 3.828659544089902056e+02
1.587649282842225062e+00 3.826363532625813946e+02
1.587749304847066112e+00 3.824071759476988746e+02
1.587849326851907161e+00 3.821784244201889464e+02
1.587949348856748433e+00 3.819501006283477409e+02
1.588049370861589482e+00 3.817222065128951840e+02
1.588149392866430532e+00 3.814947440069464619e+02
1.588249414871271803e+00 3.812677150359857592e+02
1.588349436876112630e+00 3.810411215178393149e+02
1.588449458880953680e+00 3.808149653626480813e+02
1.588549480885794729e+00 3.805892484728418026e+02
1.588649502890635778e+00 3.803639727431119013e+02
1.588749524895476828e+00 3.801391400603849320e+02
1.588849546900318099e+00 3.799147523037985934e+02
1.588949568905159149e+00 3.796908113446732500e+02
1.589049590909999976e+00 3.794673190464877734e+02
1.589149612914841025e+00 3.792442772648544747e+02
1.589249634919682297e+00 3.790216878474917621e+02
1.589349656924523346e+00 3.787995526342015182e+02
1.589449678929364396e+00 3.785778734568427808e+02
1.589549700934205445e+00 3.783566521393069593e+02
1.589649722939046494e+00 3.781358904974935058e+02
1.589749744943887322e+00 3.779155903392862115e+02
1.589849766948728593e+00 3.776957534645280248e+02
1.589949788953569643e+00 3.774763816649983710e+02
1.590049810958410692e+00 3.772574767243868905e+02
1.590149832963251963e+00 3.770390404182732027e+02
1.590249854968093013e+00 3.768210745141018378e+02
1.590349876972934062e+00 3.766035807711571124e+02
1.590449898977774890e+00 3.763865609405446548e+02
1.590549920982615939e+00 3.761700167651638367e+02
1.590649942987456988e+00 3.759539499796887867e+02
1.590749964992298260e+00 3.757383623105433230e+02
1.590849986997139309e+00 3.755232554758807737e+02
1.590950009001980359e+00 3.753086311855604436e+02
1.591050031006821630e+00 3.750944911411267526e+02
1.591150053011662457e+00 3.748808370357863282e+02
1.591250075016503507e+00 3.746676705543886214e+02
1.591350097021344556e+00 3.744549933734031129e+02
1.591450119026185606e+00 3.742428071608973710e+02
1.591550141031026655e+00 3.740311135765187487e+02
1.591650163035867926e+00 3.738199142714715322e+02
1.591750185040708976e+00 3.736092108884976142e+02
1.591850207045549803e+00 3.733990050618559167e+02
1.591950229050390853e+00 3.731892984173015293e+02
1.592050251055232124e+00 3.729800925720677469e+02
1.592150273060073173e+00 3.727713891348440711e+02
1.592250295064914223e+00 3.725631897057579636e+02
1.592350317069755272e+00 3.723554958763559739e+02
1.592450339074596322e+00 3.721483092295835604e+02
1.592550361079437149e+00 3.719416313397665590e+02
1.592650383084278420e+00 3.717354637725932776e+02
1.592750405089119470e+00 3.715298080850949418e+02
1.592850427093960519e+00 3.713246658256274486e+02
1.592950449098801791e+00 3.711200385338542560e+02
1.593050471103642840e+00 3.709159277407276250e+02
1.593150493108483889e+00 3.707123349684712821e+02
1.593250515113324717e+00 3.705092617305614340e+02
1.593350537118165766e+00 3.703067095317135227e+02
1.593450559123006816e+00 3.701046798678597156e+02
1.593550581127848087e+00 3.699031742261361728e+02
1.593650603132689136e+00 3.697021940848642316e+02
1.593750625137530186e+00 3.695017409135354569e+02
1.593850647142371457e+00 3.693018161727929964e+02
1.593950669147212285e+00 3.691024213144189616e+02
1.594050691152053334e+00 3.689035577813141344e+02
1.594150713156894383e+00 3.687052270074865419e+02
1.594250735161735433e+00 3.685074304180336071e+02
1.594350757166576482e+00 3.683101694291265176e+02
1.594450779171417754e+00 3.681134454479972646e+02
1.594550801176258803e+00 3.679172598729217043e+02
1.594650823181099630e+00 3.677216140932059716e+02
1.594750845185940680e+00 3.675265094891705644e+02
1.594850867190781951e+00 3.673319474321392590e+02
1.594950889195623001e+00 3.671379292844216025e+02
1.595050911200464050e+00 3.669444563993004635e+02
1.595150933205305099e+00 3.667515301210186180e+02
1.595250955210145927e+00 3.665591517847652199e+02
1.595350977214986976e+00 3.663673227166619313e+02
1.595450999219828248e+00 3.661760442337508152e+02
1.595551021224669297e+00 3.659853176439796698e+02
1.595651043229510346e+00 3.657951442461918532e+02
1.595751065234351618e+00 3.656055253301127550e+02
1.595851087239192667e+00 3.654164621763367791e+02
1.595951109244033495e+00 3.652279560563160317e+02
1.596051131248874544e+00 3.650400082323496349e+02
1.596151153253715593e+00 3.648526199575685496e+02
1.596251175258556643e+00 3.646657924759289244e+02
1.596351197263397914e+00 3.644795270221968622e+02
1.596451219268238964e+00 3.642938248219403476e+02
1.596551241273080013e+00 3.641086870915161171e+02
1.596651263277920840e+00 3.639241150380601084e+02
1.596751285282762112e+00 3.637401098594776840e+02
1.596851307287603161e+00 3.635566727444321486e+02
1.596951329292444210e+00 3.633738048723353700e+02
1.597051351297285260e+00 3.631915074133386270e+02
1.597151373302126309e+00 3.630097815283219802e+02
1.597251395306967581e+00 3.628286283688847789e+02
1.597351417311808408e+00 3.626480490773383281e+02
1.597451439316649457e+00 3.624680447866940654e+02
1.597551461321490507e+00 3.622886166206573080e+02
1.597651483326331778e+00 3.621097656936177600e+02
1.597751505331172828e+00 3.619314931106406448e+02
1.597851527336013877e+00 3.617537999674596563e+02
1.597951549340854926e+00 3.615766873504675800e+02
1.598051571345695754e+00 3.614001563367100403e+02
1.598151593350536803e+00 3.612242079938770303e+02
1.598251615355378075e+00 3.610488433802954660e+02
1.598351637360219124e+00 3.608740635449232173e+02
1.598451659365060173e+00 3.606998695273404110e+02
1.598551681369901445e+00 3.605262623577440877e+02
1.598651703374742494e+00 3.603532430569417784e+02
1.598751725379583322e+00 3.601808126363442284e+02
1.598851747384424371e+00 3.600089720979593721e+02
1.598951769389265420e+00 3.598377224343873877e+02
1.599051791394106470e+00 3.596670646288135913e+02
1.599151813398947741e+00 3.594969996550047426e+02
1.599251835403788791e+00 3.593275284773015983e+02
1.599351857408629840e+00 3.591586520506159559e+02
1.599451879413470667e+00 3.589903713204241740e+02
1.599551901418311939e+00 3.588226872227629087e+02
1.599651923423152988e+00 3.586556006842255897e+02
1.599751945427994038e+00 3.584891126219558828e+02
1.599851967432835087e+00 3.583232239436465534e+02
1.599951989437676136e+00 3.581579355475328157e+02
1.600052011442517408e+00 3.579932483223904001e+02
1.600152033447358235e+00 3.578291631475317445e+02
1.600252055452199285e+00 3.576656808928028681e+02
1.600352077457040334e+00 3.575028024185787103e+02
1.600452099461881605e+00 3.573405285757617662e+02
1.600552121466722655e+00 3.571788602057806088e+02
1.600652143471563704e+00 3.570177981405846594e+02
1.600752165476404754e+00 3.568573432026435626e+02
1.600852187481245581e+00 3.566974962049444002e+02
1.600952209486086630e+00 3.565382579509902143e+02
1.601052231490927902e+00 3.563796292347992676e+02
1.601152253495768951e+00 3.562216108409013486e+02
1.601252275500610001e+00 3.560642035443389659e+02
1.601352297505451272e+00 3.559074081106637095e+02
1.601452319510292321e+00 3.557512252959384114e+02
1.601552341515133149e+00 3.555956558467329955e+02
1.601652363519974198e+00 3.554407005001271500e+02
1.601752385524815248e+00 3.552863599837078254e+02
1.601852407529656297e+00 3.551326350155713953e+02
1.601952429534497568e+00 3.549795263043204727e+02
1.602052451539338618e+00 3.548270345490677755e+02
1.602152473544179667e+00 3.546751604394347055e+02
1.602252495549020495e+00 3.545239046555522009e+02
1.602352517553861766e+00 3.543732678680607364e+02
1.602452539558702815e+00 3.542232507381157802e+02
1.602552561563543865e+00 3.540738539173818822e+02
1.602652583568384914e+00 3.539250780480409162e+02
1.602752605573225964e+00 3.537769237627902044e+02
1.602852627578067235e+00 3.536293916848453023e+02
1.602952649582908062e+00 3.534824824279420454e+02
1.603052671587749112e+00 3.533361965963376861e+02
1.603152693592590161e+00 3.531905347848167480e+02
1.603252715597431433e+00 3.530454975786892646e+02
1.603352737602272482e+00 3.529010855537977136e+02
1.603452759607113531e+00 3.527572992765161644e+02
1.603552781611954581e+00 3.526141393037573835e+02
1.603652803616795408e+00 3.524716061829730052e+02
1.603752825621636457e+00 3.523297004521603526e+02
1.603852847626477729e+00 3.521884226398621536e+02
1.603952869631318778e+00 3.520477732651755787e+02
1.604052891636159828e+00 3.519077528377512749e+02
1.604152913641001099e+00 3.517683618578024607e+02
1.604252935645842149e+00 3.516296008161061764e+02
1.604352957650682976e+00 3.514914701940097643e+02
1.604452979655524025e+00 3.513539704634351324e+02
1.604553001660365075e+00 3.512171020868847791e+02
1.604653023665206124e+00 3.510808655174448631e+02
1.604753045670047396e+00 3.509452611987946966e+02
1.604853067674888445e+00 3.508102895652087341e+02
1.604953089679729494e+00 3.506759510415645309e+02
1.605053111684570322e+00 3.505422460433479728e+02
1.605153133689411593e+00 3.504091749766608359e+02
1.605253155694252643e+00 3.502767382382245387e+02
1.605353177699093692e+00 3.501449362153904872e+02
1.605453199703934741e+00 3.500137692861445657e+02
1.605553221708775791e+00 3.498832378191140151e+02
1.605653243713617062e+00 3.497533421735763568e+02
1.605753265718457889e+00 3.496240826994649638e+02
1.605853287723298939e+00 3.494954597373787237e+02
1.605953309728139988e+00 3.493674736185865299e+02
1.606053331732981260e+00 3.492401246650398434e+02
1.606153353737822309e+00 3.491134131893767858e+02
1.606253375742663358e+00 3.489873394949325416e+02
1.606353397747504408e+00 3.488619038757476574e+02
1.606453419752345235e+00 3.487371066165756588e+02
1.606553441757186285e+00 3.486129479928939077e+02
1.606653463762027556e+00 3.484894282709105937e+02
1.606753485766868605e+00 3.483665477075752506e+02
1.606853507771709655e+00 3.482443065505887034e+02
1.606953529776550926e+00 3.481227050384097765e+02
1.607053551781391976e+00 3.480017434002694472e+02
1.607153573786232803e+00 3.478814218561770986e+02
1.607253595791073852e+00 3.477617406169326841e+02
1.607353617795914902e+00 3.476426998841360501e+02
1.607453639800755951e+00 3.475242998501984175e+02
1.607553661805597223e+00 3.474065406983518756e+02
1.607653683810438272e+00 3.472894226026608067e+02
1.607753705815279321e+00 3.471729457280334827e+02
1.607853727820120149e+00 3.470571102302325812e+02
1.607953749824961420e+00 3.469419162558865537e+02
1.608053771829802470e+00 3.468273639425016768e+02
1.608153793834643519e+00 3.467134534184727386e+02
1.608253815839484568e+00 3.466001848030967949e+02
1.608353837844325618e+00 3.464875582065830031e+02
1.608453859849166889e+00 3.463755737300663213e+02
1.608553881854007717e+00 3.462642314656201847e+02
1.608653903858848766e+00 3.461535314962681014e+02
1.608753925863689815e+00 3.460434738959962715e+02
1.608853947868531087e+00 3.459340587297677985e+02
1.608953969873372136e+00 3.458252860535347963e+02
1.609053991878213186e+00 3.457171559142525439e+02
1.609154013883054235e+00 3.456096683498913080e+02
1.609254035887895062e+00 3.455028233894502137e+02
1.609354057892736112e+00 3.453966210529745808e+02
1.609454079897577383e+00 3.452910613515645650e+02
1.609554101902418433e+00 3.451861442873923806e+02
1.609654123907259482e+00 3.450818698537160572e+02
1.609754145912100753e+00 3.449782380348940478e+02
1.609854167916941803e+00 3.448752488063987016e+02
1.609954189921782630e+00 3.447729021348327478e+02
1.610054211926623680e+00 3.446711979779427111e+02
1.610154233931464729e+00 3.445701362846346569e+02
1.610254255936305778e+00 3.444697169949903923e+02
1.610354277941147050e+00 3.443699400402799711e+02
1.610454299945988099e+00 3.442708053429809070e+02
1.610554321950829149e+00 3.441723128167915888e+02
1.610654343955669976e+00 3.440744623666477082e+02
1.610754365960511247e+00 3.439772538887386872e+02
1.610854387965352297e+00 3.438806872705235946e+02
1.610954409970193346e+00 3.437847623907464367e+02
1.611054431975034396e+00 3.436894791194554841e+02
1.611154453979875445e+00 3.435948373180168574e+02
1.611254475984716716e+00 3.435008368391340809e+02
1.611354497989557544e+00 3.434074775268620101e+02
1.611454519994398593e+00 3.433147592166271806e+02
1.611554541999239643e+00 3.432226817352430999e+02
1.611654564004080914e+00 3.431312449009284364e+02
1.611754586008921963e+00 3.430404485233235619e+02
1.611854608013763013e+00 3.429502924035110709e+02
1.611954630018604062e+00 3.428607763340299925e+02
1.612054652023444890e+00 3.427719000988962534e+02
1.612154674028285939e+00 3.426836634736212659e+02
1.612254696033127210e+00 3.425960662252272186e+02
1.612354718037968260e+00 3.425091081122698142e+02
1.612454740042809309e+00 3.424227888848539578e+02
1.612554762047650581e+00 3.423371082846532545e+02
1.612654784052491408e+00 3.422520660449299612e+02
1.612754806057332457e+00 3.421676618905518694e+02
1.612854828062173507e+00 3.420838955380145308e+02
1.612954850067014556e+00 3.420007666954578553e+02
1.613054872071855605e+00 3.419182750626870870e+02
1.613154894076696877e+00 3.418364203311925849e+02
1.613254916081537926e+00 3.417552021841696615e+02
1.613354938086378754e+00 3.416746202965371140e+02
1.613454960091219803e+00 3.415946743349592225e+02
1.613554982096061075e+00 3.415153639578647358e+02
1.613655004100902124e+00 3.414366888154679600e+02
1.613755026105743173e+00 3.413586485497888248e+02
1.613855048110584223e+00 3.412812427946740286e+02
1.613955070115425272e+00 3.412044711758172184e+02
1.614055092120266099e+00 3.411283333107801354e+02
1.614155114125107371e+00 3.410528288090141018e+02
1.614255136129948420e+00 3.409779572718808254e+02
1.614355158134789470e+00 3.409037182926734317e+02
1.614455180139630741e+00 3.408301114566389742e+02
1.614555202144471791e+00 3.407571363409993523e+02
1.614655224149312840e+00 3.406847925149721732e+02
1.614755246154153667e+00 3.406130795397946258e+02
1.614855268158994717e+00 3.405419969687439448e+02
1.614955290163835766e+00 3.404715443471599201e+02
1.615055312168677037e+00 3.404017212124674643e+02
1.615155334173518087e+00 3.403325270941984968e+02
1.615255356178359136e+00 3.402639615140152500e+02
1.615355378183200408e+00 3.401960239857320971e+02
1.615455400188041235e+00 3.401287140153380619e+02
1.615555422192882284e+00 3.400620311010212617e+02
1.615655444197723334e+00 3.399959747331909057e+02
1.615755466202564383e+00 3.399305443944996341e+02
1.615855488207405433e+00 3.398657395598686435e+02
1.615955510212246704e+00 3.398015596965095142e+02
1.616055532217087753e+00 3.397380042639485964e+02
1.616155554221928581e+00 3.396750727140502590e+02
1.616255576226769630e+00 3.396127644910406502e+02
1.616355598231610902e+00 3.395510790315315717e+02
1.616455620236451951e+00 3.394900157645455465e+02
1.616555642241293000e+00 3.394295741115374767e+02
1.616655664246134050e+00 3.393697534864219847e+02
1.616755686250975099e+00 3.393105532955945591e+02
1.616855708255815927e+00 3.392519729379590103e+02
1.616955730260657198e+00 3.391940118049497528e+02
1.617055752265498247e+00 3.391366692805578964e+02
1.617155774270339297e+00 3.390799447413547796e+02
1.617255796275180568e+00 3.390238375565191973e+02
1.617355818280021618e+00 3.389683470878600247e+02
1.617455840284862667e+00 3.389134726898413419e+02
1.617555862289703494e+00 3.388592137096106285e+02
1.617655884294544544e+00 3.388055694870200796e+02
1.617755906299385593e+00 3.387525393546559371e+02
1.617855928304226865e+00 3.387001226378606589e+02
1.617955950309067914e+00 3.386483186547609989e+02
1.618055972313908963e+00 3.385971267162934168e+02
1.618155994318750235e+00 3.385465461262282929e+02
1.618256016323591062e+00 3.384965761811984066e+02
1.618356038328432112e+00 3.384472161707231521e+02
1.618456060333273161e+00 3.383984653772360502e+02
1.618556082338114210e+00 3.383503230761098735e+02
1.618656104342955260e+00 3.383027885356836464e+02
1.618756126347796531e+00 3.382558610172894191e+02
1.618856148352637581e+00 3.382095397752789268e+02
1.618956170357478408e+00 3.381638240570491121e+02
1.619056192362319457e+00 3.381187131030711157e+02
1.619156214367160729e+00 3.380742061469147757e+02
1.619256236372001778e+00 3.380303024152768785e+02
1.619356258376842828e+00 3.379870011280087283e+02
1.619456280381683877e+00 3.379443014981428064e+02
1.619556302386524926e+00 3.379022027319196013e+02
1.619656324391365754e+00 3.378607040288155190e+02
1.619756346396207025e+00 3.378198045815705655e+02
1.619856368401048075e+00 3.377795035762152906e+02
1.619956390405889124e+00 3.377398001920988690e+02
1.620056412410730395e+00 3.377006936019170098e+02
1.620156434415571445e+00 3.376621829717392416e+02
1.620256456420412494e+00 3.376242674610377890e+02
1.620356478425253322e+00 3.375869462227142321e+02
1.620456500430094371e+00 3.375502184031289516e+02
1.620556522434935420e+00 3.375140831421280723e+02
1.620656544439776692e+00 3.374785395730734763e+02
1.620756566444617741e+00 3.374435868228688378e+02
1.620856588449458791e+00 3.374092240119900907e+02
1.620956610454300062e+00 3.373754502545130549e+02
1.621056632459140889e+00 3.373422646581426534e+02
1.621156654463981939e+00 3.373096663242397426e+02
1.621256676468822988e+00 3.372776543478527174e+02
1.621356698473664038e+00 3.372462278177442272e+02
1.621456720478505087e+00 3.372153858164209055e+02
1.621556742483346358e+00 3.371851274201620754e+02
1.621656764488187408e+00 3.371554516990500474e+02
1.621756786493028235e+00 3.371263577169964947e+02
1.621856808497869284e+00 3.370978445317746264e+02
1.621956830502710556e+00 3.370699111950471547e+02
1.622056852507551605e+00 3.370425567523964787e+02
1.622156874512392655e+00 3.370157802433514576e+02
1.622256896517233704e+00 3.369895807014219713e+02
1.622356918522074753e+00 3.369639571541222267e+02
1.622456940526915581e+00 3.369389086230062844e+02
1.622556962531756852e+00 3.369144341236943205e+02
1.622656984536597902e+00 3.368905326659033790e+02
1.622757006541438951e+00 3.368672032534773280e+02
1.622857028546280223e+00 3.368444448844159638e+02
1.622957050551121272e+00 3.368222565509069000e+02
1.623057072555962321e+00 3.368006372393541596e+02
1.623157094560803149e+00 3.367795859304077339e+02
1.623257116565644198e+00 3.367591015989958692e+02
1.623357138570485247e+00 3.367391832143534316e+02
1.623457160575326519e+00 3.367198297400531715e+02
1.623557182580167568e+00 3.367010401340357362e+02
1.623657204585008618e+00 3.366828133486401953e+02
1.623757226589849889e+00 3.366651483306348496e+02
1.623857248594690716e+00 3.366480440212476992e+02
1.623957270599531766e+00 3.366314993561961160e+02
1.624057292604372815e+00 3.366155132657192439e+02
1.624157314609213865e+00 3.366000846746068760e+02
1.624257336614054914e+00 3.365852125022315704e+02
1.624357358618896185e+00 3.365708956625794031e+02
1.624457380623737235e+00 3.365571330642802081e+02
1.624557402628578062e+00 3.365439236106384442e+02
1.624657424633419112e+00 3.365312661996649126e+02
1.624757446638260383e+00 3.365191597241077943e+02
1.624857468643101432e+00 3.365076030714828903e+02
1.624957490647942482e+00 3.364965951241055677e+02
1.625057512652783531e+00 3.364861347591216827e+02
1.625157534657624581e+00 3.364762208485387305e+02
1.625257556662465408e+00 3.364668522592569957e+02
1.625357578667306679e+00 3.364580278531013846e+02
1.625457600672147729e+00 3.364497464868532006e+02
1.625557622676988778e+00 3.364420070122793049e+02
1.625657644681830050e+00 3.364348082761661658e+02
1.625757666686671099e+00 3.364281491203503265e+02
1.625857688691512148e+00 3.364220283817497830e+02
1.625957710696352976e+00 3.364164448923960435e+02
1.626057732701194025e+00 3.364113974794643696e+02
1.626157754706035075e+00 3.364068849653087909e+02
1.626257776710876346e+00 3.364029061674895615e+02
1.626357798715717395e+00 3.363994598988072653e+02
1.626457820720558445e+00 3.363965449673345915e+02
1.626557842725399716e+00 3.363941601764479969e+02
1.626657864730240544e+00 3.363923043248590261e+02
1.626757886735081593e+00 3.363909762066468261e+02
1.626857908739922642e+00 3.363901746112885576e+02
1.626957930744763692e+00 3.363898983236944105e+02
1.627057952749604741e+00 3.363901461242355140e+02
1.627157974754446013e+00 3.363909167887803733e+02
1.627257996759287062e+00 3.363922090887226091e+02
1.627358018764127889e+00 3.363940217910167121e+02
1.627458040768968939e+00 3.363963536582073743e+02
1.627558062773810210e+00 3.363992034484633677e+02
1.627658084778651260e+00 3.364025699156085807e+02
1.627758106783492309e+00 3.364064518091544187e+02
1.627858128788333358e+00 3.364108478743331716e+02
1.627958150793174408e+00 3.364157568521284816e+02
1.628058172798015235e+00 3.364211774793085397e+02
1.628158194802856507e+00 3.364271084884585434e+02
1.628258216807697556e+00 3.364335486080119608e+02
1.628358238812538605e+00 3.364404965622846930e+02
1.628458260817379877e+00 3.364479510715040078e+02
1.628558282822220926e+00 3.364559108518454877e+02
1.628658304827061976e+00 3.364643746154619635e+02
1.628758326831902803e+00 3.364733410705163124e+02
1.628858348836743852e+00 3.364828089212153941e+02
1.628958370841584902e+00 3.364927768678412576e+02
1.629058392846426173e+00 3.365032436067837125e+02
1.629158414851267223e+00 3.365142078305723317e+02
1.629258436856108272e+00 3.365256682279107849e+02
1.629358458860949543e+00 3.365376234837063976e+02
1.629458480865790371e+00 3.365500722791052226e+02
1.629558502870631420e+00 3.365630132915235322e+02
1.629658524875472470e+00 3.365764451946791382e+02
1.629758546880313519e+00 3.365903666586267491e+02
1.629858568885154568e+00 3.366047763497864480e+02
1.629958590889995840e+00 3.366196729309812667e+02
1.630058612894836667e+00 3.366350550614644703e+02
1.630158634899677716e+00 3.366509213969560506e+02
1.630258656904518766e+00 3.366672705896731372e+02
1.630358678909360037e+00 3.366841012883638200e+02
1.630458700914201087e+00 3.367014121383379006e+02
1.630558722919042136e+00 3.367192017815017380e+02
1.630658744923883186e+00 3.367374688563887730e+02
1.630758766928724013e+00 3.367562119981937485e+02
1.630858788933565062e+00 3.367754298388036318e+02
1.630958810938406334e+00 3.367951210068313230e+02
1.631058832943247383e+00 3.368152841276477147e+02
1.631158854948088432e+00 3.368359178234145475e+02
1.631258876952929704e+00 3.368570207131168104e+02
1.631358898957770753e+00 3.368785914125948011e+02
1.631458920962611581e+00 3.369006285345772653e+02
1.631558942967452630e+00 3.369231306887136839e+02
1.631658964972293679e+00 3.369460964816075261e+02
1.631758986977134729e+00 3.369695245168470024e+02
1.631859008981976000e+00 3.369934133950384876e+02
1.631959030986817050e+00 3.370177617138406845e+02
1.632059052991658099e+00 3.370425680679941252e+02
1.632159074996498926e+00 3.370678310493555045e+02
1.632259097001340198e+00 3.370935492469298538e+02
1.632359119006181247e+00 3.371197212469022588e+02
1.632459141011022297e+00 3.371463456326718529e+02
1.632559163015863346e+00 3.371734209848828527e+02
1.632659185020704395e+00 3.372009458814574145e+02
1.632759207025545667e+00 3.372289188976275227e+02
1.632859229030386494e+00 3.372573386059686982e+02
1.632959251035227544e+00 3.372862035764304665e+02
1.633059273040068593e+00 3.373155123763709753e+02
1.633159295044909864e+00 3.373452635705873490e+02
1.633259317049750914e+00 3.373754557213486578e+02
1.633359339054591963e+00 3.374060873884286593e+02
1.633459361059433013e+00 3.374371571291376881e+02
1.633559383064273840e+00 3.374686634983543740e+02
1.633659405069114889e+00 3.375006050485594074e+02
1.633759427073956161e+00 3.375329803298651541e+02
1.633859449078797210e+00 3.375657878900515243e+02
1.633959471083638260e+00 3.375990262745943937e+02
1.634059493088479531e+00 3.376326940266997099e+02
1.634159515093320580e+00 3.376667896873359496e+02
1.634259537098161408e+00 3.377013117952647008e+02
1.634359559103002457e+00 3.377362588870731770e+02
1.634459581107843507e+00 3.377716294972080959e+02
1.634559603112684556e+00 3.378074221580054655e+02
1.634659625117525827e+00 3.378436353997223023e+02
1.634759647122366877e+00 3.378802677505706242e+02
1.634859669127207926e+00 3.379173177367475205e+02
1.634959691132048754e+00 3.379547838824687460e+02
1.635059713136890025e+00 3.379926647099989054e+02
1.635159735141731074e+00 3.380309587396836832e+02
1.635259757146572124e+00 3.380696644899823013e+02
1.635359779151413173e+00 3.381087804774986694e+02
1.635459801156254223e+00 3.381483052170138990e+02
1.635559823161095494e+00 3.381882372215158057e+02
1.635659845165936321e+00 3.382285750022338675e+02
1.635759867170777371e+00 3.382693170686677036e+02
1.635859889175618420e+00 3.383104619286203842e+02
1.635959911180459692e+00 3.383520080882300931e+02
1.636059933185300741e+00 3.383939540520005949e+02
1.636159955190141790e+00 3.384362983228326129e+02
1.636259977194982840e+00 3.384790394020569124e+02
1.636359999199823667e+00 3.385221757894636312e+02
1.636460021204664717e+00 3.385657059833348512e+02
1.636560043209505988e+00 3.386096284804751804e+02
1.636660065214347037e+00 3.386539417762437552e+02
1.636760087219188087e+00 3.386986443645848794e+02
1.636860109224029358e+00 3.387437347380592882e+02
1.636960131228870408e+00 3.387892113878747864e+02
1.637060153233711235e+00 3.388350728039189903e+02
1.637160175238552284e+00 3.388813174747879202e+02
1.637260197243393334e+00 3.389279438878186852e+02
1.637360219248234383e+00 3.389749505291197806e+02
1.637460241253075655e+00 3.390223358836019543e+02
1.637560263257916704e+00 3.390700984350094700e+02
1.637660285262757753e+00 3.391182366659502350e+02
1.637760307267598581e+00 3.391667490579275750e+02
1.637860329272439852e+00 3.392156340913683152e+02
1.637960351277280902e+00 3.392648902456572273e+02
1.638060373282121951e+00 3.393145159991648825e+02
1.638160395286963000e+00 3.393645098292784041e+02
1.638260417291804050e+00 3.394148702124330157e+02
1.638360439296645321e+00 3.394655956241415993e+02
1.638460461301486148e+00 3.395166845390252774e+02
1.638560483306327198e+00 3.395681354308435971e+02
1.638660505311168247e+00 3.396199467725242584e+02
1.638760527316009519e+00 3.396721170361962550e+02
1.638860549320850568e+00 3.397246446932142021e+02
1.638960571325691618e+00 3.397775282141950584e+02
1.639060593330532667e+00 3.398307660690425109e+02
1.639160615335373494e+00 3.398843567269805135e+02
1.639260637340214544e+00 3.399382986565820488e+02
1.639360659345055815e+00 3.399925903257982327e+02
1.639460681349896864e+00 3.400472302019892368e+02
1.639560703354737914e+00 3.401022167519533923e+02
1.639660725359579185e+00 3.401575484419568625e+02
1.639760747364420235e+00 3.402132237377631441e+02
1.639860769369261062e+00 3.402692411046628536e+02
1.639960791374102111e+00 3.403255990075033992e+02
