1.900056013443226277e+00 5.089471971092591502e+02
1.900156037448987645e+00 5.089444550561426581e+02
1.900256061454749013e+00 5.089417482097277343e+02
1.900356085460510380e+00 5.089390767005058933e+02
1.900456109466271748e+00 5.089364406581590288e+02
1.900556133472033338e+00 5.089338402115495228e+02
1.900656157477794705e+00 5.089312754887150732e+02
1.900756181483556073e+00 5.089287466168594847e+02
1.900856205489317441e+00 5.089262537223463596e+02
1.900956229495078809e+00 5.089237969306907416e+02
1.901056253500840176e+00 5.089213763665540569e+02
1.901156277506601544e+00 5.089189921537334271e+02
1.901256301512362912e+00 5.089166444151567248e+02
1.901356325518124279e+00 5.089143332728754103e+02
1.901456349523885647e+00 5.089120588480544143e+02
1.901556373529647015e+00 5.089098212609699772e+02
1.901656397535408383e+00 5.089076206309970303e+02
1.901756421541169750e+00 5.089054570766058418e+02
1.901856445546931118e+00 5.089033307153528085e+02
1.901956469552692486e+00 5.089012416638747709e+02
1.902056493558453854e+00 5.088991900378800324e+02
1.902156517564215221e+00 5.088971759521443801e+02
1.902256541569976589e+00 5.088951995204995455e+02
1.902356565575737957e+00 5.088932608558323523e+02
1.902456589581499546e+00 5.088913600700697089e+02
1.902556613587260914e+00 5.088894972741795755e+02
1.902656637593022282e+00 5.088876725781595951e+02
1.902756661598783650e+00 5.088858860910304429e+02
1.902856685604545017e+00 5.088841379208307103e+02
1.902956709610306385e+00 5.088824281746086058e+02
1.903056733616067753e+00 5.088807569584153043e+02
1.903156757621829120e+00 5.088791243772994335e+02
1.903256781627590488e+00 5.088775305352980354e+02
1.903356805633351856e+00 5.088759755354319623e+02
1.903456829639113224e+00 5.088744594796987712e+02
1.903556853644874591e+00 5.088729824690655050e+02
1.903656877650635959e+00 5.088715446034612455e+02
1.903756901656397327e+00 5.088701459817736463e+02
1.903856925662158694e+00 5.088687867018383031e+02
1.903956949667920062e+00 5.088674668604357976e+02
1.904056973673681430e+00 5.088661865532826596e+02
1.904156997679442798e+00 5.088649458750257963e+02
1.904257021685204609e+00 5.088637449192385702e+02
1.904357045690965755e+00 5.088625837784086912e+02
1.904457069696727345e+00 5.088614625439374777e+02
1.904557093702488491e+00 5.088603813061305914e+02
1.904657117708250080e+00 5.088593401541925232e+02
1.904757141714011226e+00 5.088583391762213637e+02
1.904857165719772816e+00 5.088573784591996514e+02
1.904957189725533961e+00 5.088564580889919853e+02
1.905057213731295551e+00 5.088555781503357593e+02
1.905157237737056697e+00 5.088547387268367856e+02
1.905257261742818287e+00 5.088539399009633826e+02
1.905357285748579432e+00 5.088531817540395537e+02
1.905457309754341022e+00 5.088524643662381663e+02
1.905557333760102168e+00 5.088517878165776551e+02
1.905657357765863757e+00 5.088511521829135518e+02
1.905757381771624903e+00 5.088505575419343927e+02
1.905857405777386493e+00 5.088500039691540451e+02
1.905957429783147639e+00 5.088494915389084099e+02
1.906057453788909228e+00 5.088490203243471797e+02
1.906157477794670818e+00 5.088485903974301436e+02
1.906257501800432186e+00 5.088482018289195707e+02
1.906357525806193554e+00 5.088478546883765148e+02
1.906457549811954921e+00 5.088475490441539364e+02
1.906557573817716289e+00 5.088472849633914166e+02
1.906657597823477657e+00 5.088470625120112345e+02
1.906757621829239024e+00 5.088468817547092726e+02
1.906857645835000392e+00 5.088467427549535387e+02
1.906957669840761760e+00 5.088466455749761508e+02
1.907057693846523128e+00 5.088465902757695289e+02
1.907157717852284495e+00 5.088465769170806539e+02
1.907257741858045863e+00 5.088466055574047573e+02
1.907357765863807231e+00 5.088466762539819683e+02
1.907457789869568598e+00 5.088467890627904353e+02
1.907557813875329966e+00 5.088469440385437110e+02
1.907657837881091334e+00 5.088471412346809757e+02
1.907757861886852702e+00 5.088473807033687422e+02
1.907857885892614069e+00 5.088476624954888052e+02
1.907957909898375659e+00 5.088479866606387532e+02
1.908057933904137027e+00 5.088483532471240665e+02
1.908157957909898395e+00 5.088487623019549346e+02
1.908257981915659762e+00 5.088492138708397192e+02
1.908358005921421130e+00 5.088497079981818842e+02
1.908458029927182498e+00 5.088502447270744256e+02
1.908558053932943865e+00 5.088508240992955507e+02
1.908658077938705233e+00 5.088514461553035062e+02
1.908758101944466601e+00 5.088521109342332238e+02
1.908858125950227969e+00 5.088528184738892151e+02
1.908958149955989336e+00 5.088535688107451165e+02
1.909058173961750704e+00 5.088543619799357316e+02
1.909158197967512072e+00 5.088551980152532792e+02
1.909258221973273439e+00 5.088560769491459723e+02
1.909358245979034807e+00 5.088569988127090937e+02
1.909458269984796175e+00 5.088579636356843139e+02
1.909558293990557543e+00 5.088589714464544613e+02
1.909658317996318910e+00 5.088600222720388047e+02
1.909758342002080278e+00 5.088611161380896988e+02
1.909858366007841868e+00 5.088622530688880943e+02
1.909958390013603236e+00 5.088634330873400131e+02
1.910058414019364603e+00 5.088646562149723422e+02
1.910158438025125971e+00 5.088659224719284566e+02
1.910258462030887339e+00 5.088672318769657181e+02
1.910358486036648706e+00 5.088685844474501891e+02
1.910458510042410074e+00 5.088699801993536198e+02
1.910558534048171442e+00 5.088714191472499806e+02
1.910658558053932810e+00 5.088729013043112559e+02
1.910758582059694177e+00 5.088744266823051703e+02
1.910858606065455545e+00 5.088759952915890494e+02
1.910958630071216913e+00 5.088776071411089106e+02
1.911058654076978280e+00 5.088792622383953130e+02
1.911158678082739648e+00 5.088809605895590948e+02
1.911258702088501016e+00 5.088827021992890991e+02
1.911358726094262384e+00 5.088844870708481380e+02
1.911458750100023751e+00 5.088863152060710604e+02
1.911558774105785119e+00 5.088881866053596923e+02
1.911658798111546709e+00 5.088901012676816435e+02
1.911758822117308299e+00 5.088920591905649644e+02
1.911858846123069444e+00 5.088940603700986571e+02
1.911958870128831034e+00 5.088961048009250021e+02
1.912058894134592180e+00 5.088981924762420022e+02
1.912158918140353769e+00 5.089003233877954813e+02
1.912258942146114915e+00 5.089024975258799941e+02
1.912358966151876505e+00 5.089047148793341648e+02
1.912458990157637650e+00 5.089069754355389819e+02
1.912559014163399240e+00 5.089092791804139893e+02
1.912659038169160386e+00 5.089116260984167752e+02
1.912759062174921976e+00 5.089140161725377993e+02
1.912859086180683121e+00 5.089164493843001651e+02
1.912959110186444711e+00 5.089189257137564937e+02
1.913059134192205857e+00 5.089214451394859680e+02
1.913159158197967447e+00 5.089240076385930820e+02
1.913259182203728592e+00 5.089266131867035483e+02
1.913359206209490182e+00 5.089292617579654916e+02
1.913459230215251328e+00 5.089319533250440486e+02
1.913559254221013139e+00 5.089346878591203449e+02
1.913659278226774507e+00 5.089374653298909834e+02
1.913759302232535875e+00 5.089402857055632694e+02
1.913859326238297243e+00 5.089431489528554948e+02
1.913959350244058610e+00 5.089460550369949488e+02
1.914059374249819978e+00 5.089490039217146773e+02
1.914159398255581346e+00 5.089519955692544499e+02
1.914259422261342714e+00 5.089550299403539952e+02
1.914359446267104081e+00 5.089581069942591398e+02
1.914459470272865449e+00 5.089612266887124292e+02
1.914559494278626817e+00 5.089643889799571070e+02
1.914659518284388184e+00 5.089675938227329084e+02
1.914759542290149552e+00 5.089708411702750936e+02
1.914859566295910920e+00 5.089741309743146758e+02
1.914959590301672288e+00 5.089774631850747824e+02
1.915059614307433655e+00 5.089808377512713378e+02
1.915159638313195023e+00 5.089842546201114715e+02
1.915259662318956391e+00 5.089877137372911875e+02
1.915359686324717980e+00 5.089912150469962171e+02
1.915459710330479348e+00 5.089947584919003702e+02
1.915559734336240716e+00 5.089983440131638872e+02
1.915659758342002084e+00 5.090019715504332680e+02
1.915759782347763451e+00 5.090056410418399651e+02
1.915859806353524819e+00 5.090093524240013494e+02
1.915959830359286187e+00 5.090131056320183234e+02
1.916059854365047554e+00 5.090169005994740701e+02
1.916159878370808922e+00 5.090207372584353607e+02
1.916259902376570290e+00 5.090246155394519860e+02
1.916359926382331658e+00 5.090285353715541987e+02
1.916459950388093025e+00 5.090324966822548731e+02
1.916559974393854393e+00 5.090364993975473453e+02
1.916659998399615761e+00 5.090405434419070048e+02
1.916760022405377129e+00 5.090446287382885657e+02
1.916860046411138496e+00 5.090487552081281137e+02
1.916960070416899864e+00 5.090529227713431055e+02
1.917060094422661232e+00 5.090571313463298111e+02
1.917160118428422599e+00 5.090613808499660990e+02
1.917260142434184189e+00 5.090656711976109250e+02
1.917360166439945557e+00 5.090700023031030241e+02
1.917460190445706925e+00 5.090743740787635829e+02
1.917560214451468292e+00 5.090787864353937948e+02
1.917660238457229660e+00 5.090832392822776455e+02
1.917760262462991028e+00 5.090877325271807763e+02
1.917860286468752395e+00 5.090922660763516205e+02
1.917960310474513763e+00 5.090968398345216315e+02
1.918060334480275131e+00 5.091014537049065893e+02
1.918160358486036499e+00 5.091061075892054077e+02
1.918260382491797866e+00 5.091108013876037148e+02
1.918360406497559234e+00 5.091155349987718637e+02
1.918460430503320602e+00 5.091203083198676609e+02
1.918560454509081969e+00 5.091251212465360823e+02
1.918660478514843337e+00 5.091299736729109782e+02
1.918760502520604705e+00 5.091348654916155283e+02
1.918860526526366073e+00 5.091397965937638332e+02
1.918960550532127440e+00 5.091447668689614829e+02
1.919060574537889252e+00 5.091497762053080578e+02
1.919160598543650398e+00 5.091548244893967308e+02
1.919260622549411988e+00 5.091599116063161432e+02
1.919360646555173133e+00 5.091650374396512575e+02
1.919460670560934723e+00 5.091702018714880751e+02
1.919560694566695869e+00 5.091754047824101121e+02
1.919660718572457458e+00 5.091806460515033450e+02
1.919760742578218604e+00 5.091859255563567217e+02
1.919860766583980194e+00 5.091912431730636399e+02
1.919960790589741340e+00 5.091965987762248460e+02
1.920060814595502929e+00 5.092019922389499129e+02
1.920160838601264075e+00 5.092074234328574676e+02
1.920260862607025665e+00 5.092128922280788856e+02
1.920360886612786810e+00 5.092183984932594285e+02
1.920460910618548400e+00 5.092239420955618243e+02
1.920560934624309546e+00 5.092295229006659270e+02
1.920660958630071136e+00 5.092351407727726382e+02
1.920760982635832281e+00 5.092407955746056132e+02
1.920861006641593871e+00 5.092464871674142728e+02
1.920961030647355461e+00 5.092522154109740313e+02
1.921061054653116829e+00 5.092579801635913554e+02
1.921161078658878196e+00 5.092637812821053558e+02
1.921261102664639564e+00 5.092696186218886396e+02
1.921361126670400932e+00 5.092754920368533362e+02
1.921461150676162299e+00 5.092814013794494485e+02
1.921561174681923667e+00 5.092873465006723563e+02
1.921661198687685035e+00 5.092933272500607700e+02
1.921761222693446403e+00 5.092993434757039495e+02
1.921861246699207770e+00 5.093053950242412498e+02
1.921961270704969138e+00 5.093114817408674071e+02
1.922061294710730506e+00 5.093176034693332781e+02
1.922161318716491873e+00 5.093237600519521493e+02
1.922261342722253241e+00 5.093299513295996803e+02
1.922361366728014609e+00 5.093361771417186787e+02
1.922461390733775977e+00 5.093424373263219991e+02
1.922561414739537344e+00 5.093487317199963513e+02
1.922661438745298712e+00 5.093550601579049726e+02
1.922761462751060302e+00 5.093614224737921745e+02
1.922861486756821670e+00 5.093678184999848213e+02
1.922961510762583037e+00 5.093742480673981845e+02
1.923061534768344405e+00 5.093807110055383305e+02
1.923161558774105773e+00 5.093872071425059858e+02
1.923261582779867140e+00 5.093937363050003455e+02
1.923361606785628508e+00 5.094002983183231663e+02
1.923461630791389876e+00 5.094068930063815515e+02
1.923561654797151244e+00 5.094135201916935216e+02
1.923661678802912611e+00 5.094201796953910275e+02
1.923761702808673979e+00 5.094268713372229627e+02
1.923861726814435347e+00 5.094335949355619846e+02
1.923961750820196714e+00 5.094403503074065611e+02
1.924061774825958082e+00 5.094471372683854042e+02
1.924161798831719450e+00 5.094539556327623586e+02
1.924261822837480818e+00 5.094608052134404943e+02
1.924361846843242185e+00 5.094676858219658584e+02
1.924461870849003553e+00 5.094745972685332731e+02
1.924561894854764921e+00 5.094815393619897463e+02
1.924661918860526510e+00 5.094885119098395876e+02
1.924761942866287878e+00 5.094955147182485575e+02
1.924861966872049246e+00 5.095025475920488134e+02
1.924961990877810614e+00 5.095096103347441954e+02
1.925062014883571981e+00 5.095167027485137510e+02
1.925162038889333349e+00 5.095238246342178172e+02
1.925262062895094717e+00 5.095309757914024544e+02
1.925362086900856085e+00 5.095381560183044485e+02
1.925462110906617452e+00 5.095453651118553466e+02
1.925562134912378820e+00 5.095526028676890178e+02
1.925662158918140188e+00 5.095598690801444945e+02
1.925762182923901555e+00 5.095671635422719987e+02
1.925862206929662923e+00 5.095744860458376593e+02
1.925962230935424291e+00 5.095818363813301630e+02
1.926062254941185659e+00 5.095892143379650179e+02
1.926162278946947026e+00 5.095966197036900667e+02
1.926262302952708394e+00 5.096040522651910578e+02
1.926362326958469762e+00 5.096115118078970454e+02
1.926462350964231351e+00 5.096189981159864146e+02
1.926562374969992941e+00 5.096265109723930209e+02
1.926662398975754087e+00 5.096340501588096004e+02
1.926762422981515677e+00 5.096416154556965239e+02
1.926862446987276822e+00 5.096492066422850939e+02
1.926962470993038412e+00 5.096568234965848205e+02
1.927062494998799558e+00 5.096644657953894466e+02
1.927162519004561148e+00 5.096721333142815524e+02
1.927262543010322293e+00 5.096798258276401725e+02
1.927362567016083883e+00 5.096875431086459685e+02
1.927462591021845029e+00 5.096952849292875385e+02
1.927562615027606618e+00 5.097030510603673861e+02
1.927662639033367764e+00 5.097108412715087411e+02
1.927762663039129354e+00 5.097186553311618695e+02
1.927862687044890500e+00 5.097264930066093029e+02
1.927962711050652089e+00 5.097343540639728872e+02
1.928062735056413235e+00 5.097422382682215130e+02
1.928162759062174825e+00 5.097501453831756066e+02
1.928262783067935970e+00 5.097580751715138376e+02
1.928362807073697782e+00 5.097660273947815881e+02
1.928462831079459150e+00 5.097740018133961826e+02
1.928562855085220518e+00 5.097819981866531975e+02
1.928662879090981885e+00 5.097900162727349880e+02
1.928762903096743253e+00 5.097980558287144959e+02
1.928862927102504621e+00 5.098061166105663915e+02
1.928962951108265989e+00 5.098141983731696882e+02
1.929062975114027356e+00 5.098223008703173491e+02
1.929162999119788724e+00 5.098304238547219711e+02
1.929263023125550092e+00 5.098385670780247096e+02
1.929363047131311459e+00 5.098467302907998260e+02
1.929463071137072827e+00 5.098549132425636117e+02
1.929563095142834195e+00 5.098631156817808687e+02
1.929663119148595563e+00 5.098713373558723561e+02
1.929763143154356930e+00 5.098795780112228613e+02
1.929863167160118298e+00 5.098878373931868282e+02
1.929963191165879666e+00 5.098961152460975086e+02
1.930063215171641033e+00 5.099044113132732150e+02
1.930163239177402623e+00 5.099127253370251083e+02
1.930263263183163991e+00 5.099210570586657241e+02
1.930363287188925359e+00 5.099294062185149983e+02
1.930463311194686726e+00 5.099377725559090209e+02
1.930563335200448094e+00 5.099461558092068572e+02
1.930663359206209462e+00 5.099545557157995859e+02
1.930763383211970829e+00 5.099629720121166088e+02
1.930863407217732197e+00 5.099714044336338929e+02
1.930963431223493565e+00 5.099798527148827816e+02
1.931063455229254933e+00 5.099883165894580088e+02
1.931163479235016300e+00 5.099967957900222473e+02
1.931263503240777668e+00 5.100052900483191252e+02
1.931363527246539036e+00 5.100137990951768074e+02
1.931463551252300404e+00 5.100223226605212403e+02
1.931563575258061771e+00 5.100308604733783113e+02
1.931663599263823139e+00 5.100394122618857295e+02
1.931763623269584507e+00 5.100479777533009837e+02
1.931863647275345874e+00 5.100565566740086183e+02
1.931963671281107464e+00 5.100651487495291008e+02
1.932063695286868832e+00 5.100737537045270642e+02
1.932163719292630200e+00 5.100823712628196631e+02
1.932263743298391567e+00 5.100910011473857821e+02
1.932363767304152935e+00 5.100996430803720614e+02
1.932463791309914303e+00 5.101082967831046062e+02
1.932563815315675670e+00 5.101169619760955243e+02
1.932663839321437038e+00 5.101256383790525888e+02
1.932763863327198406e+00 5.101343257108867988e+02
1.932863887332959774e+00 5.101430236897217583e+02
1.932963911338721141e+00 5.101517320329027143e+02
1.933063935344482509e+00 5.101604504570043446e+02
1.933163959350243877e+00 5.101691786778399660e+02
1.933263983356005244e+00 5.101779164104709707e+02
1.933364007361766612e+00 5.101866633692155233e+02
1.933464031367527980e+00 5.101954192676564617e+02
1.933564055373289348e+00 5.102041838186514155e+02
1.933664079379050715e+00 5.102129567343411054e+02
1.933764103384812083e+00 5.102217377261588354e+02
1.933864127390573895e+00 5.102305265048393608e+02
1.933964151396335041e+00 5.102393227804279263e+02
1.934064175402096630e+00 5.102481262622895315e+02
1.934164199407857776e+00 5.102569366591175708e+02
1.934264223413619366e+00 5.102657536789452024e+02
1.934364247419380511e+00 5.102745770291502367e+02
1.934464271425142101e+00 5.102834064164691199e+02
1.934564295430903247e+00 5.102922415470037549e+02
1.934664319436664837e+00 5.103010821262308241e+02
1.934764343442425982e+00 5.103099278590124186e+02
1.934864367448187572e+00 5.103187784496045651e+02
1.934964391453948718e+00 5.103276336016658092e+02
1.935064415459710307e+00 5.103364930182691523e+02
1.935164439465471453e+00 5.103453564019097826e+02
1.935264463471233043e+00 5.103542234545141696e+02
1.935364487476994189e+00 5.103630938774514334e+02
1.935464511482755778e+00 5.103719673715409044e+02
1.935564535488516924e+00 5.103808436370643449e+02
1.935664559494278736e+00 5.103897223737727131e+02
1.935764583500040104e+00 5.103986032808983282e+02
1.935864607505801471e+00 5.104074860571631120e+02
1.935964631511562839e+00 5.104163704007887645e+02
1.936064655517324207e+00 5.104252560095065405e+02
1.936164679523085574e+00 5.104341425805678227e+02
1.936264703528846942e+00 5.104430298107521367e+02
1.936364727534608310e+00 5.104519173963794856e+02
1.936464751540369678e+00 5.104608050333183087e+02
1.936564775546131045e+00 5.104696924169956560e+02
1.936664799551892413e+00 5.104785792424085571e+02
1.936764823557653781e+00 5.104874652041328318e+02
1.936864847563415148e+00 5.104963499963326399e+02
1.936964871569176516e+00 5.105052333127719635e+02
1.937064895574937884e+00 5.105141148468240999e+02
1.937164919580699252e+00 5.105229942914806998e+02
1.937264943586460619e+00 5.105318713393634766e+02
1.937364967592221987e+00 5.105407456827336432e+02
1.937464991597983355e+00 5.105496170135020861e+02
1.937565015603744945e+00 5.105584850232395979e+02
1.937665039609506312e+00 5.105673494031869950e+02
1.937765063615267680e+00 5.105762098442651222e+02
1.937865087621029048e+00 5.105850660370869036e+02
1.937965111626790415e+00 5.105939176719647321e+02
1.938065135632551783e+00 5.106027644389220086e+02
1.938165159638313151e+00 5.106116060277055340e+02
1.938265183644074519e+00 5.106204421277931260e+02
1.938365207649835886e+00 5.106292724284039650e+02
1.938465231655597254e+00 5.106380966185113266e+02
1.938565255661358622e+00 5.106469143868507672e+02
1.938665279667119989e+00 5.106557254219329707e+02
1.938765303672881357e+00 5.106645294120501148e+02
1.938865327678642725e+00 5.106733260452912759e+02
1.938965351684404093e+00 5.106821150095490793e+02
1.939065375690165460e+00 5.106908959925325462e+02
1.939165399695926828e+00 5.106996686817764157e+02
1.939265423701688196e+00 5.107084327646524002e+02
1.939365447707449785e+00 5.107171879283786211e+02
1.939465471713211153e+00 5.107259338600322280e+02
1.939565495718972521e+00 5.107346702465573571e+02
1.939665519724733889e+00 5.107433967747786028e+02
1.939765543730495256e+00 5.107521131314090326e+02
1.939865567736256624e+00 5.107608190030622382e+02
1.939965591742017992e+00 5.107695140762640449e+02
1.940065615747779360e+00 5.107781980374596742e+02
1.940165639753540727e+00 5.107868705730283523e+02
1.940265663759302095e+00 5.107955313692925188e+02
1.940365687765063463e+00 5.108041801125267511e+02
1.940465711770824830e+00 5.108128164889719756e+02
1.940565735776586198e+00 5.108214401848429134e+02
1.940665759782347566e+00 5.108300508863416098e+02
1.940765783788108934e+00 5.108386482796653922e+02
1.940865807793870301e+00 5.108472320510200575e+02
1.940965831799631669e+00 5.108558018866307862e+02
1.941065855805393037e+00 5.108643574727491341e+02
1.941165879811154404e+00 5.108728984956695740e+02
1.941265903816915994e+00 5.108814246417347249e+02
1.941365927822677584e+00 5.108899355973515526e+02
1.941465951828438730e+00 5.108984310489968834e+02
1.941565975834200319e+00 5.109069106832326952e+02
1.941665999839961465e+00 5.109153741867145300e+02
1.941766023845723055e+00 5.109238212462022375e+02
1.941866047851484200e+00 5.109322515485725944e+02
1.941966071857245790e+00 5.109406647808284561e+02
1.942066095863006936e+00 5.109490606301112621e+02
1.942166119868768526e+00 5.109574387837097333e+02
1.942266143874529671e+00 5.109657989290732303e+02
1.942366167880291261e+00 5.109741407538202793e+02
1.942466191886052407e+00 5.109824639457522153e+02
1.942566215891813997e+00 5.109907681928607985e+02
1.942666239897575142e+00 5.109990531833418572e+02
1.942766263903336732e+00 5.110073186056052919e+02
1.942866287909097878e+00 5.110155641482856481e+02
1.942966311914859467e+00 5.110237895002533151e+02
1.943066335920621057e+00 5.110319943506254390e+02
1.943166359926382425e+00 5.110401783887767806e+02
1.943266383932143793e+00 5.110483413043511405e+02
1.943366407937905160e+00 5.110564827872714773e+02
1.943466431943666528e+00 5.110646025277509921e+02
1.943566455949427896e+00 5.110727002163050088e+02
1.943666479955189264e+00 5.110807755437611490e+02
1.943766503960950631e+00 5.110888282012690524e+02
1.943866527966711999e+00 5.110968578803143600e+02
1.943966551972473367e+00 5.111048642727267861e+02
1.944066575978234734e+00 5.111128470706923963e+02
1.944166599983996102e+00 5.111208059667636689e+02
1.944266623989757470e+00 5.111287406538718301e+02
1.944366647995518838e+00 5.111366508253365168e+02
1.944466672001280205e+00 5.111445361748768050e+02
1.944566696007041573e+00 5.111523963966236579e+02
1.944666720012802941e+00 5.111602311851277136e+02
1.944766744018564308e+00 5.111680402353736099e+02
1.944866768024325676e+00 5.111758232427878283e+02
1.944966792030087266e+00 5.111835799032528485e+02
1.945066816035848634e+00 5.111913099131149920e+02
1.945166840041610001e+00 5.111990129691971561e+02
1.945266864047371369e+00 5.112066887688085899e+02
1.945366888053132737e+00 5.112143370097571733e+02
1.945466912058894104e+00 5.112219573903581136e+02
1.945566936064655472e+00 5.112295496094463374e+02
1.945666960070416840e+00 5.112371133663879164e+02
1.945766984076178208e+00 5.112446483610896166e+02
1.945867008081939575e+00 5.112521542940095287e+02
1.945967032087700943e+00 5.112596308661693456e+02
1.946067056093462311e+00 5.112670777791624914e+02
1.946167080099223679e+00 5.112744947351692986e+02
1.946267104104985046e+00 5.112818814369632605e+02
1.946367128110746414e+00 5.112892375879242763e+02
1.946467152116507782e+00 5.112965628920490531e+02
1.946567176122269149e+00 5.113038570539613943e+02
1.946667200128030517e+00 5.113111197789224320e+02
1.946767224133792107e+00 5.113183507728434734e+02
1.946867248139553475e+00 5.113255497422948110e+02
1.946967272145314842e+00 5.113327163945160123e+02
1.947067296151076210e+00 5.113398504374287086e+02
1.947167320156837578e+00 5.113469515796452356e+02
1.947267344162598945e+00 5.113540195304805138e+02
1.947367368168360313e+00 5.113610539999615412e+02
1.947467392174121681e+00 5.113680546988389324e+02
1.947567416179883049e+00 5.113750213385983443e+02
1.947667440185644416e+00 5.113819536314684342e+02
1.947767464191405784e+00 5.113888512904337631e+02
1.947867488197167152e+00 5.113957140292442318e+02
1.947967512202928519e+00 5.114025415624257676e+02
1.948067536208689887e+00 5.114093336052918630e+02
1.948167560214451255e+00 5.114160898739513641e+02
1.948267584220212623e+00 5.114228100853225101e+02
1.948367608225973990e+00 5.114294939571411760e+02
1.948467632231735358e+00 5.114361412079707634e+02
1.948567656237496726e+00 5.114427515572144785e+02
1.948667680243258538e+00 5.114493247251245975e+02
1.948767704249019683e+00 5.114558604328131537e+02
1.948867728254781273e+00 5.114623584022609748e+02
1.948967752260542419e+00 5.114688183563310417e+02
1.949067776266304008e+00 5.114752400187757644e+02
1.949167800272065154e+00 5.114816231142483502e+02
1.949267824277826744e+00 5.114879673683136616e+02
1.949367848283587890e+00 5.114942725074572536e+02
1.949467872289349479e+00 5.115005382590968566e+02
1.949567896295110625e+00 5.115067643515911868e+02
1.949667920300872215e+00 5.115129505142513153e+02
1.949767944306633360e+00 5.115190964773502174e+02
1.949867968312394950e+00 5.115252019721325496e+02
1.949967992318156096e+00 5.115312667308255641e+02
1.950068016323917686e+00 5.115372904866479189e+02
1.950168040329678831e+00 5.115432729738215585e+02
1.950268064335440421e+00 5.115492139275802401e+02
1.950368088341201567e+00 5.115551130841791405e+02
1.950468112346963379e+00 5.115609701809063381e+02
1.950568136352724746e+00 5.115667849560909417e+02
1.950668160358486114e+00 5.115725571491153119e+02
1.950768184364247482e+00 5.115782865004224504e+02
1.950868208370008849e+00 5.115839727515271420e+02
1.950968232375770217e+00 5.115896156450250487e+02
1.951068256381531585e+00 5.115952149246044200e+02
1.951168280387292953e+00 5.116007703350517204e+02
1.951268304393054320e+00 5.116062816222663514e+02
1.951368328398815688e+00 5.116117485332663364e+02
1.951468352404577056e+00 5.116171708162001437e+02
1.951568376410338423e+00 5.116225482203545312e+02
1.951668400416099791e+00 5.116278804961668811e+02
1.951768424421861159e+00 5.116331673952315668e+02
1.951868448427622527e+00 5.116384086703116623e+02
1.951968472433383894e+00 5.116436040753468433e+02
1.952068496439145262e+00 5.116487533654645858e+02
1.952168520444906630e+00 5.116538562969882946e+02
1.952268544450667997e+00 5.116589126274458863e+02
1.952368568456429587e+00 5.116639221155811583e+02
1.952468592462190955e+00 5.116688845213620311e+02
1.952568616467952323e+00 5.116737996059900979e+02
1.952668640473713690e+00 5.116786671319081279e+02
1.952768664479475058e+00 5.116834868628120034e+02
1.952868688485236426e+00 5.116882585636583372e+02
1.952968712490997794e+00 5.116929820006730552e+02
1.953068736496759161e+00 5.116976569413628795e+02
1.953168760502520529e+00 5.117022831545191366e+02
1.953268784508281897e+00 5.117068604102337304e+02
1.953368808514043264e+00 5.117113884799036896e+02
1.953468832519804632e+00 5.117158671362399787e+02
1.953568856525566000e+00 5.117202961532776726e+02
1.953668880531327368e+00 5.117246753063847109e+02
1.953768904537088735e+00 5.117290043722698556e+02
1.953868928542850103e+00 5.117332831289934347e+02
1.953968952548611471e+00 5.117375113559724014e+02
1.954068976554372838e+00 5.117416888339929528e+02
1.954169000560134428e+00 5.117458153452161582e+02
1.954269024565895796e+00 5.117498906731884176e+02
1.954369048571657164e+00 5.117539146028491359e+02
1.954469072577418531e+00 5.117578869205385104e+02
1.954569096583179899e+00 5.117618074140082172e+02
1.954669120588941267e+00 5.117656758724278916e+02
1.954769144594702635e+00 5.117694920863924608e+02
1.954869168600464002e+00 5.117732558479351610e+02
1.954969192606225370e+00 5.117769669505289585e+02
1.955069216611986738e+00 5.117806251891010447e+02
1.955169240617748105e+00 5.117842303600372134e+02
1.955269264623509473e+00 5.117877822611912961e+02
1.955369288629270841e+00 5.117912806918932347e+02
1.955469312635032209e+00 5.117947254529572660e+02
1.955569336640793576e+00 5.117981163466878911e+02
1.955669360646554944e+00 5.118014531768923803e+02
1.955769384652316312e+00 5.118047357488825924e+02
1.955869408658077679e+00 5.118079638694889013e+02
1.955969432663839047e+00 5.118111373470627541e+02
1.956069456669600637e+00 5.118142559914883805e+02
1.956169480675362227e+00 5.118173196141877384e+02
1.956269504681123372e+00 5.118203280281296088e+02
1.956369528686884962e+00 5.118232810478374404e+02
1.956469552692646108e+00 5.118261784893948061e+02
1.956569576698407698e+00 5.118290201704568858e+02
1.956669600704168843e+00 5.118318059102522284e+02
1.956769624709930433e+00 5.118345355295952572e+02
1.956869648715691579e+00 5.118372088508924662e+02
1.956969672721453168e+00 5.118398256981464556e+02
1.957069696727214314e+00 5.118423858969668458e+02
1.957169720732975904e+00 5.118448892745773264e+02
1.957269744738737050e+00 5.118473356598194073e+02
1.957369768744498639e+00 5.118497248831636171e+02
1.957469792750259785e+00 5.118520567767143348e+02
1.957569816756021375e+00 5.118543311742158721e+02
1.957669840761782520e+00 5.118565479110620799e+02
1.957769864767544110e+00 5.118587068243012936e+02
1.957869888773305700e+00 5.118608077526434954e+02
1.957969912779067068e+00 5.118628505364665671e+02
1.958069936784828435e+00 5.118648350178245892e+02
1.958169960790589803e+00 5.118667610404535253e+02
1.958269984796351171e+00 5.118686284497764518e+02
1.958370008802112539e+00 5.118704370929130505e+02
1.958470032807873906e+00 5.118721868186830761e+02
1.958570056813635274e+00 5.118738774776146556e+02
1.958670080819396642e+00 5.118755089219511092e+02
1.958770104825158009e+00 5.118770810056537357e+02
1.958870128830919377e+00 5.118785935844135224e+02
1.958970152836680745e+00 5.118800465156527366e+02
1.959070176842442113e+00 5.118814396585328836e+02
1.959170200848203480e+00 5.118827728739606755e+02
1.959270224853964848e+00 5.118840460245947384e+02
1.959370248859726216e+00 5.118852589748497621e+02
1.959470272865487583e+00 5.118864115909041743e+02
1.959570296871248951e+00 5.118875037407050286e+02
1.959670320877010319e+00 5.118885352939738596e+02
1.959770344882771909e+00 5.118895061222133336e+02
1.959870368888533276e+00 5.118904160987108867e+02
1.959970392894294644e+00 5.118912650985471373e+02
1.960070416900056012e+00 5.118920529985980465e+02
1.960170440905817379e+00 5.118927796775439560e+02
1.960270464911578747e+00 5.118934450158723166e+02
1.960370488917340115e+00 5.118940488958850210e+02
1.960470512923101483e+00 5.118945912017006208e+02
1.960570536928862850e+00 5.118950718192643308e+02
1.960670560934624218e+00 5.118954906363479722e+02
1.960770584940385586e+00 5.118958475425594088e+02
1.960870608946146953e+00 5.118961424293456730e+02
1.960970632951908321e+00 5.118963751899970589e+02
1.961070656957669689e+00 5.118965457196537727e+02
1.961170680963431057e+00 5.118966539153100257e+02
1.961270704969192424e+00 5.118966996758192636e+02
1.961370728974953792e+00 5.118966829018975204e+02
1.961470752980715160e+00 5.118966034961297282e+02
1.961570776986476750e+00 5.118964613629744917e+02
1.961670800992238117e+00 5.118962564087669875e+02
1.961770824997999485e+00 5.118959885417241935e+02
1.961870849003760853e+00 5.118956576719498344e+02
1.961970873009522220e+00 5.118952637114377353e+02
1.962070897015283588e+00 5.118948065740777338e+02
1.962170921021044956e+00 5.118942861756581806e+02
1.962270945026806324e+00 5.118937024338709989e+02
1.962370969032567691e+00 5.118930552683156634e+02
1.962470993038329059e+00 5.118923446005020992e+02
1.962571017044090427e+00 5.118915703538571051e+02
1.962671041049851794e+00 5.118907324537263435e+02
1.962771065055613162e+00 5.118898308273783186e+02
1.962871089061374530e+00 5.118888654040082429e+02
1.962971113067135898e+00 5.118878361147428109e+02
1.963071137072897265e+00 5.118867428926423599e+02
1.963171161078658633e+00 5.118855856727051901e+02
1.963271185084420001e+00 5.118843643918702924e+02
1.963371209090181368e+00 5.118830789890225788e+02
1.963471233095943180e+00 5.118817294049942461e+02
1.963571257101704326e+00 5.118803155825692102e+02
1.963671281107465916e+00 5.118788374664854359e+02
1.963771305113227061e+00 5.118772950034396558e+02
1.963871329118988651e+00 5.118756881420883929e+02
1.963971353124749797e+00 5.118740168330520532e+02
1.964071377130511387e+00 5.118722810289189056e+02
1.964171401136272532e+00 5.118704806842466724e+02
1.964271425142034122e+00 5.118686157555646332e+02
1.964371449147795268e+00 5.118666862013785135e+02
1.964471473153556857e+00 5.118646919821705410e+02
1.964571497159318003e+00 5.118626330604053010e+02
1.964671521165079593e+00 5.118605094005292813e+02
1.964771545170840739e+00 5.118583209689746241e+02
1.964871569176602328e+00 5.118560677341623091e+02
1.964971593182363474e+00 5.118537496665024946e+02
1.965071617188125064e+00 5.118513667383988945e+02
1.965171641193886209e+00 5.118489189242484372e+02
1.965271665199648021e+00 5.118464062004476318e+02
1.965371689205409389e+00 5.118438285453890444e+02
1.965471713211170757e+00 5.118411859394680050e+02
1.965571737216932124e+00 5.118384783650819827e+02
1.965671761222693492e+00 5.118357058066332002e+02
1.965771785228454860e+00 5.118328682505305096e+02
1.965871809234216228e+00 5.118299656851905866e+02
1.965971833239977595e+00 5.118269981010398624e+02
1.966071857245738963e+00 5.118239654905171960e+02
1.966171881251500331e+00 5.118208678480726235e+02
1.966271905257261698e+00 5.118177051701717346e+02
1.966371929263023066e+00 5.118144774552948775e+02
1.966471953268784434e+00 5.118111847039396025e+02
1.966571977274545802e+00 5.118078269186220268e+02
1.966672001280307169e+00 5.118044041038763226e+02
1.966772025286068537e+00 5.118009162662581275e+02
1.966872049291829905e+00 5.117973634143432378e+02
1.966972073297591272e+00 5.117937455587306772e+02
1.967072097303352640e+00 5.117900627120418449e+02
1.967172121309114230e+00 5.117863148889222771e+02
1.967272145314875598e+00 5.117825021060419317e+02
1.967372169320636965e+00 5.117786243820958134e+02
1.967472193326398333e+00 5.117746817378040305e+02
1.967572217332159701e+00 5.117706741959143528e+02
1.967672241337921069e+00 5.117666017811997676e+02
1.967772265343682436e+00 5.117624645204609806e+02
1.967872289349443804e+00 5.117582624425261884e+02
1.967972313355205172e+00 5.117539955782492598e+02
1.968072337360966539e+00 5.117496639605144537e+02
1.968172361366727907e+00 5.117452676242303937e+02
1.968272385372489275e+00 5.117408066063367755e+02
1.968372409378250643e+00 5.117362809457969774e+02
1.968472433384012010e+00 5.117316906836051658e+02
1.968572457389773378e+00 5.117270358627807809e+02
1.968672481395534746e+00 5.117223165283705839e+02
1.968772505401296113e+00 5.117175327274470078e+02
1.968872529407057481e+00 5.117126845091094651e+02
1.968972553412819071e+00 5.117077719244824152e+02
1.969072577418580439e+00 5.117027950267152505e+02
1.969172601424341806e+00 5.116977538709815576e+02
1.969272625430103174e+00 5.116926485144779235e+02
1.969372649435864542e+00 5.116874790164237083e+02
1.969472673441625910e+00 5.116822454380605905e+02
1.969572697447387277e+00 5.116769478426508613e+02
1.969672721453148645e+00 5.116715862954758904e+02
1.969772745458910013e+00 5.116661608638365237e+02
1.969872769464671380e+00 5.116606716170504114e+02
1.969972793470432748e+00 5.116551186264513262e+02
1.970072817476194116e+00 5.116495019653890495e+02
1.970172841481955484e+00 5.116438217092261311e+02
1.970272865487716851e+00 5.116380779353366961e+02
1.970372889493478219e+00 5.116322707231061599e+02
1.970472913499239587e+00 5.116264001539287278e+02
1.970572937505000954e+00 5.116204663112051776e+02
1.970672961510762322e+00 5.116144692803424050e+02
1.970772985516523690e+00 5.116084091487510364e+02
1.970873009522285280e+00 5.116022860058419042e+02
1.970973033528046869e+00 5.115960999430283778e+02
1.971073057533808015e+00 5.115898510537186894e+02
1.971173081539569605e+00 5.115835394333186059e+02
1.971273105545330750e+00 5.115771651792261423e+02
1.971373129551092340e+00 5.115707283908308227e+02
1.971473153556853486e+00 5.115642291695114068e+02
1.971573177562615076e+00 5.115576676186327632e+02
1.971673201568376221e+00 5.115510438435430842e+02
1.971773225574137811e+00 5.115443579515725787e+02
1.971873249579898957e+00 5.115376100520303453e+02
1.971973273585660547e+00 5.115308002562008483e+02
1.972073297591421692e+00 5.115239286773422123e+02
1.972173321597183282e+00 5.115169954306833802e+02
1.972273345602944428e+00 5.115100006334201339e+02
1.972373369608706017e+00 5.115029444047133325e+02
1.972473393614467163e+00 5.114958268656845917e+02
1.972573417620228753e+00 5.114886481394153179e+02
1.972673441625990343e+00 5.114814083509411944e+02
1.972773465631751710e+00 5.114741076272491682e+02
1.972873489637513078e+00 5.114667460972760864e+02
1.972973513643274446e+00 5.114593238919030682e+02
1.973073537649035814e+00 5.114518411439537431e+02
1.973173561654797181e+00 5.114442979881884526e+02
1.973273585660558549e+00 5.114366945613039661e+02
1.973373609666319917e+00 5.114290310019261483e+02
1.973473633672081284e+00 5.114213074506093335e+02
1.973573657677842652e+00 5.114135240498302437e+02
1.973673681683604020e+00 5.114056809439852600e+02
1.973773705689365388e+00 5.113977782793860456e+02
1.973873729695126755e+00 5.113898162042550553e+02
1.973973753700888123e+00 5.113817948687232047e+02
1.974073777706649491e+00 5.113737144248234472e+02
1.974173801712410858e+00 5.113655750264877042e+02
1.974273825718172226e+00 5.113573768295427726e+02
1.974373849723933594e+00 5.113491199917052654e+02
1.974473873729694962e+00 5.113408046725760414e+02
1.974573897735456551e+00 5.113324310336400913e+02
1.974673921741217919e+00 5.113239992382560217e+02
1.974773945746979287e+00 5.113155094516552026e+02
1.974873969752740654e+00 5.113069618409372197e+02
1.974973993758502022e+00 5.112983565750617458e+02
1.975074017764263390e+00 5.112896938248474612e+02
1.975174041770024758e+00 5.112809737629645497e+02
1.975274065775786125e+00 5.112721965639320842e+02
1.975374089781547493e+00 5.112633624041096141e+02
1.975474113787308861e+00 5.112544714616951183e+02
1.975574137793070228e+00 5.112455239167180139e+02
1.975674161798831596e+00 5.112365199510350067e+02
1.975774185804592964e+00 5.112274597483233265e+02
1.975874209810354332e+00 5.112183434940769189e+02
1.975974233816115699e+00 5.112091713755992828e+02
1.976074257821877067e+00 5.111999435820003441e+02
1.976174281827638435e+00 5.111906603041883841e+02
1.976274305833399803e+00 5.111813217348644116e+02
1.976374329839161392e+00 5.111719280685184685e+02
1.976474353844922760e+00 5.111624795014230926e+02
1.976574377850684128e+00 5.111529762316251890e+02
1.976674401856445495e+00 5.111434184589439269e+02
1.976774425862206863e+00 5.111338063849608488e+02
1.976874449867968231e+00 5.111241402130170854e+02
1.976974473873729599e+00 5.111144201482044309e+02
1.977074497879490966e+00 5.111046463973611935e+02
1.977174521885252334e+00 5.110948191690651470e+02
1.977274545891013702e+00 5.110849386736276756e+02
1.977374569896775069e+00 5.110750051230853614e+02
1.977474593902536437e+00 5.110650187311968011e+02
1.977574617908297805e+00 5.110549797134336814e+02
1.977674641914059173e+00 5.110448882869737872e+02
1.977774665919820540e+00 5.110347446706966252e+02
1.977874689925581908e+00 5.110245490851759769e+02
1.977974713931343276e+00 5.110143017526708036e+02
1.978074737937104643e+00 5.110040028971218362e+02
1.978174761942866011e+00 5.109936527441419116e+02
1.978274785948627823e+00 5.109832515210107431e+02
1.978374809954388969e+00 5.109727994566670191e+02
1.978474833960150558e+00 5.109622967817014683e+02
1.978574857965911704e+00 5.109517437283502659e+02
1.978674881971673294e+00 5.109411405304864502e+02
1.978774905977434440e+00 5.109304874236137266e+02
1.978874929983196029e+00 5.109197846448599876e+02
1.978974953988957175e+00 5.109090324329670239e+02
1.979074977994718765e+00 5.108982310282866592e+02
1.979175002000479910e+00 5.108873806727701776e+02
1.979275026006241500e+00 5.108764816099618429e+02
1.979375050012002646e+00 5.108655340849926461e+02
1.979475074017764236e+00 5.108545383445705852e+02
1.979575098023525381e+00 5.108434946369729346e+02
1.979675122029286971e+00 5.108324032120405604e+02
1.979775146035048117e+00 5.108212643211677459e+02
1.979875170040809707e+00 5.108100782172950858e+02
1.979975194046570852e+00 5.107988451549022102e+02
1.980075218052332664e+00 5.107875653899985764e+02
1.980175242058094032e+00 5.107762391801157378e+02
1.980275266063855399e+00 5.107648667842995565e+02
1.980375290069616767e+00 5.107534484631015630e+02
1.980475314075378135e+00 5.107419844785700889e+02
1.980575338081139503e+00 5.107304750942443548e+02
1.980675362086900870e+00 5.107189205751424765e+02
1.980775386092662238e+00 5.107073211877557242e+02
1.980875410098423606e+00 5.106956772000399951e+02
1.980975434104184973e+00 5.106839888814046731e+02
1.981075458109946341e+00 5.106722565027075689e+02
1.981175482115707709e+00 5.106604803362419034e+02
1.981275506121469077e+00 5.106486606557334653e+02
1.981375530127230444e+00 5.106367977363258888e+02
1.981475554132991812e+00 5.106248918545754236e+02
1.981575578138753180e+00 5.106129432884405901e+02
1.981675602144514547e+00 5.106009523172741638e+02
1.981775626150275915e+00 5.105889192218135122e+02
1.981875650156037283e+00 5.105768442841712158e+02
1.981975674161798873e+00 5.105647277878271098e+02
1.982075698167560240e+00 5.105525700176184500e+02
1.982175722173321608e+00 5.105403712597302501e+02
1.982275746179082976e+00 5.105281318016872092e+02
1.982375770184844344e+00 5.105158519323426844e+02
1.982475794190605711e+00 5.105035319418716426e+02
1.982575818196367079e+00 5.104911721217586091e+02
1.982675842202128447e+00 5.104787727647906195e+02
1.982775866207889814e+00 5.104663341650465895e+02
1.982875890213651182e+00 5.104538566178873680e+02
1.982975914219412550e+00 5.104413404199463002e+02
1.983075938225173918e+00 5.104287858691207020e+02
1.983175962230935285e+00 5.104161932645606043e+02
1.983275986236696653e+00 5.104035629066605111e+02
1.983376010242458021e+00 5.103908950970478600e+02
1.983476034248219388e+00 5.103781901385746096e+02
1.983576058253980756e+00 5.103654483353067803e+02
1.983676082259742124e+00 5.103526699925146772e+02
1.983776106265503714e+00 5.103398554166629992e+02
1.983876130271265081e+00 5.103270049153994705e+02
1.983976154277026449e+00 5.103141187975475077e+02
1.984076178282787817e+00 5.103011973730936006e+02
1.984176202288549185e+00 5.102882409531777625e+02
1.984276226294310552e+00 5.102752498500844354e+02
1.984376250300071920e+00 5.102622243772308934e+02
1.984476274305833288e+00 5.102491648491567844e+02
1.984576298311594655e+00 5.102360715815160574e+02
1.984676322317356023e+00 5.102229448910630936e+02
1.984776346323117391e+00 5.102097850956460547e+02
1.984876370328878759e+00 5.101965925141923890e+02
1.984976394334640126e+00 5.101833674667020659e+02
1.985076418340401494e+00 5.101701102742342755e+02
1.985176442346162862e+00 5.101568212588992992e+02
1.985276466351924229e+00 5.101435007438451521e+02
1.985376490357685597e+00 5.101301490532481466e+02
1.985476514363446965e+00 5.101167665123035704e+02
1.985576538369208333e+00 5.101033534472127826e+02
1.985676562374969922e+00 5.100899101851726414e+02
1.985776586380731512e+00 5.100764370543672044e+02
1.985876610386492658e+00 5.100629343839526086e+02
1.985976634392254248e+00 5.100494025040501356e+02
1.986076658398015393e+00 5.100358417457334212e+02
1.986176682403776983e+00 5.100222524410162350e+02
1.986276706409538129e+00 5.100086349228448626e+02
1.986376730415299718e+00 5.099949895250836107e+02
1.986476754421060864e+00 5.099813165825059968e+02
1.986576778426822454e+00 5.099676164307817885e+02
1.986676802432583600e+00 5.099538894064680790e+02
1.986776826438345189e+00 5.099401358469962133e+02
1.986876850444106335e+00 5.099263560906608745e+02
1.986976874449867925e+00 5.099125504766088852e+02
1.987076898455629070e+00 5.098987193448290896e+02
1.987176922461390660e+00 5.098848630361396204e+02
1.987276946467151806e+00 5.098709818921765873e+02
1.987376970472913396e+00 5.098570762553827080e+02
1.987476994478674985e+00 5.098431464689973041e+02
1.987577018484436353e+00 5.098291928770425443e+02
1.987677042490197721e+00 5.098152158243138956e+02
1.987777066495959088e+00 5.098012156563681287e+02
1.987877090501720456e+00 5.097871927195095623e+02
1.987977114507481824e+00 5.097731473607822181e+02
1.988077138513243192e+00 5.097590799279558951e+02
1.988177162519004559e+00 5.097449907695141746e+02
1.988277186524765927e+00 5.097308802346441325e+02
1.988377210530527295e+00 5.097167486732241741e+02
1.988477234536288663e+00 5.097025964358117562e+02
1.988577258542050030e+00 5.096884238736316775e+02
1.988677282547811398e+00 5.096742313385653347e+02
1.988777306553572766e+00 5.096600191831377629e+02
1.988877330559334133e+00 5.096457877605060389e+02
1.988977354565095501e+00 5.096315374244476857e+02
1.989077378570856869e+00 5.096172685293490758e+02
1.989177402576618237e+00 5.096029814301924716e+02
1.989277426582379604e+00 5.095886764825448267e+02
1.989377450588141194e+00 5.095743540425464744e+02
1.989477474593902562e+00 5.095600144668969733e+02
1.989577498599663929e+00 5.095456581128451035e+02
1.989677522605425297e+00 5.095312853381771561e+02
1.989777546611186665e+00 5.095168965012022682e+02
1.989877570616948033e+00 5.095024919607428728e+02
1.989977594622709400e+00 5.094880720761217958e+02
1.990077618628470768e+00 5.094736372071498067e+02
1.990177642634232136e+00 5.094591877141131135e+02
1.990277666639993503e+00 5.094447239577632445e+02
1.990377690645754871e+00 5.094302462993020981e+02
1.990477714651516239e+00 5.094157551003719391e+02
1.990577738657277607e+00 5.094012507230407891e+02
1.990677762663038974e+00 5.093867335297937871e+02
1.990777786668800342e+00 5.093722038835171588e+02
1.990877810674561710e+00 5.093576621474883268e+02
1.990977834680323078e+00 5.093431086853623242e+02
1.991077858686084445e+00 5.093285438611612790e+02
1.991177882691846035e+00 5.093139680392596347e+02
1.991277906697607403e+00 5.092993815843730658e+02
1.991377930703368770e+00 5.092847848615465978e+02
1.991477954709130138e+00 5.092701782361424989e+02
1.991577978714891506e+00 5.092555620738249331e+02
1.991678002720652874e+00 5.092409367405510920e+02
1.991778026726414241e+00 5.092263026025585191e+02
1.991878050732175609e+00 5.092116600263486816e+02
1.991978074737936977e+00 5.091970093786796383e+02
1.992078098743698344e+00 5.091823510265520554e+02
1.992178122749459712e+00 5.091676853371938591e+02
1.992278146755221080e+00 5.091530126780506862e+02
1.992378170760982448e+00 5.091383334167741168e+02
1.992478194766743815e+00 5.091236479212054178e+02
1.992578218772505183e+00 5.091089565593674706e+02
1.992678242778266551e+00 5.090942596994491396e+02
1.992778266784027918e+00 5.090795577097935620e+02
1.992878290789789286e+00 5.090648509588866659e+02
1.992978314795550654e+00 5.090501398153430728e+02
1.993078338801312466e+00 5.090354246478949563e+02
1.993178362807073611e+00 5.090207058253774335e+02
1.993278386812835201e+00 5.090059837167186743e+02
1.993378410818596347e+00 5.089912586909260881e+02
1.993478434824357937e+00 5.089765311170722271e+02
1.993578458830119082e+00 5.089618013642859751e+02
1.993678482835880672e+00 5.089470698017354948e+02
1.993778506841641818e+00 5.089323367986190192e+02
1.993878530847403407e+00 5.089176027241502425e+02
1.993978554853164553e+00 5.089028679475480885e+02
1.994078578858926143e+00 5.088881328380203968e+02
1.994178602864687289e+00 5.088733977647550546e+02
1.994278626870448878e+00 5.088586630969060707e+02
1.994378650876210024e+00 5.088439292035788526e+02
1.994478674881971614e+00 5.088291964538218508e+02
1.994578698887732759e+00 5.088144652166096193e+02
1.994678722893494349e+00 5.087997358608332661e+02
1.994778746899255495e+00 5.087850087552871514e+02
1.994878770905017307e+00 5.087702842686549616e+02
1.994978794910778674e+00 5.087555627694979989e+02
1.995078818916540042e+00 5.087408446262437565e+02
1.995178842922301410e+00 5.087261302071712521e+02
1.995278866928062778e+00 5.087114198803997738e+02
1.995378890933824145e+00 5.086967140138755781e+02
1.995478914939585513e+00 5.086820129753597826e+02
1.995578938945346881e+00 5.086673171324168834e+02
1.995678962951108248e+00 5.086526268523987824e+02
1.995778986956869616e+00 5.086379425024358056e+02
1.995879010962630984e+00 5.086232644494218675e+02
1.995979034968392352e+00 5.086085930600038409e+02
1.996079058974153719e+00 5.085939287005667211e+02
1.996179082979915087e+00 5.085792717372233938e+02
1.996279106985676455e+00 5.085646225357999697e+02
1.996379130991437822e+00 5.085499814618247001e+02
1.996479154997199190e+00 5.085353488805156417e+02
1.996579179002960558e+00 5.085207251567660478e+02
1.996679203008721926e+00 5.085061106551346484e+02
1.996779227014483515e+00 5.084915057398312683e+02
1.996879251020244883e+00 5.084769107747052885e+02
1.996979275026006251e+00 5.084623261232321738e+02
1.997079299031767619e+00 5.084477521485019906e+02
1.997179323037528986e+00 5.084331892132065605e+02
1.997279347043290354e+00 5.084186376796276363e+02
1.997379371049051722e+00 5.084040979096230330e+02
1.997479395054813089e+00 5.083895702646149743e+02
1.997579419060574457e+00 5.083750551055791789e+02
1.997679443066335825e+00 5.083605527930296262e+02
1.997779467072097193e+00 5.083460636870083249e+02
1.997879491077858560e+00 5.083315881470720115e+02
1.997979515083619928e+00 5.083171265322807812e+02
1.998079539089381296e+00 5.083026792011842190e+02
1.998179563095142663e+00 5.082882465118104847e+02
1.998279587100904031e+00 5.082738288216528417e+02
1.998379611106665399e+00 5.082594264876594252e+02
1.998479635112426767e+00 5.082450398662182351e+02
1.998579659118188356e+00 5.082306693131467910e+02
1.998679683123949724e+00 5.082163151836787733e+02
1.998779707129711092e+00 5.082019778324531671e+02
1.998879731135472460e+00 5.081876576135016990e+02
1.998979755141233827e+00 5.081733548802350811e+02
1.999079779146995195e+00 5.081590699854333479e+02
1.999179803152756563e+00 5.081448032812308497e+02
1.999279827158517930e+00 5.081305551191079530e+02
1.999379851164279298e+00 5.081163258498752384e+02
1.999479875170040666e+00 5.081021158236633255e+02
1.999579899175802034e+00 5.080879253899113905e+02
1.999679923181563401e+00 5.080737548973522735e+02
1.999779947187324769e+00 5.080596046940053725e+02
1.999879971193086137e+00 5.080454751271595342e+02
1.999979995198847504e+00 5.080313665433643564e+02
2.000080019204609094e+00 4.453045592477955665e+02
2.000180043210370240e+00 4.450628360854515790e+02
2.000280067216131830e+00 4.448211246218915562e+02
2.000380091221892975e+00 4.445794289234290204e+02
2.000480115227654565e+00 4.443377530576539698e+02
2.000580139233416155e+00 4.440961010933223179e+02
2.000680163239177300e+00 4.438544771002430593e+02
2.000780187244938890e+00 4.436128851491645833e+02
2.000880211250700036e+00 4.433713293116642831e+02
2.000980235256461626e+00 4.431298136600364614e+02
2.001080259262222771e+00 4.428883422671785297e+02
2.001180283267984361e+00 4.426469192064800495e+02
2.001280307273745507e+00 4.424055485517098987e+02
2.001380331279507097e+00 4.421642343769029821e+02
2.001480355285268242e+00 4.419229807562493306e+02
2.001580379291029832e+00 4.416817917639802431e+02
2.001680403296790978e+00 4.414406714742571580e+02
2.001780427302552567e+00 4.411996239610573980e+02
2.001880451308313713e+00 4.409586532980620177e+02
2.001980475314075303e+00 4.407177635585460393e+02
2.002080499319836449e+00 4.404769588152604456e+02
2.002180523325598038e+00 4.402362431403240066e+02
2.002280547331359628e+00 4.399956206051098206e+02
2.002380571337120774e+00 4.397550952801311723e+02
2.002480595342882363e+00 4.395146712349298923e+02
2.002580619348643509e+00 4.392743525379643188e+02
2.002680643354405099e+00 4.390341432564946444e+02
2.002780667360166245e+00 4.387940474564737769e+02
2.002880691365927834e+00 4.385540692024307532e+02
2.002980715371688980e+00 4.383142125573606904e+02
2.003080739377450570e+00 4.380744815826128615e+02
2.003180763383211715e+00 4.378348803377749618e+02
2.003280787388973305e+00 4.375954128805632877e+02
2.003380811394734451e+00 4.373560832667102432e+02
2.003480835400496041e+00 4.371168955498507103e+02
2.003580859406257186e+00 4.368778537814108063e+02
2.003680883412018776e+00 4.366389620104939695e+02
2.003780907417779922e+00 4.364002242837702283e+02
2.003880931423541512e+00 4.361616446453633671e+02
2.003980955429302657e+00 4.359232271367397971e+02
2.004080979435064247e+00 4.356849757965931644e+02
2.004181003440825837e+00 4.354468946607372004e+02
2.004281027446586982e+00 4.352089877619886806e+02
2.004381051452348572e+00 4.349712591300599343e+02
2.004481075458110162e+00 4.347337127914435086e+02
2.004581099463871308e+00 4.344963527693036554e+02
2.004681123469632453e+00 4.342591830833607105e+02
2.004781147475394043e+00 4.340222077497828082e+02
2.004881171481155633e+00 4.337854307810743535e+02
2.004981195486916778e+00 4.335488561859613696e+02
2.005081219492677924e+00 4.333124879692836089e+02
2.005181243498439514e+00 4.330763301318823437e+02
2.005281267504201104e+00 4.328403866704879874e+02
2.005381291509962249e+00 4.326046615776105000e+02
2.005481315515723395e+00 4.323691588414280886e+02
2.005581339521484985e+00 4.321338824456768748e+02
2.005681363527246575e+00 4.318988363695387420e+02
2.005781387533007720e+00 4.316640245875324808e+02
2.005881411538768866e+00 4.314294510694027736e+02
2.005981435544530900e+00 4.311951197800093496e+02
2.006081459550292045e+00 4.309610346792179598e+02
2.006181483556053635e+00 4.307271997217890203e+02
2.006281507561814781e+00 4.304936188572692117e+02
2.006381531567576371e+00 4.302602960298805783e+02
2.006481555573337516e+00 4.300272351784113312e+02
2.006581579579099106e+00 4.297944402361067091e+02
2.006681603584860252e+00 4.295619151305595551e+02
2.006781627590621842e+00 4.293296637836002105e+02
2.006881651596382987e+00 4.290976901111898769e+02
2.006981675602144577e+00 4.288659980233086912e+02
2.007081699607905723e+00 4.286345914238506225e+02
2.007181723613667312e+00 4.284034742105115470e+02
2.007281747619428458e+00 4.281726502746843153e+02
2.007381771625190048e+00 4.279421235013475666e+02
2.007481795630951193e+00 4.277118977689600570e+02
2.007581819636712783e+00 4.274819769493515196e+02
2.007681843642473929e+00 4.272523649076165384e+02
2.007781867648235519e+00 4.270230655020060908e+02
2.007881891653997108e+00 4.267940825838199430e+02
2.007981915659758254e+00 4.265654199973023424e+02
2.008081939665519844e+00 4.263370815795317412e+02
2.008181963671280990e+00 4.261090711603168302e+02
2.008281987677042579e+00 4.258813925620894452e+02
2.008382011682803725e+00 4.256540495997979860e+02
2.008482035688565315e+00 4.254270460808022563e+02
2.008582059694326460e+00 4.252003858047681319e+02
2.008682083700088050e+00 4.249740725635600143e+02
2.008782107705849196e+00 4.247481101411389659e+02
2.008882131711610786e+00 4.245225023134544813e+02
2.008982155717371931e+00 4.242972528483426800e+02
2.009082179723133521e+00 4.240723655054188725e+02
2.009182203728894667e+00 4.238478440359759816e+02
2.009282227734656257e+00 4.236236921828786990e+02
2.009382251740417402e+00 4.233999136804603154e+02
2.009482275746178992e+00 4.231765122544208566e+02
2.009582299751940138e+00 4.229534916217196496e+02
2.009682323757701727e+00 4.227308554904774951e+02
2.009782347763463317e+00 4.225086075598699722e+02
2.009882371769224463e+00 4.222867515200274511e+02
2.009982395774986053e+00 4.220652910519314673e+02
2.010082419780747198e+00 4.218442298273131428e+02
2.010182443786508788e+00 4.216235715085521178e+02
2.010282467792269934e+00 4.214033197485753135e+02
2.010382491798031523e+00 4.211834781907541014e+02
2.010482515803792669e+00 4.209640504688056240e+02
2.010582539809554259e+00 4.207450402066919537e+02
2.010682563815315405e+00 4.205264510185187987e+02
2.010782587821076994e+00 4.203082865084367086e+02
2.010882611826838140e+00 4.200905502705403478e+02
2.010982635832599730e+00 4.198732458887712369e+02
2.011082659838360875e+00 4.196563769368161729e+02
2.011182683844122465e+00 4.194399469780105392e+02
2.011282707849883611e+00 4.192239595652390562e+02
2.011382731855645201e+00 4.190084182408383526e+02
2.011482755861406346e+00 4.187933265364985687e+02
2.011582779867167936e+00 4.185786879731662680e+02
2.011682803872929526e+00 4.183645060609478605e+02
2.011782827878691116e+00 4.181507842990110362e+02
2.011882851884452261e+00 4.179375261754915982e+02
2.011982875890213407e+00 4.177247351673940443e+02
2.012082899895974997e+00 4.175124147404980590e+02
2.012182923901736586e+00 4.173005683492625622e+02
2.012282947907497732e+00 4.170891994367296434e+02
2.012382971913258878e+00 4.168783114344307137e+02
2.012482995919020468e+00 4.166679077622936802e+02
2.012583019924782057e+00 4.164579918285459144e+02
2.012683043930543203e+00 4.162485670296229614e+02
2.012783067936304349e+00 4.160396367500744645e+02
2.012883091942065938e+00 4.158312043624704870e+02
2.012983115947827528e+00 4.156232732273113584e+02
2.013083139953588674e+00 4.154158466929324049e+02
2.013183163959349820e+00 4.152089280954141373e+02
2.013283187965111409e+00 4.150025207584910731e+02
2.013383211970872999e+00 4.147966279934598219e+02
2.013483235976634589e+00 4.145912530990885898e+02
2.013583259982395735e+00 4.143863993615261734e+02
2.013683283988157324e+00 4.141820700542139093e+02
2.013783307993918470e+00 4.139782684377954070e+02
2.013883331999680060e+00 4.137749977600269631e+02
2.013983356005441205e+00 4.135722612556878630e+02
2.014083380011202795e+00 4.133700621464959113e+02
2.014183404016963941e+00 4.131684036410143221e+02
2.014283428022725531e+00 4.129672889345693534e+02
2.014383452028486676e+00 4.127667212091595843e+02
2.014483476034248266e+00 4.125667036333700821e+02
2.014583500040009412e+00 4.123672393622879326e+02
2.014683524045771001e+00 4.121683315374141330e+02
2.014783548051532147e+00 4.119699832865786107e+02
2.014883572057293737e+00 4.117721977238574596e+02
2.014983596063054883e+00 4.115749779494851168e+02
2.015083620068816472e+00 4.113783270497722242e+02
2.015183644074577618e+00 4.111822480970214997e+02
2.015283668080339208e+00 4.109867441494446894e+02
2.015383692086100798e+00 4.107918182510794622e+02
2.015483716091861943e+00 4.105974734317067032e+02
2.015583740097623533e+00 4.104037127067693405e+02
2.015683764103384679e+00 4.102105390772902638e+02
2.015783788109146268e+00 4.100179555297912088e+02
2.015883812114907414e+00 4.098259650362131765e+02
2.015983836120669004e+00 4.096345705538350330e+02
2.016083860126430150e+00 4.094437750251935313e+02
2.016183884132191739e+00 4.092535813780067429e+02
2.016283908137952885e+00 4.090639925250912370e+02
2.016383932143714475e+00 4.088750113642869337e+02
2.016483956149475620e+00 4.086866407783789441e+02
2.016583980155237210e+00 4.084988836350181600e+02
2.016684004160998356e+00 4.083117427866471303e+02
2.016784028166759946e+00 4.081252210704196273e+02
2.016884052172521091e+00 4.079393213081309568e+02
2.016984076178282681e+00 4.077540463061353648e+02
2.017084100184044271e+00 4.075693988552765177e+02
2.017184124189805416e+00 4.073853817308096268e+02
2.017284148195567006e+00 4.072019976923298259e+02
2.017384172201328152e+00 4.070192494836968535e+02
2.017484196207089742e+00 4.068371398329628619e+02
2.017584220212850887e+00 4.066556714522998277e+02
2.017684244218612477e+00 4.064748470379269065e+02
2.017784268224373623e+00 4.062946692700395488e+02
2.017884292230135213e+00 4.061151408127382183e+02
2.017984316235896358e+00 4.059362643139576790e+02
2.018084340241657948e+00 4.057580424053975321e+02
2.018184364247419094e+00 4.055804777024514465e+02
2.018284388253180683e+00 4.054035728041394009e+02
2.018384412258941829e+00 4.052273302930386762e+02
2.018484436264703419e+00 4.050517527352158140e+02
2.018584460270464565e+00 4.048768426801582336e+02
2.018684484276226154e+00 4.047026026607094309e+02
2.018784508281987300e+00 4.045290351930000270e+02
2.018884532287748890e+00 4.043561427763842175e+02
2.018984556293510479e+00 4.041839278933722426e+02
2.019084580299272069e+00 4.040123930095669493e+02
2.019184604305033215e+00 4.038415405735984223e+02
2.019284628310794361e+00 4.036713730170611711e+02
2.019384652316555950e+00 4.035018927544493295e+02
2.019484676322317540e+00 4.033331021830970258e+02
2.019584700328078686e+00 4.031650036831109674e+02
2.019684724333839831e+00 4.029975996173151316e+02
2.019784748339601421e+00 4.028308923311832359e+02
2.019884772345363011e+00 4.026648841527830882e+02
2.019984796351124157e+00 4.024995773927141158e+02
2.020084820356885302e+00 4.023349743440484758e+02
2.020184844362646892e+00 4.021710772822716535e+02
2.020284868368408482e+00 4.020078884652255056e+02
2.020384892374169628e+00 4.018454101330476078e+02
2.020484916379930773e+00 4.016836445081175953e+02
2.020584940385692363e+00 4.015225937949962258e+02
2.020684964391453953e+00 4.013622601803743351e+02
2.020784988397215542e+00 4.012026458330110472e+02
2.020885012402976688e+00 4.010437529036848900e+02
2.020985036408738278e+00 4.008855835251353028e+02
2.021085060414499424e+00 4.007281398120085214e+02
2.021185084420261013e+00 4.005714238608073288e+02
2.021285108426022159e+00 4.004154377498361441e+02
2.021385132431783749e+00 4.002601835391478744e+02
2.021485156437544894e+00 4.001056632704950857e+02
2.021585180443306484e+00 3.999518789672757748e+02
2.021685204449067630e+00 3.997988326344851657e+02
2.021785228454829220e+00 3.996465262586643803e+02
2.021885252460590365e+00 3.994949618078529170e+02
2.021985276466351955e+00 3.993441412315370940e+02
2.022085300472113101e+00 3.991940664606048585e+02
2.022185324477874691e+00 3.990447394072946281e+02
2.022285348483635836e+00 3.988961619651530555e+02
2.022385372489397426e+00 3.987483360089835287e+02
2.022485396495158572e+00 3.986012633948041639e+02
2.022585420500920161e+00 3.984549459598002272e+02
2.022685444506681751e+00 3.983093855222803086e+02
2.022785468512442897e+00 3.981645838816332343e+02
2.022885492518204487e+00 3.980205428182819674e+02
2.022985516523965632e+00 3.978772640936430207e+02
2.023085540529727222e+00 3.977347494500842799e+02
2.023185564535488368e+00 3.975930006108803809e+02
2.023285588541249957e+00 3.974520192801758185e+02
2.023385612547011103e+00 3.973118071429414613e+02
2.023485636552772693e+00 3.971723658649345907e+02
2.023585660558533839e+00 3.970336970926622939e+02
2.023685684564295428e+00 3.968958024533393996e+02
2.023785708570056574e+00 3.967586835548523823e+02
2.023885732575818164e+00 3.966223419857217323e+02
2.023985756581579309e+00 3.964867793150648367e+02
2.024085780587340899e+00 3.963519970925595430e+02
2.024185804593102045e+00 3.962179968484073243e+02
2.024285828598863635e+00 3.960847800933019016e+02
2.024385852604624780e+00 3.959523483183906478e+02
2.024485876610386370e+00 3.958207029952425842e+02
2.024585900616147960e+00 3.956898455758159230e+02
2.024685924621909106e+00 3.955597774924238479e+02
2.024785948627670695e+00 3.954305001577037046e+02
2.024885972633431841e+00 3.953020149645851689e+02
2.024985996639193431e+00 3.951743232862593800e+02
2.025086020644954576e+00 3.950474264761487575e+02
2.025186044650716166e+00 3.949213258678782381e+02
2.025286068656477312e+00 3.947960227752453193e+02
2.025386092662238902e+00 3.946715184921927175e+02
2.025486116668000047e+00 3.945478142927798899e+02
2.025586140673761637e+00 3.944249114311567723e+02
2.025686164679522783e+00 3.943028111415362105e+02
2.025786188685284372e+00 3.941815146381696877e+02
2.025886212691045518e+00 3.940610231153216318e+02
2.025986236696807108e+00 3.939413377472436082e+02
2.026086260702568254e+00 3.938224596881523780e+02
2.026186284708329843e+00 3.937043900722055128e+02
2.026286308714090989e+00 3.935871300134787134e+02
2.026386332719853023e+00 3.934706806059433575e+02
2.026486356725614169e+00 3.933550429234473427e+02
2.026586380731375314e+00 3.932402180196910990e+02
2.026686404737136904e+00 3.931262069282103653e+02
2.026786428742898494e+00 3.930130106623542474e+02
2.026886452748659639e+00 3.929006302152677108e+02
2.026986476754420785e+00 3.927890665598735609e+02
2.027086500760182375e+00 3.926783206488537985e+02
2.027186524765943965e+00 3.925683934146336469e+02
2.027286548771705110e+00 3.924592857693638734e+02
2.027386572777466256e+00 3.923509986049069767e+02
2.027486596783227846e+00 3.922435327928199627e+02
2.027586620788989435e+00 3.921368891843417259e+02
2.027686644794750581e+00 3.920310686103782700e+02
2.027786668800511727e+00 3.919260718814898610e+02
2.027886692806273317e+00 3.918218997878776690e+02
2.027986716812034906e+00 3.917185530993730822e+02
2.028086740817796052e+00 3.916160325654261101e+02
2.028186764823557642e+00 3.915143389150937310e+02
2.028286788829319232e+00 3.914134728570314223e+02
2.028386812835080377e+00 3.913134350794824172e+02
2.028486836840841967e+00 3.912142262502698031e+02
2.028586860846603113e+00 3.911158470167880523e+02
2.028686884852364702e+00 3.910182980059962574e+02
2.028786908858125848e+00 3.909215798244103439e+02
2.028886932863887438e+00 3.908256930580968174e+02
2.028986956869648584e+00 3.907306382726681591e+02
2.029086980875410173e+00 3.906364160132774259e+02
2.029187004881171319e+00 3.905430268046144420e+02
2.029287028886932909e+00 3.904504711509007393e+02
2.029387052892694054e+00 3.903587495358881370e+02
2.029487076898455644e+00 3.902678624228554440e+02
2.029587100904216790e+00 3.901778102546072091e+02
2.029687124909978380e+00 3.900885934534725266e+02
2.029787148915739525e+00 3.900002124213045818e+02
2.029887172921501115e+00 3.899126675394802533e+02
2.029987196927262261e+00 3.898259591689020453e+02
2.030087220933023850e+00 3.897400876499981450e+02
2.030187244938785440e+00 3.896550533027261167e+02
2.030287268944546586e+00 3.895708564265745508e+02
2.030387292950308176e+00 3.894874973005661332e+02
2.030487316956069321e+00 3.894049761832627610e+02
2.030587340961830911e+00 3.893232933127703177e+02
2.030687364967592057e+00 3.892424489067415152e+02
2.030787388973353647e+00 3.891624431623842497e+02
2.030887412979114792e+00 3.890832762564676841e+02
2.030987436984876382e+00 3.890049483453294101e+02
2.031087460990637528e+00 3.889274595648813602e+02
2.031187484996399117e+00 3.888508100306212327e+02
2.031287509002160263e+00 3.887749998376401663e+02
2.031387533007921853e+00 3.887000290606317776e+02
2.031487557013682999e+00 3.886258977539028479e+02
2.031587581019444588e+00 3.885526059513857717e+02
2.031687605025205734e+00 3.884801536666478228e+02
2.031787629030967324e+00 3.884085408929053074e+02
2.031887653036728913e+00 3.883377676030349903e+02
2.031987677042490059e+00 3.882678337495878509e+02
2.032087701048251649e+00 3.881987392648046580e+02
2.032187725054012795e+00 3.881304840606288167e+02
2.032287749059774384e+00 3.880630680287223981e+02
2.032387773065535530e+00 3.879964910404817147e+02
2.032487797071297120e+00 3.879307529470560212e+02
2.032587821077058265e+00 3.878658535793614419e+02
2.032687845082819855e+00 3.878017927481016045e+02
2.032787869088581001e+00 3.877385702437846930e+02
2.032887893094342591e+00 3.876761858367422064e+02
2.032987917100103736e+00 3.876146392771505589e+02
2.033087941105865326e+00 3.875539302950492129e+02
2.033187965111626472e+00 3.874940586003638714e+02
2.033287989117388062e+00 3.874350238829254067e+02
2.033388013123149207e+00 3.873768258124948147e+02
2.033488037128910797e+00 3.873194640387838490e+02
2.033588061134671943e+00 3.872629381914799183e+02
2.033688085140433532e+00 3.872072478802696196e+02
2.033788109146195122e+00 3.871523926948618737e+02
2.033888133151956268e+00 3.870983722050175402e+02
2.033988157157717858e+00 3.870451859605695404e+02
2.034088181163479447e+00 3.869928334914548032e+02
2.034188205169240593e+00 3.869413143077367181e+02
2.034288229175001739e+00 3.868906278996361152e+02
2.034388253180763328e+00 3.868407737375583224e+02
2.034488277186524918e+00 3.867917512721225535e+02
2.034588301192286064e+00 3.867435599341912393e+02
2.034688325198047210e+00 3.866961991348987340e+02
2.034788349203808799e+00 3.866496682656849089e+02
2.034888373209570389e+00 3.866039666983245979e+02
2.034988397215331535e+00 3.865590937849599413e+02
2.035088421221092680e+00 3.865150488581336958e+02
2.035188445226854270e+00 3.864718312308200439e+02
2.035288469232615860e+00 3.864294401964613712e+02
2.035388493238377006e+00 3.863878750290005542e+02
2.035488517244138151e+00 3.863471349829178507e+02
2.035588541249900185e+00 3.863072192932627331e+02
2.035688565255661331e+00 3.862681271756953265e+02
2.035788589261422921e+00 3.862298578265180709e+02
2.035888613267184066e+00 3.861924104227159091e+02
2.035988637272945656e+00 3.861557841219936904e+02
2.036088661278706802e+00 3.861199780628144822e+02
2.036188685284468392e+00 3.860849913644383946e+02
2.036288709290229537e+00 3.860508231269623707e+02
2.036388733295991127e+00 3.860174724313599768e+02
2.036488757301752273e+00 3.859849383395240352e+02
2.036588781307513862e+00 3.859532198943058461e+02
2.036688805313275008e+00 3.859223161195582179e+02
2.036788829319036598e+00 3.858922260201772474e+02
2.036888853324797743e+00 3.858629485821467711e+02
2.036988877330559333e+00 3.858344827725810546e+02
2.037088901336320479e+00 3.858068275397689035e+02
2.037188925342082069e+00 3.857799818132192513e+02
2.037288949347843214e+00 3.857539445037058385e+02
2.037388973353604804e+00 3.857287145033138245e+02
2.037488997359366394e+00 3.857042906854858302e+02
2.037589021365127540e+00 3.856806719050692891e+02
2.037689045370889129e+00 3.856578569983635134e+02
2.037789069376650275e+00 3.856358447831693184e+02
2.037889093382411865e+00 3.856146340588355770e+02
2.037989117388173010e+00 3.855942236063112887e+02
2.038089141393934600e+00 3.855746121881924751e+02
2.038189165399695746e+00 3.855557985487753285e+02
2.038289189405457336e+00 3.855377814141052681e+02
2.038389213411218481e+00 3.855205594920291219e+02
2.038489237416980071e+00 3.855041314722477068e+02
2.038589261422741217e+00 3.854884960263674998e+02
2.038689285428502806e+00 3.854736518079539564e+02
2.038789309434263952e+00 3.854595974525868769e+02
2.038889333440025542e+00 3.854463315779107688e+02
2.038989357445786688e+00 3.854338527836952153e+02
2.039089381451548277e+00 3.854221596518844990e+02
2.039189405457309423e+00 3.854112507466571742e+02
2.039289429463071013e+00 3.854011246144808638e+02
2.039389453468832603e+00 3.853917797841693300e+02
2.039489477474593748e+00 3.853832147669407959e+02
2.039589501480355338e+00 3.853754280564742203e+02
2.039689525486116484e+00 3.853684181289696653e+02
2.039789549491878073e+00 3.853621834432051401e+02
2.039889573497639219e+00 3.853567224405981619e+02
2.039989597503400809e+00 3.853520335452649874e+02
2.040089621509161955e+00 3.853481151640804114e+02
2.040189645514923544e+00 3.853449656867392150e+02
2.040289669520684690e+00 3.853425834858185226e+02
2.040389693526446280e+00 3.853409669168390224e+02
2.040489717532207425e+00 3.853401143183276076e+02
2.040589741537969015e+00 3.853400240118800752e+02
2.040689765543730161e+00 3.853406943022262681e+02
2.040789789549491751e+00 3.853421234772922617e+02
2.040889813555252896e+00 3.853443098082647111e+02
2.040989837561014486e+00 3.853472515496590063e+02
2.041089861566775632e+00 3.853509469393804920e+02
2.041189885572537221e+00 3.853553941987933626e+02
2.041289909578298811e+00 3.853605915327866001e+02
2.041389933584060401e+00 3.853665371298405944e+02
2.041489957589821547e+00 3.853732291620945034e+02
2.041589981595582692e+00 3.853806657854145215e+02
2.041690005601344282e+00 3.853888451394619779e+02
2.041790029607105872e+00 3.853977653477629701e+02
2.041890053612867018e+00 3.854074245177765761e+02
2.041990077618628163e+00 3.854178207409652259e+02
2.042090101624389753e+00 3.854289520928659840e+02
2.042190125630151343e+00 3.854408166331591588e+02
2.042290149635912488e+00 3.854534124057415170e+02
2.042390173641673634e+00 3.854667374387965424e+02
2.042490197647435224e+00 3.854807897448670815e+02
2.042590221653196814e+00 3.854955673209290126e+02
2.042690245658957959e+00 3.855110681484623001e+02
2.042790269664719105e+00 3.855272901935250047e+02
2.042890293670480695e+00 3.855442314068287715e+02
2.042990317676242285e+00 3.855618897238119303e+02
2.043090341682003874e+00 3.855802630647126534e+02
2.043190365687765020e+00 3.855993493346480818e+02
2.043290389693526610e+00 3.856191464236865158e+02
2.043390413699287755e+00 3.856396522069252342e+02
2.043490437705049345e+00 3.856608645445664934e+02
2.043590461710810491e+00 3.856827812819950054e+02
2.043690485716572081e+00 3.857054002498538239e+02
2.043790509722333226e+00 3.857287192641241518e+02
2.043890533728094816e+00 3.857527361262023078e+02
2.043990557733855962e+00 3.857774486229793069e+02
2.044090581739617551e+00 3.858028545269175424e+02
2.044190605745378697e+00 3.858289515961337202e+02
2.044290629751140287e+00 3.858557375744757678e+02
2.044390653756901433e+00 3.858832101916046327e+02
2.044490677762663022e+00 3.859113671630746580e+02
2.044590701768424168e+00 3.859402061904142442e+02
2.044690725774185758e+00 3.859697249612079304e+02
2.044790749779946903e+00 3.859999211491773963e+02
2.044890773785708493e+00 3.860307924142650222e+02
2.044990797791470083e+00 3.860623364027139246e+02
2.045090821797231229e+00 3.860945507471546989e+02
2.045190845802992818e+00 3.861274330666852848e+02
2.045290869808753964e+00 3.861609809669569131e+02
2.045390893814515554e+00 3.861951920402572682e+02
2.045490917820276700e+00 3.862300638655954117e+02
2.045590941826038289e+00 3.862655940087856834e+02
2.045690965831799435e+00 3.863017800225350129e+02
2.045790989837561025e+00 3.863386194465261951e+02
2.045891013843322170e+00 3.863761098075048608e+02
2.045991037849083760e+00 3.864142486193665036e+02
2.046091061854844906e+00 3.864530333832420297e+02
2.046191085860606496e+00 3.864924615875843301e+02
2.046291109866367641e+00 3.865325307082574682e+02
2.046391133872129231e+00 3.865732382086229109e+02
2.046491157877890377e+00 3.866145815396284320e+02
2.046591181883651966e+00 3.866565581398947415e+02
2.046691205889413556e+00 3.866991654358072878e+02
2.046791229895174702e+00 3.867424008416017500e+02
2.046891253900936292e+00 3.867862617594569770e+02
2.046991277906697437e+00 3.868307455795806504e+02
2.047091301912459027e+00 3.868758496803038724e+02
2.047191325918220173e+00 3.869215714281672263e+02
2.047291349923981763e+00 3.869679081780141701e+02
2.047391373929742908e+00 3.870148572730811338e+02
2.047491397935504498e+00 3.870624160450884688e+02
2.047591421941265644e+00 3.871105818143323631e+02
2.047691445947027233e+00 3.871593518897772128e+02
2.047791469952788379e+00 3.872087235691464002e+02
2.047891493958549969e+00 3.872586941390163133e+02
2.047991517964311114e+00 3.873092608749074657e+02
2.048091541970072704e+00 3.873604210413802775e+02
2.048191565975833850e+00 3.874121718921246043e+02
2.048291589981595440e+00 3.874645106700566544e+02
2.048391613987356585e+00 3.875174346074107916e+02
2.048491637993118175e+00 3.875709409258352025e+02
2.048591661998879765e+00 3.876250268364848921e+02
2.048691686004641355e+00 3.876796895401180336e+02
2.048791710010402500e+00 3.877349262271893053e+02
2.048891734016163646e+00 3.877907340779463539e+02
2.048991758021925236e+00 3.878471102625240974e+02
2.049091782027686826e+00 3.879040519410423826e+02
2.049191806033447971e+00 3.879615562636994355e+02
2.049291830039209117e+00 3.880196203708708822e+02
2.049391854044970707e+00 3.880782413932032000e+02
2.049491878050732296e+00 3.881374164517138752e+02
2.049591902056493442e+00 3.881971426578858768e+02
2.049691926062254588e+00 3.882574171137648591e+02
2.049791950068016178e+00 3.883182369120586372e+02
2.049891974073777767e+00 3.883795991362330824e+02
2.049991998079538913e+00 3.884415008606105175e+02
2.050092022085300059e+00 3.885039391504677155e+02
2.050192046091061648e+00 3.885669110621351479e+02
2.050292070096823238e+00 3.886304136430938456e+02
2.050392094102584828e+00 3.886944439320760694e+02
2.050492118108345974e+00 3.887589989591621134e+02
2.050592142114107563e+00 3.888240757458819985e+02
2.050692166119868709e+00 3.888896713053134704e+02
2.050792190125630299e+00 3.889557826421806226e+02
2.050892214131391444e+00 3.890224067529564422e+02
2.050992238137153034e+00 3.890895406259587617e+02
2.051092262142914180e+00 3.891571812414558735e+02
2.051192286148675770e+00 3.892253255717611182e+02
2.051292310154436915e+00 3.892939705813368505e+02
2.051392334160198505e+00 3.893631132268945407e+02
2.051492358165959651e+00 3.894327504574957857e+02
2.051592382171721241e+00 3.895028792146520118e+02
2.051692406177482386e+00 3.895734964324276461e+02
2.051792430183243976e+00 3.896445990375393649e+02
2.051892454189005122e+00 3.897161839494601736e+02
2.051992478194766711e+00 3.897882480805186560e+02
2.052092502200527857e+00 3.898607883360020878e+02
2.052192526206289447e+00 3.899338016142584138e+02
2.052292550212051037e+00 3.900072848067977134e+02
2.052392574217812182e+00 3.900812347983954851e+02
2.052492598223573772e+00 3.901556484671936005e+02
2.052592622229334918e+00 3.902305226848046686e+02
2.052692646235096507e+00 3.903058543164132175e+02
2.052792670240857653e+00 3.903816402208792624e+02
2.052892694246619243e+00 3.904578772508405109e+02
2.052992718252380389e+00 3.905345622528165563e+02
2.053092742258141978e+00 3.906116920673110826e+02
2.053192766263903124e+00 3.906892635289156601e+02
2.053292790269664714e+00 3.907672734664124050e+02
2.053392814275425859e+00 3.908457187028785711e+02
2.053492838281187449e+00 3.909245960557895501e+02
2.053592862286948595e+00 3.910039023371219855e+02
2.053692886292710185e+00 3.910836343534583648e+02
2.053792910298471330e+00 3.911637889060917246e+02
2.053892934304232920e+00 3.912443627911264912e+02
2.053992958309994066e+00 3.913253527995876766e+02
2.054092982315755656e+00 3.914067557175183651e+02
2.054193006321517245e+00 3.914885683260904443e+02
2.054293030327278391e+00 3.915707874017039103e+02
2.054393054333039981e+00 3.916534097160950409e+02
2.054493078338801126e+00 3.917364320364376908e+02
2.054593102344562716e+00 3.918198511254502137e+02
2.054693126350323862e+00 3.919036637414982351e+02
2.054793150356085452e+00 3.919878666386997565e+02
2.054893174361846597e+00 3.920724565670308834e+02
2.054993198367608187e+00 3.921574302724288259e+02
2.055093222373369333e+00 3.922427844968980821e+02
2.055193246379130922e+00 3.923285159786138934e+02
2.055293270384892068e+00 3.924146214520284275e+02
2.055393294390653658e+00 3.925010976479753708e+02
2.055493318396414804e+00 3.925879412937729853e+02
2.055593342402176393e+00 3.926751491133317700e+02
2.055693366407937539e+00 3.927627178272572905e+02
2.055793390413699129e+00 3.928506441529569315e+02
2.055893414419460719e+00 3.929389248047428964e+02
2.055993438425222308e+00 3.930275564939388460e+02
2.056093462430983454e+00 3.931165359289839785e+02
2.056193486436744600e+00 3.932058598155383606e+02
2.056293510442506189e+00 3.932955248565878037e+02
2.056393534448267779e+00 3.933855277525493648e+02
2.056493558454028925e+00 3.934758652013751430e+02
2.056593582459790071e+00 3.935665338986585198e+02
2.056693606465551660e+00 3.936575305377390919e+02
2.056793630471313250e+00 3.937488518098063537e+02
2.056893654477074396e+00 3.938404944040061082e+02
2.056993678482835541e+00 3.939324550075439220e+02
2.057093702488597131e+00 3.940247303057919908e+02
2.057193726494358721e+00 3.941173169823922535e+02
2.057293750500119867e+00 3.942102117193620643e+02
2.057393774505881012e+00 3.943034111971981019e+02
2.057493798511642602e+00 3.943969120949827243e+02
2.057593822517404192e+00 3.944907110904868546e+02
2.057693846523165337e+00 3.945848048602761082e+02
2.057793870528926927e+00 3.946791900798148163e+02
2.057893894534688517e+00 3.947738634235697646e+02
2.057993918540449663e+00 3.948688215651161499e+02
2.058093942546211252e+00 3.949640611772416605e+02
2.058193966551972398e+00 3.950595789320489644e+02
2.058293990557733988e+00 3.951553715010634278e+02
2.058394014563495134e+00 3.952514355553341829e+02
2.058494038569256723e+00 3.953477677655399702e+02
2.058594062575017869e+00 3.954443648020921955e+02
2.058694086580779459e+00 3.955412233352410567e+02
2.058794110586540604e+00 3.956383400351757018e+02
2.058894134592302194e+00 3.957357115721318337e+02
2.058994158598063340e+00 3.958333346164930049e+02
2.059094182603824930e+00 3.959312058388950959e+02
2.059194206609586075e+00 3.960293219103297702e+02
2.059294230615347665e+00 3.961276795022475312e+02
2.059394254621108811e+00 3.962262752866623146e+02
2.059494278626870400e+00 3.963251059362521573e+02
2.059594302632631990e+00 3.964241681244646998e+02
2.059694326638393136e+00 3.965234585256195032e+02
2.059794350644154726e+00 3.966229738150095727e+02
2.059894374649915871e+00 3.967227106690067444e+02
2.059994398655677461e+00 3.968226657651604796e+02
2.060094422661438607e+00 3.969228357823036504e+02
2.060194446667200197e+00 3.970232174006541754e+02
2.060294470672961342e+00 3.971238073019156332e+02
2.060394494678722932e+00 3.972246021693798639e+02
2.060494518684484078e+00 3.973255986880303681e+02
2.060594542690245667e+00 3.974267935446433171e+02
2.060694566696006813e+00 3.975281834278874840e+02
2.060794590701768403e+00 3.976297650284275278e+02
2.060894614707529549e+00 3.977315350390248909e+02
2.060994638713291138e+00 3.978334901546382980e+02
2.061094662719052284e+00 3.979356270725249374e+02
2.061194686724813874e+00 3.980379424923425518e+02
2.061294710730575019e+00 3.981404331162472090e+02
2.061394734736336609e+00 3.982430956489964160e+02
2.061494758742098199e+00 3.983459267980483105e+02
2.061594782747859345e+00 3.984489232736611370e+02
2.061694806753620934e+00 3.985520817889934619e+02
2.061794830759382080e+00 3.986553990602053545e+02
2.061894854765143670e+00 3.987588718065549074e+02
2.061994878770904815e+00 3.988624967505007817e+02
2.062094902776666405e+00 3.989662706177985569e+02
2.062194926782427551e+00 3.990701901376013438e+02
2.062294950788189141e+00 3.991742520425576686e+02
2.062394974793950286e+00 3.992784530689099256e+02
2.062494998799711876e+00 3.993827899565936832e+02
2.062595022805473022e+00 3.994872594493338056e+02
2.062695046811234612e+00 3.995918582947444406e+02
2.062795070816995757e+00 3.996965832444246871e+02
2.062895094822757347e+00 3.998014310540575025e+02
2.062995118828518493e+00 3.999063984835054839e+02
2.063095142834280082e+00 4.000114822969093211e+02
2.063195166840041228e+00 4.001166792627830091e+02
2.063295190845803262e+00 4.002219861541110504e+02
2.063395214851564408e+00 4.003273997484448046e+02
2.063495238857325553e+00 4.004329168279975875e+02
2.063595262863087143e+00 4.005385341797413616e+02
2.063695286868848733e+00 4.006442485955019492e+02
2.063795310874609878e+00 4.007500568720532215e+02
2.063895334880371024e+00 4.008559558112141872e+02
2.063995358886132614e+00 4.009619422199415339e+02
2.064095382891894204e+00 4.010680129104241587e+02
2.064195406897655349e+00 4.011741647001796878e+02
2.064295430903416495e+00 4.012803944121451991e+02
2.064395454909178085e+00 4.013866988747737992e+02
2.064495478914939675e+00 4.014930749221247197e+02
2.064595502920700820e+00 4.015995193939600085e+02
2.064695526926461966e+00 4.017060291358343420e+02
2.064795550932223556e+00 4.018126009991892715e+02
2.064895574937985145e+00 4.019192318414430360e+02
2.064995598943746291e+00 4.020259185260871391e+02
2.065095622949507437e+00 4.021326579227728075e+02
2.065195646955269471e+00 4.022394469074050676e+02
2.065295670961030616e+00 4.023462823622333531e+02
2.065395694966792206e+00 4.024531611759427960e+02
2.065495718972553352e+00 4.025600802437429024e+02
2.065595742978314941e+00 4.026670364674592975e+02
2.065695766984076087e+00 4.027740267556218896e+02
2.065795790989837677e+00 4.028810480235577529e+02
2.065895814995598823e+00 4.029880971934750278e+02
2.065995839001360412e+00 4.030951711945570537e+02
2.066095863007121558e+00 4.032022669630472365e+02
2.066195887012883148e+00 4.033093814423386334e+02
2.066295911018644293e+00 4.034165115830617765e+02
2.066395935024405883e+00 4.035236543431718701e+02
2.066495959030167029e+00 4.036308066880372962e+02
2.066595983035928619e+00 4.037379655905243681e+02
2.066696007041689764e+00 4.038451280310844140e+02
2.066796031047451354e+00 4.039522909978415441e+02
2.066896055053212500e+00 4.040594514866774034e+02
2.066996079058974090e+00 4.041666065013153002e+02
2.067096103064735679e+00 4.042737530534080292e+02
2.067196127070496825e+00 4.043808881626207494e+02
2.067296151076258415e+00 4.044880088567161920e+02
2.067396175082019560e+00 4.045951121716377088e+02
2.067496199087781150e+00 4.047021951515939691e+02
2.067596223093542296e+00 4.048092548491434854e+02
2.067696247099303886e+00 4.049162883252740812e+02
2.067796271105065031e+00 4.050232926494887806e+02
2.067896295110826621e+00 4.051302648998870382e+02
2.067996319116587767e+00 4.052372021632448877e+02
2.068096343122349356e+00 4.053441015350997532e+02
2.068196367128110502e+00 4.054509601198286646e+02
2.068296391133872092e+00 4.055577750307301699e+02
2.068396415139633238e+00 4.056645433901051092e+02
2.068496439145394827e+00 4.057712623293348315e+02
2.068596463151155973e+00 4.058779289889632196e+02
2.068696487156917563e+00 4.059845405187730876e+02
2.068796511162678708e+00 4.060910940778675808e+02
2.068896535168440298e+00 4.061975868347469714e+02
2.068996559174201888e+00 4.063040159673867038e+02
2.069096583179963034e+00 4.064103786633158961e+02
2.069196607185724623e+00 4.065166721196927710e+02
2.069296631191485769e+00 4.066228935433833840e+02
2.069396655197247359e+00 4.067290401510369975e+02
2.069496679203008505e+00 4.068351091691619104e+02
2.069596703208770094e+00 4.069410978342009457e+02
2.069696727214531240e+00 4.070470033926070528e+02
2.069796751220292830e+00 4.071528231009185674e+02
2.069896775226053975e+00 4.072585542258304372e+02
2.069996799231815565e+00 4.073641940442721534e+02
2.070096823237576711e+00 4.074697398434785214e+02
2.070196847243338301e+00 4.075751889210635568e+02
2.070296871249099446e+00 4.076805385850928474e+02
2.070396895254861036e+00 4.077857861541555735e+02
2.070496919260622182e+00 4.078909289574359036e+02
2.070596943266383771e+00 4.079959643347858105e+02
2.070696967272145361e+00 4.081008896367931698e+02
2.070796991277906507e+00 4.082057022248553722e+02
2.070897015283668097e+00 4.083103994712460008e+02
2.070997039289429686e+00 4.084149787591869654e+02
2.071097063295190832e+00 4.085194374829160324e+02
2.071197087300951978e+00 4.086237730477553782e+02
2.071297111306713568e+00 4.087279828701816200e+02
2.071397135312475157e+00 4.088320643778899353e+02
2.071497159318236303e+00 4.089360150098648319e+02
2.071597183323997449e+00 4.090398322164457454e+02
2.071697207329759038e+00 4.091435134593918974e+02
2.071797231335520628e+00 4.092470562119501096e+02
2.071897255341281774e+00 4.093504579589190371e+02
2.071997279347042920e+00 4.094537161967148791e+02
2.072097303352804509e+00 4.095568284334345890e+02
2.072197327358566099e+00 4.096597921889216991e+02
2.072297351364327245e+00 4.097626049948279388e+02
2.072397375370088390e+00 4.098652643946776379e+02
2.072497399375849980e+00 4.099677679439292888e+02
2.072597423381611570e+00 4.100701132100384712e+02
2.072697447387373160e+00 4.101722977725194141e+02
2.072797471393134305e+00 4.102743192230049090e+02
2.072897495398895895e+00 4.103761751653079273e+02
2.072997519404657041e+00 4.104778632154826710e+02
2.073097543410418631e+00 4.105793810018823251e+02
2.073197567416179776e+00 4.106807261652193688e+02
2.073297591421941366e+00 4.107818963586244649e+02
2.073397615427702512e+00 4.108828892477037584e+02
2.073497639433464101e+00 4.109837025105974817e+02
2.073597663439225247e+00 4.110843338380363434e+02
2.073697687444986837e+00 4.111847809333991677e+02
2.073797711450747983e+00 4.112850415127680890e+02
2.073897735456509572e+00 4.113851133049860778e+02
2.073997759462270718e+00 4.114849940517093501e+02
2.074097783468032308e+00 4.115846815074639267e+02
2.074197807473793453e+00 4.116841734397007713e+02
2.074297831479555043e+00 4.117834676288474043e+02
2.074397855485316633e+00 4.118825618683617336e+02
2.074497879491077779e+00 4.119814539647854303e+02
2.074597903496839368e+00 4.120801417377967937e+02
2.074697927502600514e+00 4.121786230202590104e+02
2.074797951508362104e+00 4.122768956582760893e+02
2.074897975514123249e+00 4.123749575112387902e+02
2.074997999519884839e+00 4.124728064518792507e+02
2.075098023525645985e+00 4.125704403663169728e+02
2.075198047531407575e+00 4.126678571541094698e+02
2.075298071537168720e+00 4.127650547283017204e+02
2.075398095542930310e+00 4.128620310154723825e+02
2.075498119548691456e+00 4.129587839557819962e+02
2.075598143554453046e+00 4.130553115030211870e+02
2.075698167560214191e+00 4.131516116246557999e+02
2.075798191565975781e+00 4.132476823018720324e+02
2.075898215571736927e+00 4.133435215296248089e+02
2.075998239577498516e+00 4.134391273166802421e+02
2.076098263583259662e+00 4.135344976856605399e+02
2.076198287589021252e+00 4.136296306730883998e+02
2.076298311594782842e+00 4.137245243294297552e+02
2.076398335600543987e+00 4.138191767191367489e+02
2.076498359606305577e+00 4.139135859206904229e+02
2.076598383612066723e+00 4.140077500266412471e+02
2.076698407617828313e+00 4.141016671436520369e+02
2.076798431623589458e+00 4.141953353925368901e+02
2.076898455629351048e+00 4.142887529083025697e+02
2.076998479635112194e+00 4.143819178401869294e+02
2.077098503640873783e+00 4.144748283517000118e+02
2.077198527646634929e+00 4.145674826206591206e+02
2.077298551652396519e+00 4.146598788392296910e+02
2.077398575658157664e+00 4.147520152139625225e+02
2.077498599663919254e+00 4.148438899658284527e+02
2.077598623669680400e+00 4.149355013302570683e+02
2.077698647675441990e+00 4.150268475571709814e+02
2.077798671681203135e+00 4.151179269110220389e+02
2.077898695686964725e+00 4.152087376708252577e+02
2.077998719692725871e+00 4.152992781301923628e+02
2.078098743698487461e+00 4.153895465973684509e+02
2.078198767704249050e+00 4.154795413952603553e+02
2.078298791710010640e+00 4.155692608614737082e+02
2.078398815715771786e+00 4.156587033483406799e+02
2.078498839721532931e+00 4.157478672229548806e+02
2.078598863727294521e+00 4.158367508672005215e+02
2.078698887733056111e+00 4.159253526777827119e+02
2.078798911738817257e+00 4.160136710662571318e+02
2.078898935744578402e+00 4.161017044590601017e+02
2.078998959750339992e+00 4.161894512975359817e+02
2.079098983756101582e+00 4.162769100379659903e+02
2.079199007761862728e+00 4.163640791515954334e+02
2.079299031767623873e+00 4.164509571246607607e+02
2.079399055773385463e+00 4.165375424584159987e+02
2.079499079779147053e+00 4.166238336691590121e+02
2.079599103784908198e+00 4.167098292882556052e+02
2.079699127790669344e+00 4.167955278621652724e+02
2.079799151796430934e+00 4.168809279524643330e+02
2.079899175802192524e+00 4.169660281358717384e+02
2.079999199807954113e+00 4.170508270042690242e+02
2.080099223813715259e+00 4.171353231647254347e+02
2.080199247819476849e+00 4.172195152395181026e+02
2.080299271825237994e+00 4.173034018661552409e+02
2.080399295830999584e+00 4.173869816973942193e+02
2.080499319836760730e+00 4.174702534012646993e+02
2.080599343842522320e+00 4.175532156610862557e+02
2.080699367848283465e+00 4.176358671754890679e+02
2.080799391854045055e+00 4.177182066584305744e+02
2.080899415859806201e+00 4.178002328392158233e+02
2.080999439865567791e+00 4.178819444625129336e+02
2.081099463871328936e+00 4.179633402883712279e+02
2.081199487877090526e+00 4.180444190922361827e+02
2.081299511882851672e+00 4.181251796649669927e+02
2.081399535888613261e+00 4.182056208128506114e+02
2.081499559894374407e+00 4.182857413576154499e+02
2.081599583900135997e+00 4.183655401364485442e+02
2.081699607905897143e+00 4.184450160020058433e+02
2.081799631911658732e+00 4.185241678224263637e+02
2.081899655917420322e+00 4.186029944813452630e+02
2.081999679923181468e+00 4.186814948779046972e+02
2.082099703928943057e+00 4.187596679267654167e+02
2.082199727934704203e+00 4.188375125581167140e+02
2.082299751940465793e+00 4.189150277176887585e+02
2.082399775946226939e+00 4.189922123667597589e+02
2.082499799951988528e+00 4.190690654821658541e+02
2.082599823957749674e+00 4.191455860563095257e+02
2.082699847963511264e+00 4.192217730971687502e+02
2.082799871969272409e+00 4.192976256283016028e+02
2.082899895975033999e+00 4.193731426888548981e+02
2.082999919980795145e+00 4.194483233335715227e+02
2.083099943986556735e+00 4.195231666327930498e+02
2.083199967992317880e+00 4.195976716724660491e+02
2.083299991998079470e+00 4.196718375541486239e+02
2.083400016003840616e+00 4.197456633950120022e+02
2.083500040009602206e+00 4.198191483278437204e+02
2.083600064015363351e+00 4.198922915010529096e+02
2.083700088021124941e+00 4.199650920786697270e+02
2.083800112026886531e+00 4.200375492403494491e+02
2.083900136032647676e+00 4.201096621813724710e+02
2.084000160038409266e+00 4.201814301126438522e+02
2.084100184044170412e+00 4.202528522606970114e+02
2.084200208049932002e+00 4.203239278676882122e+02
2.084300232055693147e+00 4.203946561914000881e+02
2.084400256061454737e+00 4.204650365052366396e+02
2.084500280067215883e+00 4.205350680982239737e+02
2.084600304072977472e+00 4.206047502750044487e+02
2.084700328078738618e+00 4.206740823558365037e+02
2.084800352084500208e+00 4.207430636765883492e+02
2.084900376090261354e+00 4.208116935887356931e+02
2.085000400096022943e+00 4.208799714593544081e+02
2.085100424101784089e+00 4.209478966711181442e+02
2.085200448107545679e+00 4.210154686222889495e+02
2.085300472113306824e+00 4.210826867267129501e+02
2.085400496119068414e+00 4.211495504138128467e+02
2.085500520124830004e+00 4.212160591285795022e+02
2.085600544130591594e+00 4.212822123315648355e+02
2.085700568136352739e+00 4.213480094988717042e+02
2.085800592142113885e+00 4.214134501221456048e+02
2.085900616147875475e+00 4.214785337085639867e+02
2.086000640153637065e+00 4.215432597808281798e+02
2.086100664159398210e+00 4.216076278771478201e+02
2.086200688165159356e+00 4.216716375512348236e+02
2.086300712170920946e+00 4.217352883722870160e+02
2.086400736176682535e+00 4.217985799249782417e+02
2.086500760182443681e+00 4.218615118094433569e+02
2.086600784188204827e+00 4.219240836412664066e+02
2.086700808193966417e+00 4.219862950514651061e+02
2.086800832199728006e+00 4.220481456864760048e+02
2.086900856205489152e+00 4.221096352081410146e+02
2.087000880211250298e+00 4.221707632936891628e+02
2.087100904217011887e+00 4.222315296357223815e+02
2.087200928222773477e+00 4.222919339421971472e+02
2.087300952228534623e+00 4.223519759364073707e+02
2.087400976234296213e+00 4.224116553569677421e+02
2.087501000240057802e+00 4.224709719577942906e+02
2.087601024245818948e+00 4.225299255080839202e+02
2.087701048251580538e+00 4.225885157922982103e+02
2.087801072257341684e+00 4.226467426101405636e+02
2.087901096263103273e+00 4.227046057765371074e+02
2.088001120268864419e+00 4.227621051216153774e+02
2.088101144274626009e+00 4.228192404906813522e+02
2.088201168280387154e+00 4.228760117442006390e+02
2.088301192286148744e+00 4.229324187577709608e+02
2.088401216291909890e+00 4.229884614221044217e+02
2.088501240297671480e+00 4.230441396429994256e+02
2.088601264303432625e+00 4.230994533413186787e+02
2.088701288309194215e+00 4.231544024529646322e+02
2.088801312314955361e+00 4.232089869288523118e+02
2.088901336320716950e+00 4.232632067348866372e+02
2.089001360326478096e+00 4.233170618519324648e+02
2.089101384332239686e+00 4.233705522757917947e+02
2.089201408338001276e+00 4.234236780171734722e+02
2.089301432343762421e+00 4.234764391016664149e+02
2.089401456349524011e+00 4.235288355697119869e+02
2.089501480355285157e+00 4.235808674765747810e+02
2.089601504361046747e+00 4.236325348923127194e+02
2.089701528366807892e+00 4.236838379017478928e+02
2.089801552372569482e+00 4.237347766044371156e+02
2.089901576378330628e+00 4.237853511146387291e+02
2.090001600384092217e+00 4.238355615612844076e+02
2.090101624389853363e+00 4.238854080879444268e+02
2.090201648395614953e+00 4.239348908527983895e+02
2.090301672401376099e+00 4.239840100286005509e+02
2.090401696407137688e+00 4.240327658026455993e+02
2.090501720412898834e+00 4.240811583767386992e+02
2.090601744418660424e+00 4.241291879671572929e+02
2.090701768424421569e+00 4.241768548046186424e+02
2.090801792430183159e+00 4.242241591342438483e+02
2.090901816435944305e+00 4.242711012155236290e+02
2.091001840441705895e+00 4.243176813222792134e+02
2.091101864447467484e+00 4.243638997426292008e+02
2.091201888453228630e+00 4.244097567789494860e+02
2.091301912458990220e+00 4.244552527478385855e+02
2.091401936464751365e+00 4.245003879800774484e+02
2.091501960470512955e+00 4.245451628205912016e+02
2.091601984476274101e+00 4.245895776284114618e+02
2.091702008482035691e+00 4.246336327766356931e+02
2.091802032487796836e+00 4.246773286523879847e+02
2.091902056493558426e+00 4.247206656567783511e+02
2.092002080499319572e+00 4.247636442048617482e+02
2.092102104505081162e+00 4.248062647255984530e+02
2.092202128510842307e+00 4.248485276618096123e+02
2.092302152516603897e+00 4.248904334701363723e+02
2.092402176522365043e+00 4.249319826209988378e+02
2.092502200528126632e+00 4.249731755985501422e+02
2.092602224533887778e+00 4.250140129006350662e+02
2.092702248539649368e+00 4.250544950387447329e+02
2.092802272545410514e+00 4.250946225379733505e+02
2.092902296551172547e+00 4.251343959369730783e+02
2.093002320556933693e+00 4.251738157879073583e+02
2.093102344562694839e+00 4.252128826564073165e+02
2.093202368568456428e+00 4.252515971215238437e+02
2.093302392574218018e+00 4.252899597756818366e+02
2.093402416579979164e+00 4.253279712246342115e+02
2.093502440585740310e+00 4.253656320874113703e+02
2.093602464591501899e+00 4.254029429962758968e+02
2.093702488597263489e+00 4.254399045966745234e+02
2.093802512603024635e+00 4.254765175471875409e+02
2.093902536608785780e+00 4.255127825194798561e+02
2.094002560614547370e+00 4.255487001982539823e+02
2.094102584620308960e+00 4.255842712811967772e+02
2.094202608626070106e+00 4.256194964789304436e+02
2.094302632631831251e+00 4.256543765149623937e+02
2.094402656637592841e+00 4.256889121256324984e+02
2.094502680643354431e+00 4.257231040600628944e+02
2.094602704649115577e+00 4.257569530801048927e+02
2.094702728654876722e+00 4.257904599602874214e+02
2.094802752660638756e+00 4.258236254877627402e+02
2.094902776666399902e+00 4.258564504622559070e+02
2.095002800672161491e+00 4.258889356960073656e+02
2.095102824677922637e+00 4.259210820137229234e+02
2.095202848683684227e+00 4.259528902525156582e+02
2.095302872689445373e+00 4.259843612618537918e+02
2.095402896695206962e+00 4.260154959035044158e+02
2.095502920700968108e+00 4.260462950514782392e+02
2.095602944706729698e+00 4.260767595919723476e+02
2.095702968712490843e+00 4.261068904233158605e+02
2.095802992718252433e+00 4.261366884559121218e+02
2.095903016724013579e+00 4.261661546121824244e+02
2.096003040729775169e+00 4.261952898265059844e+02
2.096103064735536314e+00 4.262240950451659955e+02
2.096203088741297904e+00 4.262525712262881257e+02
2.096303112747059050e+00 4.262807193397843548e+02
2.096403136752820640e+00 4.263085403672917550e+02
2.096503160758581785e+00 4.263360353021157607e+02
2.096603184764343375e+00 4.263632051491682091e+02
2.096703208770104965e+00 4.263900509249087918e+02
2.096803232775866110e+00 4.264165736572837204e+02
2.096903256781627700e+00 4.264427743856668940e+02
2.097003280787388846e+00 4.264686541607952108e+02
2.097103304793150436e+00 4.264942140447124643e+02
2.097203328798911581e+00 4.265194551107020970e+02
2.097303352804673171e+00 4.265443784432291068e+02
2.097403376810434317e+00 4.265689851378758704e+02
2.097503400816195906e+00 4.265932763012797295e+02
2.097603424821957052e+00 4.266172530510699517e+02
2.097703448827718642e+00 4.266409165158049177e+02
2.097803472833479788e+00 4.266642678349071502e+02
2.097903496839241377e+00 4.266873081586001604e+02
2.098003520845002523e+00 4.267100386478446694e+02
2.098103544850764113e+00 4.267324604742722158e+02
2.098203568856525258e+00 4.267545748201213769e+02
2.098303592862286848e+00 4.267763828781726829e+02
2.098403616868047994e+00 4.267978858516825085e+02
2.098503640873809584e+00 4.268190849543173044e+02
2.098603664879571173e+00 4.268399814100859544e+02
2.098703688885332319e+00 4.268605764532767921e+02
2.098803712891093909e+00 4.268808713283870588e+02
2.098903736896855055e+00 4.269008672900579313e+02
2.099003760902616644e+00 4.269205656030063665e+02
2.099103784908377790e+00 4.269399675419576852e+02
2.099203808914139380e+00 4.269590743915769622e+02
2.099303832919900525e+00 4.269778874464022920e+02
2.099403856925662115e+00 4.269964080107740756e+02
2.099503880931423261e+00 4.270146373987686275e+02
2.099603904937184851e+00 4.270325769341262117e+02
2.099703928942945996e+00 4.270502279501847624e+02
2.099803952948707586e+00 4.270675917898082616e+02
2.099903976954468732e+00 4.270846698053170485e+02
2.100004000960230321e+00 4.271014633584181865e+02
2.100104024965991467e+00 4.271179738201344662e+02
2.100204048971753057e+00 4.271342025707346011e+02
2.100304072977514647e+00 4.271501509996614345e+02
2.100404096983275792e+00 4.271658205054610562e+02
2.100504120989037382e+00 4.271812124957105539e+02
2.100604144994798972e+00 4.271963283869484940e+02
2.100704169000560118e+00 4.272111696046007978e+02
2.100804193006321263e+00 4.272257375829095736e+02
2.100904217012082853e+00 4.272400337648600726e+02
2.101004241017844443e+00 4.272540596021086117e+02
2.101104265023605588e+00 4.272678165549099845e+02
2.101204289029366734e+00 4.272813060920439057e+02
2.101304313035128324e+00 4.272945296907413990e+02
2.101404337040889914e+00 4.273074888366106734e+02
2.101504361046651059e+00 4.273201850235666370e+02
2.101604385052412205e+00 4.273326197537512030e+02
2.101704409058173795e+00 4.273447945374652477e+02
2.101804433063935384e+00 4.273567108930895984e+02
2.101904457069696530e+00 4.273683703470128421e+02
2.102004481075457676e+00 4.273797744335555535e+02
2.102104505081219266e+00 4.273909246948952614e+02
2.102204529086980855e+00 4.274018226809920975e+02
2.102304553092742445e+00 4.274124699495117738e+02
2.102404577098503591e+00 4.274228680657512314e+02
2.102504601104265181e+00 4.274330186025637204e+02
2.102604625110026326e+00 4.274429231402788218e+02
2.102704649115787916e+00 4.274525832666320753e+02
2.102804673121549062e+00 4.274620005766838062e+02
2.102904697127310651e+00 4.274711766727444342e+02
2.103004721133071797e+00 4.274801131642987571e+02
2.103104745138833387e+00 4.274888116679263703e+02
2.103204769144594533e+00 4.274972738072278275e+02
2.103304793150356122e+00 4.275055012127447185e+02
2.103404817156117268e+00 4.275134955218840105e+02
2.103504841161878858e+00 4.275212583788394340e+02
2.103604865167640003e+00 4.275287914345152558e+02
2.103704889173401593e+00 4.275360963464462429e+02
2.103804913179162739e+00 4.275431747787218910e+02
2.103904937184924329e+00 4.275500284019055925e+02
2.104004961190685918e+00 4.275566588929613090e+02
2.104104985196447064e+00 4.275630679351679646e+02
2.104205009202208654e+00 4.275692572180472553e+02
2.104305033207969799e+00 4.275752284372817371e+02
2.104405057213731389e+00 4.275809832946368942e+02
2.104505081219492535e+00 4.275865234978818989e+02
2.104605105225254125e+00 4.275918507607112815e+02
2.104705129231015270e+00 4.275969668026634167e+02
2.104805153236776860e+00 4.276018733490445243e+02
2.104905177242538006e+00 4.276065721308475531e+02
2.105005201248299596e+00 4.276110648846715776e+02
2.105105225254060741e+00 4.276153533526442629e+02
2.105205249259822331e+00 4.276194392823402382e+02
2.105305273265583477e+00 4.276233244267028226e+02
2.105405297271345066e+00 4.276270105439629106e+02
2.105505321277106212e+00 4.276304993975595607e+02
2.105605345282867802e+00 4.276337927560585968e+02
2.105705369288628948e+00 4.276368923930750725e+02
2.105805393294390537e+00 4.276398000871897693e+02
2.105905417300152127e+00 4.276425176218705815e+02
2.106005441305913273e+00 4.276450467853913437e+02
2.106105465311674863e+00 4.276473893707524212e+02
2.106205489317436008e+00 4.276495471755986273e+02
2.106305513323197598e+00 4.276515220021387904e+02
2.106405537328958744e+00 4.276533156570654910e+02
2.106505561334720333e+00 4.276549299514738891e+02
2.106605585340481479e+00 4.276563667007811773e+02
2.106705609346243069e+00 4.276576277246447262e+02
2.106805633352004214e+00 4.276587148468812529e+02
2.106905657357765804e+00 4.276596298953876385e+02
2.107005681363526950e+00 4.276603747020564583e+02
2.107105705369288540e+00 4.276609511026970267e+02
2.107205729375049685e+00 4.276613609369546225e+02
2.107305753380811275e+00 4.276616060482265311e+02
2.107405777386572421e+00 4.276616882835845104e+02
2.107505801392334011e+00 4.276616094936900936e+02
2.107605825398095156e+00 4.276613715327146679e+02
2.107705849403856746e+00 4.276609762582581880e+02
2.107805873409618336e+00 4.276604255312674923e+02
2.107905897415379926e+00 4.276597212159545052e+02
2.108005921421141071e+00 4.276588651797162015e+02
2.108105945426902217e+00 4.276578592930516152e+02
2.108205969432663807e+00 4.276567054294796435e+02
2.108305993438425396e+00 4.276554054654604897e+02
2.108406017444186542e+00 4.276539612803107389e+02
2.108506041449947688e+00 4.276523747561247433e+02
2.108606065455709278e+00 4.276506477776913471e+02
2.108706089461470867e+00 4.276487822324129411e+02
2.108806113467232013e+00 4.276467800102242904e+02
2.108906137472993159e+00 4.276446430035094863e+02
2.109006161478754748e+00 4.276423731070232748e+02
2.109106185484516338e+00 4.276399722178072693e+02
2.109206209490277484e+00 4.276374422351087219e+02
2.109306233496038629e+00 4.276347850602999756e+02
2.109406257501800219e+00 4.276320025967969514e+02
2.109506281507561809e+00 4.276290967499775775e+02
2.109606305513323399e+00 4.276260694270997647e+02
2.109706329519084544e+00 4.276229225372214842e+02
2.109806353524846134e+00 4.276196579911188564e+02
2.109906377530607280e+00 4.276162777012033871e+02
2.110006401536368870e+00 4.276127835814444325e+02
2.110106425542130015e+00 4.276091775472846166e+02
2.110206449547891605e+00 4.276054615155595684e+02
2.110306473553652751e+00 4.276016374044193071e+02
2.110406497559414341e+00 4.275977071332428068e+02
2.110506521565175486e+00 4.275936726225613143e+02
2.110606545570937076e+00 4.275895357939757560e+02
2.110706569576698222e+00 4.275852985700748832e+02
2.110806593582459811e+00 4.275809628743569988e+02
2.110906617588220957e+00 4.275765306311470226e+02
2.111006641593982547e+00 4.275720037655174792e+02
2.111106665599743692e+00 4.275673842032066432e+02
2.111206689605505282e+00 4.275626738705396406e+02
2.111306713611266428e+00 4.275578746943471060e+02
2.111406737617028018e+00 4.275529886018852608e+02
2.111506761622789607e+00 4.275480175207558204e+02
2.111606785628550753e+00 4.275429633788253341e+02
2.111706809634312343e+00 4.275378281041464561e+02
2.111806833640073489e+00 4.275326136248758644e+02
2.111906857645835078e+00 4.275273218691987722e+02
2.112006881651596224e+00 4.275219547652433789e+02
2.112106905657357814e+00 4.275165142410060639e+02
2.112206929663118959e+00 4.275110022242702144e+02
2.112306953668880549e+00 4.275054206425261896e+02
2.112406977674641695e+00 4.274997714228935024e+02
2.112507001680403285e+00 4.274940564920415227e+02
2.112607025686164430e+00 4.274882777761088164e+02
2.112707049691926020e+00 4.274824372006266913e+02
2.112807073697687166e+00 4.274765366904389339e+02
2.112907097703448756e+00 4.274705781696233089e+02
2.113007121709209901e+00 4.274645635614144794e+02
2.113107145714971491e+00 4.274584947881232893e+02
2.113207169720732637e+00 4.274523737710609339e+02
2.113307193726494226e+00 4.274462024304594934e+02
2.113407217732255816e+00 4.274399826853947388e+02
2.113507241738016962e+00 4.274337164537080298e+02
2.113607265743778552e+00 4.274274056519284386e+02
2.113707289749539697e+00 4.274210521951967507e+02
2.113807313755301287e+00 4.274146579971857136e+02
2.113907337761062433e+00 4.274082249700256853e+02
2.114007361766824022e+00 4.274017550242256789e+02
2.114107385772585168e+00 4.273952500685965106e+02
2.114207409778346758e+00 4.273887120101765618e+02
2.114307433784107904e+00 4.273821427541523690e+02
2.114407457789869493e+00 4.273755442037837611e+02
2.114507481795630639e+00 4.273689182603282575e+02
2.114607505801392229e+00 4.273622668229641590e+02
2.114707529807153374e+00 4.273555917887147189e+02
2.114807553812914964e+00 4.273488950523732228e+02
2.114907577818676110e+00 4.273421785064281266e+02
2.115007601824437700e+00 4.273354440409864878e+02
2.115107625830199289e+00 4.273286935436996146e+02
2.115207649835960879e+00 4.273219288996883733e+02
2.115307673841722025e+00 4.273151519914686105e+02
2.115407697847483171e+00 4.273083646988772557e+02
2.115507721853244760e+00 4.273015688989962086e+02
2.115607745859006350e+00 4.272947664660807163e+02
2.115707769864767496e+00 4.272879592714850787e+02
2.115807793870528641e+00 4.272811491835867628e+02
2.115907817876290231e+00 4.272743380677167124e+02
2.116007841882051821e+00 4.272675277860838605e+02
2.116107865887812967e+00 4.272607201977021987e+02
2.116207889893574112e+00 4.272539171583190978e+02
2.116307913899335702e+00 4.272471205203424915e+02
2.116407937905097292e+00 4.272403321327684580e+02
2.116507961910858437e+00 4.272335538411090283e+02
2.116607985916619583e+00 4.272267874873213600e+02
2.116708009922381173e+00 4.272200349097348635e+02
2.116808033928142763e+00 4.272132979429810575e+02
2.116908057933903908e+00 4.272065784179209800e+02
2.117008081939665498e+00 4.271998781615769758e+02
2.117108105945427088e+00 4.271931989970600512e+02
2.117208129951188234e+00 4.271865427434990465e+02
2.117308153956949823e+00 4.271799112159723109e+02
2.117408177962710969e+00 4.271733062254380684e+02
2.117508201968472559e+00 4.271667295786626255e+02
2.117608225974233704e+00 4.271601830781527269e+02
2.117708249979995294e+00 4.271536685220864911e+02
2.117808273985756440e+00 4.271471877042438905e+02
2.117908297991518030e+00 4.271407424139392219e+02
2.118008321997279175e+00 4.271343344359517573e+02
2.118108346003040765e+00 4.271279655504583275e+02
2.118208370008801911e+00 4.271216375329660764e+02
2.118308394014563500e+00 4.271153521542438511e+02
2.118408418020324646e+00 4.271091111802560363e+02
2.118508442026086236e+00 4.271029163720957058e+02
2.118608466031847382e+00 4.270967694859172070e+02
2.118708490037608971e+00 4.270906722728705063e+02
2.118808514043370561e+00 4.270846264790345685e+02
2.118908538049131707e+00 4.270786338453534086e+02
2.119008562054893297e+00 4.270726961075674808e+02
2.119108586060654442e+00 4.270668149961521749e+02
2.119208610066416032e+00 4.270609922362497741e+02
2.119308634072177178e+00 4.270552295476062454e+02
2.119408658077938767e+00 4.270495286445074612e+02
2.119508682083699913e+00 4.270438912357153640e+02
2.119608706089461503e+00 4.270383190244027674e+02
2.119708730095222649e+00 4.270328137080912256e+02
2.119808754100984238e+00 4.270273769785878812e+02
2.119908778106745384e+00 4.270220105219224820e+02
2.120008802112506974e+00 4.270167160182855355e+02
2.120108826118268119e+00 4.270114951419650993e+02
2.120208850124029709e+00 4.270063495612859015e+02
2.120308874129790855e+00 4.270012809385479500e+02
2.120408898135552445e+00 4.269962909299652551e+02
2.120508922141313590e+00 4.269913811856044390e+02
2.120608946147075180e+00 4.269865533493240264e+02
2.120708970152836770e+00 4.269818090587173742e+02
2.120808994158597915e+00 4.269771499450473584e+02
2.120909018164359505e+00 4.269725776331923157e+02
2.121009042170120651e+00 4.269680937415828339e+02
2.121109066175882241e+00 4.269636998821467273e+02
2.121209090181643386e+00 4.269593976602454859e+02
2.121309114187404976e+00 4.269551886746215246e+02
2.121409138193166122e+00 4.269510745173370196e+02
2.121509162198927712e+00 4.269470567737174633e+02
2.121609186204688857e+00 4.269431370222942519e+02
2.121709210210450447e+00 4.269393168347487517e+02
2.121809234216211593e+00 4.269355977758539780e+02
2.121909258221973182e+00 4.269319814034204796e+02
2.122009282227734328e+00 4.269284692682406899e+02
2.122109306233495918e+00 4.269250629140320825e+02
2.122209330239257064e+00 4.269217638773821477e+02
2.122309354245018653e+00 4.269185736876967212e+02
2.122409378250779799e+00 4.269154938671408104e+02
2.122509402256541833e+00 4.269125259305888562e+02
2.122609426262302978e+00 4.269096713855698226e+02
2.122709450268064124e+00 4.269069317322133656e+02
2.122809474273825714e+00 4.269043084631974807e+02
2.122909498279587304e+00 4.269018030636962635e+02
2.123009522285348449e+00 4.268994170113278415e+02
2.123109546291109595e+00 4.268971517761020209e+02
2.123209570296871185e+00 4.268950088203696964e+02
2.123309594302632775e+00 4.268929895987716350e+02
2.123409618308393920e+00 4.268910955581876010e+02
2.123509642314155066e+00 4.268893281376865616e+02
2.123609666319916656e+00 4.268876887684771759e+02
2.123709690325678245e+00 4.268861788738570340e+02
2.123809714331439391e+00 4.268847998691651355e+02
2.123909738337200537e+00 4.268835531617327774e+02
2.124009762342962127e+00 4.268824401508339292e+02
2.124109786348723716e+00 4.268814622276402702e+02
2.124209810354484862e+00 4.268806207751700867e+02
2.124309834360246008e+00 4.268799171682443898e+02
2.124409858366008041e+00 4.268793527734378586e+02
2.124509882371769187e+00 4.268789289490341048e+02
2.124609906377530777e+00 4.268786470449790045e+02
2.124709930383291923e+00 4.268785084028346546e+02
2.124809954389053512e+00 4.268785143557358879e+02
2.124909978394814658e+00 4.268786662283439455e+02
2.125010002400576248e+00 4.268789653368026507e+02
2.125110026406337393e+00 4.268794129886949236e+02
2.125210050412098983e+00 4.268800104829990687e+02
2.125310074417860129e+00 4.268807591100448917e+02
2.125410098423621719e+00 4.268816601514719196e+02
2.125510122429382864e+00 4.268827148801879048e+02
2.125610146435144454e+00 4.268839245603236918e+02
2.125710170440905600e+00 4.268852904471959846e+02
2.125810194446667190e+00 4.268868137872630655e+02
2.125910218452428335e+00 4.268884958180857438e+02
2.126010242458189925e+00 4.268903377682863720e+02
2.126110266463951071e+00 4.268923408575099643e+02
2.126210290469712660e+00 4.268945062963836676e+02
2.126310314475474250e+00 4.268968352864787335e+02
2.126410338481235396e+00 4.268993290202704429e+02
2.126510362486996986e+00 4.269019886811026936e+02
2.126610386492758131e+00 4.269048154431472994e+02
2.126710410498519721e+00 4.269078104713695438e+02
2.126810434504280867e+00 4.269109749214879912e+02
2.126910458510042456e+00 4.269143099399410062e+02
2.127010482515803602e+00 4.269178166638496350e+02
2.127110506521565192e+00 4.269214962209813393e+02
2.127210530527326338e+00 4.269253497297160038e+02
2.127310554533087927e+00 4.269293782990102954e+02
2.127410578538849073e+00 4.269335830283644668e+02
2.127510602544610663e+00 4.269379650077868860e+02
2.127610626550371808e+00 4.269425253177622608e+02
2.127710650556133398e+00 4.269472650292167373e+02
2.127810674561894544e+00 4.269521852034876019e+02
2.127910698567656134e+00 4.269572868922895736e+02
2.128010722573417279e+00 4.269625711376826871e+02
2.128110746579178869e+00 4.269680389720431322e+02
2.128210770584940459e+00 4.269736914180303984e+02
2.128310794590701605e+00 4.269795294885578869e+02
2.128410818596463194e+00 4.269855541867625561e+02
2.128510842602224340e+00 4.269917665059748515e+02
2.128610866607985930e+00 4.269981674296918754e+02
2.128710890613747075e+00 4.270047579315452140e+02
2.128810914619508665e+00 4.270115389752764941e+02
2.128910938625269811e+00 4.270185115147071429e+02
2.129010962631031401e+00 4.270256764937113303e+02
2.129110986636792546e+00 4.270330348461905032e+02
2.129211010642554136e+00 4.270405874960455321e+02
2.129311034648315282e+00 4.270483353571509610e+02
2.129411058654076871e+00 4.270562793333298828e+02
2.129511082659838017e+00 4.270644203183294394e+02
2.129611106665599607e+00 4.270727591957954132e+02
2.129711130671360753e+00 4.270812968392464199e+02
2.129811154677122342e+00 4.270900341120541839e+02
2.129911178682883932e+00 4.270989718674165943e+02
2.130011202688645078e+00 4.271081109483362752e+02
2.130111226694406668e+00 4.271174521875989853e+02
2.130211250700168257e+00 4.271269964077494024e+02
2.130311274705929403e+00 4.271367444210723079e+02
2.130411298711690549e+00 4.271466970295696228e+02
2.130511322717452138e+00 4.271568550249406826e+02
2.130611346723213728e+00 4.271672191885618304e+02
2.130711370728974874e+00 4.271777902914667493e+02
2.130811394734736020e+00 4.271885690943278746e+02
2.130911418740497609e+00 4.271995563474357596e+02
2.131011442746259199e+00 4.272107527906832729e+02
2.131111466752020345e+00 4.272221591535451353e+02
2.131211490757781490e+00 4.272337761550633672e+02
2.131311514763543080e+00 4.272456045038273942e+02
2.131411538769304670e+00 4.272576448979599490e+02
2.131511562775065816e+00 4.272698980250992236e+02
2.131611586780826961e+00 4.272823645623839184e+02
2.131711610786588551e+00 4.272950451764393165e+02
2.131811634792350141e+00 4.273079405233604575e+02
2.131911658798111731e+00 4.273210512486984953e+02
2.132011682803872876e+00 4.273343779874490451e+02
2.132111706809634466e+00 4.273479213640350736e+02
2.132211730815395612e+00 4.273616819922971217e+02
2.132311754821157201e+00 4.273756604754801742e+02
2.132411778826918347e+00 4.273898574062204716e+02
2.132511802832679937e+00 4.274042733665353353e+02
2.132611826838441083e+00 4.274189089278121969e+02
2.132711850844202672e+00 4.274337646507964337e+02
2.132811874849963818e+00 4.274488410855827851e+02
2.132911898855725408e+00 4.274641387716049508e+02
2.133011922861486553e+00 4.274796582376270635e+02
2.133111946867248143e+00 4.274954000017338558e+02
2.133211970873009289e+00 4.275113645713236110e+02
2.133311994878770879e+00 4.275275524430984433e+02
2.133412018884532024e+00 4.275439641030587836e+02
2.133512042890293614e+00 4.275606000264958197e+02
2.133612066896055204e+00 4.275774606779841065e+02
2.133712090901816349e+00 4.275945465113773025e+02
2.133812114907577939e+00 4.276118579698006670e+02
2.133912138913339085e+00 4.276293954856469099e+02
2.134012162919100675e+00 4.276471594805715313e+02
2.134112186924861820e+00 4.276651503654887847e+02
2.134212210930623410e+00 4.276833685405669030e+02
2.134312234936384556e+00 4.277018143952265063e+02
2.134412258942146146e+00 4.277204883081350317e+02
2.134512282947907291e+00 4.277393906472074150e+02
2.134612306953668881e+00 4.277585217696023960e+02
2.134712330959430027e+00 4.277778820217210978e+02
2.134812354965191616e+00 4.277974717392056618e+02
2.134912378970952762e+00 4.278172912469395897e+02
2.135012402976714352e+00 4.278373408590475719e+02
2.135112426982475498e+00 4.278576208788947497e+02
2.135212450988237087e+00 4.278781315990883627e+02
2.135312474993998233e+00 4.278988733014778063e+02
2.135412498999759823e+00 4.279198462571583832e+02
2.135512523005521413e+00 4.279410507264716443e+02
2.135612547011282558e+00 4.279624869590076059e+02
2.135712571017044148e+00 4.279841551936096948e+02
2.135812595022805294e+00 4.280060556583758853e+02
2.135912619028566883e+00 4.280281885706644971e+02
2.136012643034328029e+00 4.280505541370977767e+02
2.136112667040089619e+00 4.280731525535658193e+02
2.136212691045850764e+00 4.280959840052333334e+02
2.136312715051612354e+00 4.281190486665442450e+02
2.136412739057373500e+00 4.281423467012281208e+02
2.136512763063135090e+00 4.281658782623067623e+02
2.136612787068896235e+00 4.281896434921004015e+02
2.136712811074657825e+00 4.282136425222371372e+02
2.136812835080418971e+00 4.282378754736591304e+02
2.136912859086180561e+00 4.282623424566301082e+02
2.137012883091941706e+00 4.282870435707465049e+02
2.137112907097703296e+00 4.283119789049454766e+02
2.137212931103464442e+00 4.283371485375139400e+02
2.137312955109226031e+00 4.283625525360991446e+02
2.137412979114987621e+00 4.283881909577196438e+02
2.137513003120749211e+00 4.284140638487757542e+02
2.137613027126510357e+00 4.284401712450601849e+02
2.137713051132271502e+00 4.284665131717719078e+02
2.137813075138033092e+00 4.284930896435262184e+02
2.137913099143794682e+00 4.285199006643678104e+02
2.138013123149555827e+00 4.285469462277852699e+02
2.138113147155316973e+00 4.285742263167240935e+02
2.138213171161078563e+00 4.286017409035981132e+02
2.138313195166840153e+00 4.286294899503079705e+02
2.138413219172601298e+00 4.286574734082530540e+02
2.138513243178362444e+00 4.286856912183482677e+02
2.138613267184124034e+00 4.287141433110373328e+02
2.138713291189885624e+00 4.287428296063125117e+02
2.138813315195646769e+00 4.287717500137284787e+02
2.138913339201407915e+00 4.288009044324188608e+02
2.139013363207169505e+00 4.288302927511165876e+02
2.139113387212931094e+00 4.288599148481681596e+02
2.139213411218692684e+00 4.288897705915535994e+02
2.139313435224453830e+00 4.289198598389057224e+02
2.139413459230215420e+00 4.289501824375270758e+02
2.139513483235976565e+00 4.289807382244113114e+02
2.139613507241738155e+00 4.290115270262622289e+02
2.139713531247499301e+00 4.290425486595136704e+02
2.139813555253260891e+00 4.290738029303510643e+02
2.139913579259022036e+00 4.291052896347316050e+02
2.140013603264783626e+00 4.291370085584065919e+02
