2.400028006161355254e+00 5.086174984163147883e+02
2.400128028166196081e+00 5.086222959866382780e+02
2.400228050171037353e+00 5.086272778314744301e+02
2.400328072175878624e+00 5.086324441270659236e+02
2.400428094180719452e+00 5.086377950429312591e+02
2.400528116185560723e+00 5.086433307418530489e+02
2.400628138190401994e+00 5.086490513798590882e+02
2.400728160195242822e+00 5.086549571062091673e+02
2.400828182200083649e+00 5.086610480633806901e+02
2.400928204204924921e+00 5.086673243870522469e+02
2.401028226209765748e+00 5.086737862060923590e+02
2.401128248214607019e+00 5.086804336425416864e+02
2.401228270219448291e+00 5.086872668116021714e+02
2.401328292224289118e+00 5.086942858216226568e+02
2.401428314229129946e+00 5.087014907740831973e+02
2.401528336233971217e+00 5.087088817635858504e+02
2.401628358238812488e+00 5.087164588778385905e+02
2.401728380243653316e+00 5.087242221976441670e+02
2.401828402248494587e+00 5.087321717968867461e+02
2.401928424253335415e+00 5.087403077425207130e+02
2.402028446258176686e+00 5.087486300945564039e+02
2.402128468263017513e+00 5.087571389060531146e+02
2.402228490267858785e+00 5.087658342231007396e+02
2.402328512272699612e+00 5.087747160848156227e+02
2.402428534277540884e+00 5.087837845233226517e+02
2.402528556282382155e+00 5.087930395637506535e+02
2.402628578287222982e+00 5.088024812242176154e+02
2.402728600292064254e+00 5.088121095158220442e+02
2.402828622296905081e+00 5.088219244426317118e+02
2.402928644301746353e+00 5.088319260016762087e+02
2.403028666306587180e+00 5.088421141829338126e+02
2.403128688311428451e+00 5.088524889693251225e+02
2.403228710316269279e+00 5.088630503367032247e+02
2.403328732321110550e+00 5.088737982538424944e+02
2.403428754325951822e+00 5.088847326824336506e+02
2.403528776330792649e+00 5.088958535770719891e+02
2.403628798335633476e+00 5.089071608852518693e+02
2.403728820340474748e+00 5.089186545473571641e+02
2.403828842345316019e+00 5.089303344966530176e+02
2.403928864350156847e+00 5.089422006592805587e+02
2.404028886354998118e+00 5.089542529542477496e+02
2.404128908359838945e+00 5.089664912934232461e+02
2.404228930364679773e+00 5.089789155815307140e+02
2.404328952369521044e+00 5.089915257161389377e+02
2.404428974374362316e+00 5.090043215876596605e+02
2.404528996379203143e+00 5.090173030793392854e+02
2.404629018384044414e+00 5.090304700672538161e+02
2.404729040388885686e+00 5.090438224203030586e+02
2.404829062393726513e+00 5.090573600002057333e+02
2.404929084398567340e+00 5.090710826614937901e+02
2.405029106403408612e+00 5.090849902515095096e+02
2.405129128408249439e+00 5.090990826103985682e+02
2.405229150413090711e+00 5.091133595711062867e+02
2.405329172417931982e+00 5.091278209593762085e+02
2.405429194422772810e+00 5.091424665937431655e+02
2.405529216427614081e+00 5.091572962855309470e+02
2.405629238432454908e+00 5.091723098388500830e+02
2.405729260437295736e+00 5.091875070505928420e+02
2.405829282442137007e+00 5.092028877104322078e+02
2.405929304446978279e+00 5.092184516008188098e+02
2.406029326451819106e+00 5.092341984969779674e+02
2.406129348456660377e+00 5.092501281669094624e+02
2.406229370461501649e+00 5.092662403713835602e+02
2.406329392466342476e+00 5.092825348639409526e+02
2.406429414471183303e+00 5.092990113908913372e+02
2.406529436476024575e+00 5.093156696913127917e+02
2.406629458480865402e+00 5.093325094970504665e+02
2.406729480485706674e+00 5.093495305327149936e+02
2.406829502490547945e+00 5.093667325156850438e+02
2.406929524495388772e+00 5.093841151561048832e+02
2.407029546500229600e+00 5.094016781568857937e+02
2.407129568505070871e+00 5.094194212137073237e+02
2.407229590509912143e+00 5.094373440150147303e+02
2.407329612514752970e+00 5.094554462420249479e+02
2.407429634519594241e+00 5.094737275687238025e+02
2.407529656524435069e+00 5.094921876618709575e+02
2.407629678529276340e+00 5.095108261809971282e+02
2.407729700534117168e+00 5.095296427784111302e+02
2.407829722538958439e+00 5.095486370991991407e+02
2.407929744543799266e+00 5.095678087812281660e+02
2.408029766548640538e+00 5.095871574551486560e+02
2.408129788553481809e+00 5.096066827443989951e+02
2.408229810558322637e+00 5.096263842652047629e+02
2.408329832563163908e+00 5.096462616265874885e+02
2.408429854568004735e+00 5.096663144303650483e+02
2.408529876572846007e+00 5.096865422711577480e+02
2.408629898577686834e+00 5.097069447363909376e+02
2.408729920582528106e+00 5.097275214063002409e+02
2.408829942587368933e+00 5.097482718539366147e+02
2.408929964592210204e+00 5.097691956451727151e+02
2.409029986597051476e+00 5.097902923387050578e+02
2.409130008601892303e+00 5.098115614860630558e+02
2.409230030606733131e+00 5.098330026316125441e+02
2.409330052611574402e+00 5.098546153125630553e+02
2.409430074616415673e+00 5.098763990589743003e+02
2.409530096621256501e+00 5.098983533937613402e+02
2.409630118626097772e+00 5.099204778327032841e+02
2.409730140630938600e+00 5.099427718844501101e+02
2.409830162635779427e+00 5.099652350505291452e+02
2.409930184640620698e+00 5.099878668253525689e+02
2.410030206645461970e+00 5.100106666962273607e+02
2.410130228650302797e+00 5.100336341433609277e+02
2.410230250655144069e+00 5.100567686398712794e+02
2.410330272659985340e+00 5.100800696517948154e+02
2.410430294664826167e+00 5.101035366380959886e+02
2.410530316669666995e+00 5.101271690506755476e+02
2.410630338674508266e+00 5.101509663343798024e+02
2.410730360679349094e+00 5.101749279270131865e+02
2.410830382684190365e+00 5.101990532593430885e+02
2.410930404689031636e+00 5.102233417551148023e+02
2.411030426693872464e+00 5.102477928310593143e+02
2.411130448698713735e+00 5.102724058969052408e+02
2.411230470703554563e+00 5.102971803553881500e+02
2.411330492708395390e+00 5.103221156022641480e+02
2.411430514713236661e+00 5.103472110263196555e+02
2.411530536718077933e+00 5.103724660093826060e+02
2.411630558722918760e+00 5.103978799263366000e+02
2.411730580727760032e+00 5.104234521451306250e+02
2.411830602732601303e+00 5.104491820267933235e+02
2.411930624737442130e+00 5.104750689254452709e+02
2.412030646742282958e+00 5.105011121883109126e+02
2.412130668747124229e+00 5.105273111557328320e+02
2.412230690751965057e+00 5.105536651611847674e+02
2.412330712756806328e+00 5.105801735312856522e+02
2.412430734761647599e+00 5.106068355858129735e+02
2.412530756766488427e+00 5.106336506377178353e+02
2.412630778771329254e+00 5.106606179931381462e+02
2.412730800776170526e+00 5.106877369514147063e+02
2.412830822781011797e+00 5.107150068051048493e+02
2.412930844785852624e+00 5.107424268399992116e+02
2.413030866790693896e+00 5.107699963351344081e+02
2.413130888795534723e+00 5.107977145628124163e+02
2.413230910800375995e+00 5.108255807886127968e+02
2.413330932805216822e+00 5.108535942714125326e+02
2.413430954810058093e+00 5.108817542633987614e+02
2.413530976814898921e+00 5.109100600100877045e+02
2.413630998819740192e+00 5.109385107503421750e+02
2.413731020824581464e+00 5.109671057163854471e+02
2.413831042829422291e+00 5.109958441338222883e+02
2.413931064834263562e+00 5.110247252216543075e+02
2.414031086839104390e+00 5.110537481922995084e+02
2.414131108843945661e+00 5.110829122516087182e+02
2.414231130848786488e+00 5.111122165988836059e+02
2.414331152853627760e+00 5.111416604268986816e+02
2.414431174858468587e+00 5.111712429219157912e+02
2.414531196863309859e+00 5.112009632637060577e+02
2.414631218868150686e+00 5.112308206255685263e+02
2.414731240872991958e+00 5.112608141743481838e+02
2.414831262877832785e+00 5.112909430704589795e+02
2.414931284882674056e+00 5.113212064679001401e+02
2.415031306887515328e+00 5.113516035142783949e+02
2.415131328892356155e+00 5.113821333508299745e+02
2.415231350897197427e+00 5.114127951124366973e+02
2.415331372902038254e+00 5.114435879276525725e+02
2.415431394906879081e+00 5.114745109187207390e+02
2.415531416911720353e+00 5.115055632015966012e+02
2.415631438916561624e+00 5.115367438859699973e+02
2.415731460921402451e+00 5.115680520752855500e+02
2.415831482926243723e+00 5.115994868667656874e+02
2.415931504931084994e+00 5.116310473514346882e+02
2.416031526935925378e+00 5.116627326141368712e+02
2.416131548940766649e+00 5.116945417335637103e+02
2.416231570945607920e+00 5.117264737822753773e+02
2.416331592950448748e+00 5.117585278267230251e+02
2.416431614955290019e+00 5.117907029272739692e+02
2.416531636960131291e+00 5.118229981382340270e+02
2.416631658964972118e+00 5.118554125078726997e+02
2.416731680969812945e+00 5.118879450784461937e+02
2.416831702974654217e+00 5.119205948862223750e+02
2.416931724979495044e+00 5.119533609615065188e+02
2.417031746984336316e+00 5.119862423286635362e+02
2.417131768989177587e+00 5.120192380061449740e+02
2.417231790994018414e+00 5.120523470065145375e+02
2.417331812998859686e+00 5.120855683364727611e+02
2.417431835003700513e+00 5.121189009968825303e+02
2.417531857008541785e+00 5.121523439827963102e+02
2.417631879013382612e+00 5.121858962834805880e+02
2.417731901018223883e+00 5.122195568824440670e+02
2.417831923023064711e+00 5.122533247574632469e+02
2.417931945027905982e+00 5.122871988806084573e+02
2.418031967032747254e+00 5.123211782182742127e+02
2.418131989037588081e+00 5.123552617312013808e+02
2.418232011042428908e+00 5.123894483745095840e+02
2.418332033047270180e+00 5.124237370977219825e+02
2.418432055052111451e+00 5.124581268447941511e+02
2.418532077056952279e+00 5.124926165541417049e+02
2.418632099061793550e+00 5.125272051586695170e+02
2.418732121066634377e+00 5.125618915857993443e+02
2.418832143071475649e+00 5.125966747574983629e+02
2.418932165076316476e+00 5.126315535903100908e+02
2.419032187081157748e+00 5.126665269953813322e+02
2.419132209085998575e+00 5.127015938784925311e+02
2.419232231090839846e+00 5.127367531400875578e+02
2.419332253095681118e+00 5.127720036753017894e+02
2.419432275100521945e+00 5.128073443739958748e+02
2.419532297105362773e+00 5.128427741207814279e+02
2.419632319110204044e+00 5.128782917950542242e+02
2.419732341115045315e+00 5.129138962710245551e+02
2.419832363119886143e+00 5.129495864177463318e+02
2.419932385124727414e+00 5.129853610991508504e+02
2.420032407129568242e+00 5.130212191740755543e+02
2.420132429134409513e+00 5.130571594962960944e+02
2.420232451139250340e+00 5.130931809145591842e+02
2.420332473144091612e+00 5.131292822726117038e+02
2.420432495148932439e+00 5.131654624092359427e+02
2.420532517153773711e+00 5.132017201582798407e+02
2.420632539158614982e+00 5.132380543486877968e+02
2.420732561163455809e+00 5.132744638045377314e+02
2.420832583168297081e+00 5.133109473450697351e+02
2.420932605173137908e+00 5.133475037847200610e+02
2.421032627177978735e+00 5.133841319331556861e+02
2.421132649182820007e+00 5.134208305953058016e+02
2.421232671187661278e+00 5.134575985713966020e+02
2.421332693192502106e+00 5.134944346569840263e+02
2.421432715197343377e+00 5.135313376429878645e+02
2.421532737202184649e+00 5.135683063157260904e+02
2.421632759207025032e+00 5.136053394569493094e+02
2.421732781211866303e+00 5.136424358438746367e+02
2.421832803216707575e+00 5.136795942492200311e+02
2.421932825221548402e+00 5.137168134412398786e+02
2.422032847226389674e+00 5.137540921837592123e+02
2.422132869231230945e+00 5.137914292362099786e+02
2.422232891236071772e+00 5.138288233536644611e+02
2.422332913240912600e+00 5.138662732868724561e+02
2.422432935245753871e+00 5.139037777822959470e+02
2.422532957250594698e+00 5.139413355821453706e+02
2.422632979255435970e+00 5.139789454244156559e+02
2.422733001260277241e+00 5.140166060429220352e+02
2.422833023265118069e+00 5.140543161673364239e+02
2.422933045269959340e+00 5.140920745232238005e+02
2.423033067274800167e+00 5.141298798320793821e+02
2.423133089279641439e+00 5.141677308113655727e+02
2.423233111284482266e+00 5.142056261745473194e+02
2.423333133289323538e+00 5.142435646311320170e+02
2.423433155294164365e+00 5.142815448867041823e+02
2.423533177299005636e+00 5.143195656429633118e+02
2.423633199303846908e+00 5.143576255977643541e+02
2.423733221308687735e+00 5.143957234451507929e+02
2.423833243313528563e+00 5.144338578753969387e+02
2.423933265318369834e+00 5.144720275750437395e+02
2.424033287323211106e+00 5.145102312269376625e+02
2.424133309328051933e+00 5.145484675102684378e+02
2.424233331332893204e+00 5.145867351006082799e+02
2.424333353337734032e+00 5.146250326699506559e+02
2.424433375342575303e+00 5.146633588867483695e+02
2.424533397347416130e+00 5.147017124159540344e+02
2.424633419352257402e+00 5.147400919190572495e+02
2.424733441357098229e+00 5.147784960541259807e+02
2.424833463361939501e+00 5.148169234758443054e+02
2.424933485366780772e+00 5.148553728355523162e+02
2.425033507371621599e+00 5.148938427812871623e+02
2.425133529376462427e+00 5.149323319578213614e+02
2.425233551381303698e+00 5.149708390067033861e+02
2.425333573386144970e+00 5.150093625662977956e+02
2.425433595390985797e+00 5.150479012718247986e+02
2.425533617395827068e+00 5.150864537554026583e+02
2.425633639400667896e+00 5.151250186460866871e+02
2.425733661405509167e+00 5.151635945699093782e+02
2.425833683410349995e+00 5.152021801499224694e+02
2.425933705415191266e+00 5.152407740062369612e+02
2.426033727420032093e+00 5.152793747560663178e+02
2.426133749424873365e+00 5.153179810137635286e+02
2.426233771429714636e+00 5.153565913908664697e+02
2.426333793434555464e+00 5.153952044961374668e+02
2.426433815439396735e+00 5.154338189356050179e+02
2.426533837444237562e+00 5.154724333126057445e+02
2.426633859449078390e+00 5.155110462278254317e+02
2.426733881453919661e+00 5.155496562793425710e+02
2.426833903458760933e+00 5.155882620626694006e+02
2.426933925463601760e+00 5.156268621707921511e+02
2.427033947468443031e+00 5.156654551942177704e+02
2.427133969473284303e+00 5.157040397210128049e+02
2.427233991478124686e+00 5.157426143368463727e+02
2.427334013482965958e+00 5.157811776250339335e+02
2.427434035487807229e+00 5.158197281665783294e+02
2.427534057492648056e+00 5.158582645402153730e+02
2.427634079497489328e+00 5.158967853224536384e+02
2.427734101502330599e+00 5.159352890876194806e+02
2.427834123507171427e+00 5.159737744078995547e+02
2.427934145512012254e+00 5.160122398533831074e+02
2.428034167516853525e+00 5.160506839921081337e+02
2.428134189521694353e+00 5.160891053901019632e+02
2.428234211526535624e+00 5.161275026114252569e+02
2.428334233531376896e+00 5.161658742182169135e+02
2.428434255536217723e+00 5.162042187707372705e+02
2.428534277541058994e+00 5.162425348274110775e+02
2.428634299545899822e+00 5.162808209448734260e+02
2.428734321550741093e+00 5.163190756780101083e+02
2.428834343555581921e+00 5.163572975800066160e+02
2.428934365560423192e+00 5.163954852023879312e+02
2.429034387565264019e+00 5.164336370950649098e+02
2.429134409570105291e+00 5.164717518063786201e+02
2.429234431574946562e+00 5.165098278831446805e+02
2.429334453579787390e+00 5.165478638706974834e+02
2.429434475584628217e+00 5.165858583129343060e+02
2.429534497589469488e+00 5.166238097523610122e+02
2.429634519594310760e+00 5.166617167301362770e+02
2.429734541599151587e+00 5.166995777861171746e+02
2.429834563603992859e+00 5.167373914589009019e+02
2.429934585608833686e+00 5.167751562858760508e+02
2.430034607613674957e+00 5.168128708032613758e+02
2.430134629618515785e+00 5.168505335461529739e+02
2.430234651623357056e+00 5.168881430485718056e+02
2.430334673628197883e+00 5.169256978435055316e+02
2.430434695633039155e+00 5.169631964629563754e+02
2.430534717637880426e+00 5.170006374379842100e+02
2.430634739642721254e+00 5.170380192987547616e+02
2.430734761647562081e+00 5.170753405745825830e+02
2.430834783652403353e+00 5.171125997939774379e+02
2.430934805657244624e+00 5.171497954846904577e+02
2.431034827662085451e+00 5.171869261737613215e+02
2.431134849666926723e+00 5.172239903875585014e+02
2.431234871671767550e+00 5.172609866518314448e+02
2.431334893676608822e+00 5.172979134917522970e+02
2.431434915681449649e+00 5.173347694319647871e+02
2.431534937686290920e+00 5.173715529966266331e+02
2.431634959691131748e+00 5.174082627094580857e+02
2.431734981695973019e+00 5.174448970937885406e+02
2.431835003700814291e+00 5.174814546725987157e+02
2.431935025705655118e+00 5.175179339685721516e+02
2.432035047710495945e+00 5.175543335041373894e+02
2.432135069715337217e+00 5.175906518015148094e+02
2.432235091720178044e+00 5.176268873827647212e+02
2.432335113725019315e+00 5.176630387698312461e+02
2.432435135729860587e+00 5.176991044845906345e+02
2.432535157734701414e+00 5.177350830488961719e+02
2.432635179739542686e+00 5.177709729846252458e+02
2.432735201744383513e+00 5.178067728137252743e+02
2.432835223749224340e+00 5.178424810582612281e+02
2.432935245754065612e+00 5.178780962404603088e+02
2.433035267758906883e+00 5.179136168827600386e+02
2.433135289763747711e+00 5.179490415078536216e+02
2.433235311768588982e+00 5.179843686387374646e+02
2.433335333773430254e+00 5.180195967987571066e+02
2.433435355778271081e+00 5.180547245116536033e+02
2.433535377783111908e+00 5.180897503016109340e+02
2.433635399787953180e+00 5.181246726933013633e+02
2.433735421792794007e+00 5.181594902119335302e+02
2.433835443797635278e+00 5.181942013832976954e+02
2.433935465802476550e+00 5.182288047338130355e+02
2.434035487807317377e+00 5.182632987905741402e+02
2.434135509812158205e+00 5.182976820813984205e+02
2.434235531816999476e+00 5.183319531348716964e+02
2.434335553821840747e+00 5.183661104803945818e+02
2.434435575826681575e+00 5.184001526482306872e+02
2.434535597831522846e+00 5.184340781695519809e+02
2.434635619836363674e+00 5.184678855764864238e+02
2.434735641841204945e+00 5.185015734021629896e+02
2.434835663846045772e+00 5.185351401807611182e+02
2.434935685850887044e+00 5.185685844475542581e+02
2.435035707855727871e+00 5.186019047389581829e+02
2.435135729860569143e+00 5.186350995925780580e+02
2.435235751865410414e+00 5.186681675472538018e+02
2.435335773870251241e+00 5.187011071431079472e+02
2.435435795875092513e+00 5.187339169215906622e+02
2.435535817879933340e+00 5.187665954255288625e+02
2.435635839884774612e+00 5.187991411991689574e+02
2.435735861889615439e+00 5.188315527882280094e+02
2.435835883894456710e+00 5.188638287399369347e+02
2.435935905899297538e+00 5.188959676030881383e+02
2.436035927904138809e+00 5.189279679280820119e+02
2.436135949908980081e+00 5.189598282669735454e+02
2.436235971913820908e+00 5.189915471735176880e+02
2.436335993918661735e+00 5.190231232032180060e+02
2.436436015923503007e+00 5.190545549133711347e+02
2.436536037928344278e+00 5.190858408631135035e+02
2.436636059933185106e+00 5.191169796134681746e+02
2.436736081938026377e+00 5.191479697273910006e+02
2.436836103942867204e+00 5.191788097698167803e+02
2.436936125947708032e+00 5.192094983077051893e+02
2.437036147952549303e+00 5.192400339100885276e+02
2.437136169957390575e+00 5.192704151481145800e+02
2.437236191962231402e+00 5.193006405950968656e+02
2.437336213967072673e+00 5.193307088265568154e+02
2.437436235971913945e+00 5.193606184202735676e+02
2.437536257976754772e+00 5.193903679563263722e+02
2.437636279981595600e+00 5.194199560171430221e+02
2.437736301986436871e+00 5.194493811875445317e+02
2.437836323991277698e+00 5.194786420547922035e+02
2.437936345996118970e+00 5.195077372086316245e+02
2.438036368000960241e+00 5.195366652413388238e+02
2.438136390005801069e+00 5.195654247477685885e+02
2.438236412010642340e+00 5.195940143253958468e+02
2.438336434015483167e+00 5.196224325743640975e+02
2.438436456020323995e+00 5.196506780975305446e+02
2.438536478025165266e+00 5.196787495005102073e+02
2.438636500030006538e+00 5.197066453917241233e+02
2.438736522034847365e+00 5.197343643824401624e+02
2.438836544039688636e+00 5.197619050868228214e+02
2.438936566044529908e+00 5.197892661219764250e+02
2.439036588049370735e+00 5.198164461079890089e+02
2.439136610054211562e+00 5.198434436679804094e+02
2.439236632059052834e+00 5.198702574281442139e+02
2.439336654063893661e+00 5.198968860177936904e+02
2.439436676068734933e+00 5.199233280694087398e+02
2.439536698073576204e+00 5.199495822186768237e+02
2.439636720078417031e+00 5.199756471045403714e+02
2.439736742083257859e+00 5.200015213692408906e+02
2.439836764088099130e+00 5.200272036583622821e+02
2.439936786092940402e+00 5.200526926208774512e+02
2.440036808097781229e+00 5.200779869091896899e+02
2.440136830102622501e+00 5.201030851791799705e+02
2.440236852107463328e+00 5.201279860902491237e+02
2.440336874112304599e+00 5.201526883053626307e+02
2.440436896117145427e+00 5.201771904910946205e+02
2.440536918121986698e+00 5.202014913176712980e+02
2.440636940126827525e+00 5.202255894590160779e+02
2.440736962131668797e+00 5.202494835927913073e+02
2.440836984136510068e+00 5.202731724004431726e+02
2.440937006141350896e+00 5.202966545672456959e+02
2.441037028146192167e+00 5.203199287823420036e+02
2.441137050151032994e+00 5.203429937387904829e+02
2.441237072155874266e+00 5.203658481336054820e+02
2.441337094160715093e+00 5.203884906678026709e+02
2.441437116165556365e+00 5.204109200464395144e+02
2.441537138170397192e+00 5.204331349786606324e+02
2.441637160175238463e+00 5.204551341777390689e+02
2.441737182180079735e+00 5.204769163611197200e+02
2.441837204184920562e+00 5.204984802504612844e+02
2.441937226189761390e+00 5.205198245716786687e+02
2.442037248194602661e+00 5.205409480549868704e+02
2.442137270199443932e+00 5.205618494349411094e+02
2.442237292204284760e+00 5.205825274504804838e+02
2.442337314209126031e+00 5.206029808449679877e+02
2.442437336213966859e+00 5.206232083662364403e+02
2.442537358218807686e+00 5.206432087666247526e+02
2.442637380223648957e+00 5.206629808030240838e+02
2.442737402228490229e+00 5.206825232369170635e+02
2.442837424233331056e+00 5.207018348344197420e+02
2.442937446238172328e+00 5.207209143663230861e+02
2.443037468243013599e+00 5.207397606081337926e+02
2.443137490247854426e+00 5.207583723401155567e+02
2.443237512252695254e+00 5.207767483473287484e+02
2.443337534257536525e+00 5.207948874196744100e+02
2.443437556262377353e+00 5.208127883519301804e+02
2.443537578267218624e+00 5.208304499437942923e+02
2.443637600272059895e+00 5.208478709999253624e+02
2.443737622276900723e+00 5.208650503299805905e+02
2.443837644281741994e+00 5.208819867486586190e+02
2.443937666286582822e+00 5.208986790757378458e+02
2.444037688291423649e+00 5.209151261361154184e+02
2.444137710296264920e+00 5.209313267598487300e+02
2.444237732301106192e+00 5.209472797821944141e+02
2.444337754305947019e+00 5.209629840436464292e+02
2.444437776310788291e+00 5.209784383899763043e+02
2.444537798315629562e+00 5.209936416722732702e+02
2.444637820320470389e+00 5.210085927469795024e+02
2.444737842325311217e+00 5.210232904759336634e+02
2.444837864330152488e+00 5.210377337264047810e+02
2.444937886334993316e+00 5.210519213711351085e+02
2.445037908339834587e+00 5.210658522883754813e+02
2.445137930344675858e+00 5.210795253619231744e+02
2.445237952349516686e+00 5.210929394811627162e+02
2.445337974354357513e+00 5.211060935411006767e+02
2.445437996359198785e+00 5.211189864424042071e+02
2.445538018364040056e+00 5.211316170914399208e+02
2.445638040368880883e+00 5.211439844003092503e+02
2.445738062373722155e+00 5.211560872868871002e+02
2.445838084378562982e+00 5.211679246748579999e+02
2.445938106383404254e+00 5.211794954937528246e+02
2.446038128388245081e+00 5.211907986789851748e+02
2.446138150393086352e+00 5.212018331718900299e+02
2.446238172397927180e+00 5.212125979197572860e+02
2.446338194402768451e+00 5.212230918758691587e+02
2.446438216407609723e+00 5.212333139995359943e+02
2.446538238412450550e+00 5.212432632561326500e+02
2.446638260417291821e+00 5.212529386171321448e+02
2.446738282422132649e+00 5.212623390601446545e+02
2.446838304426973920e+00 5.212714635689490024e+02
2.446938326431814748e+00 5.212803111335291533e+02
2.447038348436656019e+00 5.212888807501108204e+02
2.447138370441496846e+00 5.212971714211930703e+02
2.447238392446338118e+00 5.213051821555854985e+02
2.447338414451179389e+00 5.213129119684402895e+02
2.447438436456020217e+00 5.213203598812895052e+02
2.447538458460861044e+00 5.213275249220755541e+02
2.447638480465702315e+00 5.213344061251867743e+02
2.447738502470543587e+00 5.213410025314922223e+02
2.447838524475384414e+00 5.213473131883711176e+02
2.447938546480225686e+00 5.213533371497512690e+02
2.448038568485066513e+00 5.213590734761378371e+02
2.448138590489907340e+00 5.213645212346478957e+02
2.448238612494748612e+00 5.213696794990439685e+02
2.448338634499589883e+00 5.213745473497643843e+02
2.448438656504430710e+00 5.213791238739570417e+02
2.448538678509271982e+00 5.213834081655110140e+02
2.448638700514113253e+00 5.213873993250881540e+02
2.448738722518954081e+00 5.213910964601552678e+02
2.448838744523794908e+00 5.213944986850144687e+02
2.448938766528636179e+00 5.213976051208363742e+02
2.449038788533477007e+00 5.214004148956884137e+02
2.449138810538318278e+00 5.214029271445690483e+02
2.449238832543159550e+00 5.214051410094351695e+02
2.449338854548000377e+00 5.214070556392341587e+02
2.449438876552841204e+00 5.214086701899344689e+02
2.449538898557682476e+00 5.214099838245532510e+02
2.449638920562523303e+00 5.214109957131900046e+02
2.449738942567364575e+00 5.214117050330529537e+02
2.449838964572205846e+00 5.214121109684892872e+02
2.449938986577046673e+00 5.214122127110149449e+02
2.450039008581887945e+00 5.214120094593429258e+02
2.450139030586728772e+00 5.214115004194115954e+02
2.450239052591570044e+00 5.214106848044153821e+02
2.450339074596410871e+00 5.214095618348301286e+02
2.450439096601252142e+00 5.214081307384425372e+02
2.450539118606092970e+00 5.214063907503785913e+02
2.450639140610934241e+00 5.214043411131300445e+02
2.450739162615775513e+00 5.214019810765829561e+02
2.450839184620616340e+00 5.213993098980438390e+02
2.450939206625457167e+00 5.213963268422673991e+02
2.451039228630298439e+00 5.213930311814829111e+02
2.451139250635139710e+00 5.213894221954197974e+02
2.451239272639980538e+00 5.213854991713371874e+02
2.451339294644821809e+00 5.213812614040450626e+02
2.451439316649662636e+00 5.213767081959349525e+02
2.451539338654503908e+00 5.213718388570014213e+02
2.451639360659344735e+00 5.213666527048713988e+02
2.451739382664186007e+00 5.213611490648252129e+02
2.451839404669026834e+00 5.213553272698252385e+02
2.451939426673868105e+00 5.213491866605376117e+02
2.452039448678709377e+00 5.213427265853592871e+02
2.452139470683550204e+00 5.213359464004402071e+02
2.452239492688391032e+00 5.213288454697076304e+02
2.452339514693232303e+00 5.213214231648913710e+02
2.452439536698073574e+00 5.213136788655459668e+02
2.452539558702914402e+00 5.213056119590735307e+02
2.452639580707755673e+00 5.212972218407470564e+02
2.452739602712596501e+00 5.212885079137359980e+02
2.452839624717437772e+00 5.212794695891244601e+02
2.452939646722278599e+00 5.212701062859359808e+02
2.453039668727119871e+00 5.212604174311555880e+02
2.453139690731960698e+00 5.212504024597502621e+02
2.453239712736801970e+00 5.212400608146921286e+02
2.453339734741643241e+00 5.212293919469805132e+02
2.453439756746484068e+00 5.212183953156589951e+02
2.453539778751325340e+00 5.212070703878407585e+02
2.453639800756166167e+00 5.211954166387270106e+02
2.453739822761006995e+00 5.211834335516274450e+02
2.453839844765848266e+00 5.211711206179820692e+02
2.453939866770689537e+00 5.211584773373775761e+02
2.454039888775530365e+00 5.211455032175708766e+02
2.454139910780371636e+00 5.211321977745054710e+02
2.454239932785212908e+00 5.211185605323330492e+02
2.454339954790053291e+00 5.211045910234299754e+02
2.454439976794894562e+00 5.210902887884169559e+02
2.454539998799735834e+00 5.210756533761795026e+02
2.454640020804576661e+00 5.210606843438820306e+02
2.454740042809417933e+00 5.210453812569878664e+02
2.454840064814259204e+00 5.210297436892785754e+02
2.454940086819100031e+00 5.210137712228672626e+02
2.455040108823940859e+00 5.209974634482192641e+02
2.455140130828782130e+00 5.209808199641676083e+02
2.455240152833622957e+00 5.209638403779297278e+02
2.455340174838464229e+00 5.209465243051230345e+02
2.455440196843305500e+00 5.209288713697828825e+02
2.455540218848146328e+00 5.209108812043756416e+02
2.455640240852987599e+00 5.208925534498179104e+02
2.455740262857828426e+00 5.208738877554876581e+02
2.455840284862669698e+00 5.208548837792429822e+02
2.455940306867510525e+00 5.208355411874347283e+02
2.456040328872351797e+00 5.208158596549216099e+02
2.456140350877192624e+00 5.207958388650843062e+02
2.456240372882033896e+00 5.207754785098395587e+02
2.456340394886875167e+00 5.207547782896547233e+02
2.456440416891715994e+00 5.207337379135589117e+02
2.456540438896556822e+00 5.207123570991600445e+02
2.456640460901398093e+00 5.206906355726538322e+02
2.456740482906239365e+00 5.206685730688382137e+02
2.456840504911080192e+00 5.206461693311272256e+02
2.456940526915921463e+00 5.206234241115602117e+02
2.457040548920762291e+00 5.206003371708153509e+02
2.457140570925603562e+00 5.205769082782226178e+02
2.457240592930444389e+00 5.205531372117715136e+02
2.457340614935285661e+00 5.205290237581259589e+02
2.457440636940126488e+00 5.205045677126332748e+02
2.457540658944967760e+00 5.204797688793337329e+02
2.457640680949809031e+00 5.204546270709735154e+02
2.457740702954649858e+00 5.204291421090126732e+02
2.457840724959490686e+00 5.204033138236354716e+02
2.457940746964331957e+00 5.203771420537608492e+02
2.458040768969173229e+00 5.203506266470486707e+02
2.458140790974014056e+00 5.203237674599129150e+02
2.458240812978855327e+00 5.202965643575271315e+02
2.458340834983696155e+00 5.202690172138343314e+02
2.458440856988537426e+00 5.202411259115538087e+02
2.458540878993378254e+00 5.202128903421906898e+02
2.458640900998219525e+00 5.201843104060433234e+02
2.458740923003060352e+00 5.201553860122079413e+02
2.458840945007901624e+00 5.201261170785899139e+02
2.458940967012742895e+00 5.200965035319080698e+02
2.459040989017583723e+00 5.200665453077006077e+02
2.459141011022424994e+00 5.200362423503329410e+02
2.459241033027265821e+00 5.200055946130029270e+02
2.459341055032106649e+00 5.199746020577467789e+02
2.459441077036947920e+00 5.199432646554444091e+02
2.459541099041789192e+00 5.199115823858245449e+02
2.459641121046630019e+00 5.198795552374693898e+02
2.459741143051471290e+00 5.198471832078196257e+02
2.459841165056312562e+00 5.198144663031783921e+02
2.459941187061152945e+00 5.197814045387158330e+02
2.460041209065994217e+00 5.197479979384722810e+02
2.460141231070835488e+00 5.197142465353624630e+02
2.460241253075676315e+00 5.196801503711781152e+02
2.460341275080517587e+00 5.196457094965909391e+02
2.460441297085358858e+00 5.196109239711555574e+02
2.460541319090199686e+00 5.195757938633121285e+02
2.460641341095040513e+00 5.195403192503879382e+02
2.460741363099881784e+00 5.195045002185999010e+02
2.460841385104722612e+00 5.194683368630561517e+02
2.460941407109563883e+00 5.194318292877555905e+02
2.461041429114405155e+00 5.193949776055920893e+02
2.461141451119245982e+00 5.193577819383519909e+02
2.461241473124087253e+00 5.193202424167174058e+02
2.461341495128928081e+00 5.192823591802641658e+02
2.461441517133769352e+00 5.192441323774628472e+02
2.461541539138610180e+00 5.192055621656793392e+02
2.461641561143451451e+00 5.191666487111717743e+02
2.461741583148292278e+00 5.191273921890923475e+02
2.461841605153133550e+00 5.190877927834835646e+02
2.461941627157974821e+00 5.190478506872791513e+02
2.462041649162815649e+00 5.190075661023006433e+02
2.462141671167656476e+00 5.189669392392576128e+02
2.462241693172497747e+00 5.189259703177410756e+02
2.462341715177339019e+00 5.188846595662264463e+02
2.462441737182179846e+00 5.188430072220658076e+02
2.462541759187021118e+00 5.188010135314892750e+02
2.462641781191861945e+00 5.187586787495979479e+02
2.462741803196703216e+00 5.187160031403609537e+02
2.462841825201544044e+00 5.186729869766143111e+02
2.462941847206385315e+00 5.186296305400530855e+02
2.463041869211226143e+00 5.185859341212301388e+02
2.463141891216067414e+00 5.185418980195481709e+02
2.463241913220908685e+00 5.184975225432568777e+02
2.463341935225749513e+00 5.184528080094478355e+02
2.463441957230590340e+00 5.184077547440473381e+02
2.463541979235431612e+00 5.183623630818124184e+02
2.463642001240272883e+00 5.183166333663236856e+02
2.463742023245113710e+00 5.182705659499777084e+02
2.463842045249954982e+00 5.182241611939837185e+02
2.463942067254795809e+00 5.181774194683529231e+02
2.464042089259637081e+00 5.181303411518948678e+02
2.464142111264477908e+00 5.180829266322070907e+02
2.464242133269319179e+00 5.180351763056685286e+02
2.464342155274160007e+00 5.179870905774321272e+02
2.464442177279001278e+00 5.179386698614147235e+02
2.464542199283842550e+00 5.178899145802905650e+02
2.464642221288683377e+00 5.178408251654823289e+02
2.464742243293524648e+00 5.177914020571495257e+02
2.464842265298365476e+00 5.177416457041822468e+02
2.464942287303206303e+00 5.176915565641896819e+02
2.465042309308047574e+00 5.176411351034907966e+02
2.465142331312888846e+00 5.175903817971041008e+02
2.465242353317729673e+00 5.175392971287374166e+02
2.465342375322570945e+00 5.174878815907760554e+02
2.465442397327412216e+00 5.174361356842742907e+02
2.465542419332252599e+00 5.173840599189413751e+02
2.465642441337093871e+00 5.173316548131311947e+02
2.465742463341935142e+00 5.172789208938309002e+02
2.465842485346775970e+00 5.172258586966484017e+02
2.465942507351617241e+00 5.171724687657997492e+02
2.466042529356458513e+00 5.171187516540969682e+02
2.466142551361299340e+00 5.170647079229360088e+02
2.466242573366140167e+00 5.170103381422818529e+02
2.466342595370981439e+00 5.169556428906558949e+02
2.466442617375822266e+00 5.169006227551228676e+02
2.466542639380663537e+00 5.168452783312764041e+02
2.466642661385504809e+00 5.167896102232250541e+02
2.466742683390345636e+00 5.167336190435778462e+02
2.466842705395186908e+00 5.166773054134291669e+02
2.466942727400027735e+00 5.166206699623439818e+02
2.467042749404869006e+00 5.165637133283437379e+02
2.467142771409709834e+00 5.165064361578885155e+02
2.467242793414551105e+00 5.164488391058648631e+02
2.467342815419391933e+00 5.163909228355654477e+02
2.467442837424233204e+00 5.163326880186749577e+02
2.467542859429074031e+00 5.162741353352555507e+02
2.467642881433915303e+00 5.162152654737261628e+02
2.467742903438756130e+00 5.161560791308492071e+02
2.467842925443597402e+00 5.160965770117097691e+02
2.467942947448438673e+00 5.160367598297000313e+02
2.468042969453279500e+00 5.159766283065031303e+02
2.468142991458120772e+00 5.159161831720707596e+02
2.468243013462961599e+00 5.158554251646086186e+02
2.468343035467802871e+00 5.157943550305552662e+02
2.468443057472643698e+00 5.157329735245660913e+02
2.468543079477484969e+00 5.156712814094921669e+02
2.468643101482325797e+00 5.156092794563613779e+02
2.468743123487167068e+00 5.155469684443575034e+02
2.468843145492008340e+00 5.154843491608036175e+02
2.468943167496849167e+00 5.154214224011392389e+02
2.469043189501689994e+00 5.153581889689012314e+02
2.469143211506531266e+00 5.152946496757026580e+02
2.469243233511372537e+00 5.152308053412120898e+02
2.469343255516213365e+00 5.151666567931328018e+02
2.469443277521054636e+00 5.151022048671806033e+02
2.469543299525895463e+00 5.150374504070643980e+02
2.469643321530736291e+00 5.149723942644610588e+02
2.469743343535577562e+00 5.149070372989958742e+02
2.469843365540418834e+00 5.148413803782200375e+02
2.469943387545259661e+00 5.147754243775865461e+02
2.470043409550100932e+00 5.147091701804295099e+02
2.470143431554942204e+00 5.146426186779393674e+02
2.470243453559783031e+00 5.145757707691404903e+02
2.470343475564623859e+00 5.145086273608669671e+02
2.470443497569465130e+00 5.144411893677405487e+02
2.470543519574305957e+00 5.143734577121441589e+02
2.470643541579147229e+00 5.143054333241990435e+02
2.470743563583988500e+00 5.142371171417405549e+02
2.470843585588829328e+00 5.141685101102928002e+02
2.470943607593670599e+00 5.140996131830447666e+02
2.471043629598511426e+00 5.140304273208226959e+02
2.471143651603352254e+00 5.139609534920680289e+02
2.471243673608193525e+00 5.138911926728084154e+02
2.471343695613034797e+00 5.138211458466346357e+02
2.471443717617875624e+00 5.137508140046726339e+02
2.471543739622716895e+00 5.136801981455582791e+02
2.471643761627558167e+00 5.136092992754097395e+02
2.471743783632398994e+00 5.135381184078017895e+02
2.471843805637239821e+00 5.134666565637375015e+02
2.471943827642081093e+00 5.133949147716225525e+02
2.472043849646921920e+00 5.133228940672368026e+02
2.472143871651763192e+00 5.132505954937065553e+02
2.472243893656604463e+00 5.131780201014764771e+02
2.472343915661445291e+00 5.131051689482819711e+02
2.472443937666286118e+00 5.130320430991205285e+02
2.472543959671127389e+00 5.129586436262234201e+02
2.472643981675968661e+00 5.128849716090269339e+02
2.472744003680809488e+00 5.128110281341411110e+02
2.472844025685650760e+00 5.127368142953246206e+02
2.472944047690491587e+00 5.126623311934527010e+02
2.473044069695332858e+00 5.125875799364864633e+02
2.473144091700173686e+00 5.125125616394450390e+02
2.473244113705014957e+00 5.124372774243756794e+02
2.473344135709855784e+00 5.123617284203207873e+02
2.473444157714697056e+00 5.122859157632906317e+02
2.473544179719538327e+00 5.122098405962300376e+02
2.473644201724379155e+00 5.121335040689886000e+02
2.473744223729220426e+00 5.120569073382896477e+02
2.473844245734061253e+00 5.119800515676978421e+02
2.473944267738902525e+00 5.119029379275887663e+02
2.474044289743743352e+00 5.118255675951162971e+02
2.474144311748584624e+00 5.117479417541809426e+02
2.474244333753425451e+00 5.116700615953978968e+02
2.474344355758266722e+00 5.115919283160637860e+02
2.474444377763107994e+00 5.115135431201246092e+02
2.474544399767948821e+00 5.114349072181434508e+02
2.474644421772789649e+00 5.113560218272652946e+02
2.474744443777630920e+00 5.112768881711876929e+02
2.474844465782472192e+00 5.111975074801233632e+02
2.474944487787313019e+00 5.111178809907681284e+02
2.475044509792154290e+00 5.110380099462688008e+02
2.475144531796995118e+00 5.109578955961856082e+02
2.475244553801835945e+00 5.108775391964609298e+02
2.475344575806677216e+00 5.107969420093842245e+02
2.475444597811518488e+00 5.107161053035571285e+02
2.475544619816359315e+00 5.106350303538577009e+02
2.475644641821200587e+00 5.105537184414075682e+02
2.475744663826041858e+00 5.104721708535355447e+02
2.475844685830882685e+00 5.103903888837419345e+02
2.475944707835723513e+00 5.103083738316639710e+02
2.476044729840564784e+00 5.102261270030395508e+02
2.476144751845405612e+00 5.101436497096714788e+02
2.476244773850246883e+00 5.100609432693913732e+02
2.476344795855088154e+00 5.099780090060230577e+02
2.476444817859928982e+00 5.098948482493477172e+02
2.476544839864770253e+00 5.098114623350638794e+02
2.476644861869611081e+00 5.097278526047552987e+02
2.476744883874451908e+00 5.096440204058501990e+02
2.476844905879293179e+00 5.095599670915854631e+02
2.476944927884134451e+00 5.094756940209693994e+02
2.477044949888975278e+00 5.093912025587449648e+02
2.477144971893816550e+00 5.093064940753495762e+02
2.477244993898657821e+00 5.092215699468815728e+02
2.477345015903498648e+00 5.091364315550572428e+02
2.477445037908339476e+00 5.090510802871771148e+02
2.477545059913180747e+00 5.089655175360853718e+02
2.477645081918021575e+00 5.088797447001295495e+02
2.477745103922862846e+00 5.087937631831262593e+02
2.477845125927704117e+00 5.087075743943202042e+02
2.477945147932544945e+00 5.086211797483440478e+02
2.478045169937385772e+00 5.085345806651802150e+02
2.478145191942227044e+00 5.084477785701233188e+02
2.478245213947068315e+00 5.083607748937376414e+02
2.478345235951909142e+00 5.082735710718200153e+02
2.478445257956750414e+00 5.081861685453587825e+02
2.478545279961591241e+00 5.080985687604941177e+02
2.478645301966432513e+00 5.080107731684779537e+02
2.478745323971273340e+00 5.079227832256341344e+02
2.478845345976114611e+00 5.078346003933185102e+02
2.478945367980955439e+00 5.077462261378769313e+02
2.479045389985796710e+00 5.076576619306055136e+02
2.479145411990637982e+00 5.075689092477105078e+02
2.479245433995478809e+00 5.074799695702650979e+02
2.479345456000320080e+00 5.073908443841719418e+02
2.479445478005160908e+00 5.073015351801186057e+02
2.479545500010002179e+00 5.072120434535372624e+02
2.479645522014843007e+00 5.071223707045639912e+02
2.479745544019684278e+00 5.070325184379968846e+02
2.479845566024525105e+00 5.069424881632527331e+02
2.479945588029366377e+00 5.068522813943282586e+02
2.480045610034207648e+00 5.067618996497547528e+02
2.480145632039048476e+00 5.066713444525574346e+02
2.480245654043889303e+00 5.065806173302136699e+02
2.480345676048730574e+00 5.064897198146098276e+02
2.480445698053571846e+00 5.063986534419983627e+02
2.480545720058412673e+00 5.063074197529563776e+02
2.480645742063253945e+00 5.062160202923418524e+02
2.480745764068094772e+00 5.061244566092503874e+02
2.480845786072935599e+00 5.060327302569745598e+02
2.480945808077776871e+00 5.059408427929563459e+02
2.481045830082618142e+00 5.058487957787491496e+02
2.481145852087458969e+00 5.057565907799693719e+02
2.481245874092300241e+00 5.056642293662570182e+02
2.481345896097141512e+00 5.055717131112294283e+02
2.481445918101982340e+00 5.054790435924388703e+02
2.481545940106823167e+00 5.053862223913276921e+02
2.481645962111664439e+00 5.052932510931856314e+02
2.481745984116505266e+00 5.052001312871050231e+02
2.481846006121346537e+00 5.051068645659358936e+02
2.481946028126187809e+00 5.050134525262433272e+02
2.482046050131028636e+00 5.049198967682624470e+02
2.482146072135869908e+00 5.048261988958521442e+02
2.482246094140710735e+00 5.047323605164540936e+02
2.482346116145551562e+00 5.046383832410448349e+02
2.482446138150392834e+00 5.045442686840920032e+02
2.482546160155234105e+00 5.044500184635107871e+02
2.482646182160074932e+00 5.043556342006168052e+02
2.482746204164916204e+00 5.042611175200829052e+02
2.482846226169757475e+00 5.041664700498930642e+02
2.482946248174598303e+00 5.040716934212961178e+02
2.483046270179439130e+00 5.039767892687630138e+02
2.483146292184280401e+00 5.038817592299392345e+02
2.483246314189121229e+00 5.037866049456005726e+02
2.483346336193962500e+00 5.036913280596066329e+02
2.483446358198803772e+00 5.035959302188554148e+02
2.483546380203644599e+00 5.035004130732375529e+02
2.483646402208485426e+00 5.034047782755914113e+02
2.483746424213326698e+00 5.033090274816554484e+02
2.483846446218167969e+00 5.032131623500232536e+02
2.483946468223008797e+00 5.031171845420984710e+02
2.484046490227850068e+00 5.030210957220455157e+02
2.484146512232690895e+00 5.029248975567475668e+02
2.484246534237532167e+00 5.028285917157566587e+02
2.484346556242372994e+00 5.027321798712495138e+02
2.484446578247214266e+00 5.026356636979799077e+02
2.484546600252055093e+00 5.025390448732335358e+02
2.484646622256896364e+00 5.024423250767788431e+02
2.484746644261737636e+00 5.023455059908256430e+02
2.484846666266578463e+00 5.022485892999702628e+02
2.484946688271419291e+00 5.021515766911576293e+02
2.485046710276260562e+00 5.020544698536282340e+02
2.485146732281101833e+00 5.019572704788742499e+02
2.485246754285942661e+00 5.018599802605918967e+02
2.485346776290783932e+00 5.017626008946330671e+02
2.485446798295624760e+00 5.016651340789617848e+02
2.485546820300466031e+00 5.015675815136034998e+02
2.485646842305306858e+00 5.014699449005995575e+02
2.485746864310148130e+00 5.013722259439612117e+02
2.485846886314988957e+00 5.012744263496197163e+02
2.485946908319830229e+00 5.011765478253809647e+02
2.486046930324671500e+00 5.010785920808793321e+02
2.486146952329512327e+00 5.009805608275255508e+02
2.486246974334353599e+00 5.008824557784657827e+02
2.486346996339194426e+00 5.007842786485292663e+02
2.486447018344035254e+00 5.006860311541831265e+02
2.486547040348876525e+00 5.005877150134842282e+02
2.486647062353717796e+00 5.004893319460323369e+02
2.486747084358558624e+00 5.003908836729212908e+02
2.486847106363399895e+00 5.002923719166922183e+02
2.486947128368241167e+00 5.001937984012865286e+02
2.487047150373081550e+00 5.000951648519967989e+02
2.487147172377922821e+00 4.999964729954209588e+02
2.487247194382764093e+00 4.998977245594129499e+02
2.487347216387604920e+00 4.997989212730351483e+02
2.487447238392446192e+00 4.997000648665120934e+02
2.487547260397287463e+00 4.996011570711813761e+02
2.487647282402128290e+00 4.995021996194464009e+02
2.487747304406969118e+00 4.994031942447285815e+02
2.487847326411810389e+00 4.993041426814189094e+02
2.487947348416651216e+00 4.992050466648306042e+02
2.488047370421492488e+00 4.991059079311526716e+02
2.488147392426333759e+00 4.990067282173988019e+02
2.488247414431174587e+00 4.989075092613633728e+02
2.488347436436015858e+00 4.988082528015702906e+02
2.488447458440856686e+00 4.987089605772269465e+02
2.488547480445697957e+00 4.986096343281761278e+02
2.488647502450538784e+00 4.985102757948485532e+02
2.488747524455380056e+00 4.984108867182127369e+02
2.488847546460220883e+00 4.983114688397304235e+02
2.488947568465062155e+00 4.982120239013062246e+02
2.489047590469903426e+00 4.981125536452405527e+02
2.489147612474744253e+00 4.980130598141829523e+02
2.489247634479585081e+00 4.979135441510816236e+02
2.489347656484426352e+00 4.978140083991393112e+02
2.489447678489267624e+00 4.977144543017600427e+02
2.489547700494108451e+00 4.976148836025068931e+02
2.489647722498949722e+00 4.975152980450524183e+02
2.489747744503790550e+00 4.974156993731275520e+02
2.489847766508631821e+00 4.973160893304795422e+02
2.489947788513472648e+00 4.972164696608188592e+02
2.490047810518313920e+00 4.971168421077751418e+02
2.490147832523154747e+00 4.970172084148472322e+02
2.490247854527996019e+00 4.969175703253579286e+02
2.490347876532837290e+00 4.968179295824029964e+02
2.490447898537678117e+00 4.967182879288062622e+02
2.490547920542518945e+00 4.966186471070708421e+02
2.490647942547360216e+00 4.965190088593315068e+02
2.490747964552201488e+00 4.964193749273076151e+02
2.490847986557042315e+00 4.963197470522555363e+02
2.490948008561883587e+00 4.962201269749198218e+02
2.491048030566724414e+00 4.961205164354891508e+02
2.491148052571565685e+00 4.960209171735441487e+02
2.491248074576406513e+00 4.959213309280135036e+02
2.491348096581247784e+00 4.958217594371250811e+02
2.491448118586088611e+00 4.957222044383609045e+02
2.491548140590929883e+00 4.956226676684054837e+02
2.491648162595771154e+00 4.955231508631026713e+02
2.491748184600611982e+00 4.954236557574074595e+02
2.491848206605453253e+00 4.953241840853364693e+02
2.491948228610294080e+00 4.952247375799246356e+02
2.492048250615134908e+00 4.951253179731761520e+02
2.492148272619976179e+00 4.950259269960171196e+02
2.492248294624817451e+00 4.949265663782483671e+02
2.492348316629658278e+00 4.948272378485012268e+02
2.492448338634499549e+00 4.947279431341869440e+02
2.492548360639340821e+00 4.946286839614535324e+02
2.492648382644181204e+00 4.945294620551366620e+02
2.492748404649022476e+00 4.944302791387128764e+02
2.492848426653863747e+00 4.943311369342551984e+02
2.492948448658704574e+00 4.942320371623844721e+02
2.493048470663545846e+00 4.941329815422247407e+02
2.493148492668387117e+00 4.940339717913528261e+02
2.493248514673227945e+00 4.939350096257591645e+02
2.493348536678068772e+00 4.938360967597949411e+02
2.493448558682910043e+00 4.937372349061280374e+02
2.493548580687750871e+00 4.936384257756986926e+02
2.493648602692592142e+00 4.935396710776707323e+02
2.493748624697433414e+00 4.934409725193879694e+02
2.493848646702274241e+00 4.933423318063259444e+02
2.493948668707115512e+00 4.932437506420492923e+02
2.494048690711956340e+00 4.931452307281615504e+02
2.494148712716797611e+00 4.930467737642647990e+02
2.494248734721638439e+00 4.929483814479098669e+02
2.494348756726479710e+00 4.928500554745522777e+02
2.494448778731320537e+00 4.927517975375074570e+02
2.494548800736161809e+00 4.926536093279044621e+02
2.494648822741003080e+00 4.925554925346424966e+02
2.494748844745843908e+00 4.924574488443426503e+02
2.494848866750684735e+00 4.923594799413061764e+02
2.494948888755526006e+00 4.922615875074669702e+02
2.495048910760367278e+00 4.921637732223486523e+02
2.495148932765208105e+00 4.920660387630192645e+02
2.495248954770049377e+00 4.919683858040447149e+02
2.495348976774890204e+00 4.918708160174466570e+02
2.495448998779731475e+00 4.917733310726592322e+02
2.495549020784572303e+00 4.916759326364792173e+02
2.495649042789413574e+00 4.915786223730269171e+02
2.495749064794254402e+00 4.914814019437010302e+02
2.495849086799095673e+00 4.913842730071316964e+02
2.495949108803936944e+00 4.912872372191411614e+02
2.496049130808777772e+00 4.911902962326958004e+02
2.496149152813618599e+00 4.910934516978650208e+02
2.496249174818459871e+00 4.909967052617760146e+02
2.496349196823301142e+00 4.909000585685710121e+02
2.496449218828141969e+00 4.908035132593647631e+02
2.496549240832983241e+00 4.907070709721984940e+02
2.496649262837824068e+00 4.906107333420006853e+02
2.496749284842665340e+00 4.905145020005396646e+02
2.496849306847506167e+00 4.904183785763854075e+02
2.496949328852347438e+00 4.903223646948615624e+02
2.497049350857188266e+00 4.902264619780071939e+02
2.497149372862029537e+00 4.901306720445322753e+02
2.497249394866870809e+00 4.900349965097748282e+02
2.497349416871711636e+00 4.899394369856599383e+02
2.497449438876552907e+00 4.898439950806555316e+02
2.497549460881393735e+00 4.897486723997330955e+02
2.497649482886234562e+00 4.896534705443236817e+02
2.497749504891075834e+00 4.895583911122757854e+02
2.497849526895917105e+00 4.894634356978165215e+02
2.497949548900757932e+00 4.893686058915062631e+02
2.498049570905599204e+00 4.892739032802002157e+02
2.498149592910440475e+00 4.891793294470053297e+02
2.498249614915280858e+00 4.890848859712406238e+02
2.498349636920122130e+00 4.889905744283950639e+02
2.498449658924963401e+00 4.888963963900870340e+02
2.498549680929804229e+00 4.888023534240242043e+02
2.498649702934645500e+00 4.887084470939612970e+02
2.498749724939486772e+00 4.886146789596623421e+02
2.498849746944327599e+00 4.885210505768578173e+02
2.498949768949168426e+00 4.884275634972055400e+02
2.499049790954009698e+00 4.883342192682518998e+02
2.499149812958850525e+00 4.882410194333888285e+02
2.499249834963691796e+00 4.881479655318186701e+02
2.499349856968533068e+00 4.880550590985093891e+02
2.499449878973373895e+00 4.879623016641597246e+02
2.499549900978215167e+00 4.878696947551573544e+02
2.499649922983055994e+00 4.877772398935407523e+02
2.499749944987897265e+00 4.876849385969599666e+02
2.499849966992738093e+00 4.875927923786380802e+02
2.499949988997579364e+00 4.875008027473326138e+02
2.500050011002420192e+00 5.351871146499769338e+02
2.500150033007261463e+00 5.355006254190407162e+02
2.500250055012102735e+00 5.358140515616541961e+02
2.500350077016943562e+00 5.361273881312092726e+02
2.500450099021784833e+00 5.364406301826533081e+02
2.500550121026625661e+00 5.367537727726275989e+02
2.500650143031466488e+00 5.370668109596091426e+02
2.500750165036307759e+00 5.373797398040460394e+02
2.500850187041148587e+00 5.376925543684965305e+02
2.500950209045989858e+00 5.380052497177700843e+02
2.501050231050831130e+00 5.383178209190627967e+02
2.501150253055672401e+00 5.386302630420971127e+02
2.501250275060513228e+00 5.389425711592607513e+02
2.501350297065354056e+00 5.392547403457432438e+02
2.501450319070195327e+00 5.395667656796751999e+02
2.501550341075036155e+00 5.398786422422656415e+02
2.501650363079877426e+00 5.401903651179405870e+02
2.501750385084718253e+00 5.405019293944792480e+02
2.501850407089559525e+00 5.408133301631527274e+02
2.501950429094400796e+00 5.411245625188622626e+02
2.502050451099241180e+00 5.414356215602733755e+02
2.502150473104082895e+00 5.417465023899569587e+02
2.502250495108923722e+00 5.420572001145237664e+02
2.502350517113764994e+00 5.423677098447619755e+02
2.502450539118605821e+00 5.426780266957736103e+02
2.502550561123447093e+00 5.429881457871115344e+02
2.502650583128287920e+00 5.432980622429155346e+02
2.502750605133128747e+00 5.436077711920490856e+02
2.502850627137970463e+00 5.439172677682347512e+02
2.502950649142810846e+00 5.442265471101887897e+02
2.503050671147652562e+00 5.445356043617607611e+02
2.503150693152493389e+00 5.448444346720643807e+02
2.503250715157334660e+00 5.451530331956159898e+02
2.503350737162175488e+00 5.454613950924684787e+02
2.503450759167016315e+00 5.457695155283461190e+02
2.503550781171857587e+00 5.460773896747804201e+02
2.503650803176698414e+00 5.463850127092421189e+02
2.503750825181540129e+00 5.466923798152786276e+02
2.503850847186380513e+00 5.469994861826453416e+02
2.503950869191222228e+00 5.473063270074418369e+02
2.504050891196063056e+00 5.476128974922431780e+02
2.504150913200903883e+00 5.479191928462354326e+02
2.504250935205745154e+00 5.482252082853468664e+02
2.504350957210585982e+00 5.485309390323830030e+02
2.504450979215427253e+00 5.488363803171566815e+02
2.504551001220268081e+00 5.491415273766243672e+02
2.504651023225109796e+00 5.494463754550124577e+02
2.504751045229950179e+00 5.497509198039552984e+02
2.504851067234791451e+00 5.500551556826239903e+02
2.504951089239632722e+00 5.503590783578561059e+02
2.505051111244473550e+00 5.506626831042905224e+02
2.505151133249314821e+00 5.509659652044958875e+02
2.505251155254155648e+00 5.512689199491011323e+02
2.505351177258996920e+00 5.515715426369265515e+02
2.505451199263837747e+00 5.518738285751131798e+02
2.505551221268678574e+00 5.521757730792540997e+02
2.505651243273519846e+00 5.524773714735213161e+02
2.505751265278361117e+00 5.527786190907964965e+02
2.505851287283202389e+00 5.530795112727998912e+02
2.505951309288043216e+00 5.533800433702167538e+02
2.506051331292884488e+00 5.536802107428293311e+02
2.506151353297725315e+00 5.539800087596406684e+02
2.506251375302566142e+00 5.542794327990043257e+02
2.506351397307407414e+00 5.545784782487517077e+02
2.506451419312248241e+00 5.548771405063187103e+02
2.506551441317089512e+00 5.551754149788704353e+02
2.506651463321930784e+00 5.554732970834307935e+02
2.506751485326772055e+00 5.557707822470048313e+02
2.506851507331612883e+00 5.560678659067078797e+02
2.506951529336453710e+00 5.563645435098860617e+02
2.507051551341294982e+00 5.566608105142463501e+02
2.507151573346135809e+00 5.569566623879778717e+02
2.507251595350977080e+00 5.572520946098755985e+02
2.507351617355817908e+00 5.575471026694658576e+02
2.507451639360659179e+00 5.578416820671288860e+02
2.507551661365500451e+00 5.581358283142212713e+02
2.507651683370340834e+00 5.584295369331995289e+02
2.507751705375182549e+00 5.587228034577424296e+02
2.507851727380023377e+00 5.590156234328707114e+02
2.507951749384864648e+00 5.593079924150714533e+02
2.508051771389705475e+00 5.595999059724165363e+02
2.508151793394546747e+00 5.598913596846862220e+02
2.508251815399387574e+00 5.601823491434856805e+02
2.508351837404228402e+00 5.604728699523674322e+02
2.508451859409070117e+00 5.607629177269504908e+02
2.508551881413910500e+00 5.610524880950392799e+02
2.508651903418752216e+00 5.613415766967394802e+02
2.508751925423593043e+00 5.616301791845817206e+02
2.508851947428434315e+00 5.619182912236343554e+02
2.508951969433275142e+00 5.622059084916230631e+02
2.509051991438115969e+00 5.624930266790468067e+02
2.509152013442957241e+00 5.627796414892956136e+02
2.509252035447798068e+00 5.630657486387646031e+02
2.509352057452639784e+00 5.633513438569704022e+02
2.509452079457480167e+00 5.636364228866676740e+02
2.509552101462321883e+00 5.639209814839615547e+02
2.509652123467162710e+00 5.642050154184220219e+02
2.509752145472003537e+00 5.644885204732003103e+02
2.509852167476844809e+00 5.647714924451386196e+02
2.509952189481685636e+00 5.650539271448845966e+02
2.510052211486526907e+00 5.653358203970035447e+02
2.510152233491367735e+00 5.656171680400901778e+02
2.510252255496209450e+00 5.658979659268816249e+02
2.510352277501049834e+00 5.661782099243636139e+02
2.510452299505891105e+00 5.664578959138862047e+02
2.510552321510732376e+00 5.667370197912714502e+02
2.510652343515573204e+00 5.670155774669215134e+02
2.510752365520414475e+00 5.672935648659295111e+02
2.510852387525255303e+00 5.675709779281875171e+02
2.510952409530096574e+00 5.678478126084939959e+02
2.511052431534937401e+00 5.681240648766614640e+02
2.511152453539778229e+00 5.683997307176226741e+02
2.511252475544619500e+00 5.686748061315389577e+02
2.511352497549460772e+00 5.689492871339034537e+02
2.511452519554302043e+00 5.692231697556487688e+02
2.511552541559142870e+00 5.694964500432500927e+02
2.511652563563984142e+00 5.697691240588305845e+02
2.511752585568824969e+00 5.700411878802643741e+02
2.511852607573665797e+00 5.703126376012803576e+02
2.511952629578507068e+00 5.705834693315646291e+02
2.512052651583347895e+00 5.708536791968623447e+02
2.512152673588189167e+00 5.711232633390800402e+02
2.512252695593030438e+00 5.713922179163860164e+02
2.512352717597871710e+00 5.716605391033108390e+02
2.512452739602712537e+00 5.719282230908478368e+02
2.512552761607553364e+00 5.721952660865515554e+02
2.512652783612394636e+00 5.724616643146385968e+02
2.512752805617235463e+00 5.727274140160832303e+02
2.512852827622076735e+00 5.729925114487158453e+02
2.512952849626917562e+00 5.732569528873224272e+02
2.513052871631758833e+00 5.735207346237376669e+02
2.513152893636600105e+00 5.737838529669426180e+02
2.513252915641440488e+00 5.740463042431605345e+02
2.513352937646282204e+00 5.743080847959514585e+02
2.513452959651123031e+00 5.745691909863054434e+02
2.513552981655964302e+00 5.748296191927372547e+02
2.513653003660805130e+00 5.750893658113786842e+02
2.513753025665646401e+00 5.753484272560720001e+02
2.513853047670487229e+00 5.756067999584611243e+02
2.513953069675328056e+00 5.758644803680820132e+02
2.514053091680169771e+00 5.761214649524558808e+02
2.514153113685010155e+00 5.763777501971765105e+02
2.514253135689851870e+00 5.766333326060014315e+02
2.514353157694692698e+00 5.768882087009401403e+02
2.514453179699533969e+00 5.771423750223420939e+02
2.514553201704374796e+00 5.773958281289851584e+02
2.514653223709215624e+00 5.776485645981617836e+02
2.514753245714056895e+00 5.779005810257652911e+02
2.514853267718897722e+00 5.781518740263770724e+02
2.514953289723739438e+00 5.784024402333494663e+02
2.515053311728579821e+00 5.786522762988923887e+02
2.515153333733421537e+00 5.789013788941551866e+02
2.515253355738262364e+00 5.791497447093126993e+02
2.515353377743103191e+00 5.793973704536433615e+02
2.515453399747944463e+00 5.796442528556167417e+02
2.515553421752785290e+00 5.798903886629706221e+02
2.515653443757626562e+00 5.801357746427919437e+02
2.515753465762467389e+00 5.803804075816000250e+02
2.515853487767309105e+00 5.806242842854222772e+02
2.515953509772149488e+00 5.808674015798753771e+02
2.516053531776990759e+00 5.811097563102417780e+02
2.516153553781832031e+00 5.813513453415479262e+02
2.516253575786672858e+00 5.815921655586406587e+02
2.516353597791514130e+00 5.818322138662633733e+02
2.516453619796354957e+00 5.820714871891326538e+02
2.516553641801196228e+00 5.823099824720101196e+02
2.516653663806037056e+00 5.825476966797801879e+02
2.516753685810877883e+00 5.827846267975191950e+02
2.516853707815719154e+00 5.830207698305728172e+02
2.516953729820560426e+00 5.832561228046247379e+02
2.517053751825401697e+00 5.834906827657696340e+02
2.517153773830242525e+00 5.837244467805824115e+02
2.517253795835083796e+00 5.839574119361909652e+02
2.517353817839924623e+00 5.841895753403420031e+02
2.517453839844765451e+00 5.844209341214728965e+02
2.517553861849606722e+00 5.846514854287781873e+02
2.517653883854447550e+00 5.848812264322755254e+02
2.517753905859288821e+00 5.851101543228754736e+02
2.517853927864130092e+00 5.853382663124448300e+02
2.517953949868971364e+00 5.855655596338722262e+02
2.518053971873812191e+00 5.857920315411346337e+02
2.518153993878653019e+00 5.860176793093577317e+02
2.518254015883494290e+00 5.862425002348819589e+02
2.518354037888335117e+00 5.864664916353242461e+02
2.518454059893176389e+00 5.866896508496384968e+02
2.518554081898017216e+00 5.869119752381775470e+02
2.518654103902858488e+00 5.871334621827541014e+02
2.518754125907699759e+00 5.873541090866987133e+02
2.518854147912540142e+00 5.875739133749200391e+02
2.518954169917381858e+00 5.877928724939624772e+02
2.519054191922222685e+00 5.880109839120631250e+02
2.519154213927063957e+00 5.882282451192098733e+02
2.519254235931904784e+00 5.884446536271958621e+02
2.519354257936746055e+00 5.886602069696749595e+02
2.519454279941586883e+00 5.888749027022190603e+02
2.519554301946427710e+00 5.890887384023668574e+02
2.519654323951269426e+00 5.893017116696819357e+02
2.519754345956109809e+00 5.895138201258018853e+02
2.519854367960951524e+00 5.897250614144920746e+02
2.519954389965792352e+00 5.899354332016943090e+02
2.520054411970633623e+00 5.901449331755802632e+02
2.520154433975474451e+00 5.903535590465974110e+02
2.520254455980315278e+00 5.905613085475213211e+02
2.520354477985156549e+00 5.907681794334995402e+02
2.520454499989997377e+00 5.909741694821032070e+02
2.520554521994839092e+00 5.911792764933712760e+02
2.520654543999679476e+00 5.913834982898553108e+02
2.520754566004521191e+00 5.915868327166671179e+02
2.520854588009362018e+00 5.917892776415222897e+02
2.520954610014202846e+00 5.919908309547816998e+02
2.521054632019044117e+00 5.921914905694978870e+02
2.521154654023884945e+00 5.923912544214538229e+02
2.521254676028726216e+00 5.925901204692069086e+02
2.521354698033567043e+00 5.927880866941275144e+02
2.521454720038408759e+00 5.929851511004405893e+02
2.521554742043249142e+00 5.931813117152644281e+02
2.521654764048090414e+00 5.933765665886471652e+02
2.521754786052931685e+00 5.935709137936065645e+02
2.521854808057772512e+00 5.937643514261668543e+02
2.521954830062613784e+00 5.939568776053936290e+02
2.522054852067454611e+00 5.941484904734306838e+02
2.522154874072295883e+00 5.943391881955317331e+02
2.522254896077136710e+00 5.945289689600990641e+02
2.522354918081977537e+00 5.947178309787116177e+02
2.522454940086818809e+00 5.949057724861620500e+02
2.522554962091660080e+00 5.950927917404841310e+02
2.522654984096501352e+00 5.952788870229860549e+02
2.522755006101342179e+00 5.954640566382802263e+02
2.522855028106183450e+00 5.956482989143122495e+02
2.522955050111024278e+00 5.958316122023895787e+02
2.523055072115865105e+00 5.960139948772095977e+02
2.523155094120706377e+00 5.961954453368858822e+02
2.523255116125547204e+00 5.963759620029763937e+02
2.523355138130388475e+00 5.965555433205065583e+02
2.523455160135229747e+00 5.967341877579960965e+02
2.523555182140071018e+00 5.969118938074815333e+02
2.523655204144911846e+00 5.970886599845410956e+02
2.523755226149752673e+00 5.972644848283150623e+02
2.523855248154593944e+00 5.974393669015302066e+02
2.523955270159434772e+00 5.976133047905187823e+02
2.524055292164276043e+00 5.977862971052388730e+02
2.524155314169116870e+00 5.979583424792945152e+02
2.524255336173958142e+00 5.981294395699547977e+02
2.524355358178799413e+00 5.982995870581709141e+02
2.524455380183639797e+00 5.984687836485928756e+02
2.524555402188481512e+00 5.986370280695881547e+02
2.524655424193322339e+00 5.988043190732543053e+02
2.524755446198163611e+00 5.989706554354366972e+02
2.524855468203004438e+00 5.991360359557402262e+02
2.524955490207845710e+00 5.993004594575446617e+02
2.525055512212686537e+00 5.994639247880164703e+02
2.525155534217527364e+00 5.996264308181193883e+02
2.525255556222369080e+00 5.997879764426277234e+02
2.525355578227209463e+00 5.999485605801353358e+02
2.525455600232051179e+00 6.001081821730656429e+02
2.525555622236892006e+00 6.002668401876801454e+02
2.525655644241733278e+00 6.004245336140855898e+02
2.525755666246574105e+00 6.005812614662431770e+02
2.525855688251414932e+00 6.007370227819737920e+02
2.525955710256256204e+00 6.008918166229641429e+02
2.526055732261097031e+00 6.010456420747705124e+02
2.526155754265938747e+00 6.011984982468252383e+02
2.526255776270779130e+00 6.013503842724386459e+02
2.526355798275620845e+00 6.015012993088007534e+02
2.526455820280461673e+00 6.016512425369854782e+02
2.526555842285302500e+00 6.018002131619514330e+02
2.526655864290143771e+00 6.019482104125399928e+02
2.526755886294984599e+00 6.020952335414779100e+02
2.526855908299825870e+00 6.022412818253737896e+02
2.526955930304666698e+00 6.023863545647182036e+02
2.527055952309508413e+00 6.025304510838792567e+02
2.527155974314348796e+00 6.026735707311006536e+02
2.527255996319190068e+00 6.028157128784965835e+02
2.527356018324031339e+00 6.029568769220478544e+02
2.527456040328872167e+00 6.030970622815943898e+02
2.527556062333713438e+00 6.032362684008307951e+02
2.527656084338554265e+00 6.033744947472989679e+02
2.527756106343395537e+00 6.035117408123782070e+02
2.527856128348236364e+00 6.036480061112779367e+02
2.527956150353077192e+00 6.037832901830292940e+02
2.528056172357918463e+00 6.039175925904730775e+02
2.528156194362759734e+00 6.040509129202501981e+02
2.528256216367601006e+00 6.041832507827887184e+02
2.528356238372441833e+00 6.043146058122923705e+02
2.528456260377282661e+00 6.044449776667272545e+02
2.528556282382123932e+00 6.045743660278071729e+02
2.528656304386964759e+00 6.047027706009808981e+02
2.528756326391806031e+00 6.048301911154143227e+02
2.528856348396646858e+00 6.049566273239740894e+02
2.528956370401488130e+00 6.050820790032153127e+02
2.529056392406329401e+00 6.052065459533570220e+02
2.529156414411169784e+00 6.053300279982696566e+02
2.529256436416011500e+00 6.054525249854530102e+02
2.529356458420852327e+00 6.055740367860164497e+02
2.529456480425693599e+00 6.056945632946592468e+02
2.529556502430534426e+00 6.058141044296486371e+02
2.529656524435375697e+00 6.059326601327975368e+02
2.529756546440216525e+00 6.060502303694426018e+02
2.529856568445057352e+00 6.061668151284202395e+02
2.529956590449899068e+00 6.062824144220421658e+02
2.530056612454739451e+00 6.063970282860694851e+02
2.530156634459581166e+00 6.065106567796891568e+02
2.530256656464421994e+00 6.066232999854862555e+02
2.530356678469263265e+00 6.067349580094158910e+02
2.530456700474104093e+00 6.068456309807766047e+02
2.530556722478944920e+00 6.069553190521826309e+02
2.530656744483786191e+00 6.070640223995319502e+02
2.530756766488627019e+00 6.071717412219771859e+02
2.530856788493468734e+00 6.072784757418961590e+02
2.530956810498309117e+00 6.073842262048591465e+02
2.531056832503150833e+00 6.074889928795961396e+02
2.531156854507991660e+00 6.075927760579654660e+02
2.531256876512832488e+00 6.076955760549190018e+02
2.531356898517673759e+00 6.077973932084680655e+02
2.531456920522514586e+00 6.078982278796477203e+02
2.531556942527355858e+00 6.079980804524832365e+02
2.531656964532196685e+00 6.080969513339500736e+02
2.531756986537038401e+00 6.081948409539404565e+02
2.531857008541878784e+00 6.082917497652218799e+02
2.531957030546720055e+00 6.083876782434007282e+02
2.532057052551561327e+00 6.084826268868835086e+02
2.532157074556402154e+00 6.085765962168350143e+02
2.532257096561243426e+00 6.086695867771380790e+02
2.532357118566084253e+00 6.087615991343533324e+02
2.532457140570925525e+00 6.088526338776757711e+02
2.532557162575766352e+00 6.089426916188931500e+02
2.532657184580607179e+00 6.090317729923416437e+02
2.532757206585448451e+00 6.091198786548623048e+02
2.532857228590289722e+00 6.092070092857549071e+02
2.532957250595130994e+00 6.092931655867359950e+02
2.533057272599971821e+00 6.093783482818869288e+02
2.533157294604813092e+00 6.094625581176134119e+02
2.533257316609653920e+00 6.095457958625922856e+02
2.533357338614494747e+00 6.096280623077278733e+02
2.533457360619336018e+00 6.097093582661003666e+02
2.533557382624176846e+00 6.097896845729167126e+02
2.533657404629018117e+00 6.098690420854616150e+02
2.533757426633859389e+00 6.099474316830447833e+02
2.533857448638700660e+00 6.100248542669509106e+02
2.533957470643541487e+00 6.101013107603877188e+02
2.534057492648382315e+00 6.101768021084309339e+02
2.534157514653223586e+00 6.102513292779732410e+02
2.534257536658064414e+00 6.103248932576685775e+02
2.534357558662905685e+00 6.103974950578781318e+02
2.534457580667746512e+00 6.104691357106146370e+02
2.534557602672587784e+00 6.105398162694858684e+02
2.534657624677429055e+00 6.106095378096383683e+02
2.534757646682269439e+00 6.106783014277002621e+02
2.534857668687111154e+00 6.107461082417221405e+02
2.534957690691951981e+00 6.108129593911203301e+02
2.535057712696793253e+00 6.108788560366156162e+02
2.535157734701634080e+00 6.109437993601734433e+02
2.535257756706475352e+00 6.110077905649458216e+02
2.535357778711316179e+00 6.110708308752066387e+02
2.535457800716157006e+00 6.111329215362931109e+02
2.535557822720998722e+00 6.111940638145397315e+02
2.535657844725839105e+00 6.112542589972200631e+02
2.535757866730680821e+00 6.113135083924781839e+02
2.535857888735521648e+00 6.113718133292669563e+02
2.535957910740362919e+00 6.114291751572837939e+02
2.536057932745203747e+00 6.114855952469025624e+02
2.536157954750044574e+00 6.115410749891102569e+02
2.536257976754885846e+00 6.115956157954389028e+02
2.536357998759726673e+00 6.116492190978977987e+02
2.536458020764568388e+00 6.117018863489071236e+02
2.536558042769408772e+00 6.117536190212280189e+02
2.536658064774250487e+00 6.118044186078950588e+02
2.536758086779091315e+00 6.118542866221440590e+02
2.536858108783932142e+00 6.119032245973445470e+02
2.536958130788773413e+00 6.119512340869282525e+02
2.537058152793614241e+00 6.119983166643154391e+02
2.537158174798455512e+00 6.120444739228466915e+02
2.537258196803296340e+00 6.120897074757076552e+02
2.537358218808138055e+00 6.121340189558559359e+02
2.537458240812978438e+00 6.121774100159491354e+02
2.537558262817819710e+00 6.122198823282693638e+02
2.537658284822660981e+00 6.122614375846476378e+02
2.537758306827501809e+00 6.123020774963914619e+02
2.537858328832343080e+00 6.123418037942052479e+02
2.537958350837183907e+00 6.123806182281161909e+02
2.538058372842025179e+00 6.124185225673965078e+02
2.538158394846866006e+00 6.124555186004856751e+02
2.538258416851706833e+00 6.124916081349130081e+02
2.538358438856548105e+00 6.125267929972181946e+02
2.538458460861389376e+00 6.125610750328725089e+02
2.538558482866230648e+00 6.125944561061987770e+02
2.538658504871071475e+00 6.126269381002913406e+02
2.538758526875912747e+00 6.126585229169363629e+02
2.538858548880753574e+00 6.126892124765275867e+02
2.538958570885594401e+00 6.127190087179885722e+02
2.539058592890435673e+00 6.127479135986858410e+02
2.539158614895276500e+00 6.127759290943496353e+02
2.539258636900117772e+00 6.128030571989891087e+02
2.539358658904959043e+00 6.128292999248081969e+02
2.539458680909800314e+00 6.128546593021220588e+02
2.539558702914641142e+00 6.128791373792710147e+02
2.539658724919481969e+00 6.129027362225359639e+02
2.539758746924323241e+00 6.129254579160535741e+02
2.539858768929164068e+00 6.129473045617269236e+02
2.539958790934005339e+00 6.129682782791420550e+02
2.540058812938846167e+00 6.129883812054785039e+02
2.540158834943687438e+00 6.130076154954214189e+02
2.540258856948528710e+00 6.130259833210747047e+02
2.540358878953369093e+00 6.130434868718713233e+02
2.540458900958210808e+00 6.130601283544842772e+02
2.540558922963051636e+00 6.130759099927358875e+02
2.540658944967892907e+00 6.130908340275100272e+02
2.540758966972733734e+00 6.131049027166586711e+02
2.540858988977575006e+00 6.131181183349132198e+02
2.540959010982415833e+00 6.131304831737917311e+02
2.541059032987256661e+00 6.131419995415062658e+02
2.541159054992098376e+00 6.131526697628723923e+02
2.541259076996938759e+00 6.131624961792148270e+02
2.541359099001780475e+00 6.131714811482744381e+02
2.541459121006621302e+00 6.131796270441154775e+02
2.541559143011462574e+00 6.131869362570294015e+02
2.541659165016303401e+00 6.131934111934424436e+02
2.541759187021144228e+00 6.131990542758193214e+02
2.541859209025985500e+00 6.132038679425675127e+02
2.541959231030826327e+00 6.132078546479427814e+02
2.542059253035668043e+00 6.132110168619525439e+02
2.542159275040508426e+00 6.132133570702578709e+02
2.542259297045350142e+00 6.132148777740768537e+02
2.542359319050190969e+00 6.132155814900901305e+02
2.542459341055031796e+00 6.132154707503368627e+02
2.542559363059873068e+00 6.132145481021237856e+02
2.542659385064713895e+00 6.132128161079206166e+02
2.542759407069555166e+00 6.132102773452634210e+02
2.542859429074395994e+00 6.132069344066566146e+02
2.542959451079237709e+00 6.132027898994699626e+02
2.543059473084078093e+00 6.131978464458406961e+02
2.543159495088919364e+00 6.131921066825723301e+02
2.543259517093760635e+00 6.131855732610340510e+02
2.543359539098601463e+00 6.131782488470589669e+02
2.543459561103442734e+00 6.131701361208420167e+02
2.543559583108283562e+00 6.131612377768408351e+02
2.543659605113124833e+00 6.131515565236679777e+02
2.543759627117965660e+00 6.131410950839945144e+02
2.543859649122806488e+00 6.131298561944417997e+02
2.543959671127647759e+00 6.131178426054823376e+02
2.544059693132489031e+00 6.131050570813322338e+02
2.544159715137330302e+00 6.130915023998501283e+02
2.544259737142171129e+00 6.130771813524314666e+02
2.544359759147012401e+00 6.130620967439037940e+02
2.544459781151853228e+00 6.130462513924221639e+02
2.544559803156694056e+00 6.130296481293642046e+02
2.544659825161535327e+00 6.130122897992227990e+02
2.544759847166376154e+00 6.129941792595026300e+02
2.544859869171217426e+00 6.129753193806128593e+02
2.544959891176058697e+00 6.129557130457585572e+02
2.545059913180899969e+00 6.129353631508371336e+02
2.545159935185740796e+00 6.129142726043302218e+02
2.545259957190581623e+00 6.128924443271947666e+02
2.545359979195422895e+00 6.128698812527563859e+02
2.545460001200263722e+00 6.128465863266028464e+02
2.545560023205104994e+00 6.128225625064725364e+02
2.545660045209945821e+00 6.127978127621498743e+02
2.545760067214787092e+00 6.127723400753527585e+02
2.545860089219628364e+00 6.127461474396254744e+02
2.545960111224468747e+00 6.127192378602306917e+02
2.546060133229310463e+00 6.126916143540372559e+02
2.546160155234151290e+00 6.126632799494108212e+02
2.546260177238992561e+00 6.126342376861057346e+02
2.546360199243833389e+00 6.126044906151532814e+02
2.546460221248674660e+00 6.125740417987508408e+02
2.546560243253515488e+00 6.125428943101520645e+02
2.546660265258356315e+00 6.125110512335559179e+02
2.546760287263198030e+00 6.124785156639934485e+02
2.546860309268038414e+00 6.124452907072197831e+02
2.546960331272880129e+00 6.124113794795996455e+02
2.547060353277720957e+00 6.123767851079963975e+02
2.547160375282562228e+00 6.123415107296609676e+02
2.547260397287403055e+00 6.123055594921163447e+02
2.547360419292243883e+00 6.122689345530501441e+02
2.547460441297085154e+00 6.122316390801968282e+02
2.547560463301925981e+00 6.121936762512285668e+02
2.547660485306767697e+00 6.121550492536401862e+02
2.547760507311608080e+00 6.121157612846362781e+02
2.547860529316449796e+00 6.120758155510181950e+02
2.547960551321290623e+00 6.120352152690700223e+02
2.548060573326131451e+00 6.119939636644455732e+02
2.548160595330972722e+00 6.119520639720529971e+02
2.548260617335813549e+00 6.119095194359422294e+02
2.548360639340654821e+00 6.118663333091891445e+02
2.548460661345495648e+00 6.118225088537828924e+02
2.548560683350337364e+00 6.117780493405102789e+02
2.548660705355177747e+00 6.117329580488411693e+02
2.548760727360019018e+00 6.116872382668133241e+02
2.548860749364860290e+00 6.116408932909189389e+02
2.548960771369701117e+00 6.115939264259859556e+02
2.549060793374542389e+00 6.115463409850682410e+02
2.549160815379383216e+00 6.114981402893254199e+02
2.549260837384224487e+00 6.114493276679088467e+02
2.549360859389065315e+00 6.113999064578464413e+02
2.549460881393906142e+00 6.113498800039276375e+02
2.549560903398747413e+00 6.112992516585863996e+02
2.549660925403588685e+00 6.112480247817844656e+02
2.549760947408429956e+00 6.111962027408977747e+02
2.549860969413270784e+00 6.111437889105986869e+02
2.549960991418112055e+00 6.110907866727386590e+02
2.550061013422952882e+00 6.110371994162351257e+02
2.550161035427793710e+00 6.109830305369517873e+02
2.550261057432634981e+00 6.109282834375851508e+02
2.550361079437475809e+00 6.108729615275445894e+02
2.550461101442317080e+00 6.108170682228388841e+02
2.550561123447158351e+00 6.107606069459581022e+02
2.550661145451999623e+00 6.107035811257557043e+02
2.550761167456840450e+00 6.106459941973344030e+02
2.550861189461681278e+00 6.105878496019274735e+02
2.550961211466522549e+00 6.105291507867819973e+02
2.551061233471363376e+00 6.104699012050424471e+02
2.551161255476204648e+00 6.104101043156329069e+02
2.551261277481045475e+00 6.103497635831414527e+02
2.551361299485886747e+00 6.102888824777006676e+02
2.551461321490728018e+00 6.102274644748736137e+02
2.551561343495568401e+00 6.101655130555346886e+02
2.551661365500410117e+00 6.101030317057527554e+02
2.551761387505250944e+00 6.100400239166737038e+02
2.551861409510092216e+00 6.099764931844049443e+02
2.551961431514933043e+00 6.099124430098966059e+02
2.552061453519774314e+00 6.098478768988236425e+02
2.552161475524615142e+00 6.097827983614720324e+02
2.552261497529455969e+00 6.097172109126177020e+02
2.552361519534297685e+00 6.096511180714126112e+02
2.552461541539138068e+00 6.095845233612642460e+02
2.552561563543979783e+00 6.095174303097221582e+02
2.552661585548820611e+00 6.094498424483583676e+02
2.552761607553661882e+00 6.093817633126510600e+02
2.552861629558502710e+00 6.093131964418665802e+02
2.552961651563343537e+00 6.092441453789454044e+02
2.553061673568184808e+00 6.091746136703814045e+02
2.553161695573025636e+00 6.091046048661079340e+02
2.553261717577867351e+00 6.090341225193782293e+02
2.553361739582707735e+00 6.089631701866510411e+02
2.553461761587549450e+00 6.088917514274727409e+02
2.553561783592390277e+00 6.088198698043601098e+02
2.553661805597231105e+00 6.087475288826851738e+02
2.553761827602072376e+00 6.086747322305578791e+02
2.553861849606913204e+00 6.086014834187078577e+02
2.553961871611754475e+00 6.085277860203722184e+02
2.554061893616595302e+00 6.084536436111737885e+02
2.554161915621437018e+00 6.083790597690102686e+02
2.554261937626277401e+00 6.083040380739337252e+02
2.554361959631118673e+00 6.082285821080369033e+02
2.554461981635959944e+00 6.081526954553366977e+02
2.554562003640800771e+00 6.080763817016583062e+02
2.554662025645642043e+00 6.079996444345188138e+02
2.554762047650482870e+00 6.079224872430127107e+02
2.554862069655324142e+00 6.078449137176945669e+02
2.554962091660164969e+00 6.077669274504662553e+02
2.555062113665005796e+00 6.076885320344596266e+02
2.555162135669847068e+00 6.076097310639202078e+02
2.555262157674688339e+00 6.075305281340960164e+02
2.555362179679529611e+00 6.074509268411197809e+02
2.555462201684370438e+00 6.073709307818932075e+02
2.555562223689211709e+00 6.072905435539757946e+02
2.555662245694052537e+00 6.072097687554669392e+02
2.555762267698893364e+00 6.071286099848940694e+02
2.555862289703734636e+00 6.070470708410969110e+02
2.555962311708575463e+00 6.069651549231139143e+02
2.556062333713416734e+00 6.068828658300690222e+02
2.556162355718258006e+00 6.068002071610563917e+02
2.556262377723099277e+00 6.067171825150289806e+02
2.556362399727940105e+00 6.066337954906821324e+02
2.556462421732780932e+00 6.065500496863446642e+02
2.556562443737622203e+00 6.064659486998612010e+02
2.556662465742463031e+00 6.063814961284834908e+02
2.556762487747304302e+00 6.062966955687545578e+02
2.556862509752145129e+00 6.062115506163979717e+02
2.556962531756986401e+00 6.061260648662052972e+02
2.557062553761827672e+00 6.060402419119234310e+02
2.557162575766668056e+00 6.059540853461443248e+02
2.557262597771509771e+00 6.058675987601914130e+02
2.557362619776350598e+00 6.057807857440088810e+02
2.557462641781191870e+00 6.056936498860509346e+02
2.557562663786032697e+00 6.056061947731714099e+02
2.557662685790873969e+00 6.055184239905098593e+02
2.557762707795714796e+00 6.054303411213860500e+02
2.557862729800555623e+00 6.053419497471843442e+02
2.557962751805397339e+00 6.052532534472475163e+02
2.558062773810237722e+00 6.051642557987656801e+02
2.558162795815079438e+00 6.050749603766651035e+02
2.558262817819920265e+00 6.049853707535021385e+02
2.558362839824761537e+00 6.048954904993508990e+02
2.558462861829602364e+00 6.048053231816963944e+02
2.558562883834443191e+00 6.047148723653247089e+02
2.558662905839284463e+00 6.046241416122170449e+02
2.558762927844125290e+00 6.045331344814375143e+02
2.558862949848967006e+00 6.044418545290290012e+02
2.558962971853807389e+00 6.043503053079041365e+02
2.559062993858649104e+00 6.042584903677393413e+02
2.559163015863489932e+00 6.041664132548645512e+02
2.559263037868330759e+00 6.040740775121606703e+02
2.559363059873172030e+00 6.039814866789504322e+02
2.559463081878012858e+00 6.038886442908931258e+02
2.559563103882854129e+00 6.037955538798789803e+02
2.559663125887694957e+00 6.037022189739230953e+02
2.559763147892536672e+00 6.036086430970608490e+02
2.559863169897377055e+00 6.035148297692430788e+02
2.559963191902218327e+00 6.034207825062292159e+02
2.560063213907059598e+00 6.033265048194867859e+02
2.560163235911900426e+00 6.032320002160847707e+02
2.560263257916741697e+00 6.031372721985906082e+02
2.560363279921582524e+00 6.030423242649661688e+02
2.560463301926423796e+00 6.029471599084658919e+02
2.560563323931264623e+00 6.028517826175340133e+02
2.560663345936105451e+00 6.027561958757005414e+02
2.560763367940946722e+00 6.026604031614821224e+02
2.560863389945787993e+00 6.025644079482771076e+02
2.560963411950629265e+00 6.024682137042659633e+02
2.561063433955470092e+00 6.023718238923102035e+02
2.561163455960311364e+00 6.022752419698524591e+02
2.561263477965152191e+00 6.021784713888133638e+02
2.561363499969993018e+00 6.020815155954951479e+02
2.561463521974834290e+00 6.019843780304795473e+02
2.561563543979675117e+00 6.018870621285292373e+02
2.561663565984516389e+00 6.017895713184890383e+02
2.561763587989357660e+00 6.016919090231879181e+02
2.561863609994198931e+00 6.015940786593397434e+02
2.561963631999039759e+00 6.014960836374467590e+02
2.562063654003880586e+00 6.013979273617014769e+02
2.562163676008721858e+00 6.012996132298884504e+02
2.562263698013562685e+00 6.012011446332910509e+02
2.562363720018403956e+00 6.011025249565909689e+02
2.562463742023244784e+00 6.010037575777764687e+02
2.562563764028086055e+00 6.009048458680427984e+02
2.562663786032927327e+00 6.008057931917014685e+02
2.562763808037767710e+00 6.007066029060822530e+02
2.562863830042609425e+00 6.006072783614388300e+02
2.562963852047450253e+00 6.005078229008584003e+02
2.563063874052291524e+00 6.004082398601649402e+02
2.563163896057132352e+00 6.003085325678267736e+02
2.563263918061973179e+00 6.002087043448646000e+02
2.563363940066814450e+00 6.001087585047595212e+02
2.563463962071655278e+00 6.000086983533593639e+02
2.563563984076496993e+00 5.999085271887906856e+02
2.563664006081337376e+00 5.998082483013639603e+02
2.563764028086179092e+00 5.997078649734850160e+02
2.563864050091019919e+00 5.996073804795665865e+02
2.563964072095860747e+00 5.995067980859347472e+02
2.564064094100702018e+00 5.994061210507422857e+02
2.564164116105542846e+00 5.993053526238807081e+02
2.564264138110384117e+00 5.992044960468887211e+02
2.564364160115224944e+00 5.991035545528675357e+02
2.564464182120066660e+00 5.990025313663917359e+02
2.564564204124907043e+00 5.989014297034225365e+02
2.564664226129748315e+00 5.988002527712211531e+02
2.564764248134589586e+00 5.986990037682636512e+02
2.564864270139430413e+00 5.985976858841527246e+02
2.564964292144271685e+00 5.984963022995366373e+02
2.565064314149112512e+00 5.983948561860202062e+02
2.565164336153953784e+00 5.982933507060841976e+02
2.565264358158794611e+00 5.981917890129976740e+02
2.565364380163635438e+00 5.980901742507393237e+02
2.565464402168476710e+00 5.979885095539106032e+02
2.565564424173317981e+00 5.978867980476551338e+02
2.565664446178159253e+00 5.977850428475768467e+02
2.565764468183000080e+00 5.976832470596582425e+02
2.565864490187841351e+00 5.975814137801792185e+02
2.565964512192682179e+00 5.974795460956376019e+02
2.566064534197523006e+00 5.973776470826687728e+02
2.566164556202364277e+00 5.972757198079643786e+02
2.566264578207205105e+00 5.971737673281968455e+02
2.566364600212046376e+00 5.970717926899375243e+02
2.566464622216887648e+00 5.969697989295812022e+02
2.566564644221728919e+00 5.968677890732677724e+02
2.566664666226569746e+00 5.967657661368043591e+02
2.566764688231410574e+00 5.966637331255889194e+02
2.566864710236251845e+00 5.965616930345372566e+02
2.566964732241092673e+00 5.964596488480035532e+02
2.567064754245933944e+00 5.963576035397070427e+02
2.567164776250774771e+00 5.962555600726589091e+02
2.567264798255616043e+00 5.961535213990862303e+02
2.567364820260457314e+00 5.960514904603585364e+02
2.567464842265297698e+00 5.959494701869176652e+02
2.567564864270139413e+00 5.958474634982035241e+02
2.567664886274980240e+00 5.957454733025797395e+02
2.567764908279821512e+00 5.956435024972685142e+02
2.567864930284662339e+00 5.955415539682738881e+02
2.567964952289503611e+00 5.954396305903137545e+02
2.568064974294344438e+00 5.953377352267509650e+02
2.568164996299185265e+00 5.952358707295238673e+02
2.568265018304026981e+00 5.951340399390754783e+02
2.568365040308867364e+00 5.950322456842893644e+02
2.568465062313709080e+00 5.949304907824172233e+02
2.568565084318549907e+00 5.948287780390153330e+02
2.568665106323391178e+00 5.947271102478780449e+02
2.568765128328232006e+00 5.946254901909692308e+02
2.568865150333072833e+00 5.945239206383594137e+02
2.568965172337914105e+00 5.944224043481593753e+02
2.569065194342754932e+00 5.943209440664575141e+02
2.569165216347596647e+00 5.942195425272532248e+02
2.569265238352437031e+00 5.941182024523969858e+02
2.569365260357278746e+00 5.940169265515252164e+02
2.569465282362119574e+00 5.939157175219991132e+02
2.569565304366960401e+00 5.938145780488440550e+02
2.569665326371801672e+00 5.937135108046861660e+02
2.569765348376642500e+00 5.936125184496953580e+02
2.569865370381483771e+00 5.935116036315215524e+02
2.569965392386324599e+00 5.934107689852385192e+02
2.570065414391166314e+00 5.933100171332836226e+02
2.570165436396006697e+00 5.932093506853997269e+02
2.570265458400847969e+00 5.931087722385783536e+02
2.570365480405689240e+00 5.930082843770017007e+02
2.570465502410530068e+00 5.929078896719868226e+02
2.570565524415371339e+00 5.928075906819301508e+02
2.570665546420212166e+00 5.927073899522501961e+02
2.570765568425053438e+00 5.926072900153365026e+02
2.570865590429894265e+00 5.925072933904899628e+02
2.570965612434735093e+00 5.924074025838754096e+02
2.571065634439576364e+00 5.923076200884647733e+02
2.571165656444417635e+00 5.922079483839846716e+02
2.571265678449258907e+00 5.921083899368672974e+02
2.571365700454099734e+00 5.920089472001953936e+02
2.571465722458941006e+00 5.919096226136543919e+02
2.571565744463781833e+00 5.918104186034827308e+02
2.571665766468622660e+00 5.917113375824187642e+02
2.571765788473463932e+00 5.916123819496565375e+02
2.571865810478304759e+00 5.915135540907924678e+02
2.571965832483146031e+00 5.914148563777822574e+02
2.572065854487987302e+00 5.913162911688909844e+02
2.572165876492828573e+00 5.912178608086484246e+02
2.572265898497669401e+00 5.911195676278006204e+02
2.572365920502510228e+00 5.910214139432657703e+02
2.572465942507351500e+00 5.909234020580906872e+02
2.572565964512192327e+00 5.908255342614049823e+02
2.572665986517033598e+00 5.907278128283778642e+02
2.572766008521874426e+00 5.906302400201752789e+02
2.572866030526715697e+00 5.905328180839179595e+02
2.572966052531556969e+00 5.904355492526383387e+02
2.573066074536397352e+00 5.903384357452412132e+02
2.573166096541239067e+00 5.902414797664620210e+02
2.573266118546079895e+00 5.901446835068265955e+02
2.573366140550921166e+00 5.900480491426125127e+02
2.573466162555761994e+00 5.899515788358094142e+02
2.573566184560603265e+00 5.898552747340826272e+02
2.573666206565444092e+00 5.897591389707333747e+02
2.573766228570284920e+00 5.896631736646626223e+02
2.573866250575126635e+00 5.895673809203364044e+02
2.573966272579967018e+00 5.894717628277469430e+02
2.574066294584808734e+00 5.893763214623795648e+02
2.574166316589649561e+00 5.892810588851782541e+02
2.574266338594490833e+00 5.891859771425107510e+02
2.574366360599331660e+00 5.890910782661353551e+02
2.574466382604172487e+00 5.889963642731688651e+02
2.574566404609013759e+00 5.889018371660544062e+02
2.574666426613854586e+00 5.888074989325284605e+02
2.574766448618696302e+00 5.887133515455927864e+02
2.574866470623536685e+00 5.886193969634801988e+02
2.574966492628378401e+00 5.885256371296293310e+02
2.575066514633219228e+00 5.884320739726523470e+02
2.575166536638060055e+00 5.883387094063066343e+02
2.575266558642901327e+00 5.882455453294701329e+02
2.575366580647742154e+00 5.881525836261097311e+02
2.575466602652583425e+00 5.880598261652571637e+02
2.575566624657424253e+00 5.879672748009830912e+02
2.575666646662265968e+00 5.878749313723708383e+02
2.575766668667106352e+00 5.877827977034914966e+02
2.575866690671947623e+00 5.876908756033808459e+02
2.575966712676788894e+00 5.875991668660142295e+02
2.576066734681629722e+00 5.875076732702858635e+02
2.576166756686470993e+00 5.874163965799830294e+02
2.576266778691311821e+00 5.873253385437681118e+02
2.576366800696153092e+00 5.872345008951551790e+02
2.576466822700993919e+00 5.871438853524899741e+02
2.576566844705834747e+00 5.870534936189303608e+02
2.576666866710676018e+00 5.869633273824257458e+02
2.576766888715517290e+00 5.868733883157009359e+02
2.576866910720358561e+00 5.867836780762356739e+02
2.576966932725199388e+00 5.866941983062479267e+02
2.577066954730040660e+00 5.866049506326780829e+02
2.577166976734881487e+00 5.865159366671709904e+02
2.577266998739722315e+00 5.864271580060607221e+02
2.577367020744563586e+00 5.863386162303577294e+02
2.577467042749404413e+00 5.862503129057309934e+02
2.577567064754245685e+00 5.861622495824972248e+02
2.577667086759086956e+00 5.860744277956051747e+02
2.577767108763928228e+00 5.859868490646258579e+02
2.577867130768769055e+00 5.858995148937375461e+02
2.577967152773609882e+00 5.858124267717158773e+02
2.578067174778451154e+00 5.857255861719256700e+02
2.578167196783291981e+00 5.856389945523046663e+02
2.578267218788133253e+00 5.855526533553604622e+02
2.578367240792974080e+00 5.854665640081561833e+02
2.578467262797815351e+00 5.853807279223069600e+02
2.578567284802656623e+00 5.852951464939685593e+02
2.578667306807497006e+00 5.852098211038322688e+02
2.578767328812338722e+00 5.851247531171177343e+02
2.578867350817179549e+00 5.850399438835660249e+02
2.578967372822020820e+00 5.849553947374375866e+02
2.579067394826861648e+00 5.848711069975023520e+02
2.579167416831702919e+00 5.847870819670415585e+02
2.579267438836543747e+00 5.847033209338395636e+02
2.579367460841384574e+00 5.846198251701829349e+02
2.579467482846226289e+00 5.845365959328584040e+02
2.579567504851066673e+00 5.844536344631511611e+02
2.579667526855908388e+00 5.843709419868412169e+02
2.579767548860749216e+00 5.842885197142068137e+02
2.579867570865590487e+00 5.842063688400227193e+02
2.579967592870431314e+00 5.841244905435592045e+02
2.580067614875272142e+00 5.840428859885873862e+02
2.580167636880113413e+00 5.839615563233760440e+02
2.580267658884954241e+00 5.838805026806990099e+02
2.580367680889795956e+00 5.837997261778347138e+02
2.580467702894636339e+00 5.837192279165708442e+02
2.580567724899478055e+00 5.836390089832101467e+02
2.580667746904318882e+00 5.835590704485725837e+02
2.580767768909159710e+00 5.834794133680026107e+02
2.580867790914000981e+00 5.834000387813746329e+02
2.580967812918841808e+00 5.833209477130993719e+02
2.581067834923683080e+00 5.832421411721320510e+02
2.581167856928523907e+00 5.831636201519781935e+02
2.581267878933365623e+00 5.830853856307039678e+02
2.581367900938206006e+00 5.830074385709442595e+02
2.581467922943047277e+00 5.829297799199102883e+02
2.581567944947888549e+00 5.828524106094048420e+02
2.581667966952729376e+00 5.827753315558277336e+02
2.581767988957570648e+00 5.826985436601880792e+02
2.581868010962411475e+00 5.826220478081193050e+02
2.581968032967252746e+00 5.825458448698868779e+02
2.582068054972093574e+00 5.824699357004049034e+02
2.582168076976934401e+00 5.823943211392476087e+02
2.582268098981775672e+00 5.823190020106642351e+02
2.582368120986616944e+00 5.822439791235935900e+02
2.582468142991458215e+00 5.821692532716795085e+02
2.582568164996299043e+00 5.820948252332857464e+02
2.582668187001140314e+00 5.820206957715130329e+02
2.582768209005981142e+00 5.819468656342163513e+02
2.582868231010821969e+00 5.818733355540210823e+02
2.582968253015663240e+00 5.818001062483427859e+02
2.583068275020504068e+00 5.817271784194045949e+02
2.583168297025345339e+00 5.816545527542549507e+02
2.583268319030186611e+00 5.815822299247914771e+02
2.583368341035027882e+00 5.815102105877774648e+02
2.583468363039868709e+00 5.814384953848632449e+02
2.583568385044709537e+00 5.813670849426099494e+02
2.583668407049550808e+00 5.812959798725074734e+02
2.583768429054391635e+00 5.812251807710006233e+02
2.583868451059232907e+00 5.811546882195092394e+02
2.583968473064073734e+00 5.810845027844549122e+02
2.584068495068915006e+00 5.810146250172819009e+02
2.584168517073756277e+00 5.809450554544812348e+02
2.584268539078596660e+00 5.808757946176210680e+02
2.584368561083438376e+00 5.808068430133670290e+02
2.584468583088279203e+00 5.807382011335097332e+02
2.584568605093120475e+00 5.806698694549927495e+02
2.584668627097961302e+00 5.806018484399394310e+02
2.584768649102802573e+00 5.805341385356794035e+02
2.584868671107643401e+00 5.804667401747792610e+02
2.584968693112484228e+00 5.803996537750683729e+02
2.585068715117325944e+00 5.803328797396716254e+02
2.585168737122166327e+00 5.802664184570364796e+02
2.585268759127008042e+00 5.802002703009645757e+02
2.585368781131848870e+00 5.801344356306434520e+02
2.585468803136690141e+00 5.800689147906754215e+02
2.585568825141530969e+00 5.800037081111127009e+02
2.585668847146371796e+00 5.799388159074882196e+02
2.585768869151213067e+00 5.798742384808473389e+02
2.585868891156053895e+00 5.798099761177834353e+02
2.585968913160895610e+00 5.797460290904721205e+02
2.586068935165735994e+00 5.796823976567027330e+02
2.586168957170577709e+00 5.796190820599163089e+02
2.586268979175418536e+00 5.795560825292399159e+02
2.586369001180259364e+00 5.794933992795230324e+02
2.586469023185100635e+00 5.794310325113726776e+02
2.586569045189941463e+00 5.793689824111913822e+02
2.586669067194782734e+00 5.793072491512155011e+02
2.586769089199623561e+00 5.792458328895511386e+02
2.586869111204465277e+00 5.791847337702142795e+02
2.586969133209305660e+00 5.791239519231678514e+02
2.587069155214146932e+00 5.790634874643631065e+02
2.587169177218988203e+00 5.790033404957786161e+02
2.587269199223829030e+00 5.789435111054592653e+02
2.587369221228670302e+00 5.788839993675593405e+02
2.587469243233511129e+00 5.788248053423824331e+02
2.587569265238352401e+00 5.787659290764224806e+02
2.587669287243193228e+00 5.787073706024077637e+02
2.587769309248034055e+00 5.786491299393421741e+02
2.587869331252875327e+00 5.785912070925487569e+02
2.587969353257716598e+00 5.785336020537134800e+02
2.588069375262557870e+00 5.784763148009283213e+02
2.588169397267398697e+00 5.784193452987373121e+02
2.588269419272239968e+00 5.783626934981787144e+02
2.588369441277080796e+00 5.783063593368344755e+02
2.588469463281921623e+00 5.782503427388716091e+02
2.588569485286762895e+00 5.781946436150917634e+02
2.588669507291603722e+00 5.781392618629772642e+02
2.588769529296444993e+00 5.780841973667352249e+02
2.588869551301286265e+00 5.780294499973499569e+02
2.588969573306127536e+00 5.779750196126267383e+02
2.589069595310968364e+00 5.779209060572425187e+02
2.589169617315809191e+00 5.778671091627950318e+02
2.589269639320650462e+00 5.778136287478494069e+02
2.589369661325491290e+00 5.777604646179909196e+02
2.589469683330332561e+00 5.777076165658741047e+02
2.589569705335173389e+00 5.776550843712717551e+02
2.589669727340014660e+00 5.776028678011273314e+02
2.589769749344855931e+00 5.775509666096063484e+02
2.589869771349696315e+00 5.774993805381476477e+02
2.589969793354538030e+00 5.774481093155154667e+02
2.590069815359378858e+00 5.773971526578516205e+02
2.590169837364220129e+00 5.773465102687304125e+02
2.590269859369060956e+00 5.772961818392093392e+02
2.590369881373902228e+00 5.772461670478830911e+02
2.590469903378743055e+00 5.771964655609409647e+02
2.590569925383583882e+00 5.771470770322171120e+02
2.590669947388425598e+00 5.770980011032476114e+02
2.590769969393265981e+00 5.770492374033251508e+02
2.590869991398107697e+00 5.770007855495556441e+02
2.590970013402948524e+00 5.769526451469132553e+02
2.591070035407789796e+00 5.769048157882964460e+02
2.591170057412630623e+00 5.768572970545853877e+02
2.591270079417471450e+00 5.768100885146994870e+02
2.591370101422312722e+00 5.767631897256546836e+02
2.591470123427153549e+00 5.767166002326198395e+02
2.591570145431995265e+00 5.766703195689767654e+02
2.591670167436835648e+00 5.766243472563788828e+02
2.591770189441677363e+00 5.765786828048076131e+02
2.591870211446518191e+00 5.765333257126350190e+02
2.591970233451359018e+00 5.764882754666806477e+02
2.592070255456200290e+00 5.764435315422742860e+02
2.592170277461041117e+00 5.763990934033124631e+02
2.592270299465882388e+00 5.763549605023218874e+02
2.592370321470723216e+00 5.763111322805214058e+02
2.592470343475564931e+00 5.762676081678787341e+02
2.592570365480405314e+00 5.762243875831773039e+02
2.592670387485246586e+00 5.761814699340745847e+02
2.592770409490087857e+00 5.761388546171655207e+02
2.592870431494928685e+00 5.760965410180463095e+02
2.592970453499769956e+00 5.760545285113745422e+02
2.593070475504610783e+00 5.760128164609355963e+02
2.593170497509452055e+00 5.759714042197035724e+02
2.593270519514292882e+00 5.759302911299058678e+02
2.593370541519133710e+00 5.758894765230885469e+02
2.593470563523974981e+00 5.758489597201784136e+02
2.593570585528816252e+00 5.758087400315504283e+02
2.593670607533657524e+00 5.757688167570900077e+02
2.593770629538498351e+00 5.757291891862601005e+02
2.593870651543339623e+00 5.756898565981663296e+02
2.593970673548180450e+00 5.756508182616233853e+02
2.594070695553021277e+00 5.756120734352191448e+02
2.594170717557862549e+00 5.755736213673839075e+02
2.594270739562703376e+00 5.755354612964544003e+02
2.594370761567544648e+00 5.754975924507426726e+02
2.594470783572385919e+00 5.754600140486030568e+02
2.594570805577227190e+00 5.754227252984982215e+02
2.594670827582068018e+00 5.753857253990693152e+02
2.594770849586908845e+00 5.753490135392002003e+02
2.594870871591750117e+00 5.753125888980906666e+02
2.594970893596590944e+00 5.752764506453206650e+02
2.595070915601432215e+00 5.752405979409213614e+02
2.595170937606273043e+00 5.752050299354438039e+02
2.595270959611114314e+00 5.751697457700267933e+02
2.595370981615955586e+00 5.751347445764681652e+02
2.595471003620795969e+00 5.751000254772936842e+02
2.595571025625637684e+00 5.750655875858260515e+02
2.595671047630478512e+00 5.750314300062572102e+02
2.595771069635319783e+00 5.749975518337165568e+02
2.595871091640160611e+00 5.749639521543437013e+02
2.595971113645001882e+00 5.749306300453564518e+02
2.596071135649842709e+00 5.748975845751249381e+02
2.596171157654683537e+00 5.748648148032397103e+02
2.596271179659525252e+00 5.748323197805860900e+02
2.596371201664365636e+00 5.748000985494137467e+02
2.596471223669207351e+00 5.747681501434100255e+02
2.596571245674048178e+00 5.747364735877708881e+02
2.596671267678889450e+00 5.747050678992728763e+02
2.596771289683730277e+00 5.746739320863468947e+02
2.596871311688571105e+00 5.746430651491507433e+02
2.596971333693412376e+00 5.746124660796392618e+02
2.597071355698253203e+00 5.745821338616403864e+02
2.597171377703094919e+00 5.745520674709274545e+02
2.597271399707935302e+00 5.745222658752913958e+02
2.597371421712777018e+00 5.744927280346161069e+02
2.597471443717617845e+00 5.744634529009492780e+02
2.597571465722458672e+00 5.744344394185792453e+02
2.597671487727299944e+00 5.744056865241078640e+02
2.597771509732140771e+00 5.743771931465221314e+02
2.597871531736982043e+00 5.743489582072727444e+02
2.597971553741822870e+00 5.743209806203467451e+02
2.598071575746663697e+00 5.742932592923395987e+02
2.598171597751504969e+00 5.742657931225338643e+02
2.598271619756346240e+00 5.742385810029708182e+02
2.598371641761187512e+00 5.742116218185284424e+02
2.598471663766028339e+00 5.741849144469933890e+02
2.598571685770869610e+00 5.741584577591370362e+02
2.598671707775710438e+00 5.741322506187941599e+02
2.598771729780551265e+00 5.741062918829329647e+02
2.598871751785392537e+00 5.740805804017351193e+02
2.598971773790233364e+00 5.740551150186681753e+02
2.599071795795074635e+00 5.740298945705638971e+02
2.599171817799915907e+00 5.740049178876926135e+02
2.599271839804757178e+00 5.739801837938398421e+02
2.599371861809598006e+00 5.739556911063828011e+02
2.599471883814438833e+00 5.739314386363654421e+02
2.599571905819280104e+00 5.739074251885755302e+02
2.599671927824120932e+00 5.738836495616202455e+02
2.599771949828962203e+00 5.738601105480047408e+02
2.599871971833803030e+00 5.738368069342056970e+02
2.599971993838644302e+00 5.738137375007498804e+02
2.600072015843485573e+00 5.737909010222909956e+02
2.600172037848325957e+00 5.737682962676847183e+02
2.600272059853167672e+00 5.737459220000672531e+02
2.600372081858008499e+00 5.737237769769317310e+02
2.600472103862849771e+00 5.737018599502042662e+02
2.600572125867690598e+00 5.736801696663223993e+02
2.600672147872531870e+00 5.736587048663113819e+02
2.600772169877372697e+00 5.736374642858612560e+02
2.600872191882213524e+00 5.736164466554033652e+02
2.600972213887055240e+00 5.735956507001890259e+02
2.601072235891895623e+00 5.735750751403660388e+02
2.601172257896737339e+00 5.735547186910554274e+02
2.601272279901578166e+00 5.735345800624305639e+02
2.601372301906419438e+00 5.735146579597904974e+02
2.601472323911260265e+00 5.734949510836431728e+02
2.601572345916101092e+00 5.734754581297768254e+02
2.601672367920942364e+00 5.734561777893419503e+02
2.601772389925783191e+00 5.734371087489257661e+02
2.601872411930624907e+00 5.734182496906316828e+02
2.601972433935465290e+00 5.733995992921550169e+02
2.602072455940307005e+00 5.733811562268616626e+02
2.602172477945147833e+00 5.733629191638643761e+02
2.602272499949988660e+00 5.733448867681023557e+02
2.602372521954829931e+00 5.733270577004150255e+02
2.602472543959670759e+00 5.733094306176240025e+02
2.602572565964512030e+00 5.732920041726054023e+02
2.602672587969352858e+00 5.732747770143720345e+02
2.602772609974194573e+00 5.732577477881472987e+02
2.602872631979034956e+00 5.732409151354452206e+02
2.602972653983876228e+00 5.732242776941449165e+02
2.603072675988717499e+00 5.732078340985693785e+02
2.603172697993558327e+00 5.731915829795639183e+02
2.603272719998399598e+00 5.731755229645706322e+02
2.603372742003240425e+00 5.731596526777077543e+02
2.603472764008081697e+00 5.731439707398458268e+02
2.603572786012922524e+00 5.731284757686853482e+02
2.603672808017763352e+00 5.731131663788328297e+02
2.603772830022604623e+00 5.730980411818785569e+02
2.603872852027445894e+00 5.730830987864727604e+02
2.603972874032287166e+00 5.730683377984047411e+02
2.604072896037127993e+00 5.730537568206752894e+02
2.604172918041969265e+00 5.730393544535777437e+02
2.604272940046810092e+00 5.730251292947724551e+02
2.604372962051650919e+00 5.730110799393635261e+02
2.604472984056492191e+00 5.729972049799754359e+02
2.604573006061333018e+00 5.729835030068312562e+02
2.604673028066174290e+00 5.729699726078235926e+02
2.604773050071015561e+00 5.729566123685972343e+02
2.604873072075856832e+00 5.729434208726223687e+02
2.604973094080697660e+00 5.729303967012698422e+02
2.605073116085538487e+00 5.729175384338886943e+02
2.605173138090379759e+00 5.729048446478808501e+02
2.605273160095220586e+00 5.728923139187772904e+02
2.605373182100061857e+00 5.728799448203144493e+02
2.605473204104902685e+00 5.728677359245081107e+02
2.605573226109743956e+00 5.728556858017301465e+02
2.605673248114585228e+00 5.728437930207841191e+02
2.605773270119425611e+00 5.728320561489775855e+02
2.605873292124267326e+00 5.728204737522019059e+02
2.605973314129108154e+00 5.728090443950021609e+02
2.606073336133949425e+00 5.727977666406552544e+02
2.606173358138790253e+00 5.727866390512435828e+02
2.606273380143631524e+00 5.727756601877299545e+02
2.606373402148472351e+00 5.727648286100306905e+02
2.606473424153313179e+00 5.727541428770912262e+02
2.606573446158154894e+00 5.727436015469585300e+02
2.606673468162995277e+00 5.727332031768579554e+02
2.606773490167836993e+00 5.727229463232636135e+02
2.606873512172677820e+00 5.727128295419751112e+02
2.606973534177519092e+00 5.727028513881874687e+02
2.607073556182359919e+00 5.726930104165679722e+02
2.607173578187200746e+00 5.726833051813272277e+02
2.607273600192042018e+00 5.726737342362930576e+02
2.607373622196882845e+00 5.726642961349811003e+02
2.607473644201724561e+00 5.726549894306722308e+02
2.607573666206564944e+00 5.726458126764792951e+02
2.607673688211406660e+00 5.726367644254224842e+02
2.607773710216247487e+00 5.726278432305020942e+02
2.607873732221088314e+00 5.726190476447681021e+02
2.607973754225929586e+00 5.726103762213930395e+02
2.608073776230770413e+00 5.726018275137446381e+02
2.608173798235611685e+00 5.725934000754540421e+02
2.608273820240452512e+00 5.725850924604903867e+02
2.608373842245294227e+00 5.725769032232284417e+02
2.608473864250134611e+00 5.725688309185226217e+02
2.608573886254975882e+00 5.725608741017746297e+02
2.608673908259817154e+00 5.725530313290049662e+02
2.608773930264657981e+00 5.725453011569236423e+02
2.608873952269499252e+00 5.725376821429982783e+02
2.608973974274340080e+00 5.725301728455256125e+02
2.609073996279181351e+00 5.725227718236991450e+02
2.609174018284022178e+00 5.725154776376797372e+02
2.609274040288863006e+00 5.725082888486623460e+02
2.609374062293704277e+00 5.725012040189498066e+02
2.609474084298545549e+00 5.724942217120137684e+02
2.609574106303386820e+00 5.724873404925691602e+02
2.609674128308227647e+00 5.724805589266400148e+02
2.609774150313068919e+00 5.724738755816265439e+02
2.609874172317909746e+00 5.724672890263726686e+02
2.609974194322750574e+00 5.724607978312359364e+02
2.610074216327591845e+00 5.724544005681502767e+02
2.610174238332432672e+00 5.724480958106955768e+02
2.610274260337273944e+00 5.724418821341645298e+02
2.610374282342115215e+00 5.724357581156257311e+02
2.610474304346956487e+00 5.724297223339935954e+02
2.610574326351797314e+00 5.724237733700915669e+02
2.610674348356638141e+00 5.724179098067179439e+02
2.610774370361479413e+00 5.724121302287113622e+02
2.610874392366320240e+00 5.724064332230157106e+02
2.610974414371161512e+00 5.724008173787443639e+02
2.611074436376002339e+00 5.723952812872446430e+02
2.611174458380843610e+00 5.723898235421621621e+02
2.611274480385684882e+00 5.723844427395046068e+02
2.611374502390525265e+00 5.723791374777046030e+02
2.611474524395366981e+00 5.723739063576830404e+02
2.611574546400207808e+00 5.723687479829125095e+02
2.611674568405049079e+00 5.723636609594798301e+02
2.611774590409889907e+00 5.723586438961469867e+02
2.611874612414731178e+00 5.723536954044160439e+02
2.611974634419572006e+00 5.723488140985874679e+02
2.612074656424412833e+00 5.723439985958235638e+02
2.612174678429254548e+00 5.723392475162092978e+02
2.612274700434094932e+00 5.723345594828119829e+02
2.612374722438936647e+00 5.723299331217434656e+02
2.612474744443777475e+00 5.723253670622193567e+02
2.612574766448618746e+00 5.723208599366182625e+02
2.612674788453459573e+00 5.723164103805427203e+02
2.612774810458300401e+00 5.723120170328770655e+02
2.612874832463141672e+00 5.723076785358467760e+02
2.612974854467982500e+00 5.723033935350769070e+02
2.613074876472824215e+00 5.722991606796513224e+02
2.613174898477664598e+00 5.722949786221682871e+02
2.613274920482506314e+00 5.722908460188014033e+02
2.613374942487347141e+00 5.722867615293525887e+02
2.613474964492187969e+00 5.722827238173125579e+02
2.613574986497029240e+00 5.722787315499151646e+02
2.613675008501870067e+00 5.722747833981952681e+02
2.613775030506711339e+00 5.722708780370429622e+02
2.613875052511552166e+00 5.722670141452604184e+02
2.613975074516393882e+00 5.722631904056156600e+02
2.614075096521234265e+00 5.722594055048982682e+02
2.614175118526075536e+00 5.722556581339745208e+02
2.614275140530916808e+00 5.722519469878393465e+02
2.614375162535757635e+00 5.722482707656718048e+02
2.614475184540598907e+00 5.722446281708881770e+02
2.614575206545439734e+00 5.722410179111946036e+02
2.614675228550281005e+00 5.722374386986394939e+02
2.614775250555121833e+00 5.722338892496667313e+02
2.614875272559962660e+00 5.722303682851666053e+02
2.614975294564803932e+00 5.722268745305276525e+02
2.615075316569645203e+00 5.722234067156881565e+02
2.615175338574486474e+00 5.722199635751865117e+02
2.615275360579327302e+00 5.722165438482121544e+02
2.615375382584168573e+00 5.722131462786545626e+02
2.615475404589009401e+00 5.722097696151545279e+02
2.615575426593850228e+00 5.722064126111513360e+02
2.615675448598691499e+00 5.722030740249338123e+02
2.615775470603532327e+00 5.721997526196869330e+02
2.615875492608373598e+00 5.721964471635415066e+02
2.615975514613214870e+00 5.721931564296210126e+02
2.616075536618056141e+00 5.721898791960888957e+02
2.616175558622896968e+00 5.721866142461960862e+02
2.616275580627737796e+00 5.721833603683267029e+02
2.616375602632579067e+00 5.721801163560452324e+02
2.616475624637419894e+00 5.721768810081410948e+02
2.616575646642261166e+00 5.721736531286757099e+02
2.616675668647101993e+00 5.721704315270253574e+02
2.616775690651943265e+00 5.721672150179271057e+02
2.616875712656784536e+00 5.721640024215223548e+02
2.616975734661624919e+00 5.721607925634015146e+02
2.617075756666466635e+00 5.721575842746458420e+02
2.617175778671307462e+00 5.721543763918707555e+02
2.617275800676148734e+00 5.721511677572702865e+02
2.617375822680989561e+00 5.721479572186567566e+02
2.617475844685830833e+00 5.721447436295027273e+02
2.617575866690671660e+00 5.721415258489840880e+02
2.617675888695512487e+00 5.721383027420183680e+02
2.617775910700354203e+00 5.721350731793068007e+02
2.617875932705194586e+00 5.721318360373745691e+02
2.617975954710036302e+00 5.721285901986096860e+02
2.618075976714877129e+00 5.721253345513022168e+02
2.618175998719718400e+00 5.721220679896827050e+02
2.618276020724559228e+00 5.721187894139608261e+02
2.618376042729400055e+00 5.721154977303638134e+02
2.618476064734241326e+00 5.721121918511728381e+02
2.618576086739082154e+00 5.721088706947613218e+02
2.618676108743923869e+00 5.721055331856307475e+02
2.618776130748764253e+00 5.721021782544454481e+02
2.618876152753605968e+00 5.720988048380716009e+02
2.618976174758446795e+00 5.720954118796103103e+02
2.619076196763287623e+00 5.720919983284320551e+02
2.619176218768128894e+00 5.720885631402123863e+02
2.619276240772969722e+00 5.720851052769655780e+02
2.619376262777810993e+00 5.720816237070777106e+02
2.619476284782651820e+00 5.720781174053408904e+02
2.619576306787493536e+00 5.720745853529836040e+02
2.619676328792333919e+00 5.720710265377059613e+02
2.619776350797175191e+00 5.720674399537091404e+02
2.619876372802016462e+00 5.720638246017277879e+02
2.619976394806857289e+00 5.720601794890603742e+02
2.620076416811698561e+00 5.720565036296005701e+02
2.620176438816539388e+00 5.720527960438655555e+02
2.620276460821380660e+00 5.720490557590275102e+02
2.620376482826221487e+00 5.720452818089410130e+02
2.620476504831062314e+00 5.720414732341733952e+02
2.620576526835903586e+00 5.720376290820306622e+02
2.620676548840744857e+00 5.720337484065883018e+02
2.620776570845586129e+00 5.720298302687148180e+02
2.620876592850426956e+00 5.720258737361019712e+02
2.620976614855268227e+00 5.720218778832889939e+02
2.621076636860109055e+00 5.720178417916895341e+02
2.621176658864949882e+00 5.720137645496170080e+02
2.621276680869791154e+00 5.720096452523087009e+02
2.621376702874631981e+00 5.720054830019523706e+02
2.621476724879473252e+00 5.720012769077072790e+02
2.621576746884314524e+00 5.719970260857309086e+02
2.621676768889155795e+00 5.719927296592001085e+02
2.621776790893996623e+00 5.719883867583348547e+02
2.621876812898837450e+00 5.719839965204189411e+02
2.621976834903678721e+00 5.719795580898245362e+02
2.622076856908519549e+00 5.719750706180316229e+02
2.622176878913360820e+00 5.719705332636474395e+02
2.622276900918201648e+00 5.719659451924311497e+02
2.622376922923042919e+00 5.719613055773086217e+02
2.622476944927884190e+00 5.719566135983964159e+02
2.622576966932724574e+00 5.719518684430173607e+02
2.622676988937566289e+00 5.719470693057221524e+02
2.622777010942407117e+00 5.719422153883041346e+02
2.622877032947248388e+00 5.719373058998198758e+02
2.622977054952089215e+00 5.719323400566044029e+02
2.623077076956930487e+00 5.719273170822890506e+02
2.623177098961771314e+00 5.719222362078157857e+02
2.623277120966612141e+00 5.719170966714564202e+02
2.623377142971453857e+00 5.719118977188237523e+02
2.623477164976294240e+00 5.719066386028895295e+02
2.623577186981135956e+00 5.719013185839969537e+02
2.623677208985976783e+00 5.718959369298758020e+02
2.623777230990818055e+00 5.718904929156547041e+02
2.623877252995658882e+00 5.718849858238748993e+02
2.623977275000499709e+00 5.718794149445018320e+02
2.624077297005340981e+00 5.718737795749393626e+02
2.624177319010181808e+00 5.718680790200370438e+02
2.624277341015023524e+00 5.718623125921060364e+02
2.624377363019863907e+00 5.718564796109259305e+02
2.624477385024705622e+00 5.718505794037570240e+02
2.624577407029546450e+00 5.718446113053494173e+02
2.624677429034387277e+00 5.718385746579507440e+02
2.624777451039228549e+00 5.718324688113181082e+02
2.624877473044069376e+00 5.718262931227233139e+02
2.624977495048910647e+00 5.718200469569612778e+02
2.625077517053751475e+00 5.718137296863587835e+02
2.625177539058593190e+00 5.718073406907793697e+02
2.625277561063433573e+00 5.718008793576312883e+02
2.625377583068274845e+00 5.717943450818715974e+02
2.625477605073116116e+00 5.717877372660145738e+02
2.625577627077956944e+00 5.717810553201325092e+02
2.625677649082798215e+00 5.717742986618640089e+02
2.625777671087639042e+00 5.717674667164158109e+02
2.625877693092480314e+00 5.717605589165669926e+02
2.625977715097321141e+00 5.717535747026720401e+02
2.626077737102161969e+00 5.717465135226635766e+02
2.626177759107003240e+00 5.717393748320544091e+02
2.626277781111844511e+00 5.717321580939386649e+02
2.626377803116685783e+00 5.717248627789939519e+02
2.626477825121526610e+00 5.717174883654813584e+02
2.626577847126367882e+00 5.717100343392461355e+02
2.626677869131208709e+00 5.717025001937180377e+02
2.626777891136049536e+00 5.716948854299090499e+02
2.626877913140890808e+00 5.716871895564135002e+02
2.626977935145731635e+00 5.716794120894066964e+02
2.627077957150572907e+00 5.716715525526411739e+02
2.627177979155414178e+00 5.716636104774476053e+02
2.627278001160255450e+00 5.716555854027272972e+02
2.627378023165096277e+00 5.716474768749528721e+02
2.627478045169937104e+00 5.716392844481619022e+02
2.627578067174778376e+00 5.716310076839536123e+02
2.627678089179619203e+00 5.716226461514831954e+02
2.627778111184460474e+00 5.716141994274576064e+02
2.627878133189301302e+00 5.716056670961291957e+02
2.627978155194142573e+00 5.715970487492895700e+02
2.628078177198983845e+00 5.715883439862637942e+02
2.628178199203824228e+00 5.715795524139016379e+02
2.628278221208665943e+00 5.715706736465701852e+02
2.628378243213506771e+00 5.715617073061497422e+02
2.628478265218348042e+00 5.715526530220181485e+02
2.628578287223188870e+00 5.715435104310488441e+02
2.628678309228030141e+00 5.715342791775976821e+02
2.628778331232870968e+00 5.715249589134936059e+02
2.628878353237711796e+00 5.715155492980295548e+02
2.628978375242553511e+00 5.715060499979506403e+02
2.629078397247393895e+00 5.714964606874432320e+02
2.629178419252235610e+00 5.714867810481234756e+02
2.629278441257076437e+00 5.714770107690255827e+02
2.629378463261917709e+00 5.714671495465884163e+02
2.629478485266758536e+00 5.714571970846433260e+02
2.629578507271599364e+00 5.714471530944008464e+02
2.629678529276440635e+00 5.714370172944356909e+02
2.629778551281281462e+00 5.714267894106747008e+02
2.629878573286123178e+00 5.714164691763786550e+02
2.629978595290963561e+00 5.714060563321320387e+02
2.630078617295805277e+00 5.713955506258214427e+02
2.630178639300646104e+00 5.713849518126249905e+02
2.630278661305486931e+00 5.713742596549927839e+02
2.630378683310328203e+00 5.713634739226311012e+02
2.630478705315169030e+00 5.713525943924839794e+02
2.630578727320010302e+00 5.713416208487175254e+02
2.630678749324851129e+00 5.713305530826991117e+02
2.630778771329692844e+00 5.713193908929811187e+02
2.630878793334533228e+00 5.713081340852797894e+02
2.630978815339374499e+00 5.712967824724579486e+02
2.631078837344215771e+00 5.712853358745029482e+02
2.631178859349056598e+00 5.712737941185077943e+02
2.631278881353897869e+00 5.712621570386498888e+02
2.631378903358738697e+00 5.712504244761701102e+02
2.631478925363579968e+00 5.712385962793501903e+02
2.631578947368420796e+00 5.712266723034921370e+02
2.631678969373261623e+00 5.712146524108956100e+02
2.631778991378102894e+00 5.712025364708331381e+02
2.631879013382944166e+00 5.711903243595294271e+02
2.631979035387785437e+00 5.711780159601378273e+02
2.632079057392626265e+00 5.711656111627119117e+02
2.632179079397467536e+00 5.711531098641863764e+02
2.632279101402308363e+00 5.711405119683493012e+02
2.632379123407149191e+00 5.711278173858175933e+02
2.632479145411990462e+00 5.711150260340101568e+02
2.632579167416831289e+00 5.711021378371240189e+02
2.632679189421672561e+00 5.710891527261055671e+02
2.632779211426513832e+00 5.710760706386248557e+02
2.632879233431354216e+00 5.710628915190475254e+02
2.632979255436195931e+00 5.710496153184080868e+02
2.633079277441036758e+00 5.710362419943808163e+02
2.633179299445878030e+00 5.710227715112521309e+02
2.633279321450718857e+00 5.710092038398909153e+02
2.633379343455560129e+00 5.709955389577191909e+02
2.633479365460400956e+00 5.709817768486839213e+02
2.633579387465241783e+00 5.709679175032248395e+02
2.633679409470083499e+00 5.709539609182444337e+02
2.633779431474923882e+00 5.709399070970797538e+02
2.633879453479765598e+00 5.709257560494669406e+02
2.633979475484606425e+00 5.709115077915137135e+02
2.634079497489447697e+00 5.708971623456632187e+02
2.634179519494288524e+00 5.708827197406667437e+02
2.634279541499129351e+00 5.708681800115457463e+02
2.634379563503970623e+00 5.708535431995629779e+02
2.634479585508811450e+00 5.708388093521866722e+02
2.634579607513653166e+00 5.708239785230575762e+02
2.634679629518493549e+00 5.708090507719538209e+02
2.634779651523335264e+00 5.707940261647579518e+02
2.634879673528176092e+00 5.707789047734203223e+02
2.634979695533016919e+00 5.707636866759262375e+02
2.635079717537858190e+00 5.707483719562571878e+02
2.635179739542699018e+00 5.707329607043570832e+02
2.635279761547540289e+00 5.707174530160945096e+02
2.635379783552381117e+00 5.707018489932283956e+02
2.635479805557222832e+00 5.706861487433679940e+02
2.635579827562063215e+00 5.706703523799375262e+02
2.635679849566904487e+00 5.706544600221370729e+02
2.635779871571745758e+00 5.706384717949059677e+02
2.635879893576586586e+00 5.706223878288835749e+02
2.635979915581427857e+00 5.706062082603701811e+02
2.636079937586268684e+00 5.705899332312891374e+02
2.636179959591109956e+00 5.705735628891453644e+02
2.636279981595950783e+00 5.705570973869881755e+02
2.636380003600791611e+00 5.705405368833687589e+02
2.636480025605632882e+00 5.705238815423020924e+02
2.636580047610474153e+00 5.705071315332237418e+02
2.636680069615315425e+00 5.704902870309512082e+02
2.636780091620156252e+00 5.704733482156407263e+02
2.636880113624997524e+00 5.704563152727464512e+02
2.636980135629838351e+00 5.704391883929782807e+02
2.637080157634679178e+00 5.704219677722594497e+02
2.637180179639520450e+00 5.704046536116843527e+02
2.637280201644361277e+00 5.703872461174743194e+02
2.637380223649202549e+00 5.703697455009365740e+02
2.637480245654043820e+00 5.703521519784178508e+02
2.637580267658885091e+00 5.703344657712632397e+02
2.637680289663725919e+00 5.703166871057699154e+02
2.637780311668566746e+00 5.702988162131453009e+02
2.637880333673408018e+00 5.702808533294581821e+02
2.637980355678248845e+00 5.702627986955977804e+02
2.638080377683090116e+00 5.702446525572269138e+02
2.638180399687930944e+00 5.702264151647351582e+02
2.638280421692772215e+00 5.702080867731954186e+02
2.638380443697613487e+00 5.701896676423147028e+02
2.638480465702453870e+00 5.701711580363908070e+02
2.638580487707295585e+00 5.701525582242633163e+02
2.638680509712136413e+00 5.701338684792680169e+02
2.638780531716977684e+00 5.701150890791890333e+02
2.638880553721818512e+00 5.700962203062098297e+02
2.638980575726659783e+00 5.700772624468690992e+02
2.639080597731500610e+00 5.700582157920090367e+02
2.639180619736341438e+00 5.700390806367281584e+02
2.639280641741183153e+00 5.700198572803338948e+02
2.639380663746023536e+00 5.700005460262923407e+02
2.639480685750865252e+00 5.699811471821795976e+02
2.639580707755706079e+00 5.699616610596324335e+02
2.639680729760547351e+00 5.699420879742990564e+02
2.639780751765388178e+00 5.699224282457882964e+02
2.639880773770229005e+00 5.699026821976206065e+02
2.639980795775070277e+00 5.698828501571766765e+02
