1.800096021124647283e+00 5.186663060185062477e+02
1.800196043129488332e+00 5.186651940212562977e+02
1.800296065134329382e+00 5.186641053304950901e+02
1.800396087139170653e+00 5.186630403010494774e+02
1.800496109144011703e+00 5.186619992876535434e+02
1.800596131148852752e+00 5.186609826449317779e+02
1.800696153153693579e+00 5.186599907273786130e+02
1.800796175158534629e+00 5.186590238893435298e+02
1.800896197163375678e+00 5.186580824850123008e+02
1.800996219168216950e+00 5.186571668683902772e+02
1.801096241173057999e+00 5.186562773932847676e+02
1.801196263177899048e+00 5.186554144132860529e+02
1.801296285182740320e+00 5.186545782817513555e+02
1.801396307187581147e+00 5.186537693517857406e+02
1.801496329192422197e+00 5.186529879762276778e+02
1.801596351197263246e+00 5.186522345076267584e+02
1.801696373202104295e+00 5.186515092982313035e+02
1.801796395206945345e+00 5.186508126999660817e+02
1.801896417211786616e+00 5.186501450644185525e+02
1.801996439216627666e+00 5.186495067428186303e+02
1.802096461221468493e+00 5.186488980860237916e+02
1.802196483226309542e+00 5.186483194444984974e+02
1.802296505231150814e+00 5.186477711682989593e+02
1.802396527235991863e+00 5.186472536070547221e+02
1.802496549240832913e+00 5.186467671099517247e+02
1.802596571245673962e+00 5.186463120257143373e+02
1.802696593250515011e+00 5.186458887025879676e+02
1.802796615255355839e+00 5.186454974883216664e+02
1.802896637260197110e+00 5.186451387301507339e+02
1.802996659265038160e+00 5.186448127747796661e+02
1.803096681269879209e+00 5.186445199683641931e+02
1.803196703274720480e+00 5.186442606564933158e+02
1.803296725279561530e+00 5.186440351841738448e+02
1.803396747284402579e+00 5.186438438958110737e+02
1.803496769289243407e+00 5.186436871351921809e+02
1.803596791294084456e+00 5.186435652454697447e+02
1.803696813298925505e+00 5.186434785691438947e+02
1.803796835303766777e+00 5.186434274480430986e+02
1.803896857308607826e+00 5.186434122233097241e+02
1.803996879313448876e+00 5.186434332353820764e+02
1.804096901318290147e+00 5.186434908239758670e+02
1.804196923323130974e+00 5.186435853280690935e+02
1.804296945327972024e+00 5.186437170858824857e+02
1.804396967332813073e+00 5.186438864348638162e+02
1.804496989337654123e+00 5.186440937116718715e+02
1.804597011342495172e+00 5.186443392521566693e+02
1.804697033347336443e+00 5.186446233913437709e+02
1.804797055352177271e+00 5.186449464634185915e+02
1.804897077357018320e+00 5.186453088017066193e+02
1.804997099361859370e+00 5.186457107386588632e+02
1.805097121366700641e+00 5.186461526058335494e+02
1.805197143371541690e+00 5.186466347338791820e+02
1.805297165376382740e+00 5.186471574525193091e+02
1.805397187381223789e+00 5.186477210905330821e+02
1.805497209386064617e+00 5.186483259757401356e+02
1.805597231390905666e+00 5.186489724349844437e+02
1.805697253395746937e+00 5.186496607941155617e+02
1.805797275400587987e+00 5.186503913779732784e+02
1.805897297405429036e+00 5.186511645103703358e+02
1.805997319410270308e+00 5.186519805140765129e+02
1.806097341415111357e+00 5.186528397108017998e+02
1.806197363419952184e+00 5.186537424211785492e+02
1.806297385424793234e+00 5.186546889647469243e+02
1.806397407429634283e+00 5.186556796599372774e+02
1.806497429434475332e+00 5.186567148240546885e+02
1.806597451439316604e+00 5.186577947732598659e+02
1.806697473444157653e+00 5.186589198225569817e+02
1.806797495448998703e+00 5.186600902857736628e+02
1.806897517453839530e+00 5.186613064755470077e+02
1.806997539458680802e+00 5.186625687033058512e+02
1.807097561463521851e+00 5.186638772792562122e+02
1.807197583468362900e+00 5.186652325123632181e+02
1.807297605473203950e+00 5.186666347103368935e+02
1.807397627478044999e+00 5.186680841796143113e+02
1.807497649482886271e+00 5.186695812253454960e+02
1.807597671487727098e+00 5.186711261513762565e+02
1.807697693492568147e+00 5.186727192602319292e+02
1.807797715497409197e+00 5.186743608531036216e+02
1.807897737502250468e+00 5.186760512298286585e+02
1.807997759507091518e+00 5.186777906888797816e+02
1.808097781511932567e+00 5.186795795273449130e+02
1.808197803516773616e+00 5.186814180409151049e+02
1.808297825521614444e+00 5.186833065238649851e+02
1.808397847526455493e+00 5.186852452690422979e+02
1.808497869531296764e+00 5.186872345678476677e+02
1.808597891536137814e+00 5.186892747102224348e+02
1.808697913540978863e+00 5.186913659846306928e+02
1.808797935545820135e+00 5.186935086780466690e+02
1.808897957550661184e+00 5.186957030759382405e+02
1.808997979555502011e+00 5.186979494622505626e+02
1.809098001560343061e+00 5.187002481193929952e+02
1.809198023565184110e+00 5.187025993282229592e+02
1.809298045570025160e+00 5.187050033680316119e+02
1.809398067574866431e+00 5.187074605165266803e+02
1.809498089579707480e+00 5.187099710498214336e+02
1.809598111584548530e+00 5.187125352424168341e+02
1.809698133589389357e+00 5.187151533671874404e+02
1.809798155594230629e+00 5.187178256953671962e+02
1.809898177599071678e+00 5.187205524965341965e+02
1.809998199603912727e+00 5.187233340385974998e+02
1.810098221608753777e+00 5.187261705877816667e+02
1.810198243613594826e+00 5.187290624086110711e+02
1.810298265618436098e+00 5.187320097638979632e+02
1.810398287623276925e+00 5.187350129147267808e+02
1.810498309628117974e+00 5.187380721204390284e+02
1.810598331632959024e+00 5.187411876386233871e+02
1.810698353637800295e+00 5.187443597250946823e+02
1.810798375642641345e+00 5.187475886338862665e+02
1.810898397647482394e+00 5.187508746172325118e+02
1.810998419652323443e+00 5.187542179255574410e+02
1.811098441657164271e+00 5.187576188074576748e+02
1.811198463662005320e+00 5.187610775096908355e+02
1.811298485666846592e+00 5.187645942771629279e+02
1.811398507671687641e+00 5.187681693529119684e+02
1.811498529676528690e+00 5.187718029780967299e+02
1.811598551681369962e+00 5.187754953919830996e+02
1.811698573686211011e+00 5.187792468319280488e+02
1.811798595691051839e+00 5.187830575333716752e+02
1.811898617695892888e+00 5.187869277298179895e+02
1.811998639700733937e+00 5.187908576528266167e+02
1.812098661705574987e+00 5.187948475319972204e+02
1.812198683710416258e+00 5.187988975949567703e+02
1.812298705715257308e+00 5.188030080673476050e+02
1.812398727720098357e+00 5.188071791728137896e+02
1.812498749724939184e+00 5.188114111329888374e+02
1.812598771729780456e+00 5.188157041674837728e+02
1.812698793734621505e+00 5.188200584938726934e+02
1.812798815739462555e+00 5.188244743276823101e+02
1.812898837744303604e+00 5.188289518823773960e+02
1.812998859749144653e+00 5.188334913693514636e+02
1.813098881753985925e+00 5.188380929979125540e+02
1.813198903758826752e+00 5.188427569752702766e+02
1.813298925763667802e+00 5.188474835065258048e+02
1.813398947768508851e+00 5.188522727946594841e+02
1.813498969773350122e+00 5.188571250405182127e+02
1.813598991778191172e+00 5.188620404428036181e+02
1.813699013783032221e+00 5.188670191980618256e+02
1.813799035787873271e+00 5.188720615006690196e+02
1.813899057792714098e+00 5.188771675428237131e+02
1.813999079797555147e+00 5.188823375145328782e+02
1.814099101802396419e+00 5.188875716036002359e+02
1.814199123807237468e+00 5.188928699956172750e+02
1.814299145812078518e+00 5.188982328739490413e+02
1.814399167816919789e+00 5.189036604197261795e+02
1.814499189821760838e+00 5.189091528118317456e+02
1.814599211826601666e+00 5.189147102268927938e+02
1.814699233831442715e+00 5.189203328392651429e+02
1.814799255836283765e+00 5.189260208210290557e+02
1.814899277841124814e+00 5.189317743419716180e+02
1.814999299845966085e+00 5.189375935695820772e+02
1.815099321850807135e+00 5.189434786690388819e+02
1.815199343855648184e+00 5.189494298031993367e+02
1.815299365860489011e+00 5.189554471325890290e+02
1.815399387865330283e+00 5.189615308153944397e+02
1.815499409870171332e+00 5.189676810074482773e+02
1.815599431875012382e+00 5.189738978622245895e+02
1.815699453879853431e+00 5.189801815308250070e+02
1.815799475884694480e+00 5.189865321619715814e+02
1.815899497889535752e+00 5.189929499019959849e+02
1.815999519894376579e+00 5.189994348948297329e+02
1.816099541899217629e+00 5.190059872819962266e+02
1.816199563904058678e+00 5.190126072025997246e+02
1.816299585908899950e+00 5.190192947933168170e+02
1.816399607913740999e+00 5.190260501883878987e+02
1.816499629918582048e+00 5.190328735196076195e+02
1.816599651923423098e+00 5.190397649163161304e+02
1.816699673928263925e+00 5.190467245053898750e+02
1.816799695933104974e+00 5.190537524112330630e+02
1.816899717937946246e+00 5.190608487557697117e+02
1.816999739942787295e+00 5.190680136584350066e+02
1.817099761947628345e+00 5.190752472361657510e+02
1.817199783952469616e+00 5.190825496033928630e+02
1.817299805957310666e+00 5.190899208720344404e+02
1.817399827962151493e+00 5.190973611514854156e+02
1.817499849966992542e+00 5.191048705486109611e+02
1.817599871971833592e+00 5.191124491677388733e+02
1.817699893976674641e+00 5.191200971106516135e+02
1.817799915981515912e+00 5.191278144765763045e+02
1.817899937986356962e+00 5.191356013621826833e+02
1.817999959991198011e+00 5.191434578615690043e+02
1.818099981996038839e+00 5.191513840662602206e+02
1.818200004000880110e+00 5.191593800651982065e+02
1.818300026005721159e+00 5.191674459447339132e+02
1.818400048010562209e+00 5.191755817886224804e+02
1.818500070015403258e+00 5.191837876780153920e+02
1.818600092020244308e+00 5.191920636914533134e+02
1.818700114025085579e+00 5.192004099048605212e+02
1.818800136029926406e+00 5.192088263915374000e+02
1.818900158034767456e+00 5.192173132221530523e+02
1.819000180039608505e+00 5.192258704647424565e+02
1.819100202044449777e+00 5.192344981846965766e+02
1.819200224049290826e+00 5.192431964447578139e+02
1.819300246054131875e+00 5.192519653050136412e+02
1.819400268058972925e+00 5.192608048228926236e+02
1.819500290063813752e+00 5.192697150531553234e+02
1.819600312068654802e+00 5.192786960478911169e+02
1.819700334073496073e+00 5.192877478565118281e+02
1.819800356078337122e+00 5.192968705257462716e+02
1.819900378083178172e+00 5.193060640996355914e+02
1.820000400088019443e+00 5.193153286195267810e+02
1.820100422092860493e+00 5.193246641240697272e+02
1.820200444097701320e+00 5.193340706492099343e+02
1.820300466102542369e+00 5.193435482281842042e+02
1.820400488107383419e+00 5.193530968915185895e+02
1.820500510112224468e+00 5.193627166670182760e+02
1.820600532117065740e+00 5.193724075797699697e+02
1.820700554121906789e+00 5.193821696521320064e+02
1.820800576126747838e+00 5.193920029037321910e+02
1.820900598131588666e+00 5.194019073514633646e+02
1.821000620136429937e+00 5.194118830094803343e+02
1.821100642141270987e+00 5.194219298891950984e+02
1.821200664146112036e+00 5.194320479992727542e+02
1.821300686150953085e+00 5.194422373456282003e+02
1.821400708155794135e+00 5.194524979314226130e+02
1.821500730160635406e+00 5.194628297570602626e+02
1.821600752165476234e+00 5.194732328201848759e+02
1.821700774170317283e+00 5.194837071156765660e+02
1.821800796175158332e+00 5.194942526356483086e+02
1.821900818179999604e+00 5.195048693694435542e+02
1.822000840184840653e+00 5.195155573036334999e+02
1.822100862189681703e+00 5.195263164220142471e+02
1.822200884194522530e+00 5.195371467056029360e+02
1.822300906199363579e+00 5.195480481326376321e+02
1.822400928204204629e+00 5.195590206785728924e+02
1.822500950209045900e+00 5.195700643160791969e+02
1.822600972213886950e+00 5.195811790150389697e+02
1.822700994218727999e+00 5.195923647425456693e+02
1.822801016223569270e+00 5.196036214629021970e+02
1.822901038228410098e+00 5.196149491376189644e+02
1.823001060233251147e+00 5.196263477254120744e+02
1.823101082238092197e+00 5.196378171822010472e+02
1.823201104242933246e+00 5.196493574611095028e+02
1.823301126247774295e+00 5.196609685124602720e+02
1.823401148252615567e+00 5.196726502837788075e+02
1.823501170257456616e+00 5.196844027197893183e+02
1.823601192262297443e+00 5.196962257624131780e+02
1.823701214267138493e+00 5.197081193507711987e+02
1.823801236271979764e+00 5.197200834211795382e+02
1.823901258276820814e+00 5.197321179071520874e+02
1.824001280281661863e+00 5.197442227393976282e+02
1.824101302286502913e+00 5.197563978458214251e+02
1.824201324291343962e+00 5.197686431515244294e+02
1.824301346296184789e+00 5.197809585788012328e+02
1.824401368301026061e+00 5.197933440471446147e+02
1.824501390305867110e+00 5.198057994732408815e+02
1.824601412310708159e+00 5.198183247709738453e+02
1.824701434315549431e+00 5.198309198514223226e+02
1.824801456320390480e+00 5.198435846228640003e+02
1.824901478325231530e+00 5.198563189907729338e+02
1.825001500330072357e+00 5.198691228578215942e+02
1.825101522334913406e+00 5.198819961238824590e+02
1.825201544339754456e+00 5.198949386860283539e+02
1.825301566344595727e+00 5.199079504385338169e+02
1.825401588349436777e+00 5.199210312728760073e+02
1.825501610354277826e+00 5.199341810777368664e+02
1.825601632359119098e+00 5.199473997390034583e+02
1.825701654363959925e+00 5.199606871397711529e+02
1.825801676368800974e+00 5.199740431603445359e+02
1.825901698373642024e+00 5.199874676782392271e+02
1.826001720378483073e+00 5.200009605681833591e+02
1.826101742383324122e+00 5.200145217021223516e+02
1.826201764388165394e+00 5.200281509492174337e+02
1.826301786393006443e+00 5.200418481758513281e+02
1.826401808397847271e+00 5.200556132456279101e+02
1.826501830402688320e+00 5.200694460193767554e+02
1.826601852407529591e+00 5.200833463551568911e+02
1.826701874412370641e+00 5.200973141082555458e+02
1.826801896417211690e+00 5.201113491311963344e+02
1.826901918422052740e+00 5.201254512737385767e+02
1.827001940426893789e+00 5.201396203828813896e+02
1.827101962431734616e+00 5.201538563028690305e+02
1.827201984436575888e+00 5.201681588751912386e+02
1.827302006441416937e+00 5.201825279385898284e+02
1.827402028446257987e+00 5.201969633290597130e+02
1.827502050451099258e+00 5.202114648798558392e+02
1.827602072455940307e+00 5.202260324214935281e+02
1.827702094460781357e+00 5.202406657817559790e+02
1.827802116465622184e+00 5.202553647856962016e+02
1.827902138470463234e+00 5.202701292556420185e+02
1.828002160475304283e+00 5.202849590112012947e+02
1.828102182480145554e+00 5.202998538692659167e+02
1.828202204484986604e+00 5.203148136440153166e+02
1.828302226489827653e+00 5.203298381469244305e+02
1.828402248494668925e+00 5.203449271867649486e+02
1.828502270499509752e+00 5.203600805696121370e+02
1.828602292504350801e+00 5.203752980988510899e+02
1.828702314509191851e+00 5.203905795751799133e+02
1.828802336514032900e+00 5.204059247966168869e+02
1.828902358518873950e+00 5.204213335585048981e+02
1.829002380523715221e+00 5.204368056535174674e+02
1.829102402528556270e+00 5.204523408716643189e+02
1.829202424533397098e+00 5.204679390002979744e+02
1.829302446538238147e+00 5.204835998241192101e+02
1.829402468543079419e+00 5.204993231251829684e+02
1.829502490547920468e+00 5.205151086829051792e+02
1.829602512552761517e+00 5.205309562740684441e+02
1.829702534557602567e+00 5.205468656728303358e+02
1.829802556562443616e+00 5.205628366507265810e+02
1.829902578567284444e+00 5.205788689766819743e+02
1.830002600572125715e+00 5.205949624170127663e+02
1.830102622576966764e+00 5.206111167354387135e+02
1.830202644581807814e+00 5.206273316930848978e+02
1.830302666586649085e+00 5.206436070484924130e+02
1.830402688591490135e+00 5.206599425576255271e+02
1.830502710596331184e+00 5.206763379738774802e+02
1.830602732601172011e+00 5.206927930480776467e+02
1.830702754606013061e+00 5.207093075285025634e+02
1.830802776610854110e+00 5.207258811608801352e+02
1.830902798615695382e+00 5.207425136883990717e+02
1.831002820620536431e+00 5.207592048517174135e+02
1.831102842625377480e+00 5.207759543889684437e+02
1.831202864630218752e+00 5.207927620357723981e+02
1.831302886635059579e+00 5.208096275252407850e+02
1.831402908639900629e+00 5.208265505879884358e+02
1.831502930644741678e+00 5.208435309521397585e+02
1.831602952649582727e+00 5.208605683433381728e+02
1.831702974654423777e+00 5.208776624847557741e+02
1.831802996659265048e+00 5.208948130971007231e+02
1.831903018664106098e+00 5.209120198986261130e+02
1.832003040668946925e+00 5.209292826051421343e+02
1.832103062673787974e+00 5.209466009300205087e+02
1.832203084678629246e+00 5.209639745842085858e+02
1.832303106683470295e+00 5.209814032762357101e+02
1.832403128688311345e+00 5.209988867122231113e+02
1.832503150693152394e+00 5.210164245958953870e+02
1.832603172697993443e+00 5.210340166285890291e+02
1.832703194702834271e+00 5.210516625092619734e+02
1.832803216707675542e+00 5.210693619345039451e+02
1.832903238712516591e+00 5.210871145985476005e+02
1.833003260717357641e+00 5.211049201932761434e+02
1.833103282722198912e+00 5.211227784082377639e+02
1.833203304727039962e+00 5.211406889306513222e+02
1.833303326731881011e+00 5.211586514454212420e+02
1.833403348736721838e+00 5.211766656351451275e+02
1.833503370741562888e+00 5.211947311801255864e+02
1.833603392746403937e+00 5.212128477583817130e+02
1.833703414751245209e+00 5.212310150456585234e+02
1.833803436756086258e+00 5.212492327154395753e+02
1.833903458760927307e+00 5.212675004389589049e+02
1.834003480765768579e+00 5.212858178852081892e+02
1.834103502770609406e+00 5.213041847209524349e+02
1.834203524775450456e+00 5.213226006107399826e+02
1.834303546780291505e+00 5.213410652169138757e+02
1.834403568785132554e+00 5.213595781996237974e+02
1.834503590789973604e+00 5.213781392168377806e+02
1.834603612794814875e+00 5.213967479243538037e+02
1.834703634799655925e+00 5.214154039758125236e+02
1.834803656804496752e+00 5.214341070227088721e+02
1.834903678809337801e+00 5.214528567144041062e+02
1.835003700814179073e+00 5.214716526981399056e+02
1.835103722819020122e+00 5.214904946190464443e+02
1.835203744823861172e+00 5.215093821201595574e+02
1.835303766828702221e+00 5.215283148424316551e+02
1.835403788833543270e+00 5.215472924247427500e+02
1.835503810838384098e+00 5.215663145039167148e+02
1.835603832843225369e+00 5.215853807147301495e+02
1.835703854848066419e+00 5.216044906899290936e+02
1.835803876852907468e+00 5.216236440602393714e+02
1.835903898857748739e+00 5.216428404543808028e+02
1.836003920862589789e+00 5.216620794990805052e+02
1.836103942867430838e+00 5.216813608190872174e+02
1.836203964872271666e+00 5.217006840371823273e+02
1.836303986877112715e+00 5.217200487741957886e+02
1.836404008881953764e+00 5.217394546490186258e+02
1.836504030886795036e+00 5.217589012786166904e+02
1.836604052891636085e+00 5.217783882780437352e+02
1.836704074896477135e+00 5.217979152604590354e+02
1.836804096901318406e+00 5.218174818371352330e+02
1.836904118906159233e+00 5.218370876174781188e+02
1.837004140911000283e+00 5.218567322090374319e+02
1.837104162915841332e+00 5.218764152175224353e+02
1.837204184920682382e+00 5.218961362468164680e+02
1.837304206925523431e+00 5.219158948989903593e+02
1.837404228930364702e+00 5.219356907743178908e+02
1.837504250935205752e+00 5.219555234712896663e+02
1.837604272940046579e+00 5.219753925866292548e+02
1.837704294944887629e+00 5.219952977153056963e+02
1.837804316949728900e+00 5.220152384505510099e+02
1.837904338954569949e+00 5.220352143838720167e+02
1.838004360959410999e+00 5.220552251050688710e+02
1.838104382964252048e+00 5.220752702022480207e+02
1.838204404969093098e+00 5.220953492618372138e+02
1.838304426973933925e+00 5.221154618686020967e+02
1.838404448978775196e+00 5.221356076056608799e+02
1.838504470983616246e+00 5.221557860544996856e+02
1.838604492988457295e+00 5.221759967949878956e+02
1.838704514993298567e+00 5.221962394053949765e+02
1.838804536998139616e+00 5.222165134624041229e+02
1.838904559002980665e+00 5.222368185411306740e+02
1.839004581007821493e+00 5.222571542151353015e+02
1.839104603012662542e+00 5.222775200564416309e+02
1.839204625017503592e+00 5.222979156355517034e+02
1.839304647022344863e+00 5.223183405214612094e+02
1.839404669027185912e+00 5.223387942816779059e+02
1.839504691032026962e+00 5.223592764822352592e+02
1.839604713036867789e+00 5.223797866877102933e+02
1.839704735041709061e+00 5.224003244612403023e+02
1.839804757046550110e+00 5.224208893645368335e+02
1.839904779051391159e+00 5.224414809579056964e+02
1.840004801056232209e+00 5.224620988002600370e+02
1.840104823061073258e+00 5.224827424491406873e+02
1.840204845065914530e+00 5.225034114607285574e+02
1.840304867070755357e+00 5.225241053898660084e+02
1.840404889075596406e+00 5.225448237900699269e+02
1.840504911080437456e+00 5.225655662135507100e+02
1.840604933085278727e+00 5.225863322112288643e+02
1.840704955090119777e+00 5.226071213327517171e+02
1.840804977094960826e+00 5.226279331265109249e+02
1.840904999099801875e+00 5.226487671396592987e+02
1.841005021104642703e+00 5.226696229181275157e+02
1.841105043109483752e+00 5.226905000066436742e+02
1.841205065114325024e+00 5.227113979487484130e+02
1.841305087119166073e+00 5.227323162868126474e+02
1.841405109124007122e+00 5.227532545620554174e+02
1.841505131128848394e+00 5.227742123145636697e+02
1.841605153133689443e+00 5.227951890833037396e+02
1.841705175138530270e+00 5.228161844061470447e+02
1.841805197143371320e+00 5.228371978198807710e+02
1.841905219148212369e+00 5.228582288602308381e+02
1.842005241153053419e+00 5.228792770618763370e+02
1.842105263157894690e+00 5.229003419584694257e+02
1.842205285162735739e+00 5.229214230826515859e+02
1.842305307167576789e+00 5.229425199660734052e+02
1.842405329172417616e+00 5.229636321394120841e+02
1.842505351177258888e+00 5.229847591323886036e+02
1.842605373182099937e+00 5.230059004737868236e+02
1.842705395186940986e+00 5.230270556914713325e+02
1.842805417191782036e+00 5.230482243124067736e+02
1.842905439196623085e+00 5.230694058626741025e+02
1.843005461201464357e+00 5.230905998674908233e+02
1.843105483206305184e+00 5.231118058512288371e+02
1.843205505211146233e+00 5.231330233374322916e+02
1.843305527215987283e+00 5.231542518488374753e+02
1.843405549220828554e+00 5.231754909073895305e+02
1.843505571225669604e+00 5.231967400342628025e+02
1.843605593230510653e+00 5.232179987498777791e+02
1.843705615235351702e+00 5.232392665739229187e+02
1.843805637240192530e+00 5.232605430253685199e+02
1.843905659245033579e+00 5.232818276224903684e+02
1.844005681249874851e+00 5.233031198828854258e+02
1.844105703254715900e+00 5.233244193234916111e+02
1.844205725259556949e+00 5.233457254606069000e+02
1.844305747264398221e+00 5.233670378099088794e+02
1.844405769269239270e+00 5.233883558864729366e+02
1.844505791274080098e+00 5.234096792047903364e+02
1.844605813278921147e+00 5.234310072787886838e+02
1.844705835283762196e+00 5.234523396218517064e+02
1.844805857288603246e+00 5.234736757468356245e+02
1.844905879293444517e+00 5.234950151660921165e+02
1.845005901298285567e+00 5.235163573914836661e+02
1.845105923303126616e+00 5.235377019344053906e+02
1.845205945307967443e+00 5.235590483058030031e+02
1.845305967312808715e+00 5.235803960161937312e+02
1.845405989317649764e+00 5.236017445756833695e+02
1.845506011322490814e+00 5.236230934939861754e+02
1.845606033327331863e+00 5.236444422804477199e+02
1.845706055332172912e+00 5.236657904440580751e+02
1.845806077337014184e+00 5.236871374934765981e+02
1.845906099341855011e+00 5.237084829370490979e+02
1.846006121346696061e+00 5.237298262828275028e+02
1.846106143351537110e+00 5.237511670385898697e+02
1.846206165356378381e+00 5.237725047118588009e+02
1.846306187361219431e+00 5.237938388099228177e+02
1.846406209366060480e+00 5.238151688398542092e+02
1.846506231370901530e+00 5.238364943085297227e+02
1.846606253375742357e+00 5.238578147226501187e+02
1.846706275380583406e+00 5.238791295887593833e+02
1.846806297385424678e+00 5.239004384132642826e+02
1.846906319390265727e+00 5.239217407024547128e+02
1.847006341395106777e+00 5.239430359625230267e+02
1.847106363399948048e+00 5.239643236995838151e+02
1.847206385404789097e+00 5.239856034196935752e+02
1.847306407409629925e+00 5.240068746288701504e+02
1.847406429414470974e+00 5.240281368331141039e+02
1.847506451419312024e+00 5.240493895384256575e+02
1.847606473424153073e+00 5.240706322508274297e+02
1.847706495428994344e+00 5.240918644763825114e+02
1.847806517433835394e+00 5.241130857212142473e+02
1.847906539438676443e+00 5.241342954915271548e+02
1.848006561443517271e+00 5.241554932936255682e+02
1.848106583448358542e+00 5.241766786339354667e+02
1.848206605453199591e+00 5.241978510190205043e+02
1.848306627458040641e+00 5.242190099556064524e+02
1.848406649462881690e+00 5.242401549505985940e+02
1.848506671467722740e+00 5.242612855111005956e+02
1.848606693472564011e+00 5.242824011444370171e+02
1.848706715477404838e+00 5.243035013581716157e+02
1.848806737482245888e+00 5.243245856601271271e+02
1.848906759487086937e+00 5.243456535584051608e+02
1.849006781491928209e+00 5.243667045614089375e+02
1.849106803496769258e+00 5.243877381778570452e+02
1.849206825501610307e+00 5.244087539168097010e+02
1.849306847506451357e+00 5.244297512876852352e+02
1.849406869511292184e+00 5.244507298002797597e+02
1.849506891516133233e+00 5.244716889647893368e+02
1.849606913520974505e+00 5.244926282918277138e+02
1.849706935525815554e+00 5.245135472924473561e+02
1.849806957530656604e+00 5.245344454781580907e+02
1.849906979535497875e+00 5.245553223609487077e+02
1.850007001540338925e+00 5.245761774533051494e+02
1.850107023545179752e+00 5.245970102682325660e+02
1.850207045550020801e+00 5.246178203192719138e+02
1.850307067554861851e+00 5.246386071205224653e+02
1.850407089559702900e+00 5.246593701866606807e+02
1.850507111564544172e+00 5.246801090329602175e+02
1.850607133569385221e+00 5.247008231753113705e+02
1.850707155574226270e+00 5.247215121302397165e+02
1.850807177579067098e+00 5.247421754149307844e+02
1.850907199583908369e+00 5.247628125472422198e+02
1.851007221588749418e+00 5.247834230457294780e+02
1.851107243593590468e+00 5.248040064296642413e+02
1.851207265598431517e+00 5.248245622190518134e+02
1.851307287603272567e+00 5.248450899346536289e+02
1.851407309608113838e+00 5.248655890980052163e+02
1.851507331612954665e+00 5.248860592314362066e+02
1.851607353617795715e+00 5.249064998580910242e+02
1.851707375622636764e+00 5.249269105019460540e+02
1.851807397627478036e+00 5.249472906878331742e+02
1.851907419632319085e+00 5.249676399414540811e+02
1.852007441637160134e+00 5.249879577894039357e+02
1.852107463642001184e+00 5.250082437591897815e+02
1.852207485646842011e+00 5.250284973792498704e+02
1.852307507651683061e+00 5.250487181789720808e+02
1.852407529656524332e+00 5.250689056887151764e+02
1.852507551661365381e+00 5.250890594398267694e+02
1.852607573666206431e+00 5.251091789646636698e+02
1.852707595671047702e+00 5.251292637966105303e+02
1.852807617675888752e+00 5.251493134701000827e+02
1.852907639680729579e+00 5.251693275206301905e+02
1.853007661685570628e+00 5.251893054847859048e+02
1.853107683690411678e+00 5.252092469002575399e+02
1.853207705695252727e+00 5.252291513058592045e+02
1.853307727700093999e+00 5.252490182415483559e+02
1.853407749704935048e+00 5.252688472484451268e+02
1.853507771709776097e+00 5.252886378688513105e+02
1.853607793714616925e+00 5.253083896462694611e+02
1.853707815719458196e+00 5.253281021254217649e+02
1.853807837724299246e+00 5.253477748522686852e+02
1.853907859729140295e+00 5.253674073740286303e+02
1.854007881733981344e+00 5.253869992391961432e+02
1.854107903738822394e+00 5.254065499975615694e+02
1.854207925743663665e+00 5.254260592002278827e+02
1.854307947748504493e+00 5.254455263996312624e+02
1.854407969753345542e+00 5.254649511495606475e+02
1.854507991758186591e+00 5.254843330051741077e+02
1.854608013763027863e+00 5.255036715230173741e+02
1.854708035767868912e+00 5.255229662610453261e+02
1.854808057772709962e+00 5.255422167786375667e+02
1.854908079777551011e+00 5.255614226366180901e+02
1.855008101782391838e+00 5.255805833972735854e+02
1.855108123787232888e+00 5.255996986243713991e+02
1.855208145792074159e+00 5.256187678831794301e+02
1.855308167796915209e+00 5.256377907404820462e+02
1.855408189801756258e+00 5.256567667646002064e+02
1.855508211806597529e+00 5.256756955254074910e+02
1.855608233811438579e+00 5.256945765943517017e+02
1.855708255816279406e+00 5.257134095444689592e+02
1.855808277821120456e+00 5.257321939504048487e+02
1.855908299825961505e+00 5.257509293884306771e+02
1.856008321830802554e+00 5.257696154364610948e+02
1.856108343835643826e+00 5.257882516740733081e+02
1.856208365840484875e+00 5.258068376825234509e+02
1.856308387845325925e+00 5.258253730447661383e+02
1.856408409850166752e+00 5.258438573454700418e+02
1.856508431855008023e+00 5.258622901710360793e+02
1.856608453859849073e+00 5.258806711096160598e+02
1.856708475864690122e+00 5.258989997511298498e+02
1.856808497869531172e+00 5.259172756872799255e+02
1.856908519874372221e+00 5.259354985115738828e+02
1.857008541879213048e+00 5.259536678193369426e+02
1.857108563884054320e+00 5.259717832077319599e+02
1.857208585888895369e+00 5.259898442757755674e+02
1.857308607893736419e+00 5.260078506243551146e+02
1.857408629898577690e+00 5.260258018562467441e+02
1.857508651903418739e+00 5.260436975761302847e+02
1.857608673908259789e+00 5.260615373906085779e+02
1.857708695913100616e+00 5.260793209082227122e+02
1.857808717917941665e+00 5.260970477394695308e+02
1.857908739922782715e+00 5.261147174968161835e+02
1.858008761927623986e+00 5.261323297947208175e+02
1.858108783932465036e+00 5.261498842496450834e+02
1.858208805937306085e+00 5.261673804800732341e+02
1.858308827942147357e+00 5.261848181065267909e+02
1.858408849946988184e+00 5.262021967515813685e+02
1.858508871951829233e+00 5.262195160398830467e+02
1.858608893956670283e+00 5.262367755981656501e+02
1.858708915961511332e+00 5.262539750552647320e+02
1.858808937966352381e+00 5.262711140421340588e+02
1.858908959971193653e+00 5.262881921918627768e+02
1.859008981976034702e+00 5.263052091396904189e+02
1.859109003980875530e+00 5.263221645230219110e+02
1.859209025985716579e+00 5.263390579814442845e+02
1.859309047990557850e+00 5.263558891567422506e+02
1.859409069995398900e+00 5.263726576929132079e+02
1.859509092000239949e+00 5.263893632361831578e+02
1.859609114005080999e+00 5.264060054350210294e+02
1.859709136009922048e+00 5.264225839401558460e+02
1.859809158014762875e+00 5.264390984045887762e+02
1.859909180019604147e+00 5.264555484836121195e+02
1.860009202024445196e+00 5.264719338348215842e+02
1.860109224029286246e+00 5.264882541181316356e+02
1.860209246034127517e+00 5.265045089957905020e+02
1.860309268038968566e+00 5.265206981323958644e+02
1.860409290043809616e+00 5.265368211949078159e+02
1.860509312048650443e+00 5.265528778526647784e+02
1.860609334053491493e+00 5.265688677773971449e+02
1.860709356058332542e+00 5.265847906432418313e+02
1.860809378063173813e+00 5.266006461267578516e+02
1.860909400068014863e+00 5.266164339069371181e+02
1.861009422072855912e+00 5.266321536652227451e+02
1.861109444077697184e+00 5.266478050855205311e+02
1.861209466082538011e+00 5.266633878542129423e+02
1.861309488087379060e+00 5.266789016601733238e+02
1.861409510092220110e+00 5.266943461947803371e+02
1.861509532097061159e+00 5.267097211519310349e+02
1.861609554101902209e+00 5.267250262280530251e+02
1.861709576106743480e+00 5.267402611221208417e+02
1.861809598111584529e+00 5.267554255356660633e+02
1.861909620116425357e+00 5.267705191727926604e+02
1.862009642121266406e+00 5.267855417401900695e+02
1.862109664126107678e+00 5.268004929471447895e+02
1.862209686130948727e+00 5.268153725055551604e+02
1.862309708135789776e+00 5.268301801299420504e+02
1.862409730140630826e+00 5.268449155374635211e+02
1.862509752145471875e+00 5.268595784479268787e+02
1.862609774150312703e+00 5.268741685838010653e+02
1.862709796155153974e+00 5.268886856702284831e+02
1.862809818159995023e+00 5.269031294350378403e+02
1.862909840164836073e+00 5.269174996087563159e+02
1.863009862169677344e+00 5.269317959246232022e+02
1.863109884174518394e+00 5.269460181185993406e+02
1.863209906179359443e+00 5.269601659293790590e+02
1.863309928184200270e+00 5.269742390984049507e+02
1.863409950189041320e+00 5.269882373698766287e+02
1.863509972193882369e+00 5.270021604907633446e+02
1.863609994198723641e+00 5.270160082108166080e+02
1.863710016203564690e+00 5.270297802825780309e+02
1.863810038208405739e+00 5.270434764613944481e+02
1.863910060213247011e+00 5.270570965054270118e+02
1.864010082218087838e+00 5.270706401756634705e+02
1.864110104222928888e+00 5.270841072359271493e+02
1.864210126227769937e+00 5.270974974528903658e+02
1.864310148232610986e+00 5.271108105960821604e+02
1.864410170237452036e+00 5.271240464379003470e+02
1.864510192242293307e+00 5.271372047536237915e+02
1.864610214247134357e+00 5.271502853214194602e+02
1.864710236251975184e+00 5.271632879223540158e+02
1.864810258256816233e+00 5.271762123404054137e+02
1.864910280261657505e+00 5.271890583624701776e+02
1.865010302266498554e+00 5.272018257783757917e+02
1.865110324271339604e+00 5.272145143808885450e+02
1.865210346276180653e+00 5.272271239657243314e+02
1.865310368281021702e+00 5.272396543315591089e+02
1.865410390285862530e+00 5.272521052800344705e+02
1.865510412290703801e+00 5.272644766157716276e+02
1.865610434295544851e+00 5.272767681463781173e+02
1.865710456300385900e+00 5.272889796824568975e+02
1.865810478305227171e+00 5.273011110376156694e+02
1.865910500310068221e+00 5.273131620284768815e+02
1.866010522314909270e+00 5.273251324746834143e+02
1.866110544319750097e+00 5.273370221989106312e+02
1.866210566324591147e+00 5.273488310268722898e+02
1.866310588329432196e+00 5.273605587873304330e+02
1.866410610334273468e+00 5.273722053121022100e+02
1.866510632339114517e+00 5.273837704360699945e+02
1.866610654343955567e+00 5.273952539971871829e+02
1.866710676348796838e+00 5.274066558364866069e+02
1.866810698353637665e+00 5.274179757980906516e+02
1.866910720358478715e+00 5.274292137292146663e+02
1.867010742363319764e+00 5.274403694801774236e+02
1.867110764368160813e+00 5.274514429044082817e+02
1.867210786373001863e+00 5.274624338584534371e+02
1.867310808377843134e+00 5.274733422019830869e+02
1.867410830382684184e+00 5.274841677977985910e+02
1.867510852387525011e+00 5.274949105118405441e+02
1.867610874392366060e+00 5.275055702131930957e+02
1.867710896397207332e+00 5.275161467740929311e+02
1.867810918402048381e+00 5.275266400699349560e+02
1.867910940406889431e+00 5.275370499792763894e+02
1.868010962411730480e+00 5.275473763838468813e+02
1.868110984416571529e+00 5.275576191685523781e+02
1.868211006421412357e+00 5.275677782214805802e+02
1.868311028426253628e+00 5.275778534339082171e+02
1.868411050431094678e+00 5.275878447003058227e+02
1.868511072435935727e+00 5.275977519183438744e+02
1.868611094440776998e+00 5.276075749888975679e+02
1.868711116445618048e+00 5.276173138160525014e+02
1.868811138450459097e+00 5.276269683071101326e+02
1.868911160455299925e+00 5.276365383725923266e+02
1.869011182460140974e+00 5.276460239262463574e+02
1.869111204464982023e+00 5.276554248850502518e+02
1.869211226469823295e+00 5.276647411692158585e+02
1.869311248474664344e+00 5.276739727021960107e+02
1.869411270479505394e+00 5.276831194106861176e+02
1.869511292484346665e+00 5.276921812246307582e+02
1.869611314489187492e+00 5.277011580772259549e+02
1.869711336494028542e+00 5.277100499049244036e+02
1.869811358498869591e+00 5.277188566474382014e+02
1.869911380503710641e+00 5.277275782477437360e+02
1.870011402508551690e+00 5.277362146520849819e+02
1.870111424513392961e+00 5.277447658099758883e+02
1.870211446518234011e+00 5.277532316742052672e+02
1.870311468523074838e+00 5.277616122008396360e+02
1.870411490527915888e+00 5.277699073492244679e+02
1.870511512532757159e+00 5.277781170819896488e+02
1.870611534537598208e+00 5.277862413650507278e+02
1.870711556542439258e+00 5.277942801676115323e+02
1.870811578547280307e+00 5.278022334621680329e+02
1.870911600552121357e+00 5.278101012245092534e+02
1.871011622556962184e+00 5.278178834337190892e+02
1.871111644561803455e+00 5.278255800721813102e+02
1.871211666566644505e+00 5.278331911255775140e+02
1.871311688571485554e+00 5.278407165828923553e+02
1.871411710576326826e+00 5.278481564364135465e+02
1.871511732581167875e+00 5.278555106817323122e+02
1.871611754586008924e+00 5.278627793177490730e+02
1.871711776590849752e+00 5.278699623466686717e+02
1.871811798595690801e+00 5.278770597740067387e+02
1.871911820600531851e+00 5.278840716085881013e+02
1.872011842605373122e+00 5.278909978625472377e+02
1.872111864610214171e+00 5.278978385513314606e+02
1.872211886615055221e+00 5.279045936937000079e+02
1.872311908619896492e+00 5.279112633117219957e+02
1.872411930624737320e+00 5.279178474307823308e+02
1.872511952629578369e+00 5.279243460795762530e+02
1.872611974634419418e+00 5.279307592901138833e+02
1.872711996639260468e+00 5.279370870977163577e+02
1.872812018644101517e+00 5.279433295410194660e+02
1.872912040648942789e+00 5.279494866619678533e+02
1.873012062653783838e+00 5.279555585058205907e+02
1.873112084658624665e+00 5.279615451211473101e+02
1.873212106663465715e+00 5.279674465598262714e+02
1.873312128668306986e+00 5.279732628770464089e+02
1.873412150673148036e+00 5.279789941313042618e+02
1.873512172677989085e+00 5.279846403844030647e+02
1.873612194682830134e+00 5.279902017014527473e+02
1.873712216687671184e+00 5.279956781508656150e+02
1.873812238692512011e+00 5.280010698043570301e+02
1.873912260697353283e+00 5.280063767369438210e+02
1.874012282702194332e+00 5.280115990269406439e+02
1.874112304707035381e+00 5.280167367559593004e+02
1.874212326711876653e+00 5.280217900089057821e+02
1.874312348716717702e+00 5.280267588739787925e+02
1.874412370721558529e+00 5.280316434426657679e+02
1.874512392726399579e+00 5.280364438097429911e+02
1.874612414731240628e+00 5.280411600732689976e+02
1.874712436736081678e+00 5.280457923345857125e+02
1.874812458740922949e+00 5.280503406983120840e+02
1.874912480745763999e+00 5.280548052723426053e+02
1.875012502750605048e+00 5.280591861678447003e+02
1.875112524755445875e+00 5.280634834992531523e+02
1.875212546760287147e+00 5.280676973842691950e+02
1.875312568765128196e+00 5.280718279438534637e+02
1.875412590769969245e+00 5.280758753022254268e+02
1.875512612774810295e+00 5.280798395868572470e+02
1.875612634779651344e+00 5.280837209284708251e+02
1.875712656784492616e+00 5.280875194610320023e+02
1.875812678789333443e+00 5.280912353217490818e+02
1.875912700794174492e+00 5.280948686510649850e+02
1.876012722799015542e+00 5.280984195926536131e+02
1.876112744803856813e+00 5.281018882934168914e+02
1.876212766808697863e+00 5.281052749034772660e+02
1.876312788813538912e+00 5.281085795761734971e+02
1.876412810818379961e+00 5.281118024680561120e+02
1.876512832823220789e+00 5.281149437388810384e+02
1.876612854828061838e+00 5.281180035516050566e+02
1.876712876832903110e+00 5.281209820723796611e+02
1.876812898837744159e+00 5.281238794705438977e+02
1.876912920842585208e+00 5.281266959186211807e+02
1.877012942847426480e+00 5.281294315923111071e+02
1.877112964852267529e+00 5.281320866704844548e+02
1.877212986857108357e+00 5.281346613351756787e+02
1.877313008861949406e+00 5.281371557715776817e+02
1.877413030866790455e+00 5.281395701680341972e+02
1.877513052871631505e+00 5.281419047160339915e+02
1.877613074876472776e+00 5.281441596102027916e+02
1.877713096881313826e+00 5.281463350482974874e+02
1.877813118886154875e+00 5.281484312311980602e+02
1.877913140890995702e+00 5.281504483629005335e+02
1.878013162895836974e+00 5.281523866505096976e+02
1.878113184900678023e+00 5.281542463042324016e+02
1.878213206905519073e+00 5.281560275373676632e+02
1.878313228910360122e+00 5.281577305663007564e+02
1.878413250915201171e+00 5.281593556104951404e+02
1.878513272920042443e+00 5.281609028924826816e+02
1.878613294924883270e+00 5.281623726378576293e+02
1.878713316929724320e+00 5.281637650752662694e+02
1.878813338934565369e+00 5.281650804364003307e+02
1.878913360939406640e+00 5.281663189559870943e+02
1.879013382944247690e+00 5.281674808717805263e+02
1.879113404949088739e+00 5.281685664245533189e+02
1.879213426953929789e+00 5.281695758580866595e+02
1.879313448958770616e+00 5.281705094191620447e+02
1.879413470963611665e+00 5.281713673575525263e+02
1.879513492968452937e+00 5.281721499260103201e+02
1.879613514973293986e+00 5.281728573802621440e+02
1.879713536978135036e+00 5.281734899789945530e+02
1.879813558982976307e+00 5.281740479838472311e+02
1.879913580987817356e+00 5.281745316594016231e+02
1.880013602992658184e+00 5.281749412731721804e+02
1.880113624997499233e+00 5.281752770955949927e+02
1.880213647002340283e+00 5.281755394000168735e+02
1.880313669007181332e+00 5.281757284626874025e+02
1.880413691012022603e+00 5.281758445627455103e+02
1.880513713016863653e+00 5.281758879822102699e+02
1.880613735021704702e+00 5.281758590059707785e+02
1.880713757026545530e+00 5.281757579217724015e+02
1.880813779031386801e+00 5.281755850202087004e+02
1.880913801036227850e+00 5.281753405947090414e+02
1.881013823041068900e+00 5.281750249415263170e+02
1.881113845045909949e+00 5.281746383597264867e+02
1.881213867050750999e+00 5.281741811511776632e+02
1.881313889055592270e+00 5.281736536205360153e+02
1.881413911060433097e+00 5.281730560752369001e+02
1.881513933065274147e+00 5.281723888254798567e+02
1.881613955070115196e+00 5.281716521842192833e+02
1.881713977074956468e+00 5.281708464671501133e+02
1.881813999079797517e+00 5.281699719926966736e+02
1.881914021084638566e+00 5.281690290819997244e+02
1.882014043089479616e+00 5.281680180589031579e+02
1.882114065094320443e+00 5.281669392499441074e+02
1.882214087099161492e+00 5.281657929843356669e+02
1.882314109104002764e+00 5.281645795939575692e+02
1.882414131108843813e+00 5.281632994133422017e+02
1.882514153113684863e+00 5.281619527796597140e+02
1.882614175118526134e+00 5.281605400327071038e+02
1.882714197123367184e+00 5.281590615148938923e+02
1.882814219128208011e+00 5.281575175712272312e+02
1.882914241133049060e+00 5.281559085493008752e+02
1.883014263137890110e+00 5.281542347992773330e+02
1.883114285142731159e+00 5.281524966738797957e+02
1.883214307147572431e+00 5.281506945283725827e+02
1.883314329152413480e+00 5.281488287205498864e+02
1.883414351157254529e+00 5.281468996107203111e+02
1.883514373162095357e+00 5.281449075616935716e+02
1.883614395166936628e+00 5.281428529387661683e+02
1.883714417171777677e+00 5.281407361097038802e+02
1.883814439176618727e+00 5.281385574447313047e+02
1.883914461181459776e+00 5.281363173165138960e+02
1.884014483186300826e+00 5.281340161001439810e+02
1.884114505191142097e+00 5.281316541731266625e+02
1.884214527195982924e+00 5.281292319153627659e+02
1.884314549200823974e+00 5.281267497091350833e+02
1.884414571205665023e+00 5.281242079390921162e+02
1.884514593210506295e+00 5.281216069922328415e+02
1.884614615215347344e+00 5.281189472578920459e+02
1.884714637220188393e+00 5.281162291277219083e+02
1.884814659225029443e+00 5.281134529956804045e+02
1.884914681229870270e+00 5.281106192580108427e+02
1.885014703234711320e+00 5.281077283132284492e+02
1.885114725239552591e+00 5.281047805621043381e+02
1.885214747244393640e+00 5.281017764076485719e+02
1.885314769249234690e+00 5.280987162550917446e+02
1.885414791254075961e+00 5.280956005118740677e+02
1.885514813258917011e+00 5.280924295876220640e+02
1.885614835263757838e+00 5.280892038941371993e+02
1.885714857268598887e+00 5.280859238453764419e+02
1.885814879273439937e+00 5.280825898574355506e+02
1.885914901278280986e+00 5.280792023485331583e+02
1.886014923283122258e+00 5.280757617389917868e+02
1.886114945287963307e+00 5.280722684512242040e+02
1.886214967292804356e+00 5.280687229097121644e+02
1.886314989297645184e+00 5.280651255409909481e+02
1.886415011302486455e+00 5.280614767736312842e+02
1.886515033307327505e+00 5.280577770382233211e+02
1.886615055312168554e+00 5.280540267673568451e+02
1.886715077317009603e+00 5.280502263956046818e+02
1.886815099321850653e+00 5.280463763595042792e+02
1.886915121326691924e+00 5.280424770975404272e+02
1.887015143331532752e+00 5.280385290501263853e+02
1.887115165336373801e+00 5.280345326595866027e+02
1.887215187341214850e+00 5.280304883701383005e+02
1.887315209346056122e+00 5.280263966278712360e+02
1.887415231350897171e+00 5.280222578807323544e+02
1.887515253355738221e+00 5.280180725785045297e+02
1.887615275360579270e+00 5.280138411727915582e+02
1.887715297365420097e+00 5.280095641169941700e+02
1.887815319370261147e+00 5.280052418662961600e+02
1.887915341375102418e+00 5.280008748776422181e+02
1.888015363379943468e+00 5.279964636097208768e+02
1.888115385384784517e+00 5.279920085229450706e+02
1.888215407389625788e+00 5.279875100794321270e+02
1.888315429394466838e+00 5.279829687429847809e+02
1.888415451399307665e+00 5.279783849790737804e+02
1.888515473404148715e+00 5.279737592548149223e+02
1.888615495408989764e+00 5.279690920389533630e+02
1.888715517413830813e+00 5.279643838018411088e+02
1.888815539418672085e+00 5.279596350154181437e+02
1.888915561423513134e+00 5.279548461531946941e+02
1.889015583428354184e+00 5.279500176902284920e+02
1.889115605433195011e+00 5.279451501031063572e+02
1.889215627438036282e+00 5.279402438699239610e+02
1.889315649442877332e+00 5.279352994702665001e+02
1.889415671447718381e+00 5.279303173851873225e+02
1.889515693452559431e+00 5.279252980971882607e+02
1.889615715457400480e+00 5.279202420902000767e+02
1.889715737462241751e+00 5.279151498495609758e+02
1.889815759467082579e+00 5.279100218619965972e+02
1.889915781471923628e+00 5.279048586155994371e+02
1.890015803476764678e+00 5.278996605998096356e+02
1.890115825481605949e+00 5.278944283053912159e+02
1.890215847486446998e+00 5.278891622244143491e+02
1.890315869491288048e+00 5.278838628502337542e+02
1.890415891496129097e+00 5.278785306774664150e+02
1.890515913500969924e+00 5.278731662019729356e+02
1.890615935505810974e+00 5.278677699208351441e+02
1.890715957510652245e+00 5.278623423323343786e+02
1.890815979515493295e+00 5.278568839359322737e+02
1.890916001520334344e+00 5.278513952322484784e+02
1.891016023525175616e+00 5.278458767230387139e+02
1.891116045530016665e+00 5.278403289111752201e+02
1.891216067534857492e+00 5.278347523006234496e+02
1.891316089539698542e+00 5.278291473964220586e+02
1.891416111544539591e+00 5.278235147046603970e+02
1.891516133549380640e+00 5.278178547324577039e+02
1.891616155554221912e+00 5.278121679879415069e+02
1.891716177559062961e+00 5.278064549802251122e+02
1.891816199563903789e+00 5.278007162193856630e+02
1.891916221568744838e+00 5.277949522164442442e+02
1.892016243573586110e+00 5.277891634833417811e+02
1.892116265578427159e+00 5.277833505329193713e+02
1.892216287583268208e+00 5.277775138788933873e+02
1.892316309588109258e+00 5.277716540358360362e+02
1.892416331592950307e+00 5.277657715191521675e+02
1.892516353597791134e+00 5.277598668450569903e+02
1.892616375602632406e+00 5.277539405305549280e+02
1.892716397607473455e+00 5.277479930934155163e+02
1.892816419612314505e+00 5.277420250521532807e+02
1.892916441617155776e+00 5.277360369260040898e+02
1.893016463621996825e+00 5.277300292349025312e+02
1.893116485626837875e+00 5.277240024994603118e+02
1.893216507631678702e+00 5.277179572409440880e+02
1.893316529636519752e+00 5.277118939812509097e+02
1.893416551641360801e+00 5.277058132428882118e+02
1.893516573646202072e+00 5.276997155489492570e+02
1.893616595651043122e+00 5.276936014230917635e+02
1.893716617655884171e+00 5.276874713895147124e+02
1.893816639660725443e+00 5.276813259729345873e+02
1.893916661665566270e+00 5.276751656985652517e+02
1.894016683670407319e+00 5.276689910920921420e+02
1.894116705675248369e+00 5.276628026796510085e+02
1.894216727680089418e+00 5.276566009878054047e+02
1.894316749684930468e+00 5.276503865435220177e+02
1.894416771689771739e+00 5.276441598741492953e+02
1.894516793694612788e+00 5.276379215073942532e+02
1.894616815699453616e+00 5.276316719712995109e+02
1.894716837704294665e+00 5.276254117942175981e+02
1.894816859709135937e+00 5.276191415047927649e+02
1.894916881713976986e+00 5.276128616319332423e+02
1.895016903718818035e+00 5.276065727047914606e+02
1.895116925723659085e+00 5.276002752527380153e+02
1.895216947728500134e+00 5.275939698053405209e+02
1.895316969733340962e+00 5.275876568923397372e+02
1.895416991738182233e+00 5.275813370436261494e+02
1.895517013743023282e+00 5.275750107892162077e+02
1.895617035747864332e+00 5.275686786592303861e+02
1.895717057752705603e+00 5.275623411838687389e+02
1.895817079757546653e+00 5.275559988933865725e+02
1.895917101762387702e+00 5.275496523180736403e+02
1.896017123767228529e+00 5.275433019882293593e+02
1.896117145772069579e+00 5.275369484341382531e+02
1.896217167776910628e+00 5.275305921860481249e+02
1.896317189781751900e+00 5.275242337741462961e+02
1.896417211786592949e+00 5.275178737285353918e+02
1.896517233791433998e+00 5.275115125792108302e+02
1.896617255796275270e+00 5.275051508560361526e+02
1.896717277801116097e+00 5.274987890887206277e+02
1.896817299805957147e+00 5.274924278067942396e+02
1.896917321810798196e+00 5.274860675395864291e+02
1.897017343815639245e+00 5.274797088162002865e+02
1.897117365820480295e+00 5.274733521654893593e+02
1.897217387825321566e+00 5.274669981160357111e+02
1.897317409830162616e+00 5.274606471961237730e+02
1.897417431835003443e+00 5.274542999337190849e+02
1.897517453839844492e+00 5.274479568564433976e+02
1.897617475844685764e+00 5.274416184915510257e+02
1.897717497849526813e+00 5.274352853659054290e+02
1.897817519854367863e+00 5.274289580059560194e+02
1.897917541859208912e+00 5.274226369377144010e+02
1.898017563864049961e+00 5.274163226867290177e+02
1.898117585868890789e+00 5.274100157780651443e+02
1.898217607873732060e+00 5.274037167362768059e+02
1.898317629878573110e+00 5.273974260853866554e+02
1.898417651883414159e+00 5.273911443488608484e+02
1.898517673888255430e+00 5.273848720495855105e+02
1.898617695893096480e+00 5.273786097098435448e+02
1.898717717897937529e+00 5.273723578512897348e+02
1.898817739902778357e+00 5.273661169949285750e+02
1.898917761907619406e+00 5.273598876610908519e+02
1.899017783912460455e+00 5.273536703694076095e+02
1.899117805917301727e+00 5.273474656387896857e+02
1.899217827922142776e+00 5.273412739874017916e+02
1.899317849926983826e+00 5.273350959326400016e+02
1.899417871931825097e+00 5.273289319911081066e+02
1.899517893936665924e+00 5.273227826785932848e+02
1.899617915941506974e+00 5.273166485100447289e+02
1.899717937946348023e+00 5.273105299995461337e+02
1.899817959951189072e+00 5.273044276602965965e+02
1.899917981956030122e+00 5.272983420045839011e+02
1.900018003960871393e+00 5.272922735437628035e+02
1.900118025965712443e+00 5.272862227882304751e+02
1.900218047970553270e+00 5.272801902474043345e+02
1.900318069975394319e+00 5.272741764296968086e+02
1.900418091980235591e+00 5.272681818424938456e+02
1.900518113985076640e+00 5.272622069921293360e+02
1.900618135989917690e+00 5.272562523838645347e+02
1.900718157994758739e+00 5.272503185218621411e+02
1.900818179999599788e+00 5.272444059091648114e+02
1.900918202004440616e+00 5.272385150476693525e+02
1.901018224009281887e+00 5.272326464381073947e+02
1.901118246014122937e+00 5.272268005800181072e+02
1.901218268018963986e+00 5.272209779717280753e+02
1.901318290023805258e+00 5.272151791103265168e+02
1.901418312028646307e+00 5.272094044916409530e+02
1.901518334033487356e+00 5.272036546102183365e+02
1.901618356038328184e+00 5.271979299592964026e+02
1.901718378043169233e+00 5.271922310307850239e+02
1.901818400048010282e+00 5.271865583152406316e+02
1.901918422052851554e+00 5.271809123018458649e+02
1.902018444057692603e+00 5.271752934783813771e+02
1.902118466062533653e+00 5.271697023312107149e+02
1.902218488067374924e+00 5.271641393452498505e+02
1.902318510072215751e+00 5.271586050039492193e+02
1.902418532077056801e+00 5.271530997892684809e+02
1.902518554081897850e+00 5.271476241816556012e+02
1.902618576086738900e+00 5.271421786600217274e+02
1.902718598091579949e+00 5.271367637017207244e+02
1.902818620096421220e+00 5.271313797825262100e+02
1.902918642101262270e+00 5.271260273766069986e+02
1.903018664106103097e+00 5.271207069565073198e+02
1.903118686110944147e+00 5.271154189931226028e+02
1.903218708115785418e+00 5.271101639556766258e+02
1.903318730120626467e+00 5.271049423117013930e+02
1.903418752125467517e+00 5.270997545270117826e+02
1.903518774130308566e+00 5.270946010656855378e+02
1.903618796135149616e+00 5.270894823900398478e+02
1.903718818139990443e+00 5.270843989606103150e+02
1.903818840144831714e+00 5.270793512361266266e+02
1.903918862149672764e+00 5.270743396734928865e+02
1.904018884154513813e+00 5.270693647277638547e+02
1.904118906159355085e+00 5.270644268521235745e+02
1.904218928164196134e+00 5.270595264978643399e+02
1.904318950169037183e+00 5.270546641143627085e+02
1.904418972173878011e+00 5.270498401490589231e+02
1.904518994178719060e+00 5.270450550474365627e+02
1.904619016183560110e+00 5.270403092529975311e+02
1.904719038188401381e+00 5.270356032072438666e+02
1.904819060193242430e+00 5.270309373496536409e+02
1.904919082198083480e+00 5.270263121176600407e+02
1.905019104202924751e+00 5.270217279466314722e+02
1.905119126207765579e+00 5.270171852698474595e+02
1.905219148212606628e+00 5.270126845184798867e+02
1.905319170217447677e+00 5.270082261215702601e+02
1.905419192222288727e+00 5.270038105060094722e+02
1.905519214227129776e+00 5.269994380965144956e+02
1.905619236231971048e+00 5.269951093156108755e+02
1.905719258236812097e+00 5.269908245836089691e+02
1.905819280241652924e+00 5.269865843185831409e+02
1.905919302246493974e+00 5.269823889363530043e+02
1.906019324251335245e+00 5.269782388504601158e+02
1.906119346256176295e+00 5.269741344721501264e+02
1.906219368261017344e+00 5.269700762103479974e+02
1.906319390265858393e+00 5.269660644716421984e+02
1.906419412270699443e+00 5.269620996602602645e+02
1.906519434275540270e+00 5.269581821780512882e+02
1.906619456280381542e+00 5.269543124244651153e+02
1.906719478285222591e+00 5.269504907965291522e+02
1.906819500290063640e+00 5.269467176888322228e+02
1.906919522294904912e+00 5.269429934935018309e+02
1.907019544299745961e+00 5.269393186001856293e+02
1.907119566304587011e+00 5.269356933960314109e+02
1.907219588309427838e+00 5.269321182656651672e+02
1.907319610314268887e+00 5.269285935911746037e+02
1.907419632319109937e+00 5.269251197520864025e+02
1.907519654323951208e+00 5.269216971253505335e+02
1.907619676328792258e+00 5.269183260853147885e+02
1.907719698333633307e+00 5.269150070037121623e+02
1.907819720338474578e+00 5.269117402496361819e+02
1.907919742343315406e+00 5.269085261895245367e+02
1.908019764348156455e+00 5.269053651871392958e+02
1.908119786352997505e+00 5.269022576035476959e+02
1.908219808357838554e+00 5.268992037971023592e+02
1.908319830362679603e+00 5.268962041234246954e+02
1.908419852367520875e+00 5.268932589353831872e+02
1.908519874372361924e+00 5.268903685830775885e+02
1.908619896377202751e+00 5.268875334138178914e+02
1.908719918382043801e+00 5.268847537721076151e+02
1.908819940386885072e+00 5.268820299996241374e+02
1.908919962391726122e+00 5.268793624352019833e+02
1.909019984396567171e+00 5.268767514148121336e+02
1.909120006401408220e+00 5.268741972715463362e+02
1.909220028406249048e+00 5.268717003355983479e+02
1.909320050411090097e+00 5.268692609342450623e+02
1.909420072415931369e+00 5.268668793918301390e+02
1.909520094420772418e+00 5.268645560297456996e+02
1.909620116425613467e+00 5.268622911664135700e+02
1.909720138430454739e+00 5.268600851172702733e+02
1.909820160435295788e+00 5.268579381947474758e+02
1.909920182440136616e+00 5.268558507082556162e+02
1.910020204444977665e+00 5.268538229641670796e+02
1.910120226449818714e+00 5.268518552657976670e+02
1.910220248454659764e+00 5.268499479133911336e+02
1.910320270459501035e+00 5.268481012041019085e+02
1.910420292464342085e+00 5.268463154319778141e+02
1.910520314469183134e+00 5.268445908879443778e+02
1.910620336474023961e+00 5.268429278597868688e+02
1.910720358478865233e+00 5.268413266321359743e+02
1.910820380483706282e+00 5.268397874864488131e+02
1.910920402488547332e+00 5.268383107009954074e+02
1.911020424493388381e+00 5.268368965508403789e+02
1.911120446498229430e+00 5.268355453078290793e+02
1.911220468503070702e+00 5.268342572405692863e+02
1.911320490507911529e+00 5.268330326144176752e+02
1.911420512512752579e+00 5.268318716914632205e+02
1.911520534517593628e+00 5.268307747305113935e+02
1.911620556522434899e+00 5.268297419870698377e+02
1.911720578527275949e+00 5.268287737133310884e+02
1.911820600532116998e+00 5.268278701581601808e+02
1.911920622536958048e+00 5.268270315670774835e+02
1.912020644541798875e+00 5.268262581822441462e+02
1.912120666546639924e+00 5.268255502424476617e+02
1.912220688551481196e+00 5.268249079830882238e+02
1.912320710556322245e+00 5.268243316361613324e+02
1.912420732561163295e+00 5.268238214302459710e+02
1.912520754566004566e+00 5.268233775904899403e+02
1.912620776570845615e+00 5.268230003385941700e+02
1.912720798575686443e+00 5.268226898927999855e+02
1.912820820580527492e+00 5.268224464678750110e+02
1.912920842585368542e+00 5.268222702750992994e+02
1.913020864590209591e+00 5.268221615222505534e+02
1.913120886595050862e+00 5.268221204135928701e+02
1.913220908599891912e+00 5.268221471498608253e+02
1.913320930604732961e+00 5.268222419282481042e+02
1.913420952609573789e+00 5.268224049423930637e+02
1.913520974614415060e+00 5.268226363823656584e+02
1.913620996619256109e+00 5.268229364346575494e+02
1.913721018624097159e+00 5.268233052821630054e+02
1.913821040628938208e+00 5.268237431041732179e+02
1.913921062633779258e+00 5.268242500763587941e+02
1.914021084638620529e+00 5.268248263707597516e+02
1.914121106643461356e+00 5.268254721557740368e+02
1.914221128648302406e+00 5.268261875961406986e+02
1.914321150653143455e+00 5.268269728529347731e+02
1.914421172657984727e+00 5.268278280835500027e+02
1.914521194662825776e+00 5.268287534416899689e+02
1.914621216667666825e+00 5.268297490773549043e+02
1.914721238672507875e+00 5.268308151368315748e+02
1.914821260677348702e+00 5.268319517626810011e+02
1.914921282682189752e+00 5.268331590937273177e+02
1.915021304687031023e+00 5.268344372650477681e+02
1.915121326691872072e+00 5.268357864079614501e+02
1.915221348696713122e+00 5.268372066500161282e+02
1.915321370701554393e+00 5.268386981149824351e+02
1.915421392706395443e+00 5.268402609228389792e+02
1.915521414711236270e+00 5.268418951897640454e+02
1.915621436716077319e+00 5.268436010281255903e+02
1.915721458720918369e+00 5.268453785464701014e+02
1.915821480725759418e+00 5.268472278495137289e+02
1.915921502730600690e+00 5.268491490381319409e+02
1.916021524735441739e+00 5.268511422093498595e+02
1.916121546740282788e+00 5.268532074563333936e+02
1.916221568745123616e+00 5.268553448683788929e+02
1.916321590749964887e+00 5.268575545309051904e+02
1.916421612754805937e+00 5.268598365254438249e+02
1.916521634759646986e+00 5.268621909296291506e+02
1.916621656764488035e+00 5.268646178171931069e+02
1.916721678769329085e+00 5.268671172579521453e+02
1.916821700774170356e+00 5.268696893178009759e+02
1.916921722779011183e+00 5.268723340587057464e+02
1.917021744783852233e+00 5.268750515386923325e+02
1.917121766788693282e+00 5.268778418118414493e+02
1.917221788793534554e+00 5.268807049282793287e+02
1.917321810798375603e+00 5.268836409341701028e+02
1.917421832803216653e+00 5.268866498717089826e+02
1.917521854808057702e+00 5.268897317791136174e+02
1.917621876812898529e+00 5.268928866906180701e+02
1.917721898817739579e+00 5.268961146364644037e+02
1.917821920822580850e+00 5.268994156428980205e+02
1.917921942827421899e+00 5.269027897321576575e+02
1.918021964832262949e+00 5.269062369224709528e+02
1.918121986837104220e+00 5.269097572280477380e+02
1.918222008841945270e+00 5.269133506590732168e+02
1.918322030846786097e+00 5.269170172217018262e+02
1.918422052851627146e+00 5.269207569180510973e+02
1.918522074856468196e+00 5.269245697461958571e+02
1.918622096861309245e+00 5.269284557001633402e+02
1.918722118866150517e+00 5.269324147699257992e+02
1.918822140870991566e+00 5.269364469413967527e+02
1.918922162875832615e+00 5.269405521964247328e+02
1.919022184880673443e+00 5.269447305127894197e+02
1.919122206885514714e+00 5.269489818641948204e+02
1.919222228890355764e+00 5.269533062202656311e+02
1.919322250895196813e+00 5.269577035465426889e+02
1.919422272900037862e+00 5.269621738044786525e+02
1.919522294904878912e+00 5.269667169514320904e+02
1.919622316909720183e+00 5.269713329406652065e+02
1.919722338914561011e+00 5.269760217213391797e+02
1.919822360919402060e+00 5.269807832385095026e+02
1.919922382924243109e+00 5.269856174331238208e+02
1.920022404929084381e+00 5.269905242420172726e+02
1.920122426933925430e+00 5.269955035979089644e+02
1.920222448938766480e+00 5.270005554294002650e+02
1.920322470943607529e+00 5.270056796609686671e+02
1.920422492948448356e+00 5.270108762129693787e+02
1.920522514953289406e+00 5.270161450016286153e+02
1.920622536958130677e+00 5.270214859390422362e+02
1.920722558962971727e+00 5.270268989331746070e+02
1.920822580967812776e+00 5.270323838878553033e+02
1.920922602972654047e+00 5.270379407027754723e+02
1.921022624977495097e+00 5.270435692734889699e+02
1.921122646982335924e+00 5.270492694914087224e+02
1.921222668987176974e+00 5.270550412438051353e+02
1.921322690992018023e+00 5.270608844138057520e+02
1.921422712996859072e+00 5.270667988803916160e+02
1.921522735001700344e+00 5.270727845183992031e+02
1.921622757006541393e+00 5.270788411985172388e+02
1.921722779011382443e+00 5.270849687872869254e+02
1.921822801016223270e+00 5.270911671471003501e+02
1.921922823021064541e+00 5.270974361362018499e+02
1.922022845025905591e+00 5.271037756086836907e+02
1.922122867030746640e+00 5.271101854144928893e+02
1.922222889035587690e+00 5.271166653994235958e+02
1.922322911040428739e+00 5.271232154051216412e+02
1.922422933045270010e+00 5.271298352690847651e+02
1.922522955050110838e+00 5.271365248246609099e+02
1.922622977054951887e+00 5.271432839010512907e+02
1.922722999059792937e+00 5.271501123233097132e+02
1.922823021064634208e+00 5.271570099123440514e+02
1.922923043069475257e+00 5.271639764849169296e+02
1.923023065074316307e+00 5.271710118536482241e+02
1.923123087079157356e+00 5.271781158270157448e+02
1.923223109083998184e+00 5.271852882093561448e+02
1.923323131088839233e+00 5.271925288008683310e+02
1.923423153093680504e+00 5.271998373976141465e+02
1.923523175098521554e+00 5.272072137915201893e+02
1.923623197103362603e+00 5.272146577703829280e+02
1.923723219108203875e+00 5.272221691178669971e+02
1.923823241113044924e+00 5.272297476135111083e+02
1.923923263117885751e+00 5.272373930327296421e+02
1.924023285122726801e+00 5.272451051468152627e+02
1.924123307127567850e+00 5.272528837229427836e+02
1.924223329132408900e+00 5.272607285241718955e+02
1.924323351137250171e+00 5.272686393094501227e+02
1.924423373142091220e+00 5.272766158336185072e+02
1.924523395146932270e+00 5.272846578474127455e+02
1.924623417151773097e+00 5.272927650974694416e+02
1.924723439156614369e+00 5.273009373263281532e+02
1.924823461161455418e+00 5.273091742724375308e+02
1.924923483166296467e+00 5.273174756701582737e+02
1.925023505171137517e+00 5.273258412497688141e+02
1.925123527175978566e+00 5.273342707374692964e+02
1.925223549180819838e+00 5.273427638553863517e+02
1.925323571185660665e+00 5.273513203215804879e+02
1.925423593190501714e+00 5.273599398500466577e+02
1.925523615195342764e+00 5.273686221507247183e+02
1.925623637200184035e+00 5.273773669295032960e+02
1.925723659205025085e+00 5.273861738882225154e+02
1.925823681209866134e+00 5.273950427246843446e+02
1.925923703214707183e+00 5.274039731326563469e+02
1.926023725219548011e+00 5.274129648018789567e+02
1.926123747224389060e+00 5.274220174180702543e+02
1.926223769229230331e+00 5.274311306629339242e+02
1.926323791234071381e+00 5.274403042141660762e+02
1.926423813238912430e+00 5.274495377454604750e+02
1.926523835243753702e+00 5.274588309265187718e+02
1.926623857248594529e+00 5.274681834230533468e+02
1.926723879253435578e+00 5.274775948967993600e+02
1.926823901258276628e+00 5.274870650055183887e+02
1.926923923263117677e+00 5.274965934030082053e+02
1.927023945267958727e+00 5.275061797391105074e+02
1.927123967272799998e+00 5.275158236597183077e+02
1.927223989277641047e+00 5.275255248067846878e+02
1.927324011282481875e+00 5.275352828183306428e+02
1.927424033287322924e+00 5.275450973284532665e+02
1.927524055292164196e+00 5.275549679673363244e+02
1.927624077297005245e+00 5.275648943612571884e+02
1.927724099301846294e+00 5.275748761325960459e+02
1.927824121306687344e+00 5.275849128998456763e+02
1.927924143311528393e+00 5.275950042776199780e+02
1.928024165316369221e+00 5.276051498766651093e+02
1.928124187321210492e+00 5.276153493038677880e+02
1.928224209326051541e+00 5.276256021622634762e+02
1.928324231330892591e+00 5.276359080510496824e+02
1.928424253335733862e+00 5.276462665655947148e+02
1.928524275340574912e+00 5.276566772974466630e+02
1.928624297345415961e+00 5.276671398343466990e+02
1.928724319350256788e+00 5.276776537602353301e+02
1.928824341355097838e+00 5.276882186552675194e+02
1.928924363359938887e+00 5.276988340958215531e+02
1.929024385364780159e+00 5.277094996545097274e+02
1.929124407369621208e+00 5.277202149001898306e+02
1.929224429374462257e+00 5.277309793979783308e+02
1.929324451379303529e+00 5.277417927092589025e+02
1.929424473384144356e+00 5.277526543916967512e+02
1.929524495388985406e+00 5.277635639992478218e+02
1.929624517393826455e+00 5.277745210821733508e+02
1.929724539398667504e+00 5.277855251870513484e+02
1.929824561403508554e+00 5.277965758567867169e+02
1.929924583408349825e+00 5.278076726306276214e+02
1.930024605413190875e+00 5.278188150441749258e+02
1.930124627418031702e+00 5.278300026293952669e+02
1.930224649422872751e+00 5.278412349146362885e+02
1.930324671427714023e+00 5.278525114246365320e+02
1.930424693432555072e+00 5.278638316805422619e+02
1.930524715437396122e+00 5.278751951999164476e+02
1.930624737442237171e+00 5.278866014967570663e+02
1.930724759447078220e+00 5.278980500815061987e+02
1.930824781451919048e+00 5.279095404610674223e+02
1.930924803456760319e+00 5.279210721388184311e+02
1.931024825461601369e+00 5.279326446146249054e+02
1.931124847466442418e+00 5.279442573848551774e+02
1.931224869471283689e+00 5.279559099423936459e+02
1.931324891476124739e+00 5.279676017766578298e+02
1.931424913480965788e+00 5.279793323736108732e+02
1.931524935485806616e+00 5.279911012157767800e+02
1.931624957490647665e+00 5.280029077822556474e+02
1.931724979495488714e+00 5.280147515487396959e+02
1.931825001500329986e+00 5.280266319875269119e+02
1.931925023505171035e+00 5.280385485675384416e+02
1.932025045510012085e+00 5.280505007543323472e+02
1.932125067514853356e+00 5.280624880101205463e+02
1.932225089519694183e+00 5.280745097937846140e+02
1.932325111524535233e+00 5.280865655608904490e+02
1.932425133529376282e+00 5.280986547637068043e+02
1.932525155534217332e+00 5.281107768512206349e+02
1.932625177539058381e+00 5.281229312691519908e+02
1.932725199543899652e+00 5.281351174599727756e+02
1.932825221548740702e+00 5.281473348629225484e+02
1.932925243553581529e+00 5.281595829140263731e+02
1.933025265558422578e+00 5.281718610461097114e+02
1.933125287563263850e+00 5.281841686888174081e+02
1.933225309568104899e+00 5.281965052686314266e+02
1.933325331572945949e+00 5.282088702088863101e+02
1.933425353577786998e+00 5.282212629297883950e+02
1.933525375582628048e+00 5.282336828484332045e+02
1.933625397587468875e+00 5.282461293788228431e+02
1.933725419592310146e+00 5.282586019318846411e+02
1.933825441597151196e+00 5.282710999154886622e+02
1.933925463601992245e+00 5.282836227344663484e+02
1.934025485606833517e+00 5.282961697906291647e+02
1.934125507611674566e+00 5.283087404827869022e+02
1.934225529616515615e+00 5.283213342067660960e+02
1.934325551621356443e+00 5.283339503554286694e+02
1.934425573626197492e+00 5.283465883186920564e+02
1.934525595631038541e+00 5.283592474835475059e+02
1.934625617635879813e+00 5.283719272340786119e+02
1.934725639640720862e+00 5.283846269514814367e+02
1.934825661645561912e+00 5.283973460140852012e+02
1.934925683650403183e+00 5.284100837973687703e+02
1.935025705655244010e+00 5.284228396739829350e+02
1.935125727660085060e+00 5.284356130137701939e+02
1.935225749664926109e+00 5.284484031837826024e+02
1.935325771669767159e+00 5.284612095483050780e+02
1.935425793674608208e+00 5.284740314688725675e+02
1.935525815679449479e+00 5.284868683042923294e+02
1.935625837684290529e+00 5.284997194106633742e+02
1.935725859689131356e+00 5.285125841413982926e+02
1.935825881693972406e+00 5.285254618472429229e+02
1.935925903698813677e+00 5.285383518762981794e+02
1.936025925703654726e+00 5.285512535740382418e+02
1.936125947708495776e+00 5.285641662833362489e+02
1.936225969713336825e+00 5.285770893444815783e+02
1.936325991718177875e+00 5.285900220952034942e+02
1.936426013723018702e+00 5.286029638706918377e+02
1.936526035727859973e+00 5.286159140036179451e+02
1.936626057732701023e+00 5.286288718241572724e+02
1.936726079737542072e+00 5.286418366600111085e+02
1.936826101742383344e+00 5.286548078364280627e+02
1.936926123747224393e+00 5.286677846762264608e+02
1.937026145752065442e+00 5.286807664998169685e+02
1.937126167756906270e+00 5.286937526252229418e+02
1.937226189761747319e+00 5.287067423681058926e+02
1.937326211766588369e+00 5.287197350417845882e+02
1.937426233771429640e+00 5.287327299572604034e+02
1.937526255776270689e+00 5.287457264232397165e+02
1.937626277781111739e+00 5.287587237461541463e+02
1.937726299785953010e+00 5.287717212301864720e+02
1.937826321790793838e+00 5.287847181772933709e+02
1.937926343795634887e+00 5.287977138872261094e+02
1.938026365800475936e+00 5.288107076575562360e+02
1.938126387805316986e+00 5.288236987836991148e+02
1.938226409810158035e+00 5.288366865589355257e+02
1.938326431814999307e+00 5.288496702744367894e+02
1.938426453819840356e+00 5.288626492192873911e+02
1.938526475824681183e+00 5.288756226805087408e+02
1.938626497829522233e+00 5.288885899430865720e+02
1.938726519834363504e+00 5.289015502899879948e+02
1.938826541839204554e+00 5.289145030021925322e+02
1.938926563844045603e+00 5.289274473587120156e+02
1.939026585848886652e+00 5.289403826366169596e+02
1.939126607853727702e+00 5.289533081110596413e+02
1.939226629858568529e+00 5.289662230553001336e+02
1.939326651863409801e+00 5.289791267407282476e+02
1.939426673868250850e+00 5.289920184368921809e+02
1.939526695873091899e+00 5.290048974115193232e+02
1.939626717877933171e+00 5.290177629305436540e+02
1.939726739882774220e+00 5.290306142581298445e+02
1.939826761887615270e+00 5.290434506566978143e+02
1.939926783892456097e+00 5.290562713869496747e+02
1.940026805897297146e+00 5.290690757078925799e+02
1.940126827902138196e+00 5.290818628768654435e+02
1.940226849906979467e+00 5.290946321495647453e+02
1.940326871911820517e+00 5.291073827800689742e+02
1.940426893916661566e+00 5.291201140208647757e+02
1.940526915921502837e+00 5.291328251228725321e+02
1.940626937926343665e+00 5.291455153354725098e+02
1.940726959931184714e+00 5.291581839065295298e+02
1.940826981936025764e+00 5.291708300824203661e+02
1.940927003940866813e+00 5.291834531080593251e+02
1.941027025945707862e+00 5.291960522269233707e+02
1.941127047950549134e+00 5.292086266810799771e+02
1.941227069955390183e+00 5.292211757112111172e+02
1.941327091960231011e+00 5.292336985566428211e+02
1.941427113965072060e+00 5.292461944553676858e+02
1.941527135969913331e+00 5.292586626440751161e+02
1.941627157974754381e+00 5.292711023581758809e+02
1.941727179979595430e+00 5.292835128318281477e+02
1.941827201984436480e+00 5.292958932979656765e+02
1.941927223989277529e+00 5.293082429883231725e+02
1.942027245994118356e+00 5.293205611334669811e+02
1.942127267998959628e+00 5.293328469628154380e+02
1.942227290003800677e+00 5.293450997046713837e+02
1.942327312008641726e+00 5.293573185862472883e+02
1.942427334013482998e+00 5.293695028336919677e+02
1.942527356018324047e+00 5.293816516721187782e+02
1.942627378023165097e+00 5.293937643256317642e+02
1.942727400028005924e+00 5.294058400173546488e+02
1.942827422032846973e+00 5.294178779694562991e+02
1.942927444037688023e+00 5.294298774031792618e+02
1.943027466042529294e+00 5.294418375388678442e+02
1.943127488047370344e+00 5.294537575959940341e+02
1.943227510052211393e+00 5.294656367931875138e+02
1.943327532057052665e+00 5.294774743482605572e+02
1.943427554061893492e+00 5.294892694782380431e+02
1.943527576066734541e+00 5.295010213993843990e+02
1.943627598071575591e+00 5.295127293272322504e+02
1.943727620076416640e+00 5.295243924766084547e+02
1.943827642081257689e+00 5.295360100616637737e+02
1.943927664086098961e+00 5.295475812959012956e+02
1.944027686090939788e+00 5.295591053922031506e+02
1.944127708095780838e+00 5.295705815628590472e+02
1.944227730100621887e+00 5.295820090195951479e+02
1.944327752105463158e+00 5.295933869736022643e+02
1.944427774110304208e+00 5.296047146355624591e+02
1.944527796115145257e+00 5.296159912156805376e+02
1.944627818119986307e+00 5.296272159237094002e+02
1.944727840124827134e+00 5.296383879689802825e+02
1.944827862129668183e+00 5.296495065604295860e+02
1.944927884134509455e+00 5.296605709066303689e+02
1.945027906139350504e+00 5.296715802158183806e+02
1.945127928144191554e+00 5.296825336959207107e+02
1.945227950149032825e+00 5.296934305545855750e+02
1.945327972153873874e+00 5.297042699992117605e+02
1.945427994158714702e+00 5.297150512369740909e+02
1.945528016163555751e+00 5.297257734748552593e+02
1.945628038168396801e+00 5.297364359196744772e+02
1.945728060173237850e+00 5.297470377781140769e+02
1.945828082178079121e+00 5.297575782567512306e+02
1.945928104182920171e+00 5.297680565620850075e+02
1.946028126187761220e+00 5.297784719005643410e+02
1.946128148192602048e+00 5.297888234786215662e+02
1.946228170197443319e+00 5.297991105026950436e+02
1.946328192202284368e+00 5.298093321792638335e+02
1.946428214207125418e+00 5.298194877148735031e+02
1.946528236211966467e+00 5.298295763161656851e+02
1.946628258216807517e+00 5.298395971899087726e+02
1.946728280221648788e+00 5.298495495430249775e+02
1.946828302226489615e+00 5.298594325826211389e+02
1.946928324231330665e+00 5.298692455160168038e+02
1.947028346236171714e+00 5.298789875507743545e+02
1.947128368241012986e+00 5.298886578947268617e+02
1.947228390245854035e+00 5.298982557560093483e+02
1.947328412250695084e+00 5.299077803430859603e+02
1.947428434255536134e+00 5.299172308647811178e+02
1.947528456260376961e+00 5.299266065303074811e+02
1.947628478265218011e+00 5.299359065492961918e+02
1.947728500270059282e+00 5.299451301318254082e+02
1.947828522274900331e+00 5.299542764884499775e+02
1.947928544279741381e+00 5.299633448302304259e+02
1.948028566284582652e+00 5.299723343687642227e+02
1.948128588289423702e+00 5.299812443162120417e+02
1.948228610294264529e+00 5.299900738853302755e+02
1.948328632299105578e+00 5.299988222894975252e+02
1.948428654303946628e+00 5.300074887427462045e+02
1.948528676308787677e+00 5.300160724597918716e+02
1.948628698313628949e+00 5.300245726560600588e+02
1.948728720318469998e+00 5.300329885477196967e+02
1.948828742323311047e+00 5.300413193517092623e+02
1.948928764328151875e+00 5.300495642857677012e+02
1.949028786332993146e+00 5.300577225684627365e+02
1.949128808337834196e+00 5.300657934192234961e+02
1.949228830342675245e+00 5.300737760583645013e+02
1.949328852347516294e+00 5.300816697071199997e+02
1.949428874352357344e+00 5.300894735876713639e+02
1.949528896357198615e+00 5.300971869231752862e+02
1.949628918362039443e+00 5.301048089377972019e+02
1.949728940366880492e+00 5.301123388567347092e+02
1.949828962371721541e+00 5.301197759062528121e+02
1.949928984376562813e+00 5.301271193137102955e+02
1.950029006381403862e+00 5.301343683075882609e+02
1.950129028386244912e+00 5.301415221175219585e+02
1.950229050391085961e+00 5.301485799743292091e+02
1.950329072395926788e+00 5.301555411100383708e+02
1.950429094400767838e+00 5.301624047579198304e+02
1.950529116405609109e+00 5.301691701525132885e+02
1.950629138410450159e+00 5.301758365296584543e+02
1.950729160415291208e+00 5.301824031265244912e+02
1.950829182420132479e+00 5.301888691816379833e+02
1.950929204424973529e+00 5.301952339349122667e+02
1.951029226429814356e+00 5.302014966276785799e+02
1.951129248434655405e+00 5.302076565027116430e+02
1.951229270439496455e+00 5.302137128042638778e+02
1.951329292444337504e+00 5.302196647780892818e+02
1.951429314449178776e+00 5.302255116714762835e+02
1.951529336454019825e+00 5.302312527332743457e+02
1.951629358458860874e+00 5.302368872139256837e+02
1.951729380463701702e+00 5.302424143654910722e+02
1.951829402468542973e+00 5.302478334416817916e+02
1.951929424473384023e+00 5.302531436978867987e+02
1.952029446478225072e+00 5.302583443912018311e+02
1.952129468483066121e+00 5.302634347804599884e+02
1.952229490487907171e+00 5.302684141262569710e+02
1.952329512492748442e+00 5.302732816909847315e+02
1.952429534497589270e+00 5.302780367388563718e+02
1.952529556502430319e+00 5.302826785359357018e+02
1.952629578507271368e+00 5.302872063501678213e+02
1.952729600512112640e+00 5.302916194514057224e+02
1.952829622516953689e+00 5.302959171114400760e+02
1.952929644521794739e+00 5.303000986040270845e+02
1.953029666526635788e+00 5.303041632049183818e+02
1.953129688531476615e+00 5.303081101918863851e+02
1.953229710536317665e+00 5.303119388447568099e+02
1.953329732541158936e+00 5.303156484454349311e+02
1.953429754545999986e+00 5.303192382779341187e+02
1.953529776550841035e+00 5.303227076284035775e+02
1.953629798555682306e+00 5.303260557851577914e+02
1.953729820560523356e+00 5.303292820387040365e+02
1.953829842565364183e+00 5.303323856817723936e+02
1.953929864570205233e+00 5.303353660093392818e+02
1.954029886575046282e+00 5.303382223186608826e+02
1.954129908579887331e+00 5.303409539092975820e+02
1.954229930584728603e+00 5.303435600831437569e+02
1.954329952589569652e+00 5.303460401444540366e+02
1.954429974594410702e+00 5.303483933998729754e+02
1.954529996599251529e+00 5.303506191584618819e+02
1.954630018604092800e+00 5.303527167317264457e+02
1.954730040608933850e+00 5.303546854336441356e+02
1.954830062613774899e+00 5.303565245806937583e+02
1.954930084618615949e+00 5.303582334918793322e+02
1.955030106623456998e+00 5.303598114887611246e+02
1.955130128628298269e+00 5.303612578954807759e+02
1.955230150633139097e+00 5.303625720387906313e+02
1.955330172637980146e+00 5.303637532480781829e+02
1.955430194642821196e+00 5.303648008553975615e+02
1.955530216647662467e+00 5.303657141954909093e+02
1.955630238652503516e+00 5.303664926058216906e+02
1.955730260657344566e+00 5.303671354265950413e+02
1.955830282662185615e+00 5.303676420007916477e+02
1.955930304667026443e+00 5.303680116741895745e+02
1.956030326671867492e+00 5.303682437953929139e+02
1.956130348676708763e+00 5.303683377158581607e+02
1.956230370681549813e+00 5.303682927899208153e+02
1.956330392686390862e+00 5.303681083748222136e+02
1.956430414691232134e+00 5.303677838307356751e+02
1.956530436696073183e+00 5.303673185207932192e+02
1.956630458700914010e+00 5.303667118111112586e+02
1.956730480705755060e+00 5.303659630708168606e+02
1.956830502710596109e+00 5.303650716720760556e+02
1.956930524715437159e+00 5.303640369901157783e+02
1.957030546720278430e+00 5.303628584032535400e+02
1.957130568725119479e+00 5.303615352929218716e+02
1.957230590729960529e+00 5.303600670436933342e+02
1.957330612734801356e+00 5.303584530433081454e+02
1.957430634739642628e+00 5.303566926826983945e+02
1.957530656744483677e+00 5.303547853560130534e+02
1.957630678749324726e+00 5.303527304606451480e+02
1.957730700754165776e+00 5.303505273972568830e+02
1.957830722759006825e+00 5.303481755698024926e+02
1.957930744763848097e+00 5.303456743855572313e+02
1.958030766768688924e+00 5.303430232551386325e+02
1.958130788773529973e+00 5.303402215925345899e+02
1.958230810778371023e+00 5.303372688151258671e+02
1.958330832783212294e+00 5.303341643437127004e+02
1.958430854788053344e+00 5.303309076025390141e+02
1.958530876792894393e+00 5.303274980193150441e+02
1.958630898797735442e+00 5.303239350252456461e+02
1.958730920802576270e+00 5.303202180550507592e+02
1.958830942807417319e+00 5.303163465469932589e+02
1.958930964812258591e+00 5.303123199428998760e+02
1.959030986817099640e+00 5.303081376881873439e+02
1.959131008821940689e+00 5.303037992318855913e+02
1.959231030826781961e+00 5.302993040266621847e+02
1.959331052831623010e+00 5.302946515288451792e+02
1.959431074836463837e+00 5.302898411984481299e+02
1.959531096841304887e+00 5.302848724991919198e+02
1.959631118846145936e+00 5.302797448985293158e+02
1.959731140850986986e+00 5.302744578676692981e+02
1.959831162855828257e+00 5.302690108815969552e+02
1.959931184860669307e+00 5.302634034191000865e+02
1.960031206865510356e+00 5.302576349627910304e+02
1.960131228870351183e+00 5.302517049991278100e+02
1.960231250875192455e+00 5.302456130184402809e+02
1.960331272880033504e+00 5.302393585149503679e+02
1.960431294884874553e+00 5.302329409867936647e+02
1.960531316889715603e+00 5.302263599360453554e+02
1.960631338894556652e+00 5.302196148687388586e+02
1.960731360899397924e+00 5.302127052948906112e+02
1.960831382904238751e+00 5.302056307285209868e+02
1.960931404909079800e+00 5.301983906876766923e+02
1.961031426913920850e+00 5.301909846944508899e+02
1.961131448918762121e+00 5.301834122750074130e+02
1.961231470923603171e+00 5.301756729596012292e+02
1.961331492928444220e+00 5.301677662825994730e+02
1.961431514933285047e+00 5.301596917825028186e+02
1.961531536938126097e+00 5.301514490019681034e+02
1.961631558942967146e+00 5.301430374878267457e+02
1.961731580947808418e+00 5.301344567911086187e+02
1.961831602952649467e+00 5.301257064670605814e+02
1.961931624957490516e+00 5.301167860751685339e+02
1.962031646962331788e+00 5.301076951791765168e+02
1.962131668967172615e+00 5.300984333471099035e+02
1.962231690972013665e+00 5.300890001512919980e+02
1.962331712976854714e+00 5.300793951683670002e+02
1.962431734981695763e+00 5.300696179793187639e+02
1.962531756986536813e+00 5.300596681694913741e+02
1.962631778991378084e+00 5.300495453286080192e+02
1.962731800996219134e+00 5.300392490507913408e+02
1.962831823001059961e+00 5.300287789345831015e+02
1.962931845005901010e+00 5.300181345829620341e+02
1.963031867010742282e+00 5.300073156033658961e+02
1.963131889015583331e+00 5.299963216077067045e+02
1.963231911020424381e+00 5.299851522123931318e+02
1.963331933025265430e+00 5.299738070383474451e+02
1.963431955030106479e+00 5.299622857110243785e+02
1.963531977034947307e+00 5.299505878604301188e+02
1.963631999039788578e+00 5.299387131211407223e+02
1.963732021044629628e+00 5.299266611323193956e+02
1.963832043049470677e+00 5.299144315377359362e+02
1.963932065054311948e+00 5.299020239857817387e+02
1.964032087059152998e+00 5.298894381294931009e+02
1.964132109063994047e+00 5.298766736265630470e+02
1.964232131068834875e+00 5.298637301393624739e+02
1.964332153073675924e+00 5.298506073349557255e+02
1.964432175078516973e+00 5.298373048851176463e+02
1.964532197083358245e+00 5.298238224663527944e+02
1.964632219088199294e+00 5.298101597599105617e+02
1.964732241093040344e+00 5.297963164518012036e+02
1.964832263097881615e+00 5.297822922328144841e+02
1.964932285102722442e+00 5.297680867985341138e+02
1.965032307107563492e+00 5.297536998493568490e+02
1.965132329112404541e+00 5.297391310905038608e+02
1.965232351117245591e+00 5.297243802320431314e+02
1.965332373122086640e+00 5.297094469888985486e+02
1.965432395126927911e+00 5.296943310808709384e+02
1.965532417131768961e+00 5.296790322326512523e+02
1.965632439136609788e+00 5.296635501738346647e+02
1.965732461141450838e+00 5.296478846389391038e+02
1.965832483146292109e+00 5.296320353674169610e+02
1.965932505151133158e+00 5.296160021036723720e+02
1.966032527155974208e+00 5.295997845970746312e+02
1.966132549160815257e+00 5.295833826019739945e+02
1.966232571165656307e+00 5.295667958777136164e+02
1.966332593170497134e+00 5.295500241886471713e+02
1.966432615175338405e+00 5.295330673041496539e+02
1.966532637180179455e+00 5.295159249986340910e+02
1.966632659185020504e+00 5.294985970515629106e+02
1.966732681189861776e+00 5.294810832474644258e+02
1.966832703194702825e+00 5.294633833759422714e+02
1.966932725199543874e+00 5.294454972316925705e+02
1.967032747204384702e+00 5.294274246145146208e+02
1.967132769209225751e+00 5.294091653293253330e+02
1.967232791214066800e+00 5.293907191861710544e+02
1.967332813218908072e+00 5.293720860002397330e+02
1.967432835223749121e+00 5.293532655918742194e+02
1.967532857228590171e+00 5.293342577865847716e+02
1.967632879233431442e+00 5.293150624150608792e+02
1.967732901238272269e+00 5.292956793131829727e+02
1.967832923243113319e+00 5.292761083220334513e+02
1.967932945247954368e+00 5.292563492879097566e+02
1.968032967252795418e+00 5.292364020623357419e+02
1.968132989257636467e+00 5.292162665020708801e+02
1.968233011262477739e+00 5.291959424691242475e+02
1.968333033267318788e+00 5.291754298307625959e+02
1.968433055272159615e+00 5.291547284595236533e+02
1.968533077277000665e+00 5.291338382332248784e+02
1.968633099281841936e+00 5.291127590349752836e+02
1.968733121286682985e+00 5.290914907531835070e+02
1.968833143291524035e+00 5.290700332815699767e+02
1.968933165296365084e+00 5.290483865191768018e+02
1.969033187301206134e+00 5.290265503703756167e+02
1.969133209306046961e+00 5.290045247448780401e+02
1.969233231310888232e+00 5.289823095577464755e+02
1.969333253315729282e+00 5.289599047294003640e+02
1.969433275320570331e+00 5.289373101856276662e+02
1.969533297325411603e+00 5.289145258575933894e+02
1.969633319330252652e+00 5.288915516818461811e+02
1.969733341335093701e+00 5.288683876003294699e+02
1.969833363339934529e+00 5.288450335603879466e+02
1.969933385344775578e+00 5.288214895147758625e+02
1.970033407349616628e+00 5.287977554216666931e+02
1.970133429354457899e+00 5.287738312446583677e+02
1.970233451359298948e+00 5.287497169527821370e+02
1.970333473364139998e+00 5.287254125205104174e+02
1.970433495368981269e+00 5.287009179277632711e+02
1.970533517373822097e+00 5.286762331599146592e+02
1.970633539378663146e+00 5.286513582078010813e+02
1.970733561383504195e+00 5.286262930677273744e+02
1.970833583388345245e+00 5.286010377414723962e+02
1.970933605393186294e+00 5.285755922362977799e+02
1.971033627398027566e+00 5.285499565649497526e+02
1.971133649402868615e+00 5.285241307456703908e+02
1.971233671407709442e+00 5.284981148021990975e+02
1.971333693412550492e+00 5.284719087637796520e+02
1.971433715417391763e+00 5.284455126651670298e+02
1.971533737422232813e+00 5.284189265466300185e+02
1.971633759427073862e+00 5.283921504539574698e+02
1.971733781431914911e+00 5.283651844384639844e+02
1.971833803436755961e+00 5.283380285569928674e+02
1.971933825441596788e+00 5.283106828719221539e+02
1.972033847446438060e+00 5.282831474511674514e+02
1.972133869451279109e+00 5.282554223681875101e+02
1.972233891456120158e+00 5.282275077019869514e+02
1.972333913460961430e+00 5.281994035371197924e+02
1.972433935465802479e+00 5.281711099636944482e+02
1.972533957470643529e+00 5.281426270773768010e+02
1.972633979475484356e+00 5.281139549793914512e+02
1.972734001480325405e+00 5.280850937765258095e+02
1.972834023485166455e+00 5.280560435811346451e+02
1.972934045490007726e+00 5.280268045111404263e+02
1.973034067494848776e+00 5.279973766900355940e+02
1.973134089499689825e+00 5.279677602468864279e+02
1.973234111504531096e+00 5.279379553163342962e+02
1.973334133509371924e+00 5.279079620385979297e+02
1.973434155514212973e+00 5.278777805594737629e+02
1.973534177519054023e+00 5.278474110303382076e+02
1.973634199523895072e+00 5.278168536081502680e+02
1.973734221528736121e+00 5.277861084554496074e+02
1.973834243533577393e+00 5.277551757403606416e+02
1.973934265538418442e+00 5.277240556365916291e+02
1.974034287543259270e+00 5.276927483234351257e+02
1.974134309548100319e+00 5.276612539857683259e+02
1.974234331552941590e+00 5.276295728140543133e+02
1.974334353557782640e+00 5.275977050043408099e+02
1.974434375562623689e+00 5.275656507582596078e+02
1.974534397567464739e+00 5.275334102830283882e+02
1.974634419572305788e+00 5.275009837914473110e+02
1.974734441577146615e+00 5.274683715019009469e+02
1.974834463581987887e+00 5.274355736383542990e+02
1.974934485586828936e+00 5.274025904303539392e+02
1.975034507591669986e+00 5.273694221130267579e+02
1.975134529596511257e+00 5.273360689270758712e+02
1.975234551601352306e+00 5.273025311187822126e+02
1.975334573606193356e+00 5.272688089399994169e+02
1.975434595611034183e+00 5.272349026481550709e+02
1.975534617615875232e+00 5.272008125062446879e+02
1.975634639620716282e+00 5.271665387828322764e+02
1.975734661625557553e+00 5.271320817520465880e+02
1.975834683630398603e+00 5.270974416935773661e+02
1.975934705635239652e+00 5.270626188926734130e+02
1.976034727640080924e+00 5.270276136401389522e+02
1.976134749644921751e+00 5.269924262323307858e+02
1.976234771649762800e+00 5.269570569711520420e+02
1.976334793654603850e+00 5.269215061640525164e+02
1.976434815659444899e+00 5.268857741240219639e+02
1.976534837664285948e+00 5.268498611695852105e+02
1.976634859669127220e+00 5.268137676248005619e+02
1.976734881673968269e+00 5.267774938192522995e+02
1.976834903678809097e+00 5.267410400880484076e+02
1.976934925683650146e+00 5.267044067718129554e+02
1.977034947688491417e+00 5.266675942166835966e+02
1.977134969693332467e+00 5.266306027743046343e+02
1.977234991698173516e+00 5.265934328018221322e+02
1.977335013703014566e+00 5.265560846618768664e+02
1.977435035707855615e+00 5.265185587226008010e+02
1.977535057712696442e+00 5.264808553576091299e+02
1.977635079717537714e+00 5.264429749459942514e+02
1.977735101722378763e+00 5.264049178723197429e+02
1.977835123727219813e+00 5.263666845266141081e+02
1.977935145732061084e+00 5.263282753043621369e+02
1.978035167736902133e+00 5.262896906064999030e+02
1.978135189741743183e+00 5.262509308394069194e+02
1.978235211746584010e+00 5.262119964148976123e+02
1.978335233751425060e+00 5.261728877502152955e+02
1.978435255756266109e+00 5.261336052680234161e+02
1.978535277761107380e+00 5.260941493963985067e+02
1.978635299765948430e+00 5.260545205688192709e+02
1.978735321770789479e+00 5.260147192241629455e+02
1.978835343775630307e+00 5.259747458066930221e+02
1.978935365780471578e+00 5.259346007660508349e+02
1.979035387785312627e+00 5.258942845572491933e+02
1.979135409790153677e+00 5.258537976406598773e+02
1.979235431794994726e+00 5.258131404820065882e+02
1.979335453799835776e+00 5.257723135523557403e+02
1.979435475804677047e+00 5.257313173281050922e+02
1.979535497809517874e+00 5.256901522909748792e+02
1.979635519814358924e+00 5.256488189279976950e+02
1.979735541819199973e+00 5.256073177315092835e+02
1.979835563824041245e+00 5.255656491991354642e+02
1.979935585828882294e+00 5.255238138337849705e+02
1.980035607833723343e+00 5.254818121436361480e+02
1.980135629838564393e+00 5.254396446421268365e+02
1.980235651843405220e+00 5.253973118479436835e+02
1.980335673848246270e+00 5.253548142850102067e+02
1.980435695853087541e+00 5.253121524824751987e+02
1.980535717857928590e+00 5.252693269747024942e+02
1.980635739862769640e+00 5.252263383012565328e+02
1.980735761867610911e+00 5.251831870068930357e+02
1.980835783872451961e+00 5.251398736415460462e+02
1.980935805877292788e+00 5.250963987603126952e+02
1.981035827882133837e+00 5.250527629234460392e+02
1.981135849886974887e+00 5.250089666963369837e+02
1.981235871891815936e+00 5.249650106495050750e+02
1.981335893896657208e+00 5.249208953585830386e+02
1.981435915901498257e+00 5.248766214043051832e+02
1.981535937906339306e+00 5.248321893724926213e+02
1.981635959911180134e+00 5.247875998540409910e+02
1.981735981916021405e+00 5.247428534449049948e+02
1.981836003920862455e+00 5.246979507460852119e+02
1.981936025925703504e+00 5.246528923636151376e+02
1.982036047930544553e+00 5.246076789085445853e+02
1.982136069935385603e+00 5.245623109969263851e+02
1.982236091940226874e+00 5.245167892498021729e+02
1.982336113945067702e+00 5.244711142931857921e+02
1.982436135949908751e+00 5.244252867580510156e+02
1.982536157954749800e+00 5.243793072803124460e+02
1.982636179959591072e+00 5.243331765008141474e+02
1.982736201964432121e+00 5.242868950653117963e+02
1.982836223969273171e+00 5.242404636244569929e+02
1.982936245974114220e+00 5.241938828337819132e+02
1.983036267978955047e+00 5.241471533536835068e+02
1.983136289983796097e+00 5.241002758494059890e+02
1.983236311988637368e+00 5.240532509910264025e+02
1.983336333993478418e+00 5.240060794534355182e+02
1.983436355998319467e+00 5.239587619163232830e+02
1.983536378003160738e+00 5.239112990641601755e+02
1.983636400008001788e+00 5.238636915861828811e+02
1.983736422012842615e+00 5.238159401763725782e+02
1.983836444017683664e+00 5.237680455334415228e+02
1.983936466022524714e+00 5.237200083608139494e+02
1.984036488027365763e+00 5.236718293666076534e+02
1.984136510032207035e+00 5.236235092636163699e+02
1.984236532037048084e+00 5.235750487692931756e+02
1.984336554041889134e+00 5.235264486057302520e+02
1.984436576046729961e+00 5.234777094996411506e+02
1.984536598051571232e+00 5.234288321823429442e+02
1.984636620056412282e+00 5.233798173897356492e+02
1.984736642061253331e+00 5.233306658622867644e+02
1.984836664066094380e+00 5.232813783450062601e+02
1.984936686070935430e+00 5.232319555874349817e+02
1.985036708075776701e+00 5.231823983436180470e+02
1.985136730080617529e+00 5.231327073720900671e+02
1.985236752085458578e+00 5.230828834358549102e+02
1.985336774090299627e+00 5.230329273023609176e+02
1.985436796095140899e+00 5.229828397434894214e+02
1.985536818099981948e+00 5.229326215355265504e+02
1.985636840104822998e+00 5.228822734591478820e+02
1.985736862109664047e+00 5.228317962993958190e+02
1.985836884114504874e+00 5.227811908456583296e+02
1.985936906119345924e+00 5.227304578916504170e+02
1.986036928124187195e+00 5.226795982353921772e+02
1.986136950129028245e+00 5.226286126791859488e+02
1.986236972133869294e+00 5.225775020295973263e+02
1.986336994138710565e+00 5.225262670974332195e+02
1.986437016143551615e+00 5.224749086977188881e+02
1.986537038148392442e+00 5.224234276496783878e+02
1.986637060153233492e+00 5.223718247767108096e+02
1.986737082158074541e+00 5.223201009063699303e+02
1.986837104162915590e+00 5.222682568703401103e+02
1.986937126167756862e+00 5.222162935044150345e+02
1.987037148172597911e+00 5.221642116484761118e+02
1.987137170177438961e+00 5.221120121464682597e+02
1.987237192182279788e+00 5.220596958463788724e+02
1.987337214187121059e+00 5.220072636002115587e+02
1.987437236191962109e+00 5.219547162639673843e+02
1.987537258196803158e+00 5.219020546976197465e+02
1.987637280201644208e+00 5.218492797650895909e+02
1.987737302206485257e+00 5.217963923342256294e+02
1.987837324211326528e+00 5.217433932767759188e+02
1.987937346216167356e+00 5.216902834683678520e+02
1.988037368221008405e+00 5.216370637884831467e+02
1.988137390225849455e+00 5.215837351204336301e+02
1.988237412230690726e+00 5.215302983513372510e+02
1.988337434235531775e+00 5.214767543720931826e+02
1.988437456240372825e+00 5.214231040773578343e+02
1.988537478245213874e+00 5.213693483655214322e+02
1.988637500250054702e+00 5.213154881386807347e+02
1.988737522254895751e+00 5.212615243026158396e+02
1.988837544259737022e+00 5.212074577667661970e+02
1.988937566264578072e+00 5.211532894442035513e+02
1.989037588269419121e+00 5.210990202516065892e+02
1.989137610274260393e+00 5.210446511092375204e+02
1.989237632279101442e+00 5.209901829409149059e+02
1.989337654283942269e+00 5.209356166739896707e+02
1.989437676288783319e+00 5.208809532393162272e+02
1.989537698293624368e+00 5.208261935712297372e+02
1.989637720298465418e+00 5.207713386075203061e+02
1.989737742303306689e+00 5.207163892894022865e+02
1.989837764308147738e+00 5.206613465614942697e+02
1.989937786312988788e+00 5.206062113717883904e+02
1.990037808317829615e+00 5.205509846716254287e+02
1.990137830322670887e+00 5.204956674156660483e+02
1.990237852327511936e+00 5.204402605618693087e+02
1.990337874332352985e+00 5.203847650714598103e+02
1.990437896337194035e+00 5.203291819089035926e+02
1.990537918342035084e+00 5.202735120418810766e+02
1.990637940346876356e+00 5.202177564412585298e+02
1.990737962351717183e+00 5.201619160810629410e+02
1.990837984356558232e+00 5.201059919384524619e+02
1.990938006361399282e+00 5.200499849936892360e+02
1.991038028366240553e+00 5.199938962301130232e+02
1.991138050371081603e+00 5.199377266341116410e+02
1.991238072375922652e+00 5.198814771950940212e+02
1.991338094380763701e+00 5.198251489054622425e+02
1.991438116385604529e+00 5.197687427605832227e+02
1.991538138390445578e+00 5.197122597587598420e+02
1.991638160395286850e+00 5.196557009012038861e+02
1.991738182400127899e+00 5.195990671920070554e+02
1.991838204404968948e+00 5.195423596381106108e+02
1.991938226409810220e+00 5.194855792492799083e+02
1.992038248414651269e+00 5.194287270380746122e+02
1.992138270419492097e+00 5.193718040198173185e+02
1.992238292424333146e+00 5.193148112125677471e+02
1.992338314429174195e+00 5.192577496370922745e+02
1.992438336434015245e+00 5.192006203168340335e+02
1.992538358438856516e+00 5.191434242778866519e+02
1.992638380443697566e+00 5.190861625489603739e+02
1.992738402448538615e+00 5.190288361613563666e+02
1.992838424453379442e+00 5.189714461489354562e+02
1.992938446458220714e+00 5.189139935480877739e+02
1.993038468463061763e+00 5.188564793977063800e+02
1.993138490467902812e+00 5.187989047391514532e+02
1.993238512472743862e+00 5.187412706162273253e+02
1.993338534477584911e+00 5.186835780751471248e+02
1.993438556482426183e+00 5.186258281645045827e+02
1.993538578487267010e+00 5.185680219352449285e+02
1.993638600492108059e+00 5.185101604406320348e+02
1.993738622496949109e+00 5.184522447362205639e+02
1.993838644501790380e+00 5.183942758798228851e+02
1.993938666506631430e+00 5.183362549314816761e+02
1.994038688511472479e+00 5.182781829534362714e+02
1.994138710516313528e+00 5.182200610100943550e+02
1.994238732521154356e+00 5.181618901679994451e+02
1.994338754525995405e+00 5.181036714958001994e+02
1.994438776530836677e+00 5.180454060642198328e+02
1.994538798535677726e+00 5.179870949460255360e+02
1.994638820540518775e+00 5.179287392159975525e+02
1.994738842545360047e+00 5.178703399508960956e+02
1.994838864550201096e+00 5.178118982294313355e+02
1.994938886555041924e+00 5.177534151322323623e+02
1.995038908559882973e+00 5.176948917418155816e+02
1.995138930564724022e+00 5.176363291425524267e+02
1.995238952569565072e+00 5.175777284206386639e+02
1.995338974574406343e+00 5.175190906640621051e+02
1.995438996579247393e+00 5.174604169625721397e+02
1.995539018584088442e+00 5.174017084076460833e+02
1.995639040588929269e+00 5.173429660924587097e+02
1.995739062593770541e+00 5.172841911118495091e+02
1.995839084598611590e+00 5.172253845622911967e+02
1.995939106603452640e+00 5.171665475418583355e+02
1.996039128608293689e+00 5.171076811501936845e+02
1.996139150613134738e+00 5.170487864884771625e+02
1.996239172617975566e+00 5.169898646593928788e+02
1.996339194622816837e+00 5.169309167670974148e+02
1.996439216627657887e+00 5.168719439171878776e+02
1.996539238632498936e+00 5.168129472166679079e+02
1.996639260637340207e+00 5.167539277739175532e+02
1.996739282642181257e+00 5.166948866986574558e+02
1.996839304647022306e+00 5.166358251019205454e+02
1.996939326651863134e+00 5.165767440960153181e+02
1.997039348656704183e+00 5.165176447944957090e+02
1.997139370661545232e+00 5.164585283121280099e+02
1.997239392666386504e+00 5.163993957648574451e+02
1.997339414671227553e+00 5.163402482697747473e+02
1.997439436676068603e+00 5.162810869450852351e+02
1.997539458680909874e+00 5.162219129100749342e+02
1.997639480685750701e+00 5.161627272850769259e+02
1.997739502690591751e+00 5.161035311914382646e+02
1.997839524695432800e+00 5.160443257514890547e+02
1.997939546700273850e+00 5.159851120885073215e+02
1.998039568705114899e+00 5.159258913266859281e+02
1.998139590709956170e+00 5.158666645911008573e+02
1.998239612714797220e+00 5.158074330076763090e+02
1.998339634719638047e+00 5.157481977031524139e+02
1.998439656724479097e+00 5.156889598050522636e+02
1.998539678729320368e+00 5.156297204416472368e+02
1.998639700734161417e+00 5.155704807419251665e+02
1.998739722739002467e+00 5.155112418355563477e+02
1.998839744743843516e+00 5.154520048528597727e+02
1.998939766748684566e+00 5.153927709247695930e+02
1.999039788753525393e+00 5.153335411828029464e+02
1.999139810758366664e+00 5.152743167590250550e+02
1.999239832763207714e+00 5.152150987860169380e+02
1.999339854768048763e+00 5.151558883968397140e+02
1.999439876772890035e+00 5.150966867250029964e+02
1.999539898777731084e+00 5.150374949044322648e+02
1.999639920782572133e+00 5.149783140694310077e+02
1.999739942787412961e+00 5.149191453546521871e+02
1.999839964792254010e+00 5.148599898950610623e+02
1.999939986797095060e+00 5.148008488259022215e+02
2.000040008801936331e+00 5.282737907273341307e+02
2.000140030806777602e+00 5.283417397942149591e+02
2.000240052811618430e+00 5.284092416852143970e+02
2.000340074816459701e+00 5.284762932182686654e+02
2.000440096821300529e+00 5.285428912139768727e+02
2.000540118826141356e+00 5.286090324956926452e+02
2.000640140830982627e+00 5.286747138896200795e+02
2.000740162835823899e+00 5.287399322249050329e+02
2.000840184840664726e+00 5.288046843337301652e+02
2.000940206845505998e+00 5.288689670514099817e+02
2.001040228850347269e+00 5.289327772164808721e+02
2.001140250855187652e+00 5.289961116707992232e+02
2.001240272860028924e+00 5.290589672596329365e+02
2.001340294864870195e+00 5.291213408317548783e+02
2.001440316869711022e+00 5.291832292395389459e+02
2.001540338874552294e+00 5.292446293390521532e+02
2.001640360879393565e+00 5.293055379901497872e+02
2.001740382884234393e+00 5.293659520565682897e+02
2.001840404889075220e+00 5.294258684060199585e+02
2.001940426893916491e+00 5.294852839102879898e+02
2.002040448898757319e+00 5.295441954453177686e+02
2.002140470903598590e+00 5.296025998913139574e+02
2.002240492908439862e+00 5.296604941328332643e+02
2.002340514913280689e+00 5.297178750588769844e+02
2.002440536918121960e+00 5.297747395629885432e+02
2.002540558922962788e+00 5.298310845433437635e+02
2.002640580927804059e+00 5.298869069028472722e+02
2.002740602932644887e+00 5.299422035492261784e+02
2.002840624937486158e+00 5.299969713951235235e+02
2.002940646942326985e+00 5.300512073581924142e+02
2.003040668947168257e+00 5.301049083611908372e+02
2.003140690952009528e+00 5.301580713320734048e+02
2.003240712956850356e+00 5.302106932040882157e+02
2.003340734961691183e+00 5.302627709158683729e+02
2.003440756966532454e+00 5.303143014115269125e+02
2.003540778971373726e+00 5.303652816407510500e+02
2.003640800976214553e+00 5.304157085588944938e+02
2.003740822981055825e+00 5.304655791270727150e+02
2.003840844985896652e+00 5.305148903122548063e+02
2.003940866990737923e+00 5.305636390873603432e+02
2.004040888995578751e+00 5.306118224313480596e+02
2.004140911000420022e+00 5.306594373293152103e+02
2.004240933005260850e+00 5.307064807725855644e+02
2.004340955010102121e+00 5.307529497588066079e+02
2.004440977014943392e+00 5.307988412920410610e+02
2.004540999019784220e+00 5.308441523828612389e+02
2.004641021024625047e+00 5.308888800484410240e+02
2.004741043029466319e+00 5.309330213126495437e+02
2.004841065034307590e+00 5.309765732061456447e+02
2.004941087039148417e+00 5.310195327664682736e+02
2.005041109043989689e+00 5.310618970381304962e+02
2.005141131048830516e+00 5.311036630727143120e+02
2.005241153053671788e+00 5.311448279289589891e+02
2.005341175058512615e+00 5.311853886728586076e+02
2.005441197063353886e+00 5.312253423777507351e+02
2.005541219068194714e+00 5.312646861244112415e+02
2.005641241073035985e+00 5.313034170011453625e+02
2.005741263077877257e+00 5.313415321038801267e+02
2.005841285082718084e+00 5.313790285362573513e+02
2.005941307087559355e+00 5.314159034097240237e+02
2.006041329092400183e+00 5.314521538436264336e+02
2.006141351097241010e+00 5.314877769653000996e+02
2.006241373102082282e+00 5.315227699101612870e+02
2.006341395106923553e+00 5.315571298218003449e+02
2.006441417111764380e+00 5.315908538520724278e+02
2.006541439116605652e+00 5.316239391611867404e+02
2.006641461121446923e+00 5.316563829178012384e+02
2.006741483126287307e+00 5.316881822991105082e+02
2.006841505131128578e+00 5.317193344909386497e+02
2.006941527135969849e+00 5.317498366878288607e+02
2.007041549140810677e+00 5.317796860931348419e+02
2.007141571145651948e+00 5.318088799191109501e+02
2.007241593150493220e+00 5.318374153870024656e+02
2.007341615155334047e+00 5.318652897271343818e+02
2.007441637160174874e+00 5.318925001790054239e+02
2.007541659165016146e+00 5.319190439913729733e+02
2.007641681169856973e+00 5.319449184223457223e+02
2.007741703174698245e+00 5.319701207394725770e+02
2.007841725179539516e+00 5.319946482198312196e+02
2.007941747184380343e+00 5.320184981501190578e+02
2.008041769189221615e+00 5.320416678267398538e+02
2.008141791194062442e+00 5.320641545558942198e+02
2.008241813198903714e+00 5.320859556536678383e+02
2.008341835203744541e+00 5.321070684461201381e+02
2.008441857208585812e+00 5.321274902693714921e+02
2.008541879213426640e+00 5.321472184696934846e+02
2.008641901218267911e+00 5.321662504035934944e+02
2.008741923223109183e+00 5.321845834379060989e+02
2.008841945227950010e+00 5.322022149498770887e+02
2.008941967232790837e+00 5.322191423272539623e+02
2.009041989237632109e+00 5.322353629683707368e+02
2.009142011242473380e+00 5.322508742822355998e+02
2.009242033247314208e+00 5.322656736886175395e+02
2.009342055252155479e+00 5.322797586181326324e+02
2.009442077256996306e+00 5.322931265123313551e+02
2.009542099261837578e+00 5.323057748237822580e+02
2.009642121266678405e+00 5.323177010161605267e+02
2.009742143271519677e+00 5.323289025643312016e+02
2.009842165276360504e+00 5.323393769544367160e+02
2.009942187281201775e+00 5.323491216839805702e+02
2.010042209286043047e+00 5.323581342619108909e+02
2.010142231290883874e+00 5.323664122087089936e+02
2.010242253295724701e+00 5.323739530564703273e+02
2.010342275300565973e+00 5.323807543489897398e+02
2.010442297305407244e+00 5.323868136418459471e+02
2.010542319310248072e+00 5.323921285024849794e+02
2.010642341315089343e+00 5.323966965103018083e+02
2.010742363319930170e+00 5.324005152567270898e+02
2.010842385324771442e+00 5.324035823453065177e+02
2.010942407329612269e+00 5.324058953917855206e+02
2.011042429334453541e+00 5.324074520241914570e+02
2.011142451339294368e+00 5.324082498829153565e+02
2.011242473344135639e+00 5.324082866207927509e+02
2.011342495348976911e+00 5.324075599031876891e+02
2.011442517353817738e+00 5.324060674080722038e+02
2.011542539358659010e+00 5.324038068261079388e+02
2.011642561363499837e+00 5.324007758607262986e+02
2.011742583368340664e+00 5.323969722282095063e+02
2.011842605373181936e+00 5.323923936577714358e+02
2.011942627378023207e+00 5.323870378916363961e+02
2.012042649382864035e+00 5.323809026851185990e+02
2.012142671387705306e+00 5.323739858067027626e+02
2.012242693392546578e+00 5.323662850381218732e+02
2.012342715397386961e+00 5.323577981744364251e+02
2.012442737402228232e+00 5.323485230241134332e+02
2.012542759407069504e+00 5.323384574091028298e+02
2.012642781411910331e+00 5.323275991649169328e+02
2.012742803416751602e+00 5.323159461407079789e+02
2.012842825421592874e+00 5.323034961993438401e+02
2.012942847426433701e+00 5.322902472174862396e+02
2.013042869431274529e+00 5.322761970856663538e+02
2.013142891436115800e+00 5.322613437083616645e+02
2.013242913440956627e+00 5.322456850040720155e+02
2.013342935445797899e+00 5.322292189053945322e+02
2.013442957450639170e+00 5.322119433591000188e+02
2.013542979455479998e+00 5.321938563262058324e+02
2.013643001460320825e+00 5.321749557820523933e+02
2.013743023465162096e+00 5.321552397163766273e+02
2.013843045470003368e+00 5.321347061333869988e+02
2.013943067474844195e+00 5.321133530518338830e+02
2.014043089479685467e+00 5.320911785050875551e+02
2.014143111484526294e+00 5.320681805412061749e+02
2.014243133489367565e+00 5.320443572230125255e+02
2.014343155494208393e+00 5.320197066281635898e+02
2.014443177499049664e+00 5.319942268492224002e+02
2.014543199503890492e+00 5.319679159937314807e+02
2.014643221508731763e+00 5.319407721842820820e+02
2.014743243513573034e+00 5.319127935585847808e+02
2.014843265518413862e+00 5.318839782695416716e+02
2.014943287523255133e+00 5.318543244853149190e+02
2.015043309528095961e+00 5.318238303893972443e+02
2.015143331532937232e+00 5.317924941806787729e+02
2.015243353537778059e+00 5.317603140735204761e+02
2.015343375542619331e+00 5.317272882978184043e+02
2.015443397547460158e+00 5.316934150990733770e+02
2.015543419552301430e+00 5.316586927384602177e+02
2.015643441557142701e+00 5.316231194928922150e+02
2.015743463561983528e+00 5.315866936550905848e+02
2.015843485566824356e+00 5.315494135336490444e+02
2.015943507571665627e+00 5.315112774531030482e+02
2.016043529576506899e+00 5.314722837539909506e+02
2.016143551581347726e+00 5.314324307929243787e+02
2.016243573586188997e+00 5.313917169426490545e+02
2.016343595591029825e+00 5.313501405921119840e+02
2.016443617595870652e+00 5.313077001465259173e+02
2.016543639600711924e+00 5.312643940274305123e+02
2.016643661605553195e+00 5.312202206727585008e+02
2.016743683610394022e+00 5.311751785368965102e+02
2.016843705615235294e+00 5.311292660907496384e+02
2.016943727620076565e+00 5.310824818218017072e+02
2.017043749624917393e+00 5.310348242341785863e+02
2.017143771629758220e+00 5.309862918487079924e+02
2.017243793634599491e+00 5.309368832029819032e+02
2.017343815639440319e+00 5.308865968514157885e+02
2.017443837644281590e+00 5.308354313653090912e+02
2.017543859649122862e+00 5.307833853329050271e+02
2.017643881653963689e+00 5.307304573594493604e+02
2.017743903658804960e+00 5.306766460672503172e+02
2.017843925663645788e+00 5.306219500957337232e+02
2.017943947668486615e+00 5.305663681015054181e+02
2.018043969673327886e+00 5.305098987584051429e+02
2.018143991678169158e+00 5.304525407575644067e+02
2.018244013683009985e+00 5.303942928074645806e+02
2.018344035687851257e+00 5.303351536339908989e+02
2.018444057692692528e+00 5.302751219804885068e+02
2.018544079697533355e+00 5.302141966078183941e+02
2.018644101702374183e+00 5.301523762944126474e+02
2.018744123707215454e+00 5.300896598363265184e+02
2.018844145712056282e+00 5.300260460472944715e+02
2.018944167716897553e+00 5.299615337587830481e+02
2.019044189721738825e+00 5.298961218200427084e+02
2.019144211726579652e+00 5.298298090981611494e+02
2.019244233731420479e+00 5.297625944781151475e+02
2.019344255736261751e+00 5.296944768628219435e+02
2.019444277741103022e+00 5.296254551731913125e+02
2.019544299745943849e+00 5.295555283481736524e+02
2.019644321750785121e+00 5.294846953448136446e+02
2.019744343755625948e+00 5.294129551382959562e+02
2.019844365760467220e+00 5.293403067219976492e+02
2.019944387765308047e+00 5.292667491075344515e+02
2.020044409770149318e+00 5.291922813248111197e+02
2.020144431774990146e+00 5.291169024220672554e+02
2.020244453779831417e+00 5.290406114659265313e+02
2.020344475784672689e+00 5.289634075414405743e+02
2.020444497789513516e+00 5.288852897521383056e+02
2.020544519794354787e+00 5.288062572200695968e+02
2.020644541799195615e+00 5.287263090858510850e+02
2.020744563804036886e+00 5.286454445087115346e+02
2.020844585808877714e+00 5.285636626665358335e+02
2.020944607813718985e+00 5.284809627559084220e+02
2.021044629818559812e+00 5.283973439921560384e+02
2.021144651823401084e+00 5.283128056093927398e+02
2.021244673828242355e+00 5.282273468605598055e+02
2.021344695833083183e+00 5.281409670174682560e+02
2.021444717837924010e+00 5.280536653708412587e+02
2.021544739842765281e+00 5.279654412303533491e+02
2.021644761847606553e+00 5.278762939246713586e+02
2.021744783852447380e+00 5.277862228014940911e+02
2.021844805857288652e+00 5.276952272275915448e+02
2.021944827862129479e+00 5.276033065888445890e+02
2.022044849866970306e+00 5.275104602902815714e+02
2.022144871871811578e+00 5.274166877561162892e+02
2.022244893876652849e+00 5.273219884297872113e+02
2.022344915881493677e+00 5.272263617739904475e+02
2.022444937886334948e+00 5.271298072707203346e+02
2.022544959891176219e+00 5.270323244213016096e+02
2.022644981896017047e+00 5.269339127464252215e+02
2.022745003900857874e+00 5.268345717861843696e+02
2.022845025905699146e+00 5.267343011001074728e+02
2.022945047910539973e+00 5.266331002671909118e+02
2.023045069915381244e+00 5.265309688859334756e+02
2.023145091920222516e+00 5.264279065743685351e+02
2.023245113925063343e+00 5.263239129700954209e+02
2.023345135929904615e+00 5.262189877303108005e+02
2.023445157934745442e+00 5.261131305318403975e+02
2.023545179939586269e+00 5.260063410711684355e+02
2.023645201944427541e+00 5.258986190644678800e+02
2.023745223949268812e+00 5.257899642476290865e+02
2.023845245954109640e+00 5.256803763762900417e+02
2.023945267958950911e+00 5.255698552258627387e+02
2.024045289963792182e+00 5.254584005915620537e+02
2.024145311968633010e+00 5.253460122884308703e+02
2.024245333973473837e+00 5.252326901513706616e+02
2.024345355978315109e+00 5.251184340351632045e+02
2.024445377983155936e+00 5.250032438144980915e+02
2.024545399987997207e+00 5.248871193839972875e+02
2.024645421992838479e+00 5.247700606582399132e+02
2.024745443997679306e+00 5.246520675717855511e+02
2.024845466002520133e+00 5.245331400791969827e+02
2.024945488007361405e+00 5.244132781550645177e+02
2.025045510012202676e+00 5.242924817940261164e+02
2.025145532017043504e+00 5.241707510107908092e+02
2.025245554021884775e+00 5.240480858401585920e+02
2.025345576026725603e+00 5.239244863370414578e+02
2.025445598031566874e+00 5.237999525764827240e+02
2.025545620036407701e+00 5.236744846536773821e+02
2.025645642041248973e+00 5.235480826839898327e+02
2.025745664046089800e+00 5.234207468029726442e+02
2.025845686050931072e+00 5.232924771663847423e+02
2.025945708055772343e+00 5.231632739502072127e+02
2.026045730060613170e+00 5.230331373506617183e+02
2.026145752065454442e+00 5.229020675842250512e+02
2.026245774070295269e+00 5.227700648876439118e+02
2.026345796075136541e+00 5.226371295179523031e+02
2.026445818079977368e+00 5.225032617524831267e+02
2.026545840084818639e+00 5.223684618888842124e+02
2.026645862089659467e+00 5.222327302451302558e+02
2.026745884094500738e+00 5.220960671595350959e+02
2.026845906099342010e+00 5.219584729907644487e+02
2.026945928104182837e+00 5.218199481178472752e+02
2.027045950109023664e+00 5.216804929401855588e+02
2.027145972113864936e+00 5.215401078775681754e+02
2.027245994118706207e+00 5.213987933701752127e+02
2.027346016123547034e+00 5.212565498785917271e+02
2.027446038128388306e+00 5.211133778838135413e+02
2.027546060133229133e+00 5.209692778872577037e+02
2.027646082138069961e+00 5.208242504107679451e+02
2.027746104142911232e+00 5.206782959966211592e+02
2.027846126147752503e+00 5.205314152075364973e+02
2.027946148152593331e+00 5.203836086266783241e+02
2.028046170157434602e+00 5.202348768576628117e+02
2.028146192162275874e+00 5.200852205245619189e+02
2.028246214167116701e+00 5.199346402719072557e+02
2.028346236171957528e+00 5.197831367646948593e+02
2.028446258176798800e+00 5.196307106883853066e+02
2.028546280181639627e+00 5.194773627489089449e+02
2.028646302186480899e+00 5.193230936726665732e+02
2.028746324191322170e+00 5.191679042065292151e+02
2.028846346196162997e+00 5.190117951178397107e+02
2.028946368201004269e+00 5.188547671944136255e+02
2.029046390205845096e+00 5.186968212445361814e+02
2.029146412210685924e+00 5.185379580969639619e+02
2.029246434215527195e+00 5.183781786009204779e+02
2.029346456220368466e+00 5.182174836260955999e+02
2.029446478225209294e+00 5.180558740626416920e+02
2.029546500230050565e+00 5.178933508211700882e+02
2.029646522234891837e+00 5.177299148327471130e+02
2.029746544239732664e+00 5.175655670488898750e+02
2.029846566244573491e+00 5.174003084415603553e+02
2.029946588249414763e+00 5.172341400031599505e+02
2.030046610254255590e+00 5.170670627465215148e+02
2.030146632259096862e+00 5.168990777049046983e+02
2.030246654263938133e+00 5.167301859319871937e+02
2.030346676268778960e+00 5.165603885018563233e+02
2.030446698273619788e+00 5.163896865089997164e+02
2.030546720278461059e+00 5.162180810682982610e+02
2.030646742283302331e+00 5.160455733150131437e+02
2.030746764288143158e+00 5.158721644047773225e+02
2.030846786292984429e+00 5.156978555135835904e+02
2.030946808297825257e+00 5.155226478377733201e+02
2.031046830302666528e+00 5.153465425940231626e+02
2.031146852307507356e+00 5.151695410193342468e+02
2.031246874312348627e+00 5.149916443710161502e+02
2.031346896317189454e+00 5.148128539266754160e+02
2.031446918322030726e+00 5.146331709841978181e+02
2.031546940326871997e+00 5.144525968617372200e+02
2.031646962331712825e+00 5.142711328976957930e+02
2.031746984336553652e+00 5.140887804507101464e+02
2.031847006341394923e+00 5.139055408996341612e+02
2.031947028346236195e+00 5.137214156435193217e+02
2.032047050351077022e+00 5.135364061015999368e+02
2.032147072355918294e+00 5.133505137132721075e+02
2.032247094360759121e+00 5.131637399380747411e+02
2.032347116365600392e+00 5.129760862556705661e+02
2.032447138370441220e+00 5.127875541658248721e+02
2.032547160375282491e+00 5.125981451883844784e+02
2.032647182380123319e+00 5.124078608632577243e+02
2.032747204384964590e+00 5.122167027503896861e+02
2.032847226389805861e+00 5.120246724297410310e+02
2.032947248394646689e+00 5.118317715012649955e+02
2.033047270399487960e+00 5.116380015848825451e+02
2.033147292404328788e+00 5.114433643204579880e+02
2.033247314409169615e+00 5.112478613677749877e+02
2.033347336414010886e+00 5.110514944065091640e+02
2.033447358418852158e+00 5.108542651362039351e+02
2.033547380423692985e+00 5.106561752762412425e+02
2.033647402428534257e+00 5.104572265658170522e+02
2.033747424433375528e+00 5.102574207639098631e+02
2.033847446438215911e+00 5.100567596492571738e+02
2.033947468443057183e+00 5.098552450203210356e+02
2.034047490447898454e+00 5.096528786952623022e+02
2.034147512452739281e+00 5.094496625119081159e+02
2.034247534457580553e+00 5.092455983277218365e+02
2.034347556462421824e+00 5.090406880197727446e+02
2.034447578467262652e+00 5.088349334847027876e+02
2.034547600472103479e+00 5.086283366386941225e+02
2.034647622476944751e+00 5.084208994174353506e+02
2.034747644481785578e+00 5.082126237760911636e+02
2.034847666486626849e+00 5.080035116892643146e+02
2.034947688491468121e+00 5.077935651509624222e+02
2.035047710496308948e+00 5.075827861745636369e+02
2.035147732501150220e+00 5.073711767927777601e+02
2.035247754505991047e+00 5.071587390576133885e+02
2.035347776510832318e+00 5.069454750403380103e+02
2.035447798515673146e+00 5.067313868314430465e+02
2.035547820520514417e+00 5.065164765406023548e+02
2.035647842525355244e+00 5.063007462966370440e+02
2.035747864530196516e+00 5.060841982474731822e+02
2.035847886535037787e+00 5.058668345601046212e+02
2.035947908539878615e+00 5.056486574205505349e+02
2.036047930544719442e+00 5.054296690338151166e+02
2.036147952549560713e+00 5.052098716238467659e+02
2.036247974554401985e+00 5.049892674334951721e+02
2.036347996559242812e+00 5.047678587244687378e+02
2.036448018564084084e+00 5.045456477772925723e+02
2.036548040568924911e+00 5.043226368912634143e+02
2.036648062573766182e+00 5.040988283844060902e+02
2.036748084578607010e+00 5.038742245934277548e+02
2.036848106583448281e+00 5.036488278736744633e+02
2.036948128588289109e+00 5.034226405990838202e+02
2.037048150593130380e+00 5.031956651621372885e+02
2.037148172597971651e+00 5.029679039738177266e+02
2.037248194602812479e+00 5.027393594635563545e+02
2.037348216607653306e+00 5.025100340791878466e+02
2.037448238612494578e+00 5.022799302869017311e+02
2.037548260617335849e+00 5.020490505711919695e+02
2.037648282622176676e+00 5.018173974348079582e+02
2.037748304627017948e+00 5.015849733987046761e+02
2.037848326631858775e+00 5.013517810019909575e+02
2.037948348636700047e+00 5.011178228018794130e+02
2.038048370641540874e+00 5.008831013736332238e+02
2.038148392646382145e+00 5.006476193105152106e+02
2.038248414651222973e+00 5.004113792237335474e+02
2.038348436656064244e+00 5.001743837423888976e+02
2.038448458660905516e+00 4.999366355134225159e+02
2.038548480665746343e+00 4.996981372015575289e+02
2.038648502670587614e+00 4.994588914892476623e+02
2.038748524675428442e+00 4.992189010766204547e+02
2.038848546680269269e+00 4.989781686814200157e+02
2.038948568685110541e+00 4.987366970389537641e+02
2.039048590689951812e+00 4.984944889020309802e+02
2.039148612694792639e+00 4.982515470409098839e+02
2.039248634699633911e+00 4.980078742432342551e+02
2.039348656704475182e+00 4.977634733139803416e+02
2.039448678709315566e+00 4.975183470753942174e+02
2.039548700714156837e+00 4.972724983669330641e+02
2.039648722718998108e+00 4.970259300452046887e+02
2.039748744723838936e+00 4.967786449839082934e+02
2.039848766728680207e+00 4.965306460737707539e+02
2.039948788733521479e+00 4.962819362224885822e+02
2.040048810738362306e+00 4.960325183546620451e+02
