1.300086018924162978e+00 5.122701478944727569e+02
1.300186040929004250e+00 5.122542311130721373e+02
1.300286062933845299e+00 5.122384102560483825e+02
1.300386084938686349e+00 5.122226858520529049e+02
1.300486106943527620e+00 5.122070584272587439e+02
1.300586128948368669e+00 5.121915285053440812e+02
1.300686150953209719e+00 5.121760966074662065e+02
1.300786172958050546e+00 5.121607632522479889e+02
1.300886194962891595e+00 5.121455289557528658e+02
1.300986216967732645e+00 5.121303942314691540e+02
1.301086238972573916e+00 5.121153595902885627e+02
1.301186260977414966e+00 5.121004255404861851e+02
1.301286282982256015e+00 5.120855925877028767e+02
1.301386304987097287e+00 5.120708612349219493e+02
1.301486326991938114e+00 5.120562319824568931e+02
1.301586348996779163e+00 5.120417053279243191e+02
1.301686371001620213e+00 5.120272817662299758e+02
1.301786393006461262e+00 5.120129617895480578e+02
1.301886415011302311e+00 5.119987458873029595e+02
1.301986437016143583e+00 5.119846345461479586e+02
1.302086459020984632e+00 5.119706282499508347e+02
1.302186481025825460e+00 5.119567274797707341e+02
1.302286503030666509e+00 5.119429327138423105e+02
1.302386525035507781e+00 5.119292444275569096e+02
1.302486547040348830e+00 5.119156630934421628e+02
1.302586569045189879e+00 5.119021891811469800e+02
1.302686591050030929e+00 5.118888231574201768e+02
1.302786613054871978e+00 5.118755654860947288e+02
1.302886635059712805e+00 5.118624166280673080e+02
1.302986657064554077e+00 5.118493770412827644e+02
1.303086679069395126e+00 5.118364471807163909e+02
1.303186701074236176e+00 5.118236274983524936e+02
1.303286723079077447e+00 5.118109184431705785e+02
1.303386745083918496e+00 5.117983204611265364e+02
1.303486767088759546e+00 5.117858339951349080e+02
1.303586789093600373e+00 5.117734594850523422e+02
1.303686811098441423e+00 5.117611973676589514e+02
1.303786833103282472e+00 5.117490480766423389e+02
1.303886855108123743e+00 5.117370120425804316e+02
1.303986877112964793e+00 5.117250896929235751e+02
1.304086899117805842e+00 5.117132814519788440e+02
1.304186921122647114e+00 5.117015877408935012e+02
1.304286943127487941e+00 5.116900089776365803e+02
1.304386965132328990e+00 5.116785455769835380e+02
1.304486987137170040e+00 5.116671979505011905e+02
1.304587009142011089e+00 5.116559665065287277e+02
1.304687031146852139e+00 5.116448516501631048e+02
1.304787053151693410e+00 5.116338537832427846e+02
1.304887075156534459e+00 5.116229733043312535e+02
1.304987097161375287e+00 5.116122106087018437e+02
1.305087119166216336e+00 5.116015660883213059e+02
1.305187141171057608e+00 5.115910401318349159e+02
1.305287163175898657e+00 5.115806331245501042e+02
1.305387185180739706e+00 5.115703454484206532e+02
1.305487207185580756e+00 5.115601774820340779e+02
1.305587229190421805e+00 5.115501296005931522e+02
1.305687251195262633e+00 5.115402021759020954e+02
1.305787273200103904e+00 5.115303955763513954e+02
1.305887295204944953e+00 5.115207101669042231e+02
1.305987317209786003e+00 5.115111463090800612e+02
1.306087339214627274e+00 5.115017043609416874e+02
1.306187361219468324e+00 5.114923846770769842e+02
1.306287383224309373e+00 5.114831876085905265e+02
1.306387405229150200e+00 5.114741135030842543e+02
1.306487427233991250e+00 5.114651627046456497e+02
1.306587449238832299e+00 5.114563355538329006e+02
1.306687471243673571e+00 5.114476323876614288e+02
1.306787493248514620e+00 5.114390535395907591e+02
1.306887515253355669e+00 5.114305993395086034e+02
1.306987537258196941e+00 5.114222701137195486e+02
1.307087559263037768e+00 5.114140661849323237e+02
1.307187581267878818e+00 5.114059878722428039e+02
1.307287603272719867e+00 5.113980354911242330e+02
1.307387625277560916e+00 5.113902093534135815e+02
1.307487647282401966e+00 5.113825097672977336e+02
1.307587669287243237e+00 5.113749370373010947e+02
1.307687691292084287e+00 5.113674914642732574e+02
1.307787713296925114e+00 5.113601733453764382e+02
1.307887735301766163e+00 5.113529829740721766e+02
1.307987757306607435e+00 5.113459206401103643e+02
1.308087779311448484e+00 5.113389866295174215e+02
1.308187801316289534e+00 5.113321812245818592e+02
1.308287823321130583e+00 5.113255047038445582e+02
1.308387845325971632e+00 5.113189573420868896e+02
1.308487867330812460e+00 5.113125394103179815e+02
1.308587889335653731e+00 5.113062511757651691e+02
1.308687911340494781e+00 5.113000929018600687e+02
1.308787933345335830e+00 5.112940648482291408e+02
1.308887955350177101e+00 5.112881672706827771e+02
1.308987977355018151e+00 5.112824004212035334e+02
1.309087999359859200e+00 5.112767645479357270e+02
1.309188021364700028e+00 5.112712598951737846e+02
1.309288043369541077e+00 5.112658867033543970e+02
1.309388065374382126e+00 5.112606452090418543e+02
1.309488087379223398e+00 5.112555356449228157e+02
1.309588109384064447e+00 5.112505582397922126e+02
1.309688131388905497e+00 5.112457132185453474e+02
1.309788153393746768e+00 5.112410008021662406e+02
1.309888175398587595e+00 5.112364212077202410e+02
1.309988197403428645e+00 5.112319746483435097e+02
1.310088219408269694e+00 5.112276613332333568e+02
1.310188241413110743e+00 5.112234814676379528e+02
1.310288263417951793e+00 5.112194352528499053e+02
1.310388285422793064e+00 5.112155228861940941e+02
1.310488307427634114e+00 5.112117445610213053e+02
1.310588329432474941e+00 5.112081004666994204e+02
1.310688351437315990e+00 5.112045907886016494e+02
1.310788373442157262e+00 5.112012157081031773e+02
1.310888395446998311e+00 5.111979754025683178e+02
1.310988417451839361e+00 5.111948700453462493e+02
1.311088439456680410e+00 5.111918998057585100e+02
1.311188461461521459e+00 5.111890648490955869e+02
1.311288483466362287e+00 5.111863653366070821e+02
1.311388505471203558e+00 5.111838014254935842e+02
1.311488527476044608e+00 5.111813732689019503e+02
1.311588549480885657e+00 5.111790810159141643e+02
1.311688571485726929e+00 5.111769248115425626e+02
1.311788593490567978e+00 5.111749047967247748e+02
1.311888615495409027e+00 5.111730211083122981e+02
1.311988637500249855e+00 5.111712738790673143e+02
1.312088659505090904e+00 5.111696632376556408e+02
1.312188681509931953e+00 5.111681893086382047e+02
1.312288703514773225e+00 5.111668522124683136e+02
1.312388725519614274e+00 5.111656520654829592e+02
1.312488747524455324e+00 5.111645889798975304e+02
1.312588769529296595e+00 5.111636630638006977e+02
1.312688791534137422e+00 5.111628744211483308e+02
1.312788813538978472e+00 5.111622231517579849e+02
1.312888835543819521e+00 5.111617093513027044e+02
1.312988857548660571e+00 5.111613331113082381e+02
1.313088879553501620e+00 5.111610945191466726e+02
1.313188901558342891e+00 5.111609936580302360e+02
1.313288923563183941e+00 5.111610306070081151e+02
1.313388945568024768e+00 5.111612054409629877e+02
1.313488967572865818e+00 5.111615182306033489e+02
1.313588989577707089e+00 5.111619690424632836e+02
1.313689011582548138e+00 5.111625579388950200e+02
1.313789033587389188e+00 5.111632849780659171e+02
1.313889055592230237e+00 5.111641502139565318e+02
1.313989077597071287e+00 5.111651536963547642e+02
1.314089099601912114e+00 5.111662954708526740e+02
1.314189121606753385e+00 5.111675755788445485e+02
1.314289143611594435e+00 5.111689940575217861e+02
1.314389165616435484e+00 5.111705509398726122e+02
1.314489187621276756e+00 5.111722462546754286e+02
1.314589209626117805e+00 5.111740800265000644e+02
1.314689231630958854e+00 5.111760522757022045e+02
1.314789253635799682e+00 5.111781630184236747e+02
1.314889275640640731e+00 5.111804122665871546e+02
1.314989297645481781e+00 5.111828000278961781e+02
1.315089319650323052e+00 5.111853263058334278e+02
1.315189341655164101e+00 5.111879910996587455e+02
1.315289363660005151e+00 5.111907944044049259e+02
1.315389385664846422e+00 5.111937362108811840e+02
1.315489407669687250e+00 5.111968165056669591e+02
1.315589429674528299e+00 5.112000352711147571e+02
1.315689451679369348e+00 5.112033924853458871e+02
1.315789473684210398e+00 5.112068881222528489e+02
1.315889495689051447e+00 5.112105221514954678e+02
1.315989517693892719e+00 5.112142945385028270e+02
1.316089539698733768e+00 5.112182052444724718e+02
1.316189561703574595e+00 5.112222542263683636e+02
1.316289583708415645e+00 5.112264414369242900e+02
1.316389605713256916e+00 5.112307668246403978e+02
1.316489627718097966e+00 5.112352303337861485e+02
1.316589649722939015e+00 5.112398319043993524e+02
1.316689671727780064e+00 5.112445714722875323e+02
1.316789693732620892e+00 5.112494489690283217e+02
1.316889715737461941e+00 5.112544643219696354e+02
1.316989737742303213e+00 5.112596174542339895e+02
1.317089759747144262e+00 5.112649082847150908e+02
1.317189781751985311e+00 5.112703367280821567e+02
1.317289803756826583e+00 5.112759026947809389e+02
1.317389825761667632e+00 5.112816060910361671e+02
1.317489847766508460e+00 5.112874468188508672e+02
1.317589869771349509e+00 5.112934247760127846e+02
1.317689891776190558e+00 5.112995398560918829e+02
1.317789913781031608e+00 5.113057919484458580e+02
1.317889935785872879e+00 5.113121809382218430e+02
1.317989957790713929e+00 5.113187067063580002e+02
1.318089979795554978e+00 5.113253691295880117e+02
1.318190001800395805e+00 5.113321680804442622e+02
1.318290023805237077e+00 5.113391034272586921e+02
1.318390045810078126e+00 5.113461750341672314e+02
1.318490067814919176e+00 5.113533827611163360e+02
1.318590089819760225e+00 5.113607264638609990e+02
1.318690111824601274e+00 5.113682059939729925e+02
1.318790133829442546e+00 5.113758211988433686e+02
1.318890155834283373e+00 5.113835719216862117e+02
1.318990177839124422e+00 5.113914580015427873e+02
1.319090199843965472e+00 5.113994792732876817e+02
1.319190221848806743e+00 5.114076355676315302e+02
1.319290243853647793e+00 5.114159267111257350e+02
1.319390265858488842e+00 5.114243525261694572e+02
1.319490287863329891e+00 5.114329128310130841e+02
1.319590309868170719e+00 5.114416074397635157e+02
1.319690331873011768e+00 5.114504361623889395e+02
1.319790353877853040e+00 5.114593988047267317e+02
1.319890375882694089e+00 5.114684951684863563e+02
1.319990397887535138e+00 5.114777250512568116e+02
1.320090419892376410e+00 5.114870882465141335e+02
1.320190441897217459e+00 5.114965845436232712e+02
1.320290463902058287e+00 5.115062137278484897e+02
1.320390485906899336e+00 5.115159755803584858e+02
1.320490507911740385e+00 5.115258698782317879e+02
1.320590529916581435e+00 5.115358963944662491e+02
1.320690551921422706e+00 5.115460548979838222e+02
1.320790573926263756e+00 5.115563451536384605e+02
1.320890595931104805e+00 5.115667669222224276e+02
1.320990617935945632e+00 5.115773199604767569e+02
1.321090639940786904e+00 5.115880040210944344e+02
1.321190661945627953e+00 5.115988188527322222e+02
1.321290683950469003e+00 5.116097642000163432e+02
1.321390705955310052e+00 5.116208398035504388e+02
1.321490727960151101e+00 5.116320453999248912e+02
1.321590749964992373e+00 5.116433807217249523e+02
1.321690771969833200e+00 5.116548454975392701e+02
1.321790793974674250e+00 5.116664394519667667e+02
1.321890815979515299e+00 5.116781623056284047e+02
1.321990837984356570e+00 5.116900137751746911e+02
1.322090859989197620e+00 5.117019935732952831e+02
1.322190881994038669e+00 5.117141014087275153e+02
1.322290903998879719e+00 5.117263369862660625e+02
1.322390926003720546e+00 5.117387000067733993e+02
1.322490948008561595e+00 5.117511901671893497e+02
1.322590970013402867e+00 5.117638071605396703e+02
1.322690992018243916e+00 5.117765506759478740e+02
1.322791014023084966e+00 5.117894203986435286e+02
1.322891036027926237e+00 5.118024160099762412e+02
1.322991058032767286e+00 5.118155371874214552e+02
1.323091080037608114e+00 5.118287836045942640e+02
1.323191102042449163e+00 5.118421549312598700e+02
1.323291124047290213e+00 5.118556508333425086e+02
1.323391146052131262e+00 5.118692709729403418e+02
1.323491168056972533e+00 5.118830150083327908e+02
1.323591190061813583e+00 5.118968825939950307e+02
1.323691212066654632e+00 5.119108733806076543e+02
1.323791234071495460e+00 5.119249870150685524e+02
1.323891256076336731e+00 5.119392231405060443e+02
1.323991278081177780e+00 5.119535813962899624e+02
1.324091300086018830e+00 5.119680614180440443e+02
1.324191322090859879e+00 5.119826628376584949e+02
1.324291344095700929e+00 5.119973852833003889e+02
1.324391366100542200e+00 5.120122283794303257e+02
1.324491388105383027e+00 5.120271917468116953e+02
1.324591410110224077e+00 5.120422750025247751e+02
1.324691432115065126e+00 5.120574777599806566e+02
1.324791454119906398e+00 5.120727996289324437e+02
1.324891476124747447e+00 5.120882402154909414e+02
1.324991498129588496e+00 5.121037991221351149e+02
1.325091520134429546e+00 5.121194759477294838e+02
1.325191542139270373e+00 5.121352702875351497e+02
1.325291564144111423e+00 5.121511817332238934e+02
1.325391586148952694e+00 5.121672098728937499e+02
1.325491608153793743e+00 5.121833542910817414e+02
1.325591630158634793e+00 5.121996145687784292e+02
1.325691652163476064e+00 5.122159902834438299e+02
1.325791674168317114e+00 5.122324810090201481e+02
1.325891696173157941e+00 5.122490863159466699e+02
1.325991718177998990e+00 5.122658057711760193e+02
1.326091740182840040e+00 5.122826389381896206e+02
1.326191762187681089e+00 5.122995853770087251e+02
1.326291784192522361e+00 5.123166446442155575e+02
1.326391806197363410e+00 5.123338162929641157e+02
1.326491828202204459e+00 5.123510998729981338e+02
1.326591850207045287e+00 5.123684949306666567e+02
1.326691872211886558e+00 5.123860010089384787e+02
1.326791894216727608e+00 5.124036176474197646e+02
1.326891916221568657e+00 5.124213443823697389e+02
1.326991938226409706e+00 5.124391807467154649e+02
1.327091960231250756e+00 5.124571262700708303e+02
1.327191982236092027e+00 5.124751804787510991e+02
1.327292004240932854e+00 5.124933428957904198e+02
1.327392026245773904e+00 5.125116130409571724e+02
1.327492048250614953e+00 5.125299904307742054e+02
1.327592070255456225e+00 5.125484745785322502e+02
1.327692092260297274e+00 5.125670649943094759e+02
1.327792114265138324e+00 5.125857611849864952e+02
1.327892136269979373e+00 5.126045626542668288e+02
1.327992158274820200e+00 5.126234689026925935e+02
1.328092180279661250e+00 5.126424794276615557e+02
1.328192202284502521e+00 5.126615937234461171e+02
1.328292224289343570e+00 5.126808112812124136e+02
1.328392246294184620e+00 5.127001315890357773e+02
1.328492268299025891e+00 5.127195541319191534e+02
1.328592290303866941e+00 5.127390783918144734e+02
1.328692312308707768e+00 5.127587038476378893e+02
1.328792334313548817e+00 5.127784299752900097e+02
1.328892356318389867e+00 5.127982562476735211e+02
1.328992378323230916e+00 5.128181821347122877e+02
1.329092400328072188e+00 5.128382071033715874e+02
1.329192422332913237e+00 5.128583306176749375e+02
1.329292444337754286e+00 5.128785521387256949e+02
1.329392466342595114e+00 5.128988711247234278e+02
1.329492488347436385e+00 5.129192870309868795e+02
1.329592510352277435e+00 5.129397993099697715e+02
1.329692532357118484e+00 5.129604074112842227e+02
1.329792554361959533e+00 5.129811107817155289e+02
1.329892576366800583e+00 5.130019088652491064e+02
1.329992598371641854e+00 5.130228011030824291e+02
1.330092620376482682e+00 5.130437869336523136e+02
1.330192642381323731e+00 5.130648657926498117e+02
1.330292664386164780e+00 5.130860371130432895e+02
1.330392686391006052e+00 5.131073003250994589e+02
1.330492708395847101e+00 5.131286548564008854e+02
1.330592730400688151e+00 5.131501001318689532e+02
1.330692752405529200e+00 5.131716355737852382e+02
1.330792774410370027e+00 5.131932606018098113e+02
1.330892796415211077e+00 5.132149746330051130e+02
1.330992818420052348e+00 5.132367770818545978e+02
1.331092840424893398e+00 5.132586673602853580e+02
1.331192862429734447e+00 5.132806448776891557e+02
1.331292884434575718e+00 5.133027090409441371e+02
1.331392906439416768e+00 5.133248592544347275e+02
1.331492928444257595e+00 5.133470949200759605e+02
1.331592950449098645e+00 5.133694154373325773e+02
1.331692972453939694e+00 5.133918202032425597e+02
1.331792994458780743e+00 5.134143086124383899e+02
1.331893016463622015e+00 5.134368800571689917e+02
1.331993038468463064e+00 5.134595339273230366e+02
1.332093060473304114e+00 5.134822696104480428e+02
1.332193082478144941e+00 5.135050864917768649e+02
1.332293104482986212e+00 5.135279839542474747e+02
1.332393126487827262e+00 5.135509613785251304e+02
1.332493148492668311e+00 5.135740181430273879e+02
1.332593170497509361e+00 5.135971536239442230e+02
1.332693192502350410e+00 5.136203671952627019e+02
1.332793214507191681e+00 5.136436582287878991e+02
1.332893236512032509e+00 5.136670260941691595e+02
1.332993258516873558e+00 5.136904701589188562e+02
1.333093280521714608e+00 5.137139897884395623e+02
1.333193302526555879e+00 5.137375843460438318e+02
1.333293324531396928e+00 5.137612531929813713e+02
1.333393346536237978e+00 5.137849956884588210e+02
1.333493368541079027e+00 5.138088111896640839e+02
1.333593390545919855e+00 5.138326990517931563e+02
1.333693412550760904e+00 5.138566586280687716e+02
1.333793434555602175e+00 5.138806892697680269e+02
1.333893456560443225e+00 5.139047903262454611e+02
1.333993478565284274e+00 5.139289611449548829e+02
1.334093500570125546e+00 5.139532010714755188e+02
1.334193522574966373e+00 5.139775094495357735e+02
1.334293544579807422e+00 5.140018856210373315e+02
1.334393566584648472e+00 5.140263289260785768e+02
1.334493588589489521e+00 5.140508387029801725e+02
1.334593610594330571e+00 5.140754142883085933e+02
1.334693632599171842e+00 5.141000550169012513e+02
1.334793654604012891e+00 5.141247602218901420e+02
1.334893676608853719e+00 5.141495292347275381e+02
1.334993698613694768e+00 5.141743613852098633e+02
1.335093720618536040e+00 5.141992560015034996e+02
1.335193742623377089e+00 5.142242124101680929e+02
1.335293764628218138e+00 5.142492299361829282e+02
1.335393786633059188e+00 5.142743079029705768e+02
1.335493808637900237e+00 5.142994456324246357e+02
1.335593830642741064e+00 5.143246424449303049e+02
1.335693852647582336e+00 5.143498976593944008e+02
1.335793874652423385e+00 5.143752105932672976e+02
1.335893896657264435e+00 5.144005805625694165e+02
1.335993918662105706e+00 5.144260068819170328e+02
1.336093940666946756e+00 5.144514888645475139e+02
1.336193962671787805e+00 5.144770258223439896e+02
1.336293984676628632e+00 5.145026170658616138e+02
1.336394006681469682e+00 5.145282619043538261e+02
1.336494028686310731e+00 5.145539596457962261e+02
1.336594050691152002e+00 5.145797095969144266e+02
1.336694072695993052e+00 5.146055110632090646e+02
1.336794094700834101e+00 5.146313633489796757e+02
1.336894116705675373e+00 5.146572657573550487e+02
1.336994138710516200e+00 5.146832175903142570e+02
1.337094160715357249e+00 5.147092181487170137e+02
1.337194182720198299e+00 5.147352667323264086e+02
1.337294204725039348e+00 5.147613626398363067e+02
1.337394226729880398e+00 5.147875051688989743e+02
1.337494248734721669e+00 5.148136936161480435e+02
1.337594270739562718e+00 5.148399272772289805e+02
1.337694292744403546e+00 5.148662054468201177e+02
1.337794314749244595e+00 5.148925274186651677e+02
1.337894336754085867e+00 5.149188924855941423e+02
1.337994358758926916e+00 5.149452999395534789e+02
1.338094380763767965e+00 5.149717490716309385e+02
1.338194402768609015e+00 5.149982391720823216e+02
1.338294424773450064e+00 5.150247695303581850e+02
1.338394446778290892e+00 5.150513394351298757e+02
1.338494468783132163e+00 5.150779481743182941e+02
1.338594490787973212e+00 5.151045950351170859e+02
1.338694512792814262e+00 5.151312793040234510e+02
1.338794534797655533e+00 5.151580002668611087e+02
1.338894556802496583e+00 5.151847572088097422e+02
1.338994578807337632e+00 5.152115494144310333e+02
1.339094600812178459e+00 5.152383761676950371e+02
1.339194622817019509e+00 5.152652367520079224e+02
1.339294644821860558e+00 5.152921304502373232e+02
1.339394666826701830e+00 5.153190565447420113e+02
1.339494688831542879e+00 5.153460143173967936e+02
1.339594710836383928e+00 5.153730030496200243e+02
1.339694732841225200e+00 5.154000220224002078e+02
1.339794754846066027e+00 5.154270705163240791e+02
1.339894776850907077e+00 5.154541478116038888e+02
1.339994798855748126e+00 5.154812531881025279e+02
1.340094820860589175e+00 5.155083859253634273e+02
1.340194842865430225e+00 5.155355453026347732e+02
1.340294864870271496e+00 5.155627305988994067e+02
1.340394886875112546e+00 5.155899410929006308e+02
1.340494908879953373e+00 5.156171760631690404e+02
1.340594930884794422e+00 5.156444347880510577e+02
1.340694952889635694e+00 5.156717165457348528e+02
1.340794974894476743e+00 5.156990206142796751e+02
1.340894996899317793e+00 5.157263462716397271e+02
1.340995018904158842e+00 5.157536927956946329e+02
1.341095040908999891e+00 5.157810594642753586e+02
1.341195062913840719e+00 5.158084455551922929e+02
1.341295084918681990e+00 5.158358503462613953e+02
1.341395106923523040e+00 5.158632731153318218e+02
1.341495128928364089e+00 5.158907131403153699e+02
1.341595150933205360e+00 5.159181696992095567e+02
1.341695172938046410e+00 5.159456420701295656e+02
1.341795194942887459e+00 5.159731295313322335e+02
1.341895216947728287e+00 5.160006313612461781e+02
1.341995238952569336e+00 5.160281468384958998e+02
1.342095260957410385e+00 5.160556752419328177e+02
1.342195282962251657e+00 5.160832158506597125e+02
1.342295304967092706e+00 5.161107679440590346e+02
1.342395326971933756e+00 5.161383308018209846e+02
1.342495348976775027e+00 5.161659037039700024e+02
1.342595370981615854e+00 5.161934859308925070e+02
1.342695392986456904e+00 5.162210767633640671e+02
1.342795414991297953e+00 5.162486754825768003e+02
1.342895436996139003e+00 5.162762813701665436e+02
1.342995459000980052e+00 5.163038937082411621e+02
1.343095481005821323e+00 5.163315117794062417e+02
1.343195503010662373e+00 5.163591348667939656e+02
1.343295525015503200e+00 5.163867622540884668e+02
1.343395547020344249e+00 5.164143932255557274e+02
1.343495569025185521e+00 5.164420270660685901e+02
1.343595591030026570e+00 5.164696630611354067e+02
1.343695613034867620e+00 5.164973004969255044e+02
1.343795635039708669e+00 5.165249386602991990e+02
1.343895657044549719e+00 5.165525768388330334e+02
1.343995679049390546e+00 5.165802143208463804e+02
1.344095701054231817e+00 5.166078503954302050e+02
1.344195723059072867e+00 5.166354843524736680e+02
1.344295745063913916e+00 5.166631154826914099e+02
1.344395767068755188e+00 5.166907430776493584e+02
1.344495789073596237e+00 5.167183664297940595e+02
1.344595811078437286e+00 5.167459848324766654e+02
1.344695833083278114e+00 5.167735975799843118e+02
1.344795855088119163e+00 5.168012039675617189e+02
1.344895877092960212e+00 5.168288032914429095e+02
1.344995899097801484e+00 5.168563948488761071e+02
1.345095921102642533e+00 5.168839779381487460e+02
1.345195943107483583e+00 5.169115518586183953e+02
1.345295965112324854e+00 5.169391159107368594e+02
1.345395987117165681e+00 5.169666693960774637e+02
1.345496009122006731e+00 5.169942116173609747e+02
1.345596031126847780e+00 5.170217418784861820e+02
1.345696053131688830e+00 5.170492594845497933e+02
1.345796075136529879e+00 5.170767637418790628e+02
1.345896097141371150e+00 5.171042539580569155e+02
1.345996119146212200e+00 5.171317294419459358e+02
1.346096141151053027e+00 5.171591895037189488e+02
1.346196163155894077e+00 5.171866334548809618e+02
1.346296185160735348e+00 5.172140606082999739e+02
1.346396207165576397e+00 5.172414702782314180e+02
1.346496229170417447e+00 5.172688617803426041e+02
1.346596251175258496e+00 5.172962344317423913e+02
1.346696273180099546e+00 5.173235875510057440e+02
1.346796295184940373e+00 5.173509204582001075e+02
1.346896317189781644e+00 5.173782324749103054e+02
1.346996339194622694e+00 5.174055229242678706e+02
1.347096361199463743e+00 5.174327911309733281e+02
1.347196383204305015e+00 5.174600364213251851e+02
1.347296405209146064e+00 5.174872581232438051e+02
1.347396427213987113e+00 5.175144555662981247e+02
1.347496449218827941e+00 5.175416280817320285e+02
1.347596471223668990e+00 5.175687750024889056e+02
1.347696493228510040e+00 5.175958956632375703e+02
1.347796515233351311e+00 5.176229894003992058e+02
1.347896537238192360e+00 5.176500555521715796e+02
1.347996559243033410e+00 5.176770934585545092e+02
1.348096581247874681e+00 5.177041024613772606e+02
1.348196603252715509e+00 5.177310819043204901e+02
1.348296625257556558e+00 5.177580311329445522e+02
1.348396647262397607e+00 5.177849494947140556e+02
1.348496669267238657e+00 5.178118363390218519e+02
1.348596691272079706e+00 5.178386910172151829e+02
1.348696713276920978e+00 5.178655128826218288e+02
1.348796735281762027e+00 5.178923012905720498e+02
1.348896757286602854e+00 5.179190555984262119e+02
1.348996779291443904e+00 5.179457751655992297e+02
1.349096801296285175e+00 5.179724593535826216e+02
1.349196823301126225e+00 5.179991075259744093e+02
1.349296845305967274e+00 5.180257190484986722e+02
1.349396867310808323e+00 5.180522932890320362e+02
1.349496889315649373e+00 5.180788296176286849e+02
1.349596911320490200e+00 5.181053274065446885e+02
1.349696933325331472e+00 5.181317860302616509e+02
1.349796955330172521e+00 5.181582048655100152e+02
1.349896977335013570e+00 5.181845832912954393e+02
1.349996999339854842e+00 5.182109206889213056e+02
1.350097021344695891e+00 5.182372164420133913e+02
1.350197043349536941e+00 5.182634699365437427e+02
1.350297065354377768e+00 5.182896805608526165e+02
1.350397087359218817e+00 5.183158477056753100e+02
1.350497109364059867e+00 5.183419707641644436e+02
1.350597131368901138e+00 5.183680491319121302e+02
1.350697153373742188e+00 5.183940822069747583e+02
1.350797175378583237e+00 5.184200693898978898e+02
1.350897197383424508e+00 5.184460100837344498e+02
1.350997219388265336e+00 5.184719036940745127e+02
1.351097241393106385e+00 5.184977496290634917e+02
1.351197263397947435e+00 5.185235472994277188e+02
1.351297285402788484e+00 5.185492961184959313e+02
1.351397307407629533e+00 5.185749955022216682e+02
1.351497329412470805e+00 5.186006448692072581e+02
1.351597351417311632e+00 5.186262436407275800e+02
1.351697373422152681e+00 5.186517912407482527e+02
1.351797395426993731e+00 5.186772870959534885e+02
1.351897417431835002e+00 5.187027306357633734e+02
1.351997439436676052e+00 5.187281212923584235e+02
1.352097461441517101e+00 5.187534585007034593e+02
1.352197483446358151e+00 5.187787416985662503e+02
1.352297505451198978e+00 5.188039703265413891e+02
1.352397527456040027e+00 5.188291438280709826e+02
1.352497549460881299e+00 5.188542616494672757e+02
1.352597571465722348e+00 5.188793232399332283e+02
1.352697593470563397e+00 5.189043280515860488e+02
1.352797615475404669e+00 5.189292755394753840e+02
1.352897637480245718e+00 5.189541651616071931e+02
1.352997659485086546e+00 5.189789963789627336e+02
1.353097681489927595e+00 5.190037686555231176e+02
1.353197703494768644e+00 5.190284814582851141e+02
1.353297725499609694e+00 5.190531342572861604e+02
1.353397747504450965e+00 5.190777265256233477e+02
1.353497769509292015e+00 5.191022577394735436e+02
1.353597791514133064e+00 5.191267273781149925e+02
1.353697813518973891e+00 5.191511349239473248e+02
1.353797835523815163e+00 5.191754798625104286e+02
1.353897857528656212e+00 5.191997616825073010e+02
1.353997879533497262e+00 5.192239798758203051e+02
1.354097901538338311e+00 5.192481339375351581e+02
1.354197923543179360e+00 5.192722233659571884e+02
1.354297945548020632e+00 5.192962476626320267e+02
1.354397967552861459e+00 5.193202063323661832e+02
1.354497989557702509e+00 5.193440988832451239e+02
1.354598011562543558e+00 5.193679248266535069e+02
1.354698033567384829e+00 5.193916836772930310e+02
1.354798055572225879e+00 5.194153749532022175e+02
1.354898077577066928e+00 5.194389981757751684e+02
1.354998099581907978e+00 5.194625528697805521e+02
1.355098121586748805e+00 5.194860385633792248e+02
1.355198143591589854e+00 5.195094547881440121e+02
1.355298165596431126e+00 5.195328010790769895e+02
1.355398187601272175e+00 5.195560769746284677e+02
1.355498209606113225e+00 5.195792820167137052e+02
1.355598231610954496e+00 5.196024157507330301e+02
1.355698253615795545e+00 5.196254777255877570e+02
1.355798275620636373e+00 5.196484674936984902e+02
1.355898297625477422e+00 5.196713846110229724e+02
1.355998319630318472e+00 5.196942286370721149e+02
1.356098341635159521e+00 5.197169991349298925e+02
1.356198363640000792e+00 5.197396956712677820e+02
1.356298385644841842e+00 5.197623178163634066e+02
1.356398407649682891e+00 5.197848651441158836e+02
1.356498429654523719e+00 5.198073372320643557e+02
1.356598451659364990e+00 5.198297336614034521e+02
1.356698473664206039e+00 5.198520540170003414e+02
1.356798495669047089e+00 5.198742978874087157e+02
1.356898517673888138e+00 5.198964648648889124e+02
1.356998539678729188e+00 5.199185545454209887e+02
1.357098561683570459e+00 5.199405665287212059e+02
1.357198583688411286e+00 5.199625004182572638e+02
1.357298605693252336e+00 5.199843558212658081e+02
1.357398627698093385e+00 5.200061323487652771e+02
1.357498649702934657e+00 5.200278296155729549e+02
1.357598671707775706e+00 5.200494472403198642e+02
1.357698693712616755e+00 5.200709848454646362e+02
1.357798715717457805e+00 5.200924420573093130e+02
1.357898737722298632e+00 5.201138185060132173e+02
1.357998759727139682e+00 5.201351138256097784e+02
1.358098781731980953e+00 5.201563276540171046e+02
1.358198803736822002e+00 5.201774596330553777e+02
1.358298825741663052e+00 5.201985094084593584e+02
1.358398847746504323e+00 5.202194766298928243e+02
1.358498869751345373e+00 5.202403609509615308e+02
1.358598891756186200e+00 5.202611620292292400e+02
1.358698913761027249e+00 5.202818795262274989e+02
1.358798935765868299e+00 5.203025131074718956e+02
1.358898957770709348e+00 5.203230624424739972e+02
1.358998979775550620e+00 5.203435272047541957e+02
1.359099001780391669e+00 5.203639070718544417e+02
1.359199023785232718e+00 5.203842017253527956e+02
1.359299045790073546e+00 5.204044108508719546e+02
1.359399067794914817e+00 5.204245341380964192e+02
1.359499089799755867e+00 5.204445712807804512e+02
1.359599111804596916e+00 5.204645219767643312e+02
1.359699133809437965e+00 5.204843859279810658e+02
1.359799155814279015e+00 5.205041628404723042e+02
1.359899177819120286e+00 5.205238524243983420e+02
1.359999199823961114e+00 5.205434543940489220e+02
1.360099221828802163e+00 5.205629684678566491e+02
1.360199243833643212e+00 5.205823943684049482e+02
1.360299265838484484e+00 5.206017318224407973e+02
1.360399287843325533e+00 5.206209805608856414e+02
1.360499309848166583e+00 5.206401403188456243e+02
1.360599331853007632e+00 5.206592108356214794e+02
1.360699353857848459e+00 5.206781918547183068e+02
1.360799375862689509e+00 5.206970831238581923e+02
1.360899397867530780e+00 5.207158843949868015e+02
1.360999419872371829e+00 5.207345954242850894e+02
1.361099441877212879e+00 5.207532159721791913e+02
1.361199463882054150e+00 5.207717458033475850e+02
1.361299485886895200e+00 5.207901846867330278e+02
1.361399507891736027e+00 5.208085323955493777e+02
1.361499529896577076e+00 5.208267887072922804e+02
1.361599551901418126e+00 5.208449534037465583e+02
1.361699573906259175e+00 5.208630262709948511e+02
1.361799595911100447e+00 5.208810070994270518e+02
1.361899617915941496e+00 5.208988956837472415e+02
1.361999639920782545e+00 5.209166918229824432e+02
1.362099661925623373e+00 5.209343953204906938e+02
1.362199683930464644e+00 5.209520059839676378e+02
1.362299705935305694e+00 5.209695236254552810e+02
1.362399727940146743e+00 5.209869480613476753e+02
1.362499749944987792e+00 5.210042791124008090e+02
1.362599771949828842e+00 5.210215166037369272e+02
1.362699793954670113e+00 5.210386603648527171e+02
1.362799815959510941e+00 5.210557102296240828e+02
1.362899837964351990e+00 5.210726660363163774e+02
1.362999859969193039e+00 5.210895276275865626e+02
1.363099881974034311e+00 5.211062948504933274e+02
1.363199903978875360e+00 5.211229675564976560e+02
1.363299925983716410e+00 5.211395456014743104e+02
1.363399947988557459e+00 5.211560288457133083e+02
1.363499969993398286e+00 5.211724171539282224e+02
1.363599991998239336e+00 5.211887103952592497e+02
1.363700014003080607e+00 5.212049084432781001e+02
1.363800036007921657e+00 5.212210111759953861e+02
1.363900058012762706e+00 5.212370184758632377e+02
1.364000080017603977e+00 5.212529302297791673e+02
1.364100102022445027e+00 5.212687463290931191e+02
1.364200124027285854e+00 5.212844666696092872e+02
1.364300146032126904e+00 5.213000911515895268e+02
1.364400168036967953e+00 5.213156196797599478e+02
1.364500190041809002e+00 5.213310521633130747e+02
1.364600212046650274e+00 5.213463885159097799e+02
1.364700234051491323e+00 5.213616286556847399e+02
1.364800256056332373e+00 5.213767725052487094e+02
1.364900278061173200e+00 5.213918199916909089e+02
1.365000300066014471e+00 5.214067710465819800e+02
1.365100322070855521e+00 5.214216256059777379e+02
1.365200344075696570e+00 5.214363836104184884e+02
1.365300366080537620e+00 5.214510450049355086e+02
1.365400388085378669e+00 5.214656097390485456e+02
1.365500410090219940e+00 5.214800777667701368e+02
1.365600432095060768e+00 5.214944490466076559e+02
1.365700454099901817e+00 5.215087235415626310e+02
1.365800476104742867e+00 5.215229012191335869e+02
1.365900498109584138e+00 5.215369820513176364e+02
1.366000520114425187e+00 5.215509660146084343e+02
1.366100542119266237e+00 5.215648530900002697e+02
1.366200564124107286e+00 5.215786432629864748e+02
1.366300586128948114e+00 5.215923365235603342e+02
1.366400608133789163e+00 5.216059328662161079e+02
1.366500630138630434e+00 5.216194322899469853e+02
1.366600652143471484e+00 5.216328347982462219e+02
1.366700674148312533e+00 5.216461403991069119e+02
1.366800696153153805e+00 5.216593491050207376e+02
1.366900718157994854e+00 5.216724609329774012e+02
1.367000740162835681e+00 5.216854759044628054e+02
1.367100762167676731e+00 5.216983940454604181e+02
1.367200784172517780e+00 5.217112153864472930e+02
1.367300806177358830e+00 5.217239399623931604e+02
1.367400828182200101e+00 5.217365678127589490e+02
1.367500850187041150e+00 5.217490989814956492e+02
1.367600872191882200e+00 5.217615335170419257e+02
1.367700894196723027e+00 5.217738714723199109e+02
1.367800916201564299e+00 5.217861129047360009e+02
1.367900938206405348e+00 5.217982578761751711e+02
1.368000960211246397e+00 5.218103064530004076e+02
1.368100982216087447e+00 5.218222587060488422e+02
1.368201004220928496e+00 5.218341147106273183e+02
1.368301026225769768e+00 5.218458745465115953e+02
1.368401048230610595e+00 5.218575382979413462e+02
1.368501070235451644e+00 5.218691060536153827e+02
1.368601092240292694e+00 5.218805779066893820e+02
1.368701114245133965e+00 5.218919539547717932e+02
1.368801136249975015e+00 5.219032342999184948e+02
1.368901158254816064e+00 5.219144190486279058e+02
1.369001180259656891e+00 5.219255083118382572e+02
1.369101202264497941e+00 5.219365022049217941e+02
1.369201224269338990e+00 5.219474008476786366e+02
1.369301246274180262e+00 5.219582043643325733e+02
1.369401268279021311e+00 5.219689128835264000e+02
1.369501290283862360e+00 5.219795265383149854e+02
1.369601312288703632e+00 5.219900454661602680e+02
1.369701334293544459e+00 5.220004698089245494e+02
1.369801356298385508e+00 5.220107997128651505e+02
1.369901378303226558e+00 5.220210353286277041e+02
1.370001400308067607e+00 5.220311768112395612e+02
1.370101422312908657e+00 5.220412243201033107e+02
1.370201444317749928e+00 5.220511780189902993e+02
1.370301466322590977e+00 5.220610380760322187e+02
1.370401488327431805e+00 5.220708046637154212e+02
1.370501510332272854e+00 5.220804779588723932e+02
1.370601532337114126e+00 5.220900581426749341e+02
1.370701554341955175e+00 5.220995454006255159e+02
1.370801576346796224e+00 5.221089399225500074e+02
1.370901598351637274e+00 5.221182419025896024e+02
1.371001620356478323e+00 5.221274515391904743e+02
1.371101642361319151e+00 5.221365690351002513e+02
1.371201664366160422e+00 5.221455945973525559e+02
1.371301686371001471e+00 5.221545284372637070e+02
1.371401708375842521e+00 5.221633707704201015e+02
1.371501730380683792e+00 5.221721218166717335e+02
1.371601752385524842e+00 5.221807818001207124e+02
1.371701774390365891e+00 5.221893509491113718e+02
1.371801796395206718e+00 5.221978294962231075e+02
1.371901818400047768e+00 5.222062176782585539e+02
1.372001840404888817e+00 5.222145157362324426e+02
1.372101862409730089e+00 5.222227239153635310e+02
1.372201884414571138e+00 5.222308424650627785e+02
1.372301906419412187e+00 5.222388716389225465e+02
1.372401928424253459e+00 5.222468116947071621e+02
1.372501950429094286e+00 5.222546628943391624e+02
1.372601972433935336e+00 5.222624255038913361e+02
1.372701994438776385e+00 5.222700997935733085e+02
1.372802016443617434e+00 5.222776860377204002e+02
1.372902038448458484e+00 5.222851845147811218e+02
1.373002060453299755e+00 5.222925955073067144e+02
1.373102082458140805e+00 5.222999193019388713e+02
1.373202104462981632e+00 5.223071561893962098e+02
1.373302126467822681e+00 5.223143064644623337e+02
1.373402148472663953e+00 5.223213704259743508e+02
1.373502170477505002e+00 5.223283483768088900e+02
1.373602192482346052e+00 5.223352406238691401e+02
1.373702214487187101e+00 5.223420474780718905e+02
1.373802236492028150e+00 5.223487692543344565e+02
1.373902258496868978e+00 5.223554062715613782e+02
1.374002280501710249e+00 5.223619588526298685e+02
1.374102302506551299e+00 5.223684273243770804e+02
1.374202324511392348e+00 5.223748120175849863e+02
1.374302346516233619e+00 5.223811132669673043e+02
1.374402368521074669e+00 5.223873314111533546e+02
1.374502390525915718e+00 5.223934667926774864e+02
1.374602412530756546e+00 5.223995197579591832e+02
1.374702434535597595e+00 5.224054906572913524e+02
1.374802456540438644e+00 5.224113798448252055e+02
1.374902478545279916e+00 5.224171876785535460e+02
1.375002500550120965e+00 5.224229145202979225e+02
1.375102522554962015e+00 5.224285607356906667e+02
1.375202544559803286e+00 5.224341266941601134e+02
1.375302566564644113e+00 5.224396127689142304e+02
1.375402588569485163e+00 5.224450193369266344e+02
1.375502610574326212e+00 5.224503467789173783e+02
1.375602632579167262e+00 5.224555954793394221e+02
1.375702654584008311e+00 5.224607658263587382e+02
1.375802676588849582e+00 5.224658582118426011e+02
1.375902698593690632e+00 5.224708730313367369e+02
1.376002720598531459e+00 5.224758106840539540e+02
1.376102742603372509e+00 5.224806715728528843e+02
1.376202764608213780e+00 5.224854561042229761e+02
1.376302786613054829e+00 5.224901646882656223e+02
1.376402808617895879e+00 5.224947977386774483e+02
1.376502830622736928e+00 5.224993556727321220e+02
1.376602852627577978e+00 5.225038389112628465e+02
1.376702874632418805e+00 5.225082478786430329e+02
1.376802896637260076e+00 5.225125830027692473e+02
1.376902918642101126e+00 5.225168447150421116e+02
1.377002940646942175e+00 5.225210334503485683e+02
1.377102962651783447e+00 5.225251496470416441e+02
1.377202984656624496e+00 5.225291937469226013e+02
1.377303006661465545e+00 5.225331661952217246e+02
1.377403028666306373e+00 5.225370674405795626e+02
1.377503050671147422e+00 5.225408979350261234e+02
1.377603072675988471e+00 5.225446581339629120e+02
1.377703094680829743e+00 5.225483484961426939e+02
1.377803116685670792e+00 5.225519694836482358e+02
1.377903138690511842e+00 5.225555215618753664e+02
1.378003160695353113e+00 5.225590051995102385e+02
1.378103182700193940e+00 5.225624208685109124e+02
1.378203204705034990e+00 5.225657690440845045e+02
1.378303226709876039e+00 5.225690502046695656e+02
1.378403248714717089e+00 5.225722648319127757e+02
1.378503270719558138e+00 5.225754134106501851e+02
1.378603292724399410e+00 5.225784964288850460e+02
1.378703314729240459e+00 5.225815143777647336e+02
1.378803336734081286e+00 5.225844677515659669e+02
1.378903358738922336e+00 5.225873570476650229e+02
1.379003380743763607e+00 5.225901827665218207e+02
1.379103402748604656e+00 5.225929454116563875e+02
1.379203424753445706e+00 5.225956454896265768e+02
1.379303446758286755e+00 5.225982835100069224e+02
1.379403468763127805e+00 5.226008599853662417e+02
1.379503490767968632e+00 5.226033754312447854e+02
1.379603512772809903e+00 5.226058303661337732e+02
1.379703534777650953e+00 5.226082253114492460e+02
1.379803556782492002e+00 5.226105607915121709e+02
1.379903578787333274e+00 5.226128373335259312e+02
1.380003600792174323e+00 5.226150554675513149e+02
1.380103622797015372e+00 5.226172157264848011e+02
1.380203644801856200e+00 5.226193186460344577e+02
1.380303666806697249e+00 5.226213647646985692e+02
1.380403688811538299e+00 5.226233546237389191e+02
1.380503710816379570e+00 5.226252887671596454e+02
1.380603732821220619e+00 5.226271677416832517e+02
1.380703754826061669e+00 5.226289920967249145e+02
1.380803776830902940e+00 5.226307623843714509e+02
1.380903798835743768e+00 5.226324791593546024e+02
1.381003820840584817e+00 5.226341429790275015e+02
1.381103842845425866e+00 5.226357544033406839e+02
1.381203864850266916e+00 5.226373139948174185e+02
1.381303886855107965e+00 5.226388223185290371e+02
1.381403908859949237e+00 5.226402799420702650e+02
1.381503930864790286e+00 5.226416874355335267e+02
1.381603952869631113e+00 5.226430453714853002e+02
1.381703974874472163e+00 5.226443543249407639e+02
1.381803996879313434e+00 5.226456148733361715e+02
1.381904018884154484e+00 5.226468275965078192e+02
1.382004040888995533e+00 5.226479930766623738e+02
1.382104062893836582e+00 5.226491118983540218e+02
1.382204084898677632e+00 5.226501846484571843e+02
1.382304106903518459e+00 5.226512119161421879e+02
1.382404128908359731e+00 5.226521942928479803e+02
1.382504150913200780e+00 5.226531323722559819e+02
1.382604172918041829e+00 5.226540267502651886e+02
1.382704194922883101e+00 5.226548780249652282e+02
1.382804216927724150e+00 5.226556867966096434e+02
1.382904238932565200e+00 5.226564536675897443e+02
1.383004260937406027e+00 5.226571792424073237e+02
1.383104282942247076e+00 5.226578641276505550e+02
1.383204304947088126e+00 5.226585089319635244e+02
1.383304326951929397e+00 5.226591142660206515e+02
1.383404348956770447e+00 5.226596807425014504e+02
1.383504370961611496e+00 5.226602089760610852e+02
1.383604392966452767e+00 5.226606995833046767e+02
1.383704414971293595e+00 5.226611531827583121e+02
1.383804436976134644e+00 5.226615703948433520e+02
1.383904458980975694e+00 5.226619518418481221e+02
1.384004480985816743e+00 5.226622981479001737e+02
1.384104502990657792e+00 5.226626099389386582e+02
1.384204524995499064e+00 5.226628878426868141e+02
1.384304547000340113e+00 5.226631324886240009e+02
1.384404569005180941e+00 5.226633445079567082e+02
1.384504591010021990e+00 5.226635245335920672e+02
1.384604613014863261e+00 5.226636732001084056e+02
1.384704635019704311e+00 5.226637911437277353e+02
1.384804657024545360e+00 5.226638790022868761e+02
1.384904679029386410e+00 5.226639374152088067e+02
1.385004701034227459e+00 5.226639670234751520e+02
1.385104723039068286e+00 5.226639684695965116e+02
1.385204745043909558e+00 5.226639423975842647e+02
1.385304767048750607e+00 5.226638894529207846e+02
1.385404789053591657e+00 5.226638102825329497e+02
1.385504811058432928e+00 5.226637055347600835e+02
1.385604833063273977e+00 5.226635758593275796e+02
1.385704855068115027e+00 5.226634219073152963e+02
1.385804877072955854e+00 5.226632443311308407e+02
1.385904899077796903e+00 5.226630437844787593e+02
1.386004921082637953e+00 5.226628209223306385e+02
1.386104943087479224e+00 5.226625764008980468e+02
1.386204965092320274e+00 5.226623108775999071e+02
1.386304987097161323e+00 5.226620250110362349e+02
1.386405009102002150e+00 5.226617194609550552e+02
1.386505031106843422e+00 5.226613948882247769e+02
1.386605053111684471e+00 5.226610519548053162e+02
1.386705075116525521e+00 5.226606913237144454e+02
1.386805097121366570e+00 5.226603136590026679e+02
1.386905119126207619e+00 5.226599196257186577e+02
1.387005141131048891e+00 5.226595098898835658e+02
1.387105163135889718e+00 5.226590851184565736e+02
1.387205185140730768e+00 5.226586459793087442e+02
1.387305207145571817e+00 5.226581931411886899e+02
1.387405229150413088e+00 5.226577272736955138e+02
1.387505251155254138e+00 5.226572490472476602e+02
1.387605273160095187e+00 5.226567591330510822e+02
1.387705295164936237e+00 5.226562582030703652e+02
1.387805317169777064e+00 5.226557469299976901e+02
1.387905339174618113e+00 5.226552259872211152e+02
1.388005361179459385e+00 5.226546960487946762e+02
1.388105383184300434e+00 5.226541577894105330e+02
1.388205405189141484e+00 5.226536118843622489e+02
1.388305427193982755e+00 5.226530590095178468e+02
1.388405449198823804e+00 5.226524998412903642e+02
1.388505471203664632e+00 5.226519350566023832e+02
1.388605493208505681e+00 5.226513653328593136e+02
1.388705515213346731e+00 5.226507913479151739e+02
1.388805537218187780e+00 5.226502137800439414e+02
1.388905559223029051e+00 5.226496333079076066e+02
1.389005581227870101e+00 5.226490506105242275e+02
1.389105603232711150e+00 5.226484663672373472e+02
1.389205625237551978e+00 5.226478812576851851e+02
1.389305647242393249e+00 5.226472959617692595e+02
1.389405669247234298e+00 5.226467111596221002e+02
1.389505691252075348e+00 5.226461275315768944e+02
1.389605713256916397e+00 5.226455457581367909e+02
1.389705735261757447e+00 5.226449665199410219e+02
1.389805757266598718e+00 5.226443904977362536e+02
1.389905779271439545e+00 5.226438183723421389e+02
1.390005801276280595e+00 5.226432508246238058e+02
1.390105823281121644e+00 5.226426885354563865e+02
1.390205845285962916e+00 5.226421321856953455e+02
1.390305867290803965e+00 5.226415824561452155e+02
1.390405889295645014e+00 5.226410400275265147e+02
1.390505911300486064e+00 5.226405055804458470e+02
1.390605933305326891e+00 5.226399797953631605e+02
1.390705955310167941e+00 5.226394633525591189e+02
1.390805977315009212e+00 5.226389569321066801e+02
1.390905999319850261e+00 5.226384612138356260e+02
1.391006021324691311e+00 5.226379768773026626e+02
1.391106043329532582e+00 5.226375046017598152e+02
1.391206065334373632e+00 5.226370450661222549e+02
1.391306087339214459e+00 5.226365989489357844e+02
1.391406109344055508e+00 5.226361669283463698e+02
1.391506131348896558e+00 5.226357496820678534e+02
1.391606153353737607e+00 5.226353478873495533e+02
1.391706175358578879e+00 5.226349622209451127e+02
1.391806197363419928e+00 5.226345933590798722e+02
1.391906219368260977e+00 5.226342419774200607e+02
1.392006241373101805e+00 5.226339087510398258e+02
1.392106263377943076e+00 5.226335943543907661e+02
1.392206285382784126e+00 5.226332994612685070e+02
1.392306307387625175e+00 5.226330247447814372e+02
1.392406329392466224e+00 5.226327708773197855e+02
1.392506351397307274e+00 5.226325385305215150e+02
1.392606373402148545e+00 5.226323283752431053e+02
1.392706395406989373e+00 5.226321410815255604e+02
1.392806417411830422e+00 5.226319773185641679e+02
1.392906439416671471e+00 5.226318377546750753e+02
1.393006461421512743e+00 5.226317230572645940e+02
1.393106483426353792e+00 5.226316338927964580e+02
1.393206505431194842e+00 5.226315709267615830e+02
1.393306527436035891e+00 5.226315348236432783e+02
1.393406549440876718e+00 5.226315262468900755e+02
1.393506571445717768e+00 5.226315458588777574e+02
1.393606593450559039e+00 5.226315943208836643e+02
1.393706615455400089e+00 5.226316722930506558e+02
1.393806637460241138e+00 5.226317804343574380e+02
1.393906659465082409e+00 5.226319194025863908e+02
1.394006681469923459e+00 5.226320898542915074e+02
1.394106703474764286e+00 5.226322924447664491e+02
1.394206725479605335e+00 5.226325278280139628e+02
1.394306747484446385e+00 5.226327966567135945e+02
1.394406769489287434e+00 5.226330995821888337e+02
1.394506791494128706e+00 5.226334372543781228e+02
1.394606813498969755e+00 5.226338103218020024e+02
1.394706835503810805e+00 5.226342194315298002e+02
1.394806857508651632e+00 5.226346652291496184e+02
1.394906879513492903e+00 5.226351483587393432e+02
1.395006901518333953e+00 5.226356694628306059e+02
1.395106923523175002e+00 5.226362291823796795e+02
1.395206945528016051e+00 5.226368281567361009e+02
1.395306967532857101e+00 5.226374670236114071e+02
1.395406989537698372e+00 5.226381464190466204e+02
1.395507011542539200e+00 5.226388669773824631e+02
1.395607033547380249e+00 5.226396293312275247e+02
1.395707055552221298e+00 5.226404341114263161e+02
1.395807077557062570e+00 5.226412819470282329e+02
1.395907099561903619e+00 5.226421734652585656e+02
1.396007121566744669e+00 5.226431092914847341e+02
1.396107143571585718e+00 5.226440900491862749e+02
1.396207165576426545e+00 5.226451163599234633e+02
1.396307187581267595e+00 5.226461888433070726e+02
1.396407209586108866e+00 5.226473081169674515e+02
1.396507231590949916e+00 5.226484747965221231e+02
1.396607253595790965e+00 5.226496894955486141e+02
1.396707275600632236e+00 5.226509528255481882e+02
1.396807297605473286e+00 5.226522653959203808e+02
1.396907319610314113e+00 5.226536278139291198e+02
1.397007341615155163e+00 5.226550406846743044e+02
1.397107363619996212e+00 5.226565046110586081e+02
1.397207385624837261e+00 5.226580201937600805e+02
1.397307407629678533e+00 5.226595880311996325e+02
1.397407429634519582e+00 5.226612087195112508e+02
1.397507451639360632e+00 5.226628828525114159e+02
1.397607473644201459e+00 5.226646110216703391e+02
1.397707495649042730e+00 5.226663938160791076e+02
1.397807517653883780e+00 5.226682318224229675e+02
1.397907539658724829e+00 5.226701256249474454e+02
1.398007561663565879e+00 5.226720758054320868e+02
1.398107583668406928e+00 5.226740829431585098e+02
1.398207605673248199e+00 5.226761476148801648e+02
1.398307627678089027e+00 5.226782703947941400e+02
1.398407649682930076e+00 5.226804518545105793e+02
1.398507671687771126e+00 5.226826925630235792e+02
1.398607693692612397e+00 5.226849930866810610e+02
1.398707715697453446e+00 5.226873539891548717e+02
1.398807737702294496e+00 5.226897758314127032e+02
1.398907759707135545e+00 5.226922591716894431e+02
1.399007781711976373e+00 5.226948045654540920e+02
1.399107803716817422e+00 5.226974125653857755e+02
1.399207825721658693e+00 5.227000837213404338e+02
1.399307847726499743e+00 5.227028185803244469e+02
1.399407869731340792e+00 5.227056176864650752e+02
1.399507891736182064e+00 5.227084815809807878e+02
1.399607913741023113e+00 5.227114108021542052e+02
1.399707935745863940e+00 5.227144058853017441e+02
1.399807957750704990e+00 5.227174673627461061e+02
1.399907979755546039e+00 5.227205957637879692e+02
1.400008001760387089e+00 5.227237916146760881e+02
1.400108023765228360e+00 5.227270554385822834e+02
1.400208045770069409e+00 5.227303877555693816e+02
1.400308067774910459e+00 5.227337890825658633e+02
1.400408089779751286e+00 5.227372599333368726e+02
1.400508111784592558e+00 5.227408008184568189e+02
1.400608133789433607e+00 5.227444122452805004e+02
1.400708155794274656e+00 5.227480947179169561e+02
1.400808177799115706e+00 5.227518487372010441e+02
1.400908199803956755e+00 5.227556748006654743e+02
1.401008221808798027e+00 5.227595734025150023e+02
1.401108243813638854e+00 5.227635450335974383e+02
1.401208265818479903e+00 5.227675901813773862e+02
1.401308287823320953e+00 5.227717093299102089e+02
1.401408309828162224e+00 5.227759029598120151e+02
1.401508331833003274e+00 5.227801715482364671e+02
1.401608353837844323e+00 5.227845155688452223e+02
1.401708375842685372e+00 5.227889354917832634e+02
1.401808397847526200e+00 5.227934317836507034e+02
1.401908419852367249e+00 5.227980049074791395e+02
1.402008441857208521e+00 5.228026553227002751e+02
1.402108463862049570e+00 5.228073834851268202e+02
1.402208485866890619e+00 5.228121898469198641e+02
1.402308507871731891e+00 5.228170748565676149e+02
1.402408529876572940e+00 5.228220389588556145e+02
1.402508551881413768e+00 5.228270825948452512e+02
1.402608573886254817e+00 5.228322062018453380e+02
1.402708595891095866e+00 5.228374102133872157e+02
1.402808617895936916e+00 5.228426950591998548e+02
1.402908639900778187e+00 5.228480611651846175e+02
1.403008661905619237e+00 5.228535089533903601e+02
1.403108683910460286e+00 5.228590388419873989e+02
1.403208705915301113e+00 5.228646512452445450e+02
1.403308727920142385e+00 5.228703465735012514e+02
1.403408749924983434e+00 5.228761252331484002e+02
1.403508771929824483e+00 5.228819876265984021e+02
1.403608793934665533e+00 5.228879341522637105e+02
1.403708815939506582e+00 5.228939652045323783e+02
1.403808837944347410e+00 5.229000811737433878e+02
1.403908859949188681e+00 5.229062824461638002e+02
1.404008881954029730e+00 5.229125694039632890e+02
1.404108903958870780e+00 5.229189424251925402e+02
1.404208925963712051e+00 5.229254018837586955e+02
1.404308947968553101e+00 5.229319481494018191e+02
1.404408969973394150e+00 5.229385815876718198e+02
1.404508991978234977e+00 5.229453025599061675e+02
1.404609013983076027e+00 5.229521114232062473e+02
1.404709035987917076e+00 5.229590085304145077e+02
1.404809057992758348e+00 5.229659942300922921e+02
1.404909079997599397e+00 5.229730688664972149e+02
1.405009102002440446e+00 5.229802327795597421e+02
1.405109124007281718e+00 5.229874863048635234e+02
1.405209146012122545e+00 5.229948297736202676e+02
1.405309168016963595e+00 5.230022635126510977e+02
1.405409190021804644e+00 5.230097878443615400e+02
1.405509212026645693e+00 5.230174030867217425e+02
1.405609234031486743e+00 5.230251095532457839e+02
1.405709256036328014e+00 5.230329075529680267e+02
1.405809278041169064e+00 5.230407973904239043e+02
1.405909300046009891e+00 5.230487793656286613e+02
1.406009322050850940e+00 5.230568537740555257e+02
1.406109344055692212e+00 5.230650209066163825e+02
1.406209366060533261e+00 5.230732810496396041e+02
1.406309388065374311e+00 5.230816344848518611e+02
1.406409410070215360e+00 5.230900814893554980e+02
1.406509432075056409e+00 5.230986223356103437e+02
1.406609454079897237e+00 5.231072572914142711e+02
1.406709476084738508e+00 5.231159866198797772e+02
1.406809498089579558e+00 5.231248105794194316e+02
1.406909520094420607e+00 5.231337294237233664e+02
1.407009542099261878e+00 5.231427434017399491e+02
1.407109564104102928e+00 5.231518527576594124e+02
1.407209586108943977e+00 5.231610577308910024e+02
1.407309608113784805e+00 5.231703585560476313e+02
1.407409630118625854e+00 5.231797554629251863e+02
1.407509652123466903e+00 5.231892486764870682e+02
1.407609674128308175e+00 5.231988384168400898e+02
1.407709696133149224e+00 5.232085248992244715e+02
1.407809718137990274e+00 5.232183083339883751e+02
1.407909740142831545e+00 5.232281889265748305e+02
1.408009762147672372e+00 5.232381668775030903e+02
1.408109784152513422e+00 5.232482423823512363e+02
1.408209806157354471e+00 5.232584156317370798e+02
1.408309828162195521e+00 5.232686868113050878e+02
1.408409850167036570e+00 5.232790561017053506e+02
1.408509872171877841e+00 5.232895236785807356e+02
1.408609894176718891e+00 5.233000897125468782e+02
1.408709916181559718e+00 5.233107543691787669e+02
1.408809938186400768e+00 5.233215178089918709e+02
1.408909960191242039e+00 5.233323801874295214e+02
1.409009982196083088e+00 5.233433416548439254e+02
1.409110004200924138e+00 5.233544023564822965e+02
1.409210026205765187e+00 5.233655624324720748e+02
1.409310048210606237e+00 5.233768220178029651e+02
1.409410070215447064e+00 5.233881812423145448e+02
1.409510092220288335e+00 5.233996402306810296e+02
1.409610114225129385e+00 5.234111991023953578e+02
1.409710136229970434e+00 5.234228579717555476e+02
1.409810158234811706e+00 5.234346169478503725e+02
1.409910180239652755e+00 5.234464761345450370e+02
1.410010202244493804e+00 5.234584356304673065e+02
1.410110224249334632e+00 5.234704955289942063e+02
1.410210246254175681e+00 5.234826559182374695e+02
1.410310268259016730e+00 5.234949168810314859e+02
1.410410290263858002e+00 5.235072784949187508e+02
1.410510312268699051e+00 5.235197408321378134e+02
1.410610334273540101e+00 5.235323039596100898e+02
1.410710356278381372e+00 5.235449679389281528e+02
1.410810378283222200e+00 5.235577328263414074e+02
1.410910400288063249e+00 5.235705986727455183e+02
1.411010422292904298e+00 5.235835655236705861e+02
1.411110444297745348e+00 5.235966334192676186e+02
1.411210466302586397e+00 5.236098023942982991e+02
1.411310488307427669e+00 5.236230724781237313e+02
1.411410510312268718e+00 5.236364436946918204e+02
1.411510532317109545e+00 5.236499160625276090e+02
1.411610554321950595e+00 5.236634895947221366e+02
1.411710576326791866e+00 5.236771642989202746e+02
1.411810598331632916e+00 5.236909401773135642e+02
1.411910620336473965e+00 5.237048172266263464e+02
1.412010642341315014e+00 5.237187954381080317e+02
1.412110664346156064e+00 5.237328747975226406e+02
1.412210686350996891e+00 5.237470552851383445e+02
1.412310708355838162e+00 5.237613368757201897e+02
1.412410730360679212e+00 5.237757195385177056e+02
1.412510752365520261e+00 5.237902032372587655e+02
1.412610774370361533e+00 5.238047879301392413e+02
1.412710796375202582e+00 5.238194735698151590e+02
1.412810818380043631e+00 5.238342601033930350e+02
1.412910840384884459e+00 5.238491474724223735e+02
1.413010862389725508e+00 5.238641356128889583e+02
1.413110884394566558e+00 5.238792244552045076e+02
1.413210906399407829e+00 5.238944139242007623e+02
1.413310928404248878e+00 5.239097039391217550e+02
1.413410950409089928e+00 5.239250944136164208e+02
1.413510972413931199e+00 5.239405852557313210e+02
1.413610994418772027e+00 5.239561763679060959e+02
1.413711016423613076e+00 5.239718676469622096e+02
1.413811038428454125e+00 5.239876589841015857e+02
1.413911060433295175e+00 5.240035502648975125e+02
1.414011082438136224e+00 5.240195413692891862e+02
1.414111104442977496e+00 5.240356321715777312e+02
1.414211126447818545e+00 5.240518225404166515e+02
1.414311148452659372e+00 5.240681123388117157e+02
1.414411170457500422e+00 5.240845014241108402e+02
1.414511192462341693e+00 5.241009896480038606e+02
1.414611214467182743e+00 5.241175768565140061e+02
1.414711236472023792e+00 5.241342628899953979e+02
1.414811258476864841e+00 5.241510475831287295e+02
1.414911280481705891e+00 5.241679307649158090e+02
1.415011302486546718e+00 5.241849122586780823e+02
1.415111324491387990e+00 5.242019918820511748e+02
1.415211346496229039e+00 5.242191694469813683e+02
1.415311368501070088e+00 5.242364447597242361e+02
1.415411390505911360e+00 5.242538176208397545e+02
1.415511412510752409e+00 5.242712878251900293e+02
1.415611434515593459e+00 5.242888551619379314e+02
1.415711456520434286e+00 5.243065194145423220e+02
1.415811478525275335e+00 5.243242803607590758e+02
1.415911500530116385e+00 5.243421377726374430e+02
1.416011522534957656e+00 5.243600914165165250e+02
1.416111544539798706e+00 5.243781410530274343e+02
1.416211566544639755e+00 5.243962864370902253e+02
1.416311588549481026e+00 5.244145273179123024e+02
1.416411610554321854e+00 5.244328634389886474e+02
1.416511632559162903e+00 5.244512945381003419e+02
1.416611654564003953e+00 5.244698203473158173e+02
1.416711676568845002e+00 5.244884405929881268e+02
1.416811698573686051e+00 5.245071549957571051e+02
1.416911720578527323e+00 5.245259632705491413e+02
1.417011742583368372e+00 5.245448651265767239e+02
1.417111764588209200e+00 5.245638602673398054e+02
1.417211786593050249e+00 5.245829483906279620e+02
1.417311808597891520e+00 5.246021291885186884e+02
1.417411830602732570e+00 5.246214023473817178e+02
1.417511852607573619e+00 5.246407675478783403e+02
1.417611874612414669e+00 5.246602244649649265e+02
1.417711896617255718e+00 5.246797727678927004e+02
1.417811918622096545e+00 5.246994121202135375e+02
1.417911940626937817e+00 5.247191421797780322e+02
1.418011962631778866e+00 5.247389625987420914e+02
1.418111984636619916e+00 5.247588730235665935e+02
1.418212006641461187e+00 5.247788730950238687e+02
1.418312028646302236e+00 5.247989624481971305e+02
1.418412050651143286e+00 5.248191407124876378e+02
1.418512072655984113e+00 5.248394075116160593e+02
1.418612094660825163e+00 5.248597624636277033e+02
1.418712116665666212e+00 5.248802051808954729e+02
1.418812138670507483e+00 5.249007352701261198e+02
1.418912160675348533e+00 5.249213523323630852e+02
1.419012182680189582e+00 5.249420559629926402e+02
1.419112204685030854e+00 5.249628457517478637e+02
1.419212226689871681e+00 5.249837212827154644e+02
1.419312248694712730e+00 5.250046821343389638e+02
1.419412270699553780e+00 5.250257278794272224e+02
1.419512292704394829e+00 5.250468580851585330e+02
1.419612314709235878e+00 5.250680723130868728e+02
1.419712336714077150e+00 5.250893701191489527e+02
1.419812358718918199e+00 5.251107510536694463e+02
1.419912380723759027e+00 5.251322146613717905e+02
1.420012402728600076e+00 5.251537604813797770e+02
1.420112424733441348e+00 5.251753880472276705e+02
1.420212446738282397e+00 5.251970968868688487e+02
1.420312468743123446e+00 5.252188865226810321e+02
1.420412490747964496e+00 5.252407564714754926e+02
1.420512512752805545e+00 5.252627062445051251e+02
1.420612534757646372e+00 5.252847353474722922e+02
1.420712556762487644e+00 5.253068432805381462e+02
1.420812578767328693e+00 5.253290295383317243e+02
1.420912600772169743e+00 5.253512936099564286e+02
1.421012622777011014e+00 5.253736349790033273e+02
1.421112644781852064e+00 5.253960531235568396e+02
1.421212666786692891e+00 5.254185475162066723e+02
1.421312688791533940e+00 5.254411176240572559e+02
1.421412710796374990e+00 5.254637629087375217e+02
1.421512732801216039e+00 5.254864828264103380e+02
1.421612754806057310e+00 5.255092768277854702e+02
1.421712776810898360e+00 5.255321443581283347e+02
1.421812798815739409e+00 5.255550848572710265e+02
1.421912820820580237e+00 5.255780977596251660e+02
1.422012842825421508e+00 5.256011824941904251e+02
1.422112864830262557e+00 5.256243384845698756e+02
1.422212886835103607e+00 5.256475651489789698e+02
1.422312908839944656e+00 5.256708619002580463e+02
1.422412930844785706e+00 5.256942281458855177e+02
1.422512952849626977e+00 5.257176632879893532e+02
1.422612974854467804e+00 5.257411667233608341e+02
1.422712996859308854e+00 5.257647378434666052e+02
1.422813018864149903e+00 5.257883760344623170e+02
1.422913040868991175e+00 5.258120806772053584e+02
1.423013062873832224e+00 5.258358511472684995e+02
1.423113084878673273e+00 5.258596868149550119e+02
1.423213106883514323e+00 5.258835870453111738e+02
1.423313128888355150e+00 5.259075511981393447e+02
1.423413150893196200e+00 5.259315786280160410e+02
1.423513172898037471e+00 5.259556686843029638e+02
1.423613194902878520e+00 5.259798207111638249e+02
1.423713216907719570e+00 5.260040340475782159e+02
1.423813238912560841e+00 5.260283080273577525e+02
1.423913260917401891e+00 5.260526419791617627e+02
1.424013282922242718e+00 5.260770352265110432e+02
1.424113304927083767e+00 5.261014870878061629e+02
1.424213326931924817e+00 5.261259968763419010e+02
1.424313348936765866e+00 5.261505639003240731e+02
1.424413370941607138e+00 5.261751874628860151e+02
1.424513392946448187e+00 5.261998668621052957e+02
1.424613414951289236e+00 5.262246013910209967e+02
1.424713436956130064e+00 5.262493903376495155e+02
1.424813458960971335e+00 5.262742329850035503e+02
1.424913480965812385e+00 5.262991286111089266e+02
1.425013502970653434e+00 5.263240764890218770e+02
1.425113524975494483e+00 5.263490758868472312e+02
1.425213546980335533e+00 5.263741260677577429e+02
1.425313568985176804e+00 5.263992262900103469e+02
1.425413590990017632e+00 5.264243758069651449e+02
1.425513612994858681e+00 5.264495738671070058e+02
1.425613634999699730e+00 5.264748197140604589e+02
1.425713657004541002e+00 5.265001125866111806e+02
1.425813679009382051e+00 5.265254517187249803e+02
1.425913701014223101e+00 5.265508363395666720e+02
1.426013723019064150e+00 5.265762656735207656e+02
1.426113745023904977e+00 5.266017389402121580e+02
1.426213767028746027e+00 5.266272553545225037e+02
1.426313789033587298e+00 5.266528141266153398e+02
1.426413811038428348e+00 5.266784144619540484e+02
1.426513833043269397e+00 5.267040555613225479e+02
1.426613855048110668e+00 5.267297366208472340e+02
1.426713877052951718e+00 5.267554568320178987e+02
1.426813899057792545e+00 5.267812153817083072e+02
1.426913921062633595e+00 5.268070114521973437e+02
1.427013943067474644e+00 5.268328442211937954e+02
1.427113965072315693e+00 5.268587128618543147e+02
1.427213987077156965e+00 5.268846165428079757e+02
1.427314009081998014e+00 5.269105544281771927e+02
1.427414031086839064e+00 5.269365256776025035e+02
1.427514053091679891e+00 5.269625294462618967e+02
1.427614075096521162e+00 5.269885648848965047e+02
1.427714097101362212e+00 5.270146311398322041e+02
1.427814119106203261e+00 5.270407273530031489e+02
1.427914141111044311e+00 5.270668526619750764e+02
1.428014163115885360e+00 5.270930061999706595e+02
1.428114185120726631e+00 5.271191870958911068e+02
1.428214207125567459e+00 5.271453944743393549e+02
1.428314229130408508e+00 5.271716274556473536e+02
1.428414251135249557e+00 5.271978851558991437e+02
1.428514273140090829e+00 5.272241666869538221e+02
1.428614295144931878e+00 5.272504711564729405e+02
1.428714317149772928e+00 5.272767976679434696e+02
1.428814339154613977e+00 5.273031453207032655e+02
1.428914361159454804e+00 5.273295132099671036e+02
1.429014383164295854e+00 5.273559004268506669e+02
1.429114405169137125e+00 5.273823060583981714e+02
1.429214427173978175e+00 5.274087291876072641e+02
1.429314449178819224e+00 5.274351688934538060e+02
1.429414471183660496e+00 5.274616242509202948e+02
1.429514493188501545e+00 5.274880943310200792e+02
1.429614515193342372e+00 5.275145782008253263e+02
1.429714537198183422e+00 5.275410749234940795e+02
1.429814559203024471e+00 5.275675835582939044e+02
1.429914581207865520e+00 5.275941031606338356e+02
1.430014603212706792e+00 5.276206327820881370e+02
1.430114625217547841e+00 5.276471714704240412e+02
1.430214647222388891e+00 5.276737182696308537e+02
1.430314669227229718e+00 5.277002722199457594e+02
1.430414691232070989e+00 5.277268323578838363e+02
1.430514713236912039e+00 5.277533977162636347e+02
1.430614735241753088e+00 5.277799673242381004e+02
1.430714757246594138e+00 5.278065402073203813e+02
1.430814779251435187e+00 5.278331153874137271e+02
1.430914801256276458e+00 5.278596918828402522e+02
1.431014823261117286e+00 5.278862687083712899e+02
1.431114845265958335e+00 5.279128448752518352e+02
1.431214867270799385e+00 5.279394193912340825e+02
1.431314889275640656e+00 5.279659912606056196e+02
1.431414911280481705e+00 5.279925594842194414e+02
1.431514933285322755e+00 5.280191230595208935e+02
1.431614955290163804e+00 5.280456809805805278e+02
1.431714977295004632e+00 5.280722322381245704e+02
1.431814999299845681e+00 5.280987758195611832e+02
1.431915021304686952e+00 5.281253107090151389e+02
1.432015043309528002e+00 5.281518358873554462e+02
1.432115065314369051e+00 5.281783503322266142e+02
1.432215087319210323e+00 5.282048530180807120e+02
1.432315109324051372e+00 5.282313429162065859e+02
1.432415131328892199e+00 5.282578189947613510e+02
1.432515153333733249e+00 5.282842802188031328e+02
1.432615175338574298e+00 5.283107255503197166e+02
1.432715197343415348e+00 5.283371539482615162e+02
1.432815219348256619e+00 5.283635643685744299e+02
1.432915241353097668e+00 5.283899557642298532e+02
1.433015263357938718e+00 5.284163270852563983e+02
1.433115285362779545e+00 5.284426772787739992e+02
1.433215307367620817e+00 5.284690052890242669e+02
1.433315329372461866e+00 5.284953100574034579e+02
1.433415351377302915e+00 5.285215905224955577e+02
1.433515373382143965e+00 5.285478456201033168e+02
1.433615395386985014e+00 5.285740742832838350e+02
1.433715417391826286e+00 5.286002754423777787e+02
1.433815439396667113e+00 5.286264480250459883e+02
1.433915461401508162e+00 5.286525909563004006e+02
1.434015483406349212e+00 5.286787031585381555e+02
1.434115505411190483e+00 5.287047835515743373e+02
1.434215527416031533e+00 5.287308310526783544e+02
1.434315549420872582e+00 5.287568445766021341e+02
1.434415571425713631e+00 5.287828230356199128e+02
1.434515593430554459e+00 5.288087653395592724e+02
1.434615615435395508e+00 5.288346703958338821e+02
1.434715637440236780e+00 5.288605371094814700e+02
1.434815659445077829e+00 5.288863643831953141e+02
1.434915681449918878e+00 5.289121511173593717e+02
1.435015703454760150e+00 5.289378962100826129e+02
1.435115725459601199e+00 5.289635985572344907e+02
1.435215747464442027e+00 5.289892570524800703e+02
1.435315769469283076e+00 5.290148705873129984e+02
1.435415791474124125e+00 5.290404380510926785e+02
1.435515813478965175e+00 5.290659583310787184e+02
1.435615835483806446e+00 5.290914303124659455e+02
1.435715857488647496e+00 5.291168528784194223e+02
1.435815879493488545e+00 5.291422249101116222e+02
1.435915901498329372e+00 5.291675452867572176e+02
1.436015923503170644e+00 5.291928128856466174e+02
1.436115945508011693e+00 5.292180265821858711e+02
1.436215967512852743e+00 5.292431852499294109e+02
1.436315989517693792e+00 5.292682877606179090e+02
1.436416011522534841e+00 5.292933329842138619e+02
1.436516033527376113e+00 5.293183197889371741e+02
1.436616055532216940e+00 5.293432470413026749e+02
1.436716077537057989e+00 5.293681136061563848e+02
1.436816099541899039e+00 5.293929183467109851e+02
1.436916121546740310e+00 5.294176601245839038e+02
1.437016143551581360e+00 5.294423377998335809e+02
1.437116165556422409e+00 5.294669502309964173e+02
1.437216187561263459e+00 5.294914962751232679e+02
1.437316209566104286e+00 5.295159747878166172e+02
1.437416231570945335e+00 5.295403846232683236e+02
1.437516253575786607e+00 5.295647246342973631e+02
1.437616275580627656e+00 5.295889936723848450e+02
1.437716297585468705e+00 5.296131905877134614e+02
1.437816319590309977e+00 5.296373142292050034e+02
1.437916341595151026e+00 5.296613634445573098e+02
1.438016363599991854e+00 5.296853370802811014e+02
1.438116385604832903e+00 5.297092339817398852e+02
1.438216407609673952e+00 5.297330529931865613e+02
1.438316429614515002e+00 5.297567929578009398e+02
1.438416451619356273e+00 5.297804527177279397e+02
1.438516473624197323e+00 5.298040311141171514e+02
1.438616495629038150e+00 5.298275269871600131e+02
1.438716517633879199e+00 5.298509391761260758e+02
1.438816539638720471e+00 5.298742665194049550e+02
1.438916561643561520e+00 5.298975078545428232e+02
1.439016583648402570e+00 5.299206620182801544e+02
1.439116605653243619e+00 5.299437278465918553e+02
1.439216627658084668e+00 5.299667041747247822e+02
1.439316649662925496e+00 5.299895898372376450e+02
1.439416671667766767e+00 5.300123836680380691e+02
1.439516693672607817e+00 5.300350845004219309e+02
1.439616715677448866e+00 5.300576911671146263e+02
1.439716737682290137e+00 5.300802025003051767e+02
1.439816759687131187e+00 5.301026173316899985e+02
1.439916781691972236e+00 5.301249344925097375e+02
1.440016803696813064e+00 5.301471528135882636e+02
1.440116825701654113e+00 5.301692711253721200e+02
1.440216847706495162e+00 5.301912882579704274e+02
1.440316869711336434e+00 5.302132030411935375e+02
1.440416891716177483e+00 5.302350143045919140e+02
1.440516913721018533e+00 5.302567208774974006e+02
1.440616935725859804e+00 5.302783215890603969e+02
1.440716957730700631e+00 5.302998152682903310e+02
1.440816979735541681e+00 5.303212007440956768e+02
1.440917001740382730e+00 5.303424768453235174e+02
1.441017023745223780e+00 5.303636424007975165e+02
1.441117045750064829e+00 5.303846962393606645e+02
1.441217067754906100e+00 5.304056371899112037e+02
1.441317089759747150e+00 5.304264640814466247e+02
1.441417111764587977e+00 5.304471757430994785e+02
1.441517133769429027e+00 5.304677710041805767e+02
1.441617155774270298e+00 5.304882486942161677e+02
1.441717177779111347e+00 5.305086076429893183e+02
1.441817199783952397e+00 5.305288466805805001e+02
1.441917221788793446e+00 5.305489646374049926e+02
1.442017243793634496e+00 5.305689603442571070e+02
1.442117265798475323e+00 5.305888326323453157e+02
1.442217287803316594e+00 5.306085803333369313e+02
1.442317309808157644e+00 5.306282022793936903e+02
1.442417331812998693e+00 5.306476973032167734e+02
1.442517353817839965e+00 5.306670642380829577e+02
1.442617375822681014e+00 5.306863019178866807e+02
1.442717397827522063e+00 5.307054091771802860e+02
1.442817419832362891e+00 5.307243848512132445e+02
1.442917441837203940e+00 5.307432277759742192e+02
1.443017463842044990e+00 5.307619367882291499e+02
1.443117485846886261e+00 5.307805107255624080e+02
1.443217507851727310e+00 5.307989484264182920e+02
1.443317529856568360e+00 5.308172487301394540e+02
1.443417551861409631e+00 5.308354104770085087e+02
1.443517573866250459e+00 5.308534325082880514e+02
1.443617595871091508e+00 5.308713136662606757e+02
1.443717617875932557e+00 5.308890527942696735e+02
1.443817639880773607e+00 5.309066487367592799e+02
1.443917661885614656e+00 5.309241003393153733e+02
1.444017683890455928e+00 5.309414064487052656e+02
1.444117705895296977e+00 5.309585659129185160e+02
1.444217727900137804e+00 5.309755775812069487e+02
1.444317749904978854e+00 5.309924403041256937e+02
1.444417771909820125e+00 5.310091529335725227e+02
1.444517793914661175e+00 5.310257143228300265e+02
1.444617815919502224e+00 5.310421233266032459e+02
1.444717837924343273e+00 5.310583788010626449e+02
1.444817859929184323e+00 5.310744796038826507e+02
1.444917881934025150e+00 5.310904245942839452e+02
1.445017903938866421e+00 5.311062126330716637e+02
1.445117925943707471e+00 5.311218425826768907e+02
1.445217947948548520e+00 5.311373133071969050e+02
1.445317969953389792e+00 5.311526236724356522e+02
1.445417991958230841e+00 5.311677725459422845e+02
1.445518013963071891e+00 5.311827587970550439e+02
1.445618035967912718e+00 5.311975812969376420e+02
1.445718057972753767e+00 5.312122389186220062e+02
1.445818079977594817e+00 5.312267305370477288e+02
1.445918101982436088e+00 5.312410550291018581e+02
1.446018123987277137e+00 5.312552112736589152e+02
1.446118145992118187e+00 5.312691981516227315e+02
1.446218167996959458e+00 5.312830145459641926e+02
1.446318190001800286e+00 5.312966593417631884e+02
1.446418212006641335e+00 5.313101314262480628e+02
1.446518234011482384e+00 5.313234296888344943e+02
1.446618256016323434e+00 5.313365530211666510e+02
1.446718278021164483e+00 5.313495003171587996e+02
1.446818300026005755e+00 5.313622704730315718e+02
1.446918322030846804e+00 5.313748623873539145e+02
1.447018344035687631e+00 5.313872749610831079e+02
1.447118366040528681e+00 5.313995070976035322e+02
1.447218388045369952e+00 5.314115577027680501e+02
1.447318410050211002e+00 5.314234256849362055e+02
1.447418432055052051e+00 5.314351099550135586e+02
1.447518454059893100e+00 5.314466094264943195e+02
1.447618476064734150e+00 5.314579230154960214e+02
1.447718498069574977e+00 5.314690496408039735e+02
1.447818520074416249e+00 5.314799882239074122e+02
1.447918542079257298e+00 5.314907376890402020e+02
1.448018564084098347e+00 5.315012969632214208e+02
1.448118586088939619e+00 5.315116649762908310e+02
1.448218608093780668e+00 5.315218406609532167e+02
1.448318630098621718e+00 5.315318229528132861e+02
1.448418652103462545e+00 5.315416107904179626e+02
1.448518674108303594e+00 5.315512031152924237e+02
1.448618696113144644e+00 5.315605988719827337e+02
1.448718718117985915e+00 5.315697970080914274e+02
1.448818740122826965e+00 5.315787964743185512e+02
1.448918762127668014e+00 5.315875962244997481e+02
1.449018784132509285e+00 5.315961952156452526e+02
1.449118806137350113e+00 5.316045924079782026e+02
1.449218828142191162e+00 5.316127867649735208e+02
1.449318850147032212e+00 5.316207772533971365e+02
1.449418872151873261e+00 5.316285628433429338e+02
1.449518894156714310e+00 5.316361425082725418e+02
1.449618916161555582e+00 5.316435152250533065e+02
1.449718938166396631e+00 5.316506799739966027e+02
1.449818960171237459e+00 5.316576357388955785e+02
1.449918982176078508e+00 5.316643815070638084e+02
1.450019004180919779e+00 5.316709162693728103e+02
1.450119026185760829e+00 5.316772390202902443e+02
1.450219048190601878e+00 5.316833487579191342e+02
1.450319070195442928e+00 5.316892444840327698e+02
1.450419092200283977e+00 5.316949252041148384e+02
1.450519114205124804e+00 5.317003899273954630e+02
1.450619136209966076e+00 5.317056376668900839e+02
1.450719158214807125e+00 5.317106674394367474e+02
1.450819180219648175e+00 5.317154782657315764e+02
1.450919202224489446e+00 5.317200691703686743e+02
1.451019224229330495e+00 5.317244391818758231e+02
1.451119246234171545e+00 5.317285873327501804e+02
1.451219268239012372e+00 5.317325126594994344e+02
1.451319290243853422e+00 5.317362142026743186e+02
1.451419312248694471e+00 5.317396910069069236e+02
1.451519334253535742e+00 5.317429421209478733e+02
1.451619356258376792e+00 5.317459665977039549e+02
1.451719378263217841e+00 5.317487634942704062e+02
1.451819400268059113e+00 5.317513318719726385e+02
1.451919422272899940e+00 5.317536707963977278e+02
1.452019444277740989e+00 5.317557793374346602e+02
1.452119466282582039e+00 5.317576565693076418e+02
1.452219488287423088e+00 5.317593015706120241e+02
1.452319510292264138e+00 5.317607134243518203e+02
1.452419532297105409e+00 5.317618912179739254e+02
1.452519554301946458e+00 5.317628340434054053e+02
1.452619576306787286e+00 5.317635409970854425e+02
1.452719598311628335e+00 5.317640111800059231e+02
1.452819620316469607e+00 5.317642436977417901e+02
1.452919642321310656e+00 5.317642376604889023e+02
1.453019664326151705e+00 5.317639921830989351e+02
1.453119686330992755e+00 5.317635063851114410e+02
1.453219708335833804e+00 5.317627793907932983e+02
1.453319730340674631e+00 5.317618103291703164e+02
1.453419752345515903e+00 5.317605983340612283e+02
1.453519774350356952e+00 5.317591425441135016e+02
1.453619796355198002e+00 5.317574421028377856e+02
1.453719818360039273e+00 5.317554961586404261e+02
1.453819840364880323e+00 5.317533038648600723e+02
1.453919862369721372e+00 5.317508643797982586e+02
1.454019884374562199e+00 5.317481768667554434e+02
1.454119906379403249e+00 5.317452404940646602e+02
1.454219928384244298e+00 5.317420544351230092e+02
1.454319950389085569e+00 5.317386178684275819e+02
1.454419972393926619e+00 5.317349299776049065e+02
1.454519994398767668e+00 5.317309899514500557e+02
1.454620016403608940e+00 5.317267969839531361e+02
1.454720038408449767e+00 5.317223502743354402e+02
1.454820060413290816e+00 5.317176490270821887e+02
1.454920082418131866e+00 5.317126924519725435e+02
1.455020104422972915e+00 5.317074797641155328e+02
1.455120126427813965e+00 5.317020101839793824e+02
1.455220148432655236e+00 5.316962829374244848e+02
1.455320170437496285e+00 5.316902972557351177e+02
1.455420192442337113e+00 5.316840523756533230e+02
1.455520214447178162e+00 5.316775475394049408e+02
1.455620236452019434e+00 5.316707819947381495e+02
1.455720258456860483e+00 5.316637549949488175e+02
1.455820280461701532e+00 5.316564657989152920e+02
1.455920302466542582e+00 5.316489136711278434e+02
1.456020324471383409e+00 5.316410978817202704e+02
1.456120346476224459e+00 5.316330177064991176e+02
1.456220368481065730e+00 5.316246724269753940e+02
1.456320390485906779e+00 5.316160613303949276e+02
1.456420412490747829e+00 5.316071837097681509e+02
1.456520434495589100e+00 5.315980388639004559e+02
1.456620456500430150e+00 5.315886260974212973e+02
1.456720478505270977e+00 5.315789447208142064e+02
1.456820500510112026e+00 5.315689940504480546e+02
1.456920522514953076e+00 5.315587734086022920e+02
1.457020544519794125e+00 5.315482821235008259e+02
1.457120566524635397e+00 5.315375195293379420e+02
1.457220588529476446e+00 5.315264849663082032e+02
1.457320610534317495e+00 5.315151777806345308e+02
1.457420632539158323e+00 5.315035973245988998e+02
1.457520654543999594e+00 5.314917429565666680e+02
1.457620676548840644e+00 5.314796140410180669e+02
1.457720698553681693e+00 5.314672099485761692e+02
1.457820720558522742e+00 5.314545300560311034e+02
1.457920742563363792e+00 5.314415737463732512e+02
1.458020764568205063e+00 5.314283404088151883e+02
1.458120786573045891e+00 5.314148294388229488e+02
1.458220808577886940e+00 5.314010402381403537e+02
1.458320830582727989e+00 5.313869722148178880e+02
1.458420852587569261e+00 5.313726247832393028e+02
1.458520874592410310e+00 5.313579973641457173e+02
1.458620896597251360e+00 5.313430893846657455e+02
1.458720918602092409e+00 5.313279002783376654e+02
1.458820940606933236e+00 5.313124294851396598e+02
1.458920962611774286e+00 5.312966764515117575e+02
1.459020984616615557e+00 5.312806406303836866e+02
1.459121006621456607e+00 5.312643214811989765e+02
1.459221028626297656e+00 5.312477184699417876e+02
1.459321050631138927e+00 5.312308310691599900e+02
1.459421072635979977e+00 5.312136587579918796e+02
1.459521094640820804e+00 5.311962010221899391e+02
1.459621116645661854e+00 5.311784573541443706e+02
1.459721138650502903e+00 5.311604272529087893e+02
1.459821160655343952e+00 5.311421102242243251e+02
1.459921182660185224e+00 5.311235057805420183e+02
1.460021204665026273e+00 5.311046134410474906e+02
1.460121226669867323e+00 5.310854327316849322e+02
1.460221248674708150e+00 5.310659631851789300e+02
1.460321270679549421e+00 5.310462043410595925e+02
1.460421292684390471e+00 5.310261557456823311e+02
1.460521314689231520e+00 5.310058169522537810e+02
1.460621336694072570e+00 5.309851875208511274e+02
1.460721358698913619e+00 5.309642670184482540e+02
1.460821380703754890e+00 5.309430550189343876e+02
1.460921402708595718e+00 5.309215511031363803e+02
1.461021424713436767e+00 5.308997548588421296e+02
1.461121446718277817e+00 5.308776658808201319e+02
1.461221468723119088e+00 5.308552837708422203e+02
1.461321490727960137e+00 5.308326081377034598e+02
1.461421512732801187e+00 5.308096385972427242e+02
1.461521534737642236e+00 5.307863747723650931e+02
1.461621556742483063e+00 5.307628162930595863e+02
1.461721578747324113e+00 5.307389627964220153e+02
1.461821600752165384e+00 5.307148139266723774e+02
1.461921622757006434e+00 5.306903693351765696e+02
1.462021644761847483e+00 5.306656286804648062e+02
1.462121666766688755e+00 5.306405916282518547e+02
1.462221688771529804e+00 5.306152578514545439e+02
1.462321710776370631e+00 5.305896270302126823e+02
1.462421732781211681e+00 5.305636988519053148e+02
1.462521754786052730e+00 5.305374730111714143e+02
1.462621776790893779e+00 5.305109492099270483e+02
1.462721798795735051e+00 5.304841271573826589e+02
1.462821820800576100e+00 5.304570065700626174e+02
1.462921842805417150e+00 5.304295871718209128e+02
1.463021864810257977e+00 5.304018686938596829e+02
1.463121886815099248e+00 5.303738508747460401e+02
1.463221908819940298e+00 5.303455334604277596e+02
1.463321930824781347e+00 5.303169162042524931e+02
1.463421952829622397e+00 5.302879988669811837e+02
1.463521974834463446e+00 5.302587812168076198e+02
1.463621996839304717e+00 5.302292630293710545e+02
1.463722018844145545e+00 5.301994440877731449e+02
1.463822040848986594e+00 5.301693241825950054e+02
1.463922062853827644e+00 5.301389031119097126e+02
1.464022084858668915e+00 5.301081806813004960e+02
1.464122106863509964e+00 5.300771567038726744e+02
1.464222128868351014e+00 5.300458310002705957e+02
1.464322150873192063e+00 5.300142033986891192e+02
1.464422172878032891e+00 5.299822737348913506e+02
1.464522194882873940e+00 5.299500418522194423e+02
1.464622216887715211e+00 5.299175076016103958e+02
1.464722238892556261e+00 5.298846708416083402e+02
1.464822260897397310e+00 5.298515314383778332e+02
1.464922282902238582e+00 5.298180892657167078e+02
1.465022304907079631e+00 5.297843442050699423e+02
1.465122326911920458e+00 5.297502961455401191e+02
1.465222348916761508e+00 5.297159449839022045e+02
1.465322370921602557e+00 5.296812906246129842e+02
1.465422392926443607e+00 5.296463329798249333e+02
1.465522414931284878e+00 5.296110719693964484e+02
1.465622436936125927e+00 5.295755075209036704e+02
1.465722458940966977e+00 5.295396395696516265e+02
1.465822480945807804e+00 5.295034680586838931e+02
1.465922502950649076e+00 5.294669929387962384e+02
1.466022524955490125e+00 5.294302141685426477e+02
1.466122546960331174e+00 5.293931317142497619e+02
1.466222568965172224e+00 5.293557455500230162e+02
1.466322590970013273e+00 5.293180556577584639e+02
1.466422612974854545e+00 5.292800620271523258e+02
1.466522634979695372e+00 5.292417646557080388e+02
1.466622656984536421e+00 5.292031635487478525e+02
1.466722678989377471e+00 5.291642587194194221e+02
1.466822700994218742e+00 5.291250501887046767e+02
1.466922722999059792e+00 5.290855379854285729e+02
1.467022745003900841e+00 5.290457221462671669e+02
1.467122767008741890e+00 5.290056027157538665e+02
1.467222789013582718e+00 5.289651797462889817e+02
1.467322811018423767e+00 5.289244532981449538e+02
1.467422833023265039e+00 5.288834234394728355e+02
1.467522855028106088e+00 5.288420902463126367e+02
1.467622877032947137e+00 5.288004538025958254e+02
1.467722899037788409e+00 5.287585142001535132e+02
1.467822921042629458e+00 5.287162715387213439e+02
1.467922943047470286e+00 5.286737259259457460e+02
1.468022965052311335e+00 5.286308774773912091e+02
1.468122987057152384e+00 5.285877263165409659e+02
1.468223009061993434e+00 5.285442725748067687e+02
1.468323031066834705e+00 5.285005163915297999e+02
1.468423053071675755e+00 5.284564579139879470e+02
1.468523075076516804e+00 5.284120972973988728e+02
1.468623097081357631e+00 5.283674347049242215e+02
1.468723119086198903e+00 5.283224703076713240e+02
1.468823141091039952e+00 5.282772042847000193e+02
1.468923163095881002e+00 5.282316368230243597e+02
1.469023185100722051e+00 5.281857681176151118e+02
1.469123207105563100e+00 5.281395983714019167e+02
1.469223229110404372e+00 5.280931277952780647e+02
1.469323251115245199e+00 5.280463566081001545e+02
1.469423273120086249e+00 5.279992850366916173e+02
1.469523295124927298e+00 5.279519133158445356e+02
1.469623317129768569e+00 5.279042416883195301e+02
1.469723339134609619e+00 5.278562704048484875e+02
1.469823361139450668e+00 5.278079997241352430e+02
1.469923383144291718e+00 5.277594299128546709e+02
1.470023405149132545e+00 5.277105612456564359e+02
1.470123427153973594e+00 5.276613940051612417e+02
1.470223449158814866e+00 5.276119284819644690e+02
1.470323471163655915e+00 5.275621649746327648e+02
1.470423493168496965e+00 5.275121037897065435e+02
1.470523515173338236e+00 5.274617452416946435e+02
1.470623537178179285e+00 5.274110896530788750e+02
1.470723559183020113e+00 5.273601373543083355e+02
1.470823581187861162e+00 5.273088886837989548e+02
1.470923603192702211e+00 5.272573439879339503e+02
1.471023625197543261e+00 5.272055036210581420e+02
1.471123647202384532e+00 5.271533679454784078e+02
1.471223669207225582e+00 5.271009373314587947e+02
1.471323691212066631e+00 5.270482121572202914e+02
1.471423713216907458e+00 5.269951928089353714e+02
1.471523735221748730e+00 5.269418796807259469e+02
1.471623757226589779e+00 5.268882731746596164e+02
1.471723779231430829e+00 5.268343737007446634e+02
1.471823801236271878e+00 5.267801816769283505e+02
1.471923823241112927e+00 5.267256975290896435e+02
1.472023845245954199e+00 5.266709216910371651e+02
1.472123867250795026e+00 5.266158546045023741e+02
1.472223889255636076e+00 5.265604967191351307e+02
1.472323911260477125e+00 5.265048484924998320e+02
1.472423933265318396e+00 5.264489103900668852e+02
1.472523955270159446e+00 5.263926828852089557e+02
1.472623977275000495e+00 5.263361664591946010e+02
1.472723999279841545e+00 5.262793616011803124e+02
1.472824021284682372e+00 5.262222688082058539e+02
1.472924043289523421e+00 5.261648885851871000e+02
1.473024065294364693e+00 5.261072214449070543e+02
1.473124087299205742e+00 5.260492679080102789e+02
1.473224109304046792e+00 5.259910285029957322e+02
1.473324131308888063e+00 5.259325037662059685e+02
1.473424153313728890e+00 5.258736942418227045e+02
1.473524175318569940e+00 5.258146004818548818e+02
1.473624197323410989e+00 5.257552230461336649e+02
1.473724219328252039e+00 5.256955625022993672e+02
1.473824241333093088e+00 5.256356194257958805e+02
1.473924263337934359e+00 5.255753943998599880e+02
1.474024285342775409e+00 5.255148880155110191e+02
1.474124307347616236e+00 5.254541008715415273e+02
1.474224329352457286e+00 5.253930335745077400e+02
1.474324351357298557e+00 5.253316867387179627e+02
1.474424373362139606e+00 5.252700609862220062e+02
1.474524395366980656e+00 5.252081569468026601e+02
1.474624417371821705e+00 5.251459752579602309e+02
1.474724439376662755e+00 5.250835165649054943e+02
1.474824461381503582e+00 5.250207815205451425e+02
1.474924483386344853e+00 5.249577707854710980e+02
1.475024505391185903e+00 5.248944850279477805e+02
1.475124527396026952e+00 5.248309249239009660e+02
1.475224549400868224e+00 5.247670911569028931e+02
1.475324571405709273e+00 5.247029844181613498e+02
1.475424593410550322e+00 5.246386054065064855e+02
1.475524615415391150e+00 5.245739548283755767e+02
1.475624637420232199e+00 5.245090333978022272e+02
1.475724659425073249e+00 5.244438418363988603e+02
1.475824681429914520e+00 5.243783808733464866e+02
1.475924703434755569e+00 5.243126512453775376e+02
1.476024725439596619e+00 5.242466536967629054e+02
1.476124747444437890e+00 5.241803889792955715e+02
1.476224769449278718e+00 5.241138578522770786e+02
1.476324791454119767e+00 5.240470610825005906e+02
1.476424813458960816e+00 5.239799994442373645e+02
1.476524835463801866e+00 5.239126737192192422e+02
1.476624857468642915e+00 5.238450846966223935e+02
1.476724879473484187e+00 5.237772331730528776e+02
1.476824901478325236e+00 5.237091199525281127e+02
1.476924923483166063e+00 5.236407458464609590e+02
1.477024945488007113e+00 5.235721116736430076e+02
1.477124967492848384e+00 5.235032182602265038e+02
1.477224989497689434e+00 5.234340664397085447e+02
1.477325011502530483e+00 5.233646570529094788e+02
1.477425033507371532e+00 5.232949909479602866e+02
1.477525055512212582e+00 5.232250689802802981e+02
1.477625077517053409e+00 5.231548920125591167e+02
1.477725099521894681e+00 5.230844609147409301e+02
1.477825121526735730e+00 5.230137765640020007e+02
1.477925143531576779e+00 5.229428398447334985e+02
1.478025165536418051e+00 5.228716516485210377e+02
1.478125187541259100e+00 5.228002128741268280e+02
1.478225209546100150e+00 5.227285244274663683e+02
1.478325231550940977e+00 5.226565872215941226e+02
1.478425253555782026e+00 5.225844021766758942e+02
1.478525275560623076e+00 5.225119702199741596e+02
1.478625297565464347e+00 5.224392922858238535e+02
1.478725319570305397e+00 5.223663693156142926e+02
1.478825341575146446e+00 5.222932022577641646e+02
1.478925363579987717e+00 5.222197920677040202e+02
1.479025385584828545e+00 5.221461397078519440e+02
1.479125407589669594e+00 5.220722461475909313e+02
1.479225429594510643e+00 5.219981123632499020e+02
1.479325451599351693e+00 5.219237393380793719e+02
1.479425473604192742e+00 5.218491280622281465e+02
1.479525495609034014e+00 5.217742795327213798e+02
1.479625517613875063e+00 5.216991947534384053e+02
1.479725539618715890e+00 5.216238747350868152e+02
1.479825561623556940e+00 5.215483204951821108e+02
1.479925583628398211e+00 5.214725330580215541e+02
1.480025605633239261e+00 5.213965134546616582e+02
1.480125627638080310e+00 5.213202627228927213e+02
1.480225649642921359e+00 5.212437819072157481e+02
1.480325671647762409e+00 5.211670720588166432e+02
1.480425693652603236e+00 5.210901342355423367e+02
1.480525715657444508e+00 5.210129695018754319e+02
1.480625737662285557e+00 5.209355789289083987e+02
1.480725759667126606e+00 5.208579635943181074e+02
1.480825781671967878e+00 5.207801245823420686e+02
1.480925803676808927e+00 5.207020629837493289e+02
1.481025825681649977e+00 5.206237798958171652e+02
1.481125847686490804e+00 5.205452764223010718e+02
1.481225869691331853e+00 5.204665536734144098e+02
1.481325891696172903e+00 5.203876127657945290e+02
1.481425913701014174e+00 5.203084548224805985e+02
1.481525935705855224e+00 5.202290809728851855e+02
1.481625957710696273e+00 5.201494923527649235e+02
1.481725979715537544e+00 5.200696901041969795e+02
1.481826001720378372e+00 5.199896753755460850e+02
1.481926023725219421e+00 5.199094493214411159e+02
1.482026045730060471e+00 5.198290131027448524e+02
1.482126067734901520e+00 5.197483678865241927e+02
1.482226089739742569e+00 5.196675148460241189e+02
1.482326111744583841e+00 5.195864551606371151e+02
1.482426133749424890e+00 5.195051900158755416e+02
1.482526155754265718e+00 5.194237206033396888e+02
1.482626177759106767e+00 5.193420481206918566e+02
1.482726199763948038e+00 5.192601737716244088e+02
1.482826221768789088e+00 5.191780987658305548e+02
1.482926243773630137e+00 5.190958243189730865e+02
1.483026265778471187e+00 5.190133516526572066e+02
1.483126287783312236e+00 5.189306819943963092e+02
1.483226309788153063e+00 5.188478165775843536e+02
1.483326331792994335e+00 5.187647566414638050e+02
1.483426353797835384e+00 5.186815034310935744e+02
1.483526375802676434e+00 5.185980581973193466e+02
1.483626397807517705e+00 5.185144221967427711e+02
1.483726419812358754e+00 5.184305966916874695e+02
1.483826441817199804e+00 5.183465829501685675e+02
1.483926463822040631e+00 5.182623822458619998e+02
1.484026485826881681e+00 5.181779958580691527e+02
1.484126507831722730e+00 5.180934250716877614e+02
1.484226529836564001e+00 5.180086711771779164e+02
1.484326551841405051e+00 5.179237354705289818e+02
1.484426573846246100e+00 5.178386192532268524e+02
1.484526595851087372e+00 5.177533238322218949e+02
1.484626617855928199e+00 5.176678505198946141e+02
1.484726639860769248e+00 5.175822006340232520e+02
1.484826661865610298e+00 5.174963754977474082e+02
1.484926683870451347e+00 5.174103764395389362e+02
1.485026705875292397e+00 5.173242047931632897e+02
1.485126727880133668e+00 5.172378618976484859e+02
1.485226749884974717e+00 5.171513490972495219e+02
1.485326771889815545e+00 5.170646677414124497e+02
1.485426793894656594e+00 5.169778191847441349e+02
1.485526815899497866e+00 5.168908047869720122e+02
1.485626837904338915e+00 5.168036259129132759e+02
1.485726859909179964e+00 5.167162839324366814e+02
1.485826881914021014e+00 5.166287802204294621e+02
1.485926903918862063e+00 5.165411161567598128e+02
1.486026925923702890e+00 5.164532931262448301e+02
1.486126947928544162e+00 5.163653125186079933e+02
1.486226969933385211e+00 5.162771757284504019e+02
1.486326991938226261e+00 5.161888841552105305e+02
1.486427013943067532e+00 5.161004392031281895e+02
1.486527035947908582e+00 5.160118422812096242e+02
1.486627057952749631e+00 5.159230948031890875e+02
1.486727079957590458e+00 5.158341981874938256e+02
1.486827101962431508e+00 5.157451538572038316e+02
1.486927123967272557e+00 5.156559632400193323e+02
1.487027145972113829e+00 5.155666277682198597e+02
1.487127167976954878e+00 5.154771488786286682e+02
1.487227189981795927e+00 5.153875280125745348e+02
1.487327211986637199e+00 5.152977666158526517e+02
1.487427233991478026e+00 5.152078661386899512e+02
1.487527255996319075e+00 5.151178280357041785e+02
1.487627278001160125e+00 5.150276537658676261e+02
1.487727300006001174e+00 5.149373447924677976e+02
1.487827322010842224e+00 5.148469025830676173e+02
1.487927344015683495e+00 5.147563286094701880e+02
1.488027366020524545e+00 5.146656243476763848e+02
1.488127388025365372e+00 5.145747912778496129e+02
1.488227410030206421e+00 5.144838308842736296e+02
1.488327432035047693e+00 5.143927446553148002e+02
1.488427454039888742e+00 5.143015340833819664e+02
1.488527476044729791e+00 5.142102006648890438e+02
1.488627498049570841e+00 5.141187459002131845e+02
1.488727520054411890e+00 5.140271712936548738e+02
1.488827542059252718e+00 5.139354783534013222e+02
1.488927564064093989e+00 5.138436685914821282e+02
1.489027586068935038e+00 5.137517435237324435e+02
1.489127608073776088e+00 5.136597046697511360e+02
1.489227630078617359e+00 5.135675535528605451e+02
1.489327652083458409e+00 5.134752917000680554e+02
1.489427674088299458e+00 5.133829206420207356e+02
1.489527696093140285e+00 5.132904419129696407e+02
1.489627718097981335e+00 5.131978570507277482e+02
1.489727740102822384e+00 5.131051675966250514e+02
1.489827762107663656e+00 5.130123750954734305e+02
1.489927784112504705e+00 5.129194810955214052e+02
1.490027806117345754e+00 5.128264871484136620e+02
1.490127828122187026e+00 5.127333948091498996e+02
1.490227850127027853e+00 5.126402056360445840e+02
1.490327872131868903e+00 5.125469211906822693e+02
1.490427894136709952e+00 5.124535430378782621e+02
1.490527916141551001e+00 5.123600727456358754e+02
1.490627938146392051e+00 5.122665118851036823e+02
1.490727960151233322e+00 5.121728620305366348e+02
1.490827982156074150e+00 5.120791247592485433e+02
1.490928004160915199e+00 5.119853016515734794e+02
1.491028026165756248e+00 5.118913942908246213e+02
1.491128048170597520e+00 5.117974042632463352e+02
1.491228070175438569e+00 5.117033331579773403e+02
1.491328092180279619e+00 5.116091825670038133e+02
1.491428114185120668e+00 5.115149540851199390e+02
1.491528136189961495e+00 5.114206493098815827e+02
1.491628158194802545e+00 5.113262698415662157e+02
1.491728180199643816e+00 5.112318172831286915e+02
1.491828202204484866e+00 5.111372932401559410e+02
1.491928224209325915e+00 5.110426993208280919e+02
1.492028246214167186e+00 5.109480371358723119e+02
1.492128268219008236e+00 5.108533082985184137e+02
1.492228290223849063e+00 5.107585144244574167e+02
1.492328312228690113e+00 5.106636571317973790e+02
1.492428334233531162e+00 5.105687380410188325e+02
1.492528356238372211e+00 5.104737587749319800e+02
1.492628378243213483e+00 5.103787209586325275e+02
1.492728400248054532e+00 5.102836262194566075e+02
1.492828422252895582e+00 5.101884761869393969e+02
1.492928444257736409e+00 5.100932724927672552e+02
1.493028466262577680e+00 5.099980167707383885e+02
1.493128488267418730e+00 5.099027106567123155e+02
1.493228510272259779e+00 5.098073557885720675e+02
1.493328532277100829e+00 5.097119538061756430e+02
1.493428554281941878e+00 5.096165063513117275e+02
1.493528576286783149e+00 5.095210150676576291e+02
1.493628598291623977e+00 5.094254816007322688e+02
1.493728620296465026e+00 5.093299075978522978e+02
1.493828642301306076e+00 5.092342947080876456e+02
1.493928664306147347e+00 5.091386445822168980e+02
1.494028686310988396e+00 5.090429588726806855e+02
1.494128708315829446e+00 5.089472392335395057e+02
1.494228730320670495e+00 5.088514873204272817e+02
1.494328752325511322e+00 5.087557047905048080e+02
1.494428774330352372e+00 5.086598933024187090e+02
1.494528796335193643e+00 5.085640545162511899e+02
1.494628818340034693e+00 5.084681900934798477e+02
1.494728840344875742e+00 5.083723016969287869e+02
1.494828862349717014e+00 5.082763909907253606e+02
1.494928884354558063e+00 5.081804596402530478e+02
1.495028906359398890e+00 5.080845093121079685e+02
1.495128928364239940e+00 5.079885416740527830e+02
1.495228950369080989e+00 5.078925583949708198e+02
1.495328972373922038e+00 5.077965611448194636e+02
1.495428994378763310e+00 5.077005515945886032e+02
1.495529016383604359e+00 5.076045314162504951e+02
1.495629038388445409e+00 5.075085022827161652e+02
1.495729060393286236e+00 5.074124658677906154e+02
1.495829082398127508e+00 5.073164238461243372e+02
1.495929104402968557e+00 5.072203778931714169e+02
1.496029126407809606e+00 5.071243296851401965e+02
1.496129148412650656e+00 5.070282808989505838e+02
1.496229170417491705e+00 5.069322332121842010e+02
1.496329192422332977e+00 5.068361883030432864e+02
1.496429214427173804e+00 5.067401478503022645e+02
1.496529236432014853e+00 5.066441135332599970e+02
1.496629258436855903e+00 5.065480870316993105e+02
1.496729280441697174e+00 5.064520700258349279e+02
1.496829302446538223e+00 5.063560641962723139e+02
1.496929324451379273e+00 5.062600712239581071e+02
1.497029346456220322e+00 5.061640927901369196e+02
1.497129368461061150e+00 5.060681305763033606e+02
1.497229390465902199e+00 5.059721862641582675e+02
1.497329412470743470e+00 5.058762615355594789e+02
1.497429434475584520e+00 5.057803580724781796e+02
1.497529456480425569e+00 5.056844775569527428e+02
1.497629478485266841e+00 5.055886216710416647e+02
1.497729500490107890e+00 5.054927920967778618e+02
1.497829522494948717e+00 5.053969905161232532e+02
1.497929544499789767e+00 5.053012186109225468e+02
1.498029566504630816e+00 5.052054780628555477e+02
1.498129588509471866e+00 5.051097705533932185e+02
1.498229610514313137e+00 5.050140977637504420e+02
1.498329632519154186e+00 5.049184613748410015e+02
1.498429654523995236e+00 5.048228630672297186e+02
1.498529676528836063e+00 5.047273045210889109e+02
1.498629698533677335e+00 5.046317874161485406e+02
1.498729720538518384e+00 5.045363134316554579e+02
1.498829742543359433e+00 5.044408842463220708e+02
1.498929764548200483e+00 5.043455015382842817e+02
1.499029786553041532e+00 5.042501669850535109e+02
1.499129808557882804e+00 5.041548822634709381e+02
1.499229830562723631e+00 5.040596490496616866e+02
1.499329852567564680e+00 5.039644690189896892e+02
1.499429874572405730e+00 5.038693438460096559e+02
1.499529896577247001e+00 5.037742752044244412e+02
1.499629918582088051e+00 5.036792647670351357e+02
1.499729940586929100e+00 5.035843142056991155e+02
1.499829962591770149e+00 5.034894251912813843e+02
1.499929984596610977e+00 5.033945993936104628e+02
1.500030006601452026e+00 5.212837547263289935e+02
1.500130028606293298e+00 5.214347533505639376e+02
1.500230050611134347e+00 5.215856111925579626e+02
1.500330072615975396e+00 5.217363260241245371e+02
1.500430094620816668e+00 5.218868956227192939e+02
1.500530116625657717e+00 5.220373177715063093e+02
1.500630138630498545e+00 5.221875902594243826e+02
1.500730160635339594e+00 5.223377108812520646e+02
1.500830182640180643e+00 5.224876774376733692e+02
1.500930204645021693e+00 5.226374877353453030e+02
1.501030226649862964e+00 5.227871395869586877e+02
1.501130248654704014e+00 5.229366308113067134e+02
1.501230270659545063e+00 5.230859592333484898e+02
1.501330292664385890e+00 5.232351226842708911e+02
1.501430314669227162e+00 5.233841190015567690e+02
1.501530336674068211e+00 5.235329460290445240e+02
1.501630358678909261e+00 5.236816016169946124e+02
1.501730380683750310e+00 5.238300836221509371e+02
1.501830402688591359e+00 5.239783899078032618e+02
1.501930424693432631e+00 5.241265183438523536e+02
1.502030446698273458e+00 5.242744668068694409e+02
1.502130468703114508e+00 5.244222331801588552e+02
1.502230490707955557e+00 5.245698153538211272e+02
1.502330512712796828e+00 5.247172112248132407e+02
1.502430534717637878e+00 5.248644186970093415e+02
1.502530556722478927e+00 5.250114356812620144e+02
1.502630578727319977e+00 5.251582600954629925e+02
1.502730600732160804e+00 5.253048898646036378e+02
1.502830622737001853e+00 5.254513229208332632e+02
1.502930644741843125e+00 5.255975572035204095e+02
1.503030666746684174e+00 5.257435906593110531e+02
1.503130688751525224e+00 5.258894212421880638e+02
1.503230710756366495e+00 5.260350469135290723e+02
1.503330732761207544e+00 5.261804656421660411e+02
1.503430754766048372e+00 5.263256754044419949e+02
1.503530776770889421e+00 5.264706741842693418e+02
1.503630798775730470e+00 5.266154599731869439e+02
1.503730820780571520e+00 5.267600307704170746e+02
1.503830842785412791e+00 5.269043845829219208e+02
1.503930864790253841e+00 5.270485194254617909e+02
1.504030886795094890e+00 5.271924333206465008e+02
1.504130908799935717e+00 5.273361242989967650e+02
1.504230930804776989e+00 5.274795903989956969e+02
1.504330952809618038e+00 5.276228296671442877e+02
1.504430974814459088e+00 5.277658401580173404e+02
1.504530996819300137e+00 5.279086199343171302e+02
1.504631018824141186e+00 5.280511670669270643e+02
1.504731040828982458e+00 5.281934796349645467e+02
1.504831062833823285e+00 5.283355557258367980e+02
1.504931084838664335e+00 5.284773934352907645e+02
1.505031106843505384e+00 5.286189908674671187e+02
1.505131128848346656e+00 5.287603461349532381e+02
1.505231150853187705e+00 5.289014573588333405e+02
1.505331172858028754e+00 5.290423226687398710e+02
1.505431194862869804e+00 5.291829402029065932e+02
1.505531216867710631e+00 5.293233081082182707e+02
1.505631238872551680e+00 5.294634245402593251e+02
1.505731260877392952e+00 5.296032876633670412e+02
1.505831282882234001e+00 5.297428956506788609e+02
1.505931304887075051e+00 5.298822466841812684e+02
1.506031326891916322e+00 5.300213389547619727e+02
1.506131348896757371e+00 5.301601706622541315e+02
1.506231370901598199e+00 5.302987400154869420e+02
1.506331392906439248e+00 5.304370452323332756e+02
1.506431414911280298e+00 5.305750845397565172e+02
1.506531436916121347e+00 5.307128561738574035e+02
1.506631458920962618e+00 5.308503583799215448e+02
1.506731480925803668e+00 5.309875894124637625e+02
1.506831502930644717e+00 5.311245475352766334e+02
1.506931524935485545e+00 5.312612310214730087e+02
1.507031546940326816e+00 5.313976381535331939e+02
1.507131568945167865e+00 5.315337672233487183e+02
1.507231590950008915e+00 5.316696165322667866e+02
1.507331612954849964e+00 5.318051843911329115e+02
1.507431634959691014e+00 5.319404691203377524e+02
1.507531656964532285e+00 5.320754690498553146e+02
1.507631678969373112e+00 5.322101825192894466e+02
1.507731700974214162e+00 5.323446078779152231e+02
1.507831722979055211e+00 5.324787434847191889e+02
1.507931744983896483e+00 5.326125877084421063e+02
1.508031766988737532e+00 5.327461389276205637e+02
1.508131788993578581e+00 5.328793955306261978e+02
1.508231810998419409e+00 5.330123559157067348e+02
1.508331833003260458e+00 5.331450184910254393e+02
1.508431855008101508e+00 5.332773816746999955e+02
1.508531877012942779e+00 5.334094438948438892e+02
1.508631899017783828e+00 5.335412035896000589e+02
1.508731921022624878e+00 5.336726592071852338e+02
1.508831943027466149e+00 5.338038092059221071e+02
1.508931965032306977e+00 5.339346520542802637e+02
1.509031987037148026e+00 5.340651862309109674e+02
1.509132009041989075e+00 5.341954102246852472e+02
1.509232031046830125e+00 5.343253225347276612e+02
1.509332053051671174e+00 5.344549216704538139e+02
1.509432075056512446e+00 5.345842061516057129e+02
1.509532097061353495e+00 5.347131745082840553e+02
1.509632119066194322e+00 5.348418252809855176e+02
1.509732141071035372e+00 5.349701570206344741e+02
1.509832163075876643e+00 5.350981682886169892e+02
1.509932185080717693e+00 5.352258576568145827e+02
1.510032207085558742e+00 5.353532237076352658e+02
1.510132229090399791e+00 5.354802650340469654e+02
1.510232251095240841e+00 5.356069802396099249e+02
1.510332273100081668e+00 5.357333679385042160e+02
1.510432295104922940e+00 5.358594267555652095e+02
1.510532317109763989e+00 5.359851553263108599e+02
1.510632339114605038e+00 5.361105522969731965e+02
1.510732361119446310e+00 5.362356163245262906e+02
1.510832383124287359e+00 5.363603460767164961e+02
1.510932405129128409e+00 5.364847402320908714e+02
1.511032427133969236e+00 5.366087974800250322e+02
1.511132449138810285e+00 5.367325165207502096e+02
1.511232471143651335e+00 5.368558960653824670e+02
1.511332493148492606e+00 5.369789348359463474e+02
1.511432515153333656e+00 5.371016315654046593e+02
1.511532537158174705e+00 5.372239849976817823e+02
1.511632559163015976e+00 5.373459938876908382e+02
1.511732581167856804e+00 5.374676570013558603e+02
1.511832603172697853e+00 5.375889731156408970e+02
1.511932625177538903e+00 5.377099410185696797e+02
1.512032647182379952e+00 5.378305595092513158e+02
1.512132669187221001e+00 5.379508273979033675e+02
1.512232691192062273e+00 5.380707435058741339e+02
1.512332713196903322e+00 5.381903066656645933e+02
1.512432735201744149e+00 5.383095157209519357e+02
1.512532757206585199e+00 5.384283695266070708e+02
1.512632779211426470e+00 5.385468669487203215e+02
1.512732801216267520e+00 5.386650068646183627e+02
1.512832823221108569e+00 5.387827881628851401e+02
1.512932845225949618e+00 5.389002097433814242e+02
1.513032867230790668e+00 5.390172705172635688e+02
1.513132889235631495e+00 5.391339694070027235e+02
1.513232911240472767e+00 5.392503053464014329e+02
1.513332933245313816e+00 5.393662772806135308e+02
1.513432955250154865e+00 5.394818841661588067e+02
1.513532977254996137e+00 5.395971249709407402e+02
1.513632999259837186e+00 5.397119986742636684e+02
1.513733021264678236e+00 5.398265042668465412e+02
1.513833043269519063e+00 5.399406407508403163e+02
1.513933065274360112e+00 5.400544071398396682e+02
1.514033087279201162e+00 5.401678024589018605e+02
1.514133109284042433e+00 5.402808257445556137e+02
1.514233131288883483e+00 5.403934760448188399e+02
1.514333153293724532e+00 5.405057524192078517e+02
1.514433175298565804e+00 5.406176539387530511e+02
1.514533197303406631e+00 5.407291796860080240e+02
1.514633219308247680e+00 5.408403287550634104e+02
1.514733241313088730e+00 5.409511002515559994e+02
1.514833263317929779e+00 5.410614932926808933e+02
1.514933285322770828e+00 5.411715070072003755e+02
1.515033307327612100e+00 5.412811405354543695e+02
1.515133329332453149e+00 5.413903930293683970e+02
1.515233351337293977e+00 5.414992636524638101e+02
1.515333373342135026e+00 5.416077515798647255e+02
1.515433395346976297e+00 5.417158559983059831e+02
1.515533417351817347e+00 5.418235761061414451e+02
1.515633439356658396e+00 5.419309111133482020e+02
1.515733461361499446e+00 5.420378602415356681e+02
1.515833483366340495e+00 5.421444227239497877e+02
1.515933505371181322e+00 5.422505978054795150e+02
1.516033527376022594e+00 5.423563847426594293e+02
1.516133549380863643e+00 5.424617828036770106e+02
1.516233571385704693e+00 5.425667912683736631e+02
1.516333593390545964e+00 5.426714094282513088e+02
1.516433615395387013e+00 5.427756365864720465e+02
1.516533637400228063e+00 5.428794720578629267e+02
1.516633659405068890e+00 5.429829151689173159e+02
1.516733681409909940e+00 5.430859652577953511e+02
1.516833703414750989e+00 5.431886216743273508e+02
1.516933725419592260e+00 5.432908837800119954e+02
1.517033747424433310e+00 5.433927509480176923e+02
1.517133769429274359e+00 5.434942225631807560e+02
1.517233791434115631e+00 5.435952980220077961e+02
1.517333813438956458e+00 5.436959767326703741e+02
1.517433835443797507e+00 5.437962581150063670e+02
1.517533857448638557e+00 5.438961416005157616e+02
1.517633879453479606e+00 5.439956266323580394e+02
1.517733901458320656e+00 5.440947126653503574e+02
1.517833923463161927e+00 5.441933991659620915e+02
1.517933945468002976e+00 5.442916856123122216e+02
1.518033967472843804e+00 5.443895714941637607e+02
1.518133989477684853e+00 5.444870563129176162e+02
1.518234011482526125e+00 5.445841395816100885e+02
1.518334033487367174e+00 5.446808208249034351e+02
1.518434055492208223e+00 5.447770995790809820e+02
1.518534077497049273e+00 5.448729753920403027e+02
1.518634099501890322e+00 5.449684478232850324e+02
1.518734121506731150e+00 5.450635164439171376e+02
1.518834143511572421e+00 5.451581808366287305e+02
1.518934165516413470e+00 5.452524405956921782e+02
1.519034187521254520e+00 5.453462953269531681e+02
1.519134209526095791e+00 5.454397446478168376e+02
1.519234231530936841e+00 5.455327881872419766e+02
1.519334253535777890e+00 5.456254255857265889e+02
1.519434275540618717e+00 5.457176564952992521e+02
1.519534297545459767e+00 5.458094805795052480e+02
1.519634319550300816e+00 5.459008975133967851e+02
1.519734341555142088e+00 5.459919069835175378e+02
1.519834363559983137e+00 5.460825086878916181e+02
1.519934385564824186e+00 5.461727023360091380e+02
1.520034407569665458e+00 5.462624876488129075e+02
1.520134429574506285e+00 5.463518643586834287e+02
1.520234451579347335e+00 5.464408322094228652e+02
1.520334473584188384e+00 5.465293909562421959e+02
1.520434495589029433e+00 5.466175403657422294e+02
1.520534517593870483e+00 5.467052802159003022e+02
1.520634539598711754e+00 5.467926102960503840e+02
1.520734561603552804e+00 5.468795304068689802e+02
1.520834583608393631e+00 5.469660403603545547e+02
1.520934605613234680e+00 5.470521399798112725e+02
1.521034627618075952e+00 5.471378290998292186e+02
1.521134649622917001e+00 5.472231075662663216e+02
1.521234671627758051e+00 5.473079752362282306e+02
1.521334693632599100e+00 5.473924319780473979e+02
1.521434715637440149e+00 5.474764776712645471e+02
1.521534737642280977e+00 5.475601122066063908e+02
1.521634759647122248e+00 5.476433354859643714e+02
1.521734781651963297e+00 5.477261474223731739e+02
1.521834803656804347e+00 5.478085479399893529e+02
1.521934825661645618e+00 5.478905369740658671e+02
1.522034847666486668e+00 5.479721144709321834e+02
1.522134869671327717e+00 5.480532803879682433e+02
1.522234891676168544e+00 5.481340346935818388e+02
1.522334913681009594e+00 5.482143773671837153e+02
1.522434935685850643e+00 5.482943083991625599e+02
1.522534957690691915e+00 5.483738277908587406e+02
1.522634979695532964e+00 5.484529355545400904e+02
1.522735001700374013e+00 5.485316317133758730e+02
1.522835023705215285e+00 5.486099163014067699e+02
1.522935045710056112e+00 5.486877893635218015e+02
1.523035067714897162e+00 5.487652509554293374e+02
1.523135089719738211e+00 5.488423011436270826e+02
1.523235111724579260e+00 5.489189400053767258e+02
1.523335133729420310e+00 5.489951676286738120e+02
1.523435155734261581e+00 5.490709841122169337e+02
1.523535177739102631e+00 5.491463895653810141e+02
1.523635199743943458e+00 5.492213841081844521e+02
1.523735221748784507e+00 5.492959678712595633e+02
1.523835243753625779e+00 5.493701409958225668e+02
1.523935265758466828e+00 5.494439036336407298e+02
1.524035287763307878e+00 5.495172559469998532e+02
1.524135309768148927e+00 5.495901981086742580e+02
1.524235331772989976e+00 5.496627303018931343e+02
1.524335353777830804e+00 5.497348527203064350e+02
1.524435375782672075e+00 5.498065655679521342e+02
1.524535397787513125e+00 5.498778690592223484e+02
1.524635419792354174e+00 5.499487634188293441e+02
1.524735441797195445e+00 5.500192488817693857e+02
1.524835463802036495e+00 5.500893256932891973e+02
1.524935485806877544e+00 5.501589941088490150e+02
1.525035507811718372e+00 5.502282543940873438e+02
1.525135529816559421e+00 5.502971068247842368e+02
1.525235551821400470e+00 5.503655516868248014e+02
1.525335573826241742e+00 5.504335892761614559e+02
1.525435595831082791e+00 5.505012198987762986e+02
1.525535617835923841e+00 5.505684438706443871e+02
1.525635639840764668e+00 5.506352615176925838e+02
1.525735661845605939e+00 5.507016731757638581e+02
1.525835683850446989e+00 5.507676791905764730e+02
1.525935705855288038e+00 5.508332799176833987e+02
1.526035727860129088e+00 5.508984757224345685e+02
1.526135749864970137e+00 5.509632669799356108e+02
1.526235771869811408e+00 5.510276540750048753e+02
1.526335793874652236e+00 5.510916374021358024e+02
1.526435815879493285e+00 5.511552173654533817e+02
1.526535837884334335e+00 5.512183943786724285e+02
1.526635859889175606e+00 5.512811688650556334e+02
1.526735881894016655e+00 5.513435412573703616e+02
1.526835903898857705e+00 5.514055119978453376e+02
1.526935925903698754e+00 5.514670815381285820e+02
1.527035947908539582e+00 5.515282503392420494e+02
1.527135969913380631e+00 5.515890188715388831e+02
1.527235991918221902e+00 5.516493876146564617e+02
1.527336013923062952e+00 5.517093570574746764e+02
1.527436035927904001e+00 5.517689276980677278e+02
1.527536057932745273e+00 5.518281000436600152e+02
1.527636079937586322e+00 5.518868746105807759e+02
1.527736101942427149e+00 5.519452519242153130e+02
1.527836123947268199e+00 5.520032325189595213e+02
1.527936145952109248e+00 5.520608169381739572e+02
1.528036167956950298e+00 5.521180057341343854e+02
1.528136189961791569e+00 5.521747994679860767e+02
1.528236211966632618e+00 5.522311987096925350e+02
1.528336233971473668e+00 5.522872040379905911e+02
1.528436255976314495e+00 5.523428160403382208e+02
1.528536277981155767e+00 5.523980353128687284e+02
1.528636299985996816e+00 5.524528624603378830e+02
1.528736321990837865e+00 5.525072980960765108e+02
1.528836343995678915e+00 5.525613428419384263e+02
1.528936366000519964e+00 5.526149973282515475e+02
1.529036388005361236e+00 5.526682621937659405e+02
1.529136410010202063e+00 5.527211380856025471e+02
1.529236432015043112e+00 5.527736256592021391e+02
1.529336454019884162e+00 5.528257255782735911e+02
1.529436476024725433e+00 5.528774385147407884e+02
1.529536498029566483e+00 5.529287651486907862e+02
1.529636520034407532e+00 5.529797061683203765e+02
1.529736542039248581e+00 5.530302622698841333e+02
1.529836564044089409e+00 5.530804341576399565e+02
1.529936586048930458e+00 5.531302225437950710e+02
1.530036608053771729e+00 5.531796281484517976e+02
1.530136630058612779e+00 5.532286516995545753e+02
1.530236652063453828e+00 5.532772939328337998e+02
1.530336674068295100e+00 5.533255555917514812e+02
1.530436696073136149e+00 5.533734374274450829e+02
1.530536718077976976e+00 5.534209401986740886e+02
1.530636740082818026e+00 5.534680646717602031e+02
1.530736762087659075e+00 5.535148116205352835e+02
1.530836784092500125e+00 5.535611818262822226e+02
1.530936806097341396e+00 5.536071760776785595e+02
1.531036828102182445e+00 5.536527951707398643e+02
1.531136850107023495e+00 5.536980399087626665e+02
1.531236872111864322e+00 5.537429111022654524e+02
1.531336894116705594e+00 5.537874095689332989e+02
1.531436916121546643e+00 5.538315361335551188e+02
1.531536938126387692e+00 5.538752916279703413e+02
1.531636960131228742e+00 5.539186768910068395e+02
1.531736982136069791e+00 5.539616927684234042e+02
1.531837004140911063e+00 5.540043401128491496e+02
1.531937026145751890e+00 5.540466197837241680e+02
1.532037048150592939e+00 5.540885326472416637e+02
1.532137070155433989e+00 5.541300795762858797e+02
1.532237092160275260e+00 5.541712614503710483e+02
1.532337114165116310e+00 5.542120791555832966e+02
1.532437136169957359e+00 5.542525335845178915e+02
1.532537158174798408e+00 5.542926256362184176e+02
1.532637180179639236e+00 5.543323562161166365e+02
1.532737202184480285e+00 5.543717262359687084e+02
1.532837224189321557e+00 5.544107366137947110e+02
1.532937246194162606e+00 5.544493882738178172e+02
1.533037268199003655e+00 5.544876821463985834e+02
1.533137290203844927e+00 5.545256191679759468e+02
1.533237312208685976e+00 5.545632002810014001e+02
1.533337334213526804e+00 5.546004264338782832e+02
1.533437356218367853e+00 5.546372985808978910e+02
1.533537378223208902e+00 5.546738176821746720e+02
1.533637400228049952e+00 5.547099847035852918e+02
1.533737422232891223e+00 5.547458006167004214e+02
1.533837444237732273e+00 5.547812663987267570e+02
1.533937466242573322e+00 5.548163830324357377e+02
1.534037488247414149e+00 5.548511515061048840e+02
1.534137510252255421e+00 5.548855728134492438e+02
1.534237532257096470e+00 5.549196479535581830e+02
1.534337554261937520e+00 5.549533779308300154e+02
1.534437576266778569e+00 5.549867637549062920e+02
1.534537598271619618e+00 5.550198064406058620e+02
1.534637620276460890e+00 5.550525070078599583e+02
1.534737642281301717e+00 5.550848664816465998e+02
1.534837664286142767e+00 5.551168858919232889e+02
1.534937686290983816e+00 5.551485662735600499e+02
1.535037708295825087e+00 5.551799086662766740e+02
1.535137730300666137e+00 5.552109141145707554e+02
1.535237752305507186e+00 5.552415836676552772e+02
1.535337774310348236e+00 5.552719183793884667e+02
1.535437796315189063e+00 5.553019193082097900e+02
1.535537818320030112e+00 5.553315875170685558e+02
1.535637840324871384e+00 5.553609240733604793e+02
1.535737862329712433e+00 5.553899300488563995e+02
1.535837884334553483e+00 5.554186065196374784e+02
1.535937906339394754e+00 5.554469545660250560e+02
1.536037928344235803e+00 5.554749752725133476e+02
1.536137950349076631e+00 5.555026697277010044e+02
1.536237972353917680e+00 5.555300390242223330e+02
1.536337994358758730e+00 5.555570842586791969e+02
1.536438016363599779e+00 5.555838065315725771e+02
1.536538038368441050e+00 5.556102069472326548e+02
1.536638060373282100e+00 5.556362866137502579e+02
1.536738082378123149e+00 5.556620466429075123e+02
1.536838104382963976e+00 5.556874881501088339e+02
1.536938126387805248e+00 5.557126122543124893e+02
1.537038148392646297e+00 5.557374200779570401e+02
1.537138170397487347e+00 5.557619127468984743e+02
1.537238192402328396e+00 5.557860913903342635e+02
1.537338214407169446e+00 5.558099571407353778e+02
1.537438236412010717e+00 5.558335111337777334e+02
1.537538258416851544e+00 5.558567545082705692e+02
1.537638280421692594e+00 5.558796884060861885e+02
1.537738302426533643e+00 5.559023139720912923e+02
1.537838324431374915e+00 5.559246323540733101e+02
1.537938346436215964e+00 5.559466447026735523e+02
1.538038368441057013e+00 5.559683521713141090e+02
1.538138390445898063e+00 5.559897559161278195e+02
1.538238412450738890e+00 5.560108570958873315e+02
1.538338434455579939e+00 5.560316568719347288e+02
1.538438456460421211e+00 5.560521564081105907e+02
1.538538478465262260e+00 5.560723568706818014e+02
1.538638500470103310e+00 5.560922594282706086e+02
1.538738522474944581e+00 5.561118652517852752e+02
1.538838544479785631e+00 5.561311755143465234e+02
1.538938566484626458e+00 5.561501913912181863e+02
1.539038588489467507e+00 5.561689140597326286e+02
1.539138610494308557e+00 5.561873446992240133e+02
1.539238632499149606e+00 5.562054844909512212e+02
1.539338654503990877e+00 5.562233346180314584e+02
1.539438676508831927e+00 5.562408962653656772e+02
1.539538698513672976e+00 5.562581706195663855e+02
1.539638720518513804e+00 5.562751588688880702e+02
1.539738742523355075e+00 5.562918622031542100e+02
1.539838764528196124e+00 5.563082818136851984e+02
1.539938786533037174e+00 5.563244188932271754e+02
1.540038808537878223e+00 5.563402746358797231e+02
