1.600052011442517408e+00 5.505314194628310815e+02
1.600152033447358235e+00 5.505212093395879265e+02
1.600252055452199285e+00 5.505112779785972634e+02
1.600352077457040334e+00 5.505016250409923941e+02
1.600452099461881605e+00 5.504922501793812444e+02
1.600552121466722655e+00 5.504831530378530715e+02
1.600652143471563704e+00 5.504743332519864225e+02
1.600752165476404754e+00 5.504657904488583426e+02
1.600852187481245581e+00 5.504575242470486955e+02
1.600952209486086630e+00 5.504495342566528961e+02
1.601052231490927902e+00 5.504418200792878224e+02
1.601152253495768951e+00 5.504343813080996597e+02
1.601252275500610001e+00 5.504272175277750421e+02
1.601352297505451272e+00 5.504203283145470778e+02
1.601452319510292321e+00 5.504137132362069451e+02
1.601552341515133149e+00 5.504073718521104865e+02
1.601652363519974198e+00 5.504013037131895771e+02
1.601752385524815248e+00 5.503955083619603101e+02
1.601852407529656297e+00 5.503899853325336835e+02
1.601952429534497568e+00 5.503847341506232169e+02
1.602052451539338618e+00 5.503797543335582532e+02
1.602152473544179667e+00 5.503750453902911204e+02
1.602252495549020495e+00 5.503706068214085008e+02
1.602352517553861766e+00 5.503664381191413213e+02
1.602452539558702815e+00 5.503625387673768046e+02
1.602552561563543865e+00 5.503589082416658584e+02
1.602652583568384914e+00 5.503555460092380827e+02
1.602752605573225964e+00 5.503524515290097270e+02
1.602852627578067235e+00 5.503496242515966514e+02
1.602952649582908062e+00 5.503470636193236487e+02
1.603052671587749112e+00 5.503447690662371770e+02
1.603152693592590161e+00 5.503427400181182065e+02
1.603252715597431433e+00 5.503409758924908601e+02
1.603352737602272482e+00 5.503394760986376468e+02
1.603452759607113531e+00 5.503382400376083297e+02
1.603552781611954581e+00 5.503372671022349323e+02
1.603652803616795408e+00 5.503365566771426529e+02
1.603752825621636457e+00 5.503361081387630520e+02
1.603852847626477729e+00 5.503359208553445114e+02
1.603952869631318778e+00 5.503359941869695149e+02
1.604052891636159828e+00 5.503363274855628333e+02
1.604152913641001099e+00 5.503369200949076685e+02
1.604252935645842149e+00 5.503377713506584996e+02
1.604352957650682976e+00 5.503388805803527930e+02
1.604452979655524025e+00 5.503402471034263499e+02
1.604553001660365075e+00 5.503418702312275173e+02
1.604653023665206124e+00 5.503437492670273059e+02
1.604753045670047396e+00 5.503458835060391721e+02
1.604853067674888445e+00 5.503482722354283396e+02
1.604953089679729494e+00 5.503509147343283985e+02
1.605053111684570322e+00 5.503538102738547195e+02
1.605153133689411593e+00 5.503569581171201435e+02
1.605253155694252643e+00 5.503603575192485096e+02
1.605353177699093692e+00 5.503640077273913676e+02
1.605453199703934741e+00 5.503679079807404833e+02
1.605553221708775791e+00 5.503720575105446642e+02
1.605653243713617062e+00 5.503764555401259031e+02
1.605753265718457889e+00 5.503811012848924520e+02
1.605853287723298939e+00 5.503859939523565572e+02
1.605953309728139988e+00 5.503911327421488977e+02
1.606053331732981260e+00 5.503965168460349560e+02
1.606153353737822309e+00 5.504021454479316162e+02
1.606253375742663358e+00 5.504080177239236491e+02
1.606353397747504408e+00 5.504141328422773540e+02
1.606453419752345235e+00 5.504204899634597723e+02
1.606553441757186285e+00 5.504270882401558538e+02
1.606653463762027556e+00 5.504339268172818720e+02
1.606753485766868605e+00 5.504410048320055466e+02
1.606853507771709655e+00 5.504483214137621871e+02
1.606953529776550926e+00 5.504558756842712910e+02
1.607053551781391976e+00 5.504636667575526872e+02
1.607153573786232803e+00 5.504716937399485914e+02
1.607253595791073852e+00 5.504799557301358846e+02
1.607353617795914902e+00 5.504884518191468032e+02
1.607453639800755951e+00 5.504971810903866754e+02
1.607553661805597223e+00 5.505061426196510865e+02
1.607653683810438272e+00 5.505153354751438428e+02
1.607753705815279321e+00 5.505247587174976616e+02
1.607853727820120149e+00 5.505344113997888371e+02
1.607953749824961420e+00 5.505442925675592960e+02
1.608053771829802470e+00 5.505544012588343321e+02
1.608153793834643519e+00 5.505647365041392050e+02
1.608253815839484568e+00 5.505752973265217634e+02
1.608353837844325618e+00 5.505860827415685890e+02
1.608453859849166889e+00 5.505970917574260284e+02
1.608553881854007717e+00 5.506083233748200882e+02
1.608653903858848766e+00 5.506197765870738294e+02
1.608753925863689815e+00 5.506314503801280580e+02
1.608853947868531087e+00 5.506433437325621298e+02
1.608953969873372136e+00 5.506554556156127092e+02
1.609053991878213186e+00 5.506677849931950277e+02
1.609154013883054235e+00 5.506803308219210749e+02
1.609254035887895062e+00 5.506930920511218801e+02
1.609354057892736112e+00 5.507060676228671809e+02
1.609454079897577383e+00 5.507192564719867960e+02
1.609554101902418433e+00 5.507326575260907475e+02
1.609654123907259482e+00 5.507462697055889294e+02
1.609754145912100753e+00 5.507600919237152084e+02
1.609854167916941803e+00 5.507741230865455009e+02
1.609954189921782630e+00 5.507883620930208508e+02
1.610054211926623680e+00 5.508028078349692578e+02
1.610154233931464729e+00 5.508174591971236396e+02
1.610254255936305778e+00 5.508323150571501401e+02
1.610354277941147050e+00 5.508473742856618856e+02
1.610454299945988099e+00 5.508626357462474061e+02
1.610554321950829149e+00 5.508780982954906449e+02
1.610654343955669976e+00 5.508937607829911940e+02
1.610754365960511247e+00 5.509096220513891922e+02
1.610854387965352297e+00 5.509256809363868115e+02
1.610954409970193346e+00 5.509419362667700852e+02
1.611054431975034396e+00 5.509583868644336917e+02
1.611154453979875445e+00 5.509750315444010766e+02
1.611254475984716716e+00 5.509918691148499192e+02
1.611354497989557544e+00 5.510088983771331641e+02
1.611454519994398593e+00 5.510261181258036913e+02
1.611554541999239643e+00 5.510435271486368265e+02
1.611654564004080914e+00 5.510611242266542149e+02
1.611754586008921963e+00 5.510789081341467863e+02
1.611854608013763013e+00 5.510968776387002208e+02
1.611954630018604062e+00 5.511150315012159808e+02
1.612054652023444890e+00 5.511333684759365497e+02
1.612154674028285939e+00 5.511518873104716931e+02
1.612254696033127210e+00 5.511705867458185821e+02
1.612354718037968260e+00 5.511894655163889638e+02
1.612454740042809309e+00 5.512085223500336042e+02
1.612554762047650581e+00 5.512277559680644572e+02
1.612654784052491408e+00 5.512471650852818357e+02
1.612754806057332457e+00 5.512667484099983994e+02
1.612854828062173507e+00 5.512865046440635979e+02
1.612954850067014556e+00 5.513064324828891358e+02
1.613054872071855605e+00 5.513265306154742120e+02
1.613154894076696877e+00 5.513467977244309850e+02
1.613254916081537926e+00 5.513672324860085610e+02
1.613354938086378754e+00 5.513878335701203923e+02
1.613454960091219803e+00 5.514085996403687204e+02
1.613554982096061075e+00 5.514295293540708371e+02
1.613655004100902124e+00 5.514506213622850055e+02
1.613755026105743173e+00 5.514718743098355844e+02
1.613855048110584223e+00 5.514932868353397453e+02
1.613955070115425272e+00 5.515148575712344154e+02
1.614055092120266099e+00 5.515365851438006075e+02
1.614155114125107371e+00 5.515584681731921819e+02
1.614255136129948420e+00 5.515805052734604033e+02
1.614355158134789470e+00 5.516026950525819075e+02
1.614455180139630741e+00 5.516250361124848496e+02
1.614555202144471791e+00 5.516475270490766434e+02
1.614655224149312840e+00 5.516701664522685178e+02
1.614755246154153667e+00 5.516929529060056439e+02
1.614855268158994717e+00 5.517158849882932827e+02
1.614955290163835766e+00 5.517389612712228200e+02
1.615055312168677037e+00 5.517621803210018925e+02
1.615155334173518087e+00 5.517855406979776944e+02
1.615255356178359136e+00 5.518090409566698327e+02
1.615355378183200408e+00 5.518326796457940873e+02
1.615455400188041235e+00 5.518564553082918565e+02
1.615555422192882284e+00 5.518803664813574414e+02
1.615655444197723334e+00 5.519044116964684008e+02
1.615755466202564383e+00 5.519285894794099931e+02
1.615855488207405433e+00 5.519528983503063273e+02
1.615955510212246704e+00 5.519773368236479882e+02
1.616055532217087753e+00 5.520019034083197766e+02
1.616155554221928581e+00 5.520265966076307222e+02
1.616255576226769630e+00 5.520514149193409139e+02
1.616355598231610902e+00 5.520763568356932183e+02
1.616455620236451951e+00 5.521014208434390866e+02
1.616555642241293000e+00 5.521266054238686820e+02
1.616655664246134050e+00 5.521519090528416882e+02
1.616755686250975099e+00 5.521773302008136852e+02
1.616855708255815927e+00 5.522028673328674131e+02
1.616955730260657198e+00 5.522285189087417621e+02
1.617055752265498247e+00 5.522542833828608764e+02
1.617155774270339297e+00 5.522801592043642813e+02
1.617255796275180568e+00 5.523061448171371239e+02
1.617355818280021618e+00 5.523322386598381399e+02
1.617455840284862667e+00 5.523584391659313724e+02
1.617555862289703494e+00 5.523847447637156165e+02
1.617655884294544544e+00 5.524111538763545468e+02
1.617755906299385593e+00 5.524376649219066167e+02
1.617855928304226865e+00 5.524642763133562084e+02
1.617955950309067914e+00 5.524909864586430785e+02
1.618055972313908963e+00 5.525177937606929390e+02
1.618155994318750235e+00 5.525446966174492900e+02
1.618256016323591062e+00 5.525716934219027507e+02
1.618356038328432112e+00 5.525987825621226648e+02
1.618456060333273161e+00 5.526259624212867720e+02
1.618556082338114210e+00 5.526532313777142917e+02
1.618656104342955260e+00 5.526805878048949126e+02
1.618756126347796531e+00 5.527080300715209660e+02
1.618856148352637581e+00 5.527355565415193723e+02
1.618956170357478408e+00 5.527631655740806309e+02
1.619056192362319457e+00 5.527908555236936081e+02
1.619156214367160729e+00 5.528186247401736182e+02
1.619256236372001778e+00 5.528464715686961881e+02
1.619356258376842828e+00 5.528743943498284352e+02
1.619456280381683877e+00 5.529023914195613543e+02
1.619556302386524926e+00 5.529304611093393760e+02
1.619656324391365754e+00 5.529586017460952689e+02
1.619756346396207025e+00 5.529868116522802666e+02
1.619856368401048075e+00 5.530150891458971500e+02
1.619956390405889124e+00 5.530434325405326490e+02
1.620056412410730395e+00 5.530718401453877959e+02
1.620156434415571445e+00 5.531003102653132828e+02
1.620256456420412494e+00 5.531288412008398154e+02
1.620356478425253322e+00 5.531574312482111964e+02
1.620456500430094371e+00 5.531860786994180899e+02
1.620556522434935420e+00 5.532147818422284899e+02
1.620656544439776692e+00 5.532435389602228497e+02
1.620756566444617741e+00 5.532723483328251177e+02
1.620856588449458791e+00 5.533012082353375263e+02
1.620956610454300062e+00 5.533301169389716279e+02
1.621056632459140889e+00 5.533590727108835381e+02
1.621156654463981939e+00 5.533880738142055407e+02
1.621256676468822988e+00 5.534171185080805344e+02
1.621356698473664038e+00 5.534462050476937520e+02
1.621456720478505087e+00 5.534753316843083439e+02
1.621556742483346358e+00 5.535044966652976655e+02
1.621656764488187408e+00 5.535336982341790417e+02
1.621756786493028235e+00 5.535629346306475327e+02
1.621856808497869284e+00 5.535922040906086750e+02
1.621956830502710556e+00 5.536215048462156574e+02
1.622056852507551605e+00 5.536508351258994480e+02
1.622156874512392655e+00 5.536801931544039235e+02
1.622256896517233704e+00 5.537095771528217938e+02
1.622356918522074753e+00 5.537389853386248433e+02
1.622456940526915581e+00 5.537684159257032661e+02
1.622556962531756852e+00 5.537978671243947701e+02
1.622656984536597902e+00 5.538273371415232305e+02
1.622757006541438951e+00 5.538568241804302943e+02
1.622857028546280223e+00 5.538863264410109650e+02
1.622957050551121272e+00 5.539158421197482767e+02
1.623057072555962321e+00 5.539453694097477410e+02
1.623157094560803149e+00 5.539749065007711124e+02
1.623257116565644198e+00 5.540044515792735638e+02
1.623357138570485247e+00 5.540340028284359732e+02
1.623457160575326519e+00 5.540635584282008494e+02
1.623557182580167568e+00 5.540931165553081428e+02
1.623657204585008618e+00 5.541226753833286693e+02
1.623757226589849889e+00 5.541522330827003771e+02
1.623857248594690716e+00 5.541817878207634749e+02
1.623957270599531766e+00 5.542113377617946526e+02
1.624057292604372815e+00 5.542408810670442563e+02
1.624157314609213865e+00 5.542704158947690303e+02
1.624257336614054914e+00 5.542999404002700885e+02
1.624357358618896185e+00 5.543294527359273616e+02
1.624457380623737235e+00 5.543589510512348397e+02
1.624557402628578062e+00 5.543884334928362705e+02
1.624657424633419112e+00 5.544178982045608564e+02
1.624757446638260383e+00 5.544473433274600893e+02
1.624857468643101432e+00 5.544767669998420843e+02
1.624957490647942482e+00 5.545061673573079588e+02
1.625057512652783531e+00 5.545355425327877583e+02
1.625157534657624581e+00 5.545648906565767220e+02
1.625257556662465408e+00 5.545942098563705258e+02
1.625357578667306679e+00 5.546234982573020034e+02
1.625457600672147729e+00 5.546527539819784351e+02
1.625557622676988778e+00 5.546819751505142904e+02
1.625657644681830050e+00 5.547111598805707899e+02
1.625757666686671099e+00 5.547403062873913768e+02
1.625857688691512148e+00 5.547694124838371863e+02
1.625957710696352976e+00 5.547984765804242215e+02
1.626057732701194025e+00 5.548274966853592787e+02
1.626157754706035075e+00 5.548564709045779182e+02
1.626257776710876346e+00 5.548853973417790257e+02
1.626357798715717395e+00 5.549142740984619877e+02
1.626457820720558445e+00 5.549430992739646626e+02
1.626557842725399716e+00 5.549718709654987379e+02
1.626657864730240544e+00 5.550005872681871324e+02
1.626757886735081593e+00 5.550292462751007179e+02
1.626857908739922642e+00 5.550578460772942435e+02
1.626957930744763692e+00 5.550863847638447623e+02
1.627057952749604741e+00 5.551148604218877836e+02
1.627157974754446013e+00 5.551432711366546755e+02
1.627257996759287062e+00 5.551716149915082497e+02
1.627358018764127889e+00 5.551998900679830058e+02
1.627458040768968939e+00 5.552280944458192380e+02
1.627558062773810210e+00 5.552562262030012334e+02
1.627658084778651260e+00 5.552842834157941070e+02
1.627758106783492309e+00 5.553122641587829094e+02
1.627858128788333358e+00 5.553401665049077565e+02
1.627958150793174408e+00 5.553679885255016870e+02
1.628058172798015235e+00 5.553957282903290888e+02
1.628158194802856507e+00 5.554233838676224195e+02
1.628258216807697556e+00 5.554509533241187000e+02
1.628358238812538605e+00 5.554784347250998735e+02
1.628458260817379877e+00 5.555058261344258881e+02
1.628558282822220926e+00 5.555331256145771022e+02
1.628658304827061976e+00 5.555603312266898683e+02
1.628758326831902803e+00 5.555874410305920037e+02
1.628858348836743852e+00 5.556144530848443992e+02
1.628958370841584902e+00 5.556413654467761489e+02
1.629058392846426173e+00 5.556681761725237720e+02
1.629158414851267223e+00 5.556948833170671378e+02
1.629258436856108272e+00 5.557214849342697107e+02
1.629358458860949543e+00 5.557479790769142483e+02
1.629458480865790371e+00 5.557743637967423638e+02
1.629558502870631420e+00 5.558006371444922706e+02
1.629658524875472470e+00 5.558267971699347072e+02
1.629758546880313519e+00 5.558528419219144325e+02
1.629858568885154568e+00 5.558787694483844462e+02
1.629958590889995840e+00 5.559045777964473700e+02
1.630058612894836667e+00 5.559302650123917147e+02
1.630158634899677716e+00 5.559558291417299642e+02
1.630258656904518766e+00 5.559812682292374575e+02
1.630358678909360037e+00 5.560065803189909275e+02
1.630458700914201087e+00 5.560317634544053362e+02
1.630558722919042136e+00 5.560568156782728693e+02
1.630658744923883186e+00 5.560817350328010207e+02
1.630758766928724013e+00 5.561065195596515878e+02
1.630858788933565062e+00 5.561311672999779603e+02
1.630958810938406334e+00 5.561556762944640013e+02
1.631058832943247383e+00 5.561800445833616777e+02
1.631158854948088432e+00 5.562042702065310777e+02
1.631258876952929704e+00 5.562283512034766773e+02
1.631358898957770753e+00 5.562522856133879259e+02
1.631458920962611581e+00 5.562760714751753994e+02
1.631558942967452630e+00 5.562997068275114998e+02
1.631658964972293679e+00 5.563231897088669484e+02
1.631758986977134729e+00 5.563465181575511451e+02
1.631859008981976000e+00 5.563696902117485479e+02
1.631959030986817050e+00 5.563927039095598275e+02
1.632059052991658099e+00 5.564155572890374515e+02
1.632159074996498926e+00 5.564382483882267252e+02
1.632259097001340198e+00 5.564607752452028535e+02
1.632359119006181247e+00 5.564831358981109588e+02
1.632459141011022297e+00 5.565053283852025743e+02
1.632559163015863346e+00 5.565273507448764576e+02
1.632659185020704395e+00 5.565492010157157665e+02
1.632759207025545667e+00 5.565708772365275081e+02
1.632859229030386494e+00 5.565923774463806240e+02
1.632959251035227544e+00 5.566136996846444163e+02
1.633059273040068593e+00 5.566348419910292478e+02
1.633159295044909864e+00 5.566558024056224667e+02
1.633259317049750914e+00 5.566765789689281974e+02
1.633359339054591963e+00 5.566971697219071302e+02
1.633459361059433013e+00 5.567175727060129020e+02
1.633559383064273840e+00 5.567377859632339323e+02
1.633659405069114889e+00 5.567578075361294623e+02
1.633759427073956161e+00 5.567776354678691177e+02
1.633859449078797210e+00 5.567972678022720174e+02
1.633959471083638260e+00 5.568167025838449717e+02
1.634059493088479531e+00 5.568359378578222731e+02
1.634159515093320580e+00 5.568549716702030992e+02
1.634259537098161408e+00 5.568738020677906206e+02
1.634359559103002457e+00 5.568924270982317921e+02
1.634459581107843507e+00 5.569108448100547548e+02
1.634559603112684556e+00 5.569290532527089681e+02
1.634659625117525827e+00 5.569470504766021577e+02
1.634759647122366877e+00 5.569648345331397650e+02
1.634859669127207926e+00 5.569824034747654196e+02
1.634959691132048754e+00 5.569997553549977738e+02
1.635059713136890025e+00 5.570168882284692700e+02
1.635159735141731074e+00 5.570338001509658170e+02
1.635259757146572124e+00 5.570504891794653304e+02
1.635359779151413173e+00 5.570669533721758171e+02
1.635459801156254223e+00 5.570831907885747114e+02
1.635559823161095494e+00 5.570991994894475283e+02
1.635659845165936321e+00 5.571149775369262898e+02
1.635759867170777371e+00 5.571305229945296560e+02
1.635859889175618420e+00 5.571458339271981686e+02
1.635959911180459692e+00 5.571609084013376787e+02
1.636059933185300741e+00 5.571757444848539080e+02
1.636159955190141790e+00 5.571903402471942854e+02
1.636259977194982840e+00 5.572046937593834173e+02
1.636359999199823667e+00 5.572188030940650378e+02
1.636460021204664717e+00 5.572326663255385029e+02
1.636560043209505988e+00 5.572462815297981251e+02
1.636660065214347037e+00 5.572596467845718280e+02
1.636760087219188087e+00 5.572727601693600263e+02
1.636860109224029358e+00 5.572856197654732568e+02
1.636960131228870408e+00 5.572982236560717411e+02
1.637060153233711235e+00 5.573105699262034705e+02
1.637160175238552284e+00 5.573226566628441105e+02
1.637260197243393334e+00 5.573344819549321301e+02
1.637360219248234383e+00 5.573460438934112062e+02
1.637460241253075655e+00 5.573573405712668318e+02
1.637560263257916704e+00 5.573683700835647414e+02
1.637660285262757753e+00 5.573791305274900196e+02
1.637760307267598581e+00 5.573896200023856409e+02
1.637860329272439852e+00 5.573998366097887356e+02
1.637960351277280902e+00 5.574097784534727680e+02
1.638060373282121951e+00 5.574194436394835748e+02
1.638160395286963000e+00 5.574288302761768819e+02
1.638260417291804050e+00 5.574379364742591179e+02
1.638360439296645321e+00 5.574467603468235666e+02
1.638460461301486148e+00 5.574553000093909532e+02
1.638560483306327198e+00 5.574635535799443460e+02
1.638660505311168247e+00 5.574715191789706523e+02
1.638760527316009519e+00 5.574791949294979077e+02
1.638860549320850568e+00 5.574865789571315418e+02
1.638960571325691618e+00 5.574936693900964428e+02
1.639060593330532667e+00 5.575004643592708362e+02
1.639160615335373494e+00 5.575069619982270979e+02
1.639260637340214544e+00 5.575131604432692711e+02
1.639360659345055815e+00 5.575190578334706970e+02
1.639460681349896864e+00 5.575246523107123267e+02
1.639560703354737914e+00 5.575299420197204654e+02
1.639660725359579185e+00 5.575349251081050852e+02
1.639760747364420235e+00 5.575395997263983645e+02
1.639860769369261062e+00 5.575439640280898175e+02
1.639960791374102111e+00 5.575480161696684718e+02
1.640060813378943161e+00 5.575517543106566336e+02
1.640160835383784210e+00 5.575551766136502465e+02
1.640260857388625482e+00 5.575582812443559533e+02
1.640360879393466531e+00 5.575610663716283852e+02
1.640460901398307580e+00 5.575635301675074516e+02
1.640560923403148408e+00 5.575656708072576748e+02
1.640660945407989679e+00 5.575674864694041162e+02
1.640760967412830729e+00 5.575689753357713698e+02
1.640860989417671778e+00 5.575701355915191471e+02
1.640961011422512827e+00 5.575709654251819529e+02
1.641061033427353877e+00 5.575714630287047839e+02
1.641161055432195148e+00 5.575716265974815542e+02
1.641261077437035976e+00 5.575714543303924984e+02
1.641361099441877025e+00 5.575709444298403241e+02
1.641461121446718074e+00 5.575700951017890930e+02
1.641561143451559346e+00 5.575689045558000316e+02
1.641661165456400395e+00 5.575673710050700720e+02
1.641761187461241445e+00 5.575654926664670938e+02
1.641861209466082494e+00 5.575632677605692606e+02
1.641961231470923321e+00 5.575606945116998077e+02
1.642061253475764371e+00 5.575577711479670597e+02
1.642161275480605642e+00 5.575544959012981963e+02
1.642261297485446692e+00 5.575508670074766542e+02
1.642361319490287741e+00 5.575468827061815773e+02
1.642461341495129012e+00 5.575425412410223771e+02
1.642561363499970062e+00 5.575378408595747715e+02
1.642661385504810889e+00 5.575327798134204613e+02
1.642761407509651939e+00 5.575273563581801000e+02
1.642861429514492988e+00 5.575215687535533107e+02
1.642961451519334037e+00 5.575154152633533613e+02
1.643061473524175309e+00 5.575088941555433166e+02
1.643161495529016358e+00 5.575020037022725319e+02
1.643261517533857408e+00 5.574947421799162157e+02
1.643361539538698235e+00 5.574871078691060120e+02
1.643461561543539506e+00 5.574790990547712681e+02
1.643561583548380556e+00 5.574707140261731411e+02
1.643661605553221605e+00 5.574619510769409771e+02
1.643761627558062655e+00 5.574528085051075550e+02
1.643861649562903704e+00 5.574432846131464885e+02
1.643961671567744975e+00 5.574333777080084928e+02
1.644061693572585803e+00 5.574230861011548086e+02
1.644161715577426852e+00 5.574124081085961961e+02
1.644261737582267902e+00 5.574013420509257912e+02
1.644361759587109173e+00 5.573898862533584406e+02
1.644461781591950222e+00 5.573780390457613976e+02
1.644561803596791272e+00 5.573657987626950217e+02
1.644661825601632321e+00 5.573531637434443837e+02
1.644761847606473149e+00 5.573401323320578058e+02
1.644861869611314198e+00 5.573267028773794891e+02
1.644961891616155469e+00 5.573128737330866898e+02
1.645061913620996519e+00 5.572986432577242795e+02
1.645161935625837568e+00 5.572840098147407843e+02
1.645261957630678840e+00 5.572689717725223773e+02
1.645361979635519889e+00 5.572535275044277796e+02
1.645462001640360716e+00 5.572376753888252097e+02
1.645562023645201766e+00 5.572214138091248969e+02
1.645662045650042815e+00 5.572047411538150072e+02
1.645762067654883865e+00 5.571876558164972266e+02
1.645862089659725136e+00 5.571701561959205264e+02
1.645962111664566185e+00 5.571522406960149283e+02
1.646062133669407235e+00 5.571339077259285659e+02
1.646162155674248062e+00 5.571151557000594039e+02
1.646262177679089334e+00 5.570959830380920721e+02
1.646362199683930383e+00 5.570763881650299254e+02
1.646462221688771432e+00 5.570563695112313098e+02
1.646562243693612482e+00 5.570359255124420770e+02
1.646662265698453531e+00 5.570150546098315090e+02
1.646762287703294803e+00 5.569937552500248330e+02
1.646862309708135630e+00 5.569720258851375547e+02
1.646962331712976679e+00 5.569498649728093369e+02
1.647062353717817729e+00 5.569272709762383329e+02
1.647162375722659000e+00 5.569042423642141557e+02
1.647262397727500050e+00 5.568807776111519843e+02
1.647362419732341099e+00 5.568568751971254187e+02
1.647462441737182148e+00 5.568325336079016097e+02
1.647562463742022976e+00 5.568077513349721812e+02
1.647662485746864025e+00 5.567825268755890420e+02
1.647762507751705296e+00 5.567568587327953082e+02
1.647862529756546346e+00 5.567307454154599782e+02
1.647962551761387395e+00 5.567041854383111286e+02
1.648062573766228667e+00 5.566771773219670649e+02
1.648162595771069494e+00 5.566497195929719055e+02
1.648262617775910543e+00 5.566218107838251399e+02
1.648362639780751593e+00 5.565934494330173266e+02
1.648462661785592642e+00 5.565646340850607885e+02
1.648562683790433692e+00 5.565353632905230370e+02
1.648662705795274963e+00 5.565056356060584903e+02
1.648762727800116012e+00 5.564754495944418977e+02
1.648862749804956840e+00 5.564448038245996031e+02
1.648962771809797889e+00 5.564136968716416050e+02
1.649062793814639161e+00 5.563821273168945254e+02
1.649162815819480210e+00 5.563500937479327604e+02
1.649262837824321259e+00 5.563175947586107668e+02
1.649362859829162309e+00 5.562846289490944400e+02
1.649462881834003358e+00 5.562511949258945378e+02
1.649562903838844186e+00 5.562172913018941927e+02
1.649662925843685457e+00 5.561829166963854050e+02
1.649762947848526506e+00 5.561480697350967830e+02
1.649862969853367556e+00 5.561127490502267392e+02
1.649962991858208827e+00 5.560769532804735036e+02
1.650063013863049877e+00 5.560406810710671834e+02
1.650163035867890926e+00 5.560039310738003451e+02
1.650263057872731753e+00 5.559667019470585956e+02
1.650363079877572803e+00 5.559289923558523014e+02
1.650463101882413852e+00 5.558908009718455787e+02
1.650563123887255124e+00 5.558521264733901717e+02
1.650663145892096173e+00 5.558129675455513734e+02
1.650763167896937222e+00 5.557733228801419045e+02
1.650863189901778494e+00 5.557331911757512444e+02
1.650963211906619321e+00 5.556925711377754169e+02
1.651063233911460371e+00 5.556514614784480273e+02
1.651163255916301420e+00 5.556098609168680014e+02
1.651263277921142469e+00 5.555677681790324414e+02
1.651363299925983519e+00 5.555251819978643653e+02
1.651463321930824790e+00 5.554821011132435160e+02
1.651563343935665840e+00 5.554385242720339875e+02
1.651663365940506667e+00 5.553944502281165114e+02
1.651763387945347716e+00 5.553498777424156287e+02
1.651863409950188988e+00 5.553048055829292480e+02
1.651963431955030037e+00 5.552592325247585450e+02
1.652063453959871087e+00 5.552131573501360435e+02
1.652163475964712136e+00 5.551665788484554014e+02
1.652263497969553185e+00 5.551194958162992634e+02
1.652363519974394013e+00 5.550719070574684793e+02
1.652463541979235284e+00 5.550238113830106386e+02
1.652563563984076334e+00 5.549752076112479244e+02
1.652663585988917383e+00 5.549260945678070129e+02
1.652763607993758654e+00 5.548764710856452211e+02
1.652863629998599704e+00 5.548263360050794972e+02
1.652963652003440753e+00 5.547756881738149559e+02
1.653063674008281581e+00 5.547245264469712538e+02
1.653163696013122630e+00 5.546728496871126026e+02
1.653263718017963679e+00 5.546206567642728942e+02
1.653363740022804951e+00 5.545679465559854862e+02
1.653463762027646000e+00 5.545147179473078722e+02
1.653563784032487050e+00 5.544609698308519228e+02
1.653663806037328321e+00 5.544067011068088959e+02
1.653763828042169148e+00 5.543519106829776320e+02
1.653863850047010198e+00 5.542965974747910423e+02
1.653963872051851247e+00 5.542407604053419163e+02
1.654063894056692297e+00 5.541843984054113434e+02
1.654163916061533346e+00 5.541275104134939511e+02
1.654263938066374617e+00 5.540700953758259857e+02
1.654363960071215667e+00 5.540121522464079362e+02
1.654463982076056494e+00 5.539536799870354571e+02
1.654564004080897544e+00 5.538946775673218781e+02
1.654664026085738815e+00 5.538351439647256029e+02
1.654764048090579864e+00 5.537750781645753477e+02
1.654864070095420914e+00 5.537144791600961753e+02
1.654964092100261963e+00 5.536533459524349610e+02
1.655064114105103013e+00 5.535916775506852900e+02
1.655164136109943840e+00 5.535294729719134921e+02
1.655264158114785111e+00 5.534667312411828561e+02
1.655364180119626161e+00 5.534034513915800062e+02
1.655464202124467210e+00 5.533396324642383206e+02
1.655564224129308482e+00 5.532752735083635116e+02
1.655664246134149531e+00 5.532103735812581817e+02
1.655764268138990580e+00 5.531449317483447885e+02
1.655864290143831408e+00 5.530789470831938388e+02
1.655964312148672457e+00 5.530124186675435567e+02
1.656064334153513506e+00 5.529453455913265998e+02
1.656164356158354778e+00 5.528777269526934788e+02
1.656264378163195827e+00 5.528095618580365453e+02
1.656364400168036877e+00 5.527408494220132980e+02
1.656464422172878148e+00 5.526715887675693466e+02
1.656564444177718975e+00 5.526017790259633102e+02
1.656664466182560025e+00 5.525314193367893267e+02
1.656764488187401074e+00 5.524605088479994492e+02
1.656864510192242124e+00 5.523890467159278614e+02
1.656964532197083173e+00 5.523170321053129328e+02
1.657064554201924444e+00 5.522444641893207518e+02
1.657164576206765494e+00 5.521713421495660441e+02
1.657264598211606321e+00 5.520976651761370704e+02
1.657364620216447371e+00 5.520234324676147253e+02
1.657464642221288642e+00 5.519486432310981172e+02
1.657564664226129691e+00 5.518732966822248045e+02
1.657664686230970741e+00 5.517973920451908043e+02
1.657764708235811790e+00 5.517209285527771954e+02
1.657864730240652840e+00 5.516439054463668299e+02
1.657964752245493667e+00 5.515663219759686626e+02
1.658064774250334938e+00 5.514881774002382144e+02
1.658164796255175988e+00 5.514094709864971264e+02
1.658264818260017037e+00 5.513302020107573753e+02
1.658364840264858309e+00 5.512503697577396906e+02
1.658464862269699358e+00 5.511699735208953825e+02
1.658564884274540407e+00 5.510890126024257825e+02
1.658664906279381235e+00 5.510074863133038434e+02
1.658764928284222284e+00 5.509253939732934668e+02
1.658864950289063334e+00 5.508427349109712168e+02
1.658964972293904605e+00 5.507595084637436003e+02
1.659064994298745654e+00 5.506757139778694636e+02
1.659165016303586704e+00 5.505913508084789783e+02
1.659265038308427975e+00 5.505064183195912619e+02
1.659365060313268803e+00 5.504209158841357521e+02
1.659465082318109852e+00 5.503348428839731241e+02
1.659565104322950901e+00 5.502481987099085927e+02
1.659665126327791951e+00 5.501609827617174915e+02
1.659765148332633000e+00 5.500731944481590290e+02
1.659865170337474272e+00 5.499848331869980029e+02
1.659965192342315321e+00 5.498958984050204890e+02
1.660065214347156148e+00 5.498063895380562371e+02
1.660165236351997198e+00 5.497163060309915181e+02
1.660265258356838469e+00 5.496256473377912926e+02
1.660365280361679519e+00 5.495344129215159228e+02
1.660465302366520568e+00 5.494426022543372028e+02
1.660565324371361617e+00 5.493502148175589355e+02
1.660665346376202667e+00 5.492572501016311435e+02
1.660765368381043494e+00 5.491637076061690550e+02
1.660865390385884766e+00 5.490695868399702704e+02
1.660965412390725815e+00 5.489748873210304509e+02
1.661065434395566864e+00 5.488796085765615089e+02
1.661165456400408136e+00 5.487837501430067277e+02
1.661265478405249185e+00 5.486873115660578151e+02
1.661365500410090235e+00 5.485902924006721832e+02
1.661465522414931062e+00 5.484926922110870464e+02
1.661565544419772111e+00 5.483945105708364736e+02
1.661665566424613161e+00 5.482957470627674184e+02
1.661765588429454432e+00 5.481964012790550669e+02
1.661865610434295482e+00 5.480964728212165937e+02
1.661965632439136531e+00 5.479959613001303751e+02
1.662065654443977802e+00 5.478948663360473574e+02
1.662165676448818630e+00 5.477931875586066326e+02
1.662265698453659679e+00 5.476909246068532866e+02
1.662365720458500729e+00 5.475880771292472673e+02
1.662465742463341778e+00 5.474846447836847574e+02
1.662565764468182827e+00 5.473806272375067010e+02
1.662665786473024099e+00 5.472760241675159705e+02
1.662765808477865148e+00 5.471708352599910086e+02
1.662865830482705976e+00 5.470650602106971974e+02
1.662965852487547025e+00 5.469586987249049344e+02
1.663065874492388296e+00 5.468517505173989548e+02
1.663165896497229346e+00 5.467442153124940205e+02
1.663265918502070395e+00 5.466360928440474254e+02
1.663365940506911445e+00 5.465273828554705915e+02
1.663465962511752494e+00 5.464180850997439620e+02
1.663565984516593321e+00 5.463081993394293931e+02
1.663666006521434593e+00 5.461977253466804996e+02
1.663766028526275642e+00 5.460866629032573201e+02
1.663866050531116692e+00 5.459750118005366630e+02
1.663966072535957963e+00 5.458627718395258626e+02
1.664066094540799012e+00 5.457499428308727829e+02
1.664166116545640062e+00 5.456365245948782103e+02
1.664266138550480889e+00 5.455225169615074492e+02
1.664366160555321938e+00 5.454079197704011222e+02
1.664466182560162988e+00 5.452927328708856294e+02
1.664566204565004259e+00 5.451769561219873594e+02
1.664666226569845309e+00 5.450605893924378051e+02
1.664766248574686358e+00 5.449436325606891387e+02
1.664866270579527630e+00 5.448260855149219424e+02
1.664966292584368457e+00 5.447079481530569183e+02
1.665066314589209506e+00 5.445892203827628464e+02
1.665166336594050556e+00 5.444699021214687491e+02
1.665266358598891605e+00 5.443499932963725314e+02
1.665366380603732654e+00 5.442294938444499621e+02
1.665466402608573926e+00 5.441084037124646784e+02
1.665566424613414753e+00 5.439867228569777353e+02
1.665666446618255803e+00 5.438644512443551093e+02
1.665766468623096852e+00 5.437415888507782711e+02
1.665866490627938123e+00 5.436181356622516887e+02
1.665966512632779173e+00 5.434940916746112407e+02
1.666066534637620222e+00 5.433694568935327425e+02
1.666166556642461272e+00 5.432442313345403591e+02
1.666266578647302099e+00 5.431184150230145633e+02
1.666366600652143148e+00 5.429920079941986160e+02
1.666466622656984420e+00 5.428650102932080017e+02
1.666566644661825469e+00 5.427374219750353177e+02
1.666666666666666519e+00 5.426092431045606190e+02
1.666766688671507790e+00 5.424804737565556252e+02
1.666866710676348839e+00 5.423511140156920192e+02
1.666966732681189667e+00 5.422211639765471318e+02
1.667066754686030716e+00 5.420906237436128094e+02
1.667166776690871766e+00 5.419594934312972327e+02
1.667266798695712815e+00 5.418277731639358308e+02
1.667366820700554086e+00 5.416954630757938958e+02
1.667466842705395136e+00 5.415625633110735180e+02
1.667566864710236185e+00 5.414290740239205206e+02
1.667666886715077013e+00 5.412949953784250283e+02
1.667766908719918284e+00 5.411603275486338589e+02
1.667866930724759333e+00 5.410250707185496140e+02
1.667966952729600383e+00 5.408892250821376138e+02
1.668066974734441432e+00 5.407527908433307857e+02
1.668166996739282482e+00 5.406157682160336435e+02
1.668267018744123753e+00 5.404781574241268345e+02
1.668367040748964580e+00 5.403399587014711187e+02
1.668467062753805630e+00 5.402011722919108934e+02
1.668567084758646679e+00 5.400617984492788537e+02
1.668667106763487951e+00 5.399218374373980396e+02
1.668767128768329000e+00 5.397812895300868377e+02
1.668867150773170049e+00 5.396401550111608003e+02
1.668967172778011099e+00 5.394984341744360563e+02
1.669067194782851926e+00 5.393561273237337446e+02
1.669167216787692976e+00 5.392132347728781951e+02
1.669267238792534247e+00 5.390697568457044326e+02
1.669367260797375296e+00 5.389256938760572666e+02
1.669467282802216346e+00 5.387810462077945886e+02
1.669567304807057617e+00 5.386358141947887361e+02
1.669667326811898667e+00 5.384899982009275163e+02
1.669767348816739494e+00 5.383435986001176161e+02
1.669867370821580543e+00 5.381966157762841476e+02
1.669967392826421593e+00 5.380490501233716714e+02
1.670067414831262642e+00 5.379009020453459016e+02
1.670167436836103914e+00 5.377521719561954114e+02
1.670267458840944963e+00 5.376028602799295868e+02
1.670367480845786012e+00 5.374529674505801040e+02
1.670467502850626840e+00 5.373024939122025216e+02
1.670567524855468111e+00 5.371514401188745751e+02
1.670667546860309161e+00 5.369998065346964040e+02
1.670767568865150210e+00 5.368475936337889607e+02
1.670867590869991259e+00 5.366948019002973069e+02
1.670967612874832309e+00 5.365414318283835655e+02
1.671067634879673580e+00 5.363874839222320361e+02
1.671167656884514408e+00 5.362329586960440793e+02
1.671267678889355457e+00 5.360778566740391398e+02
1.671367700894196506e+00 5.359221783904508811e+02
1.671467722899037778e+00 5.357659243895276404e+02
1.671567744903878827e+00 5.356090952255293587e+02
1.671667766908719877e+00 5.354516914627248525e+02
1.671767788913560926e+00 5.352937136753903360e+02
1.671867810918401753e+00 5.351351624478078293e+02
1.671967832923242803e+00 5.349760383742607246e+02
1.672067854928084074e+00 5.348163420590312853e+02
1.672167876932925124e+00 5.346560741163980310e+02
1.672267898937766173e+00 5.344952351706325544e+02
1.672367920942607444e+00 5.343338258559956557e+02
1.672467942947448494e+00 5.341718468167331366e+02
1.672567964952289321e+00 5.340092987070735262e+02
1.672667986957130370e+00 5.338461821912222831e+02
1.672768008961971420e+00 5.336824979433582712e+02
1.672868030966812469e+00 5.335182466476302352e+02
1.672968052971653741e+00 5.333534289981504344e+02
1.673068074976494790e+00 5.331880456989912318e+02
1.673168096981335840e+00 5.330220974641790690e+02
1.673268118986176667e+00 5.328555850176900321e+02
1.673368140991017938e+00 5.326885090934440541e+02
1.673468162995858988e+00 5.325208704352991163e+02
1.673568185000700037e+00 5.323526697970464738e+02
1.673668207005541086e+00 5.321839079424030388e+02
1.673768229010382136e+00 5.320145856450067186e+02
1.673868251015223407e+00 5.318447036884092540e+02
1.673968273020064235e+00 5.316742628660692844e+02
1.674068295024905284e+00 5.315032639813476862e+02
1.674168317029746333e+00 5.313317078474971140e+02
1.674268339034587605e+00 5.311595952876582487e+02
1.674368361039428654e+00 5.309869271348502480e+02
1.674468383044269704e+00 5.308137042319641523e+02
1.674568405049110753e+00 5.306399274317558366e+02
1.674668427053951580e+00 5.304655975968357779e+02
1.674768449058792630e+00 5.302907155996637130e+02
1.674868471063633901e+00 5.301152823225380644e+02
1.674968493068474951e+00 5.299392986575885516e+02
1.675068515073316000e+00 5.297627655067691421e+02
1.675168537078157271e+00 5.295856837818445229e+02
1.675268559082998321e+00 5.294080544043861210e+02
1.675368581087839148e+00 5.292298783057595983e+02
1.675468603092680198e+00 5.290511564271166662e+02
1.675568625097521247e+00 5.288718897193850808e+02
1.675668647102362296e+00 5.286920791432592068e+02
1.675768669107203568e+00 5.285117256691887633e+02
1.675868691112044617e+00 5.283308302773698415e+02
1.675968713116885667e+00 5.281493939577349011e+02
1.676068735121726494e+00 5.279674177099401504e+02
1.676168757126567765e+00 5.277849025433570205e+02
1.676268779131408815e+00 5.276018494770584084e+02
1.676368801136249864e+00 5.274182595398104922e+02
1.676468823141090914e+00 5.272341337700594295e+02
1.676568845145931963e+00 5.270494732159199884e+02
1.676668867150773234e+00 5.268642789351649753e+02
1.676768889155614062e+00 5.266785519952106824e+02
1.676868911160455111e+00 5.264922934731079067e+02
1.676968933165296161e+00 5.263055044555268296e+02
1.677068955170137432e+00 5.261181860387465576e+02
1.677168977174978481e+00 5.259303393286407982e+02
1.677268999179819531e+00 5.257419654406656946e+02
1.677369021184660580e+00 5.255530654998465252e+02
1.677469043189501408e+00 5.253636406407646291e+02
1.677569065194342457e+00 5.251736920075437638e+02
1.677669087199183728e+00 5.249832207538348712e+02
1.677769109204024778e+00 5.247922280428058457e+02
1.677869131208865827e+00 5.246007150471234581e+02
1.677969153213707099e+00 5.244086829489410775e+02
1.678069175218548148e+00 5.242161329398845737e+02
1.678169197223388975e+00 5.240230662210354922e+02
1.678269219228230025e+00 5.238294840029193438e+02
1.678369241233071074e+00 5.236353875054873015e+02
1.678469263237912124e+00 5.234407779581028990e+02
1.678569285242753395e+00 5.232456565995271376e+02
1.678669307247594444e+00 5.230500246779007512e+02
1.678769329252435494e+00 5.228538834507291995e+02
1.678869351257276321e+00 5.226572341848678889e+02
1.678969373262117593e+00 5.224600781565047782e+02
1.679069395266958642e+00 5.222624166511438943e+02
1.679169417271799691e+00 5.220642509635890747e+02
1.679269439276640741e+00 5.218655823979271418e+02
1.679369461281481790e+00 5.216664122675111912e+02
1.679469483286323062e+00 5.214667418949427429e+02
1.679569505291163889e+00 5.212665726120557110e+02
1.679669527296004938e+00 5.210659057598970776e+02
1.679769549300845988e+00 5.208647426887101801e+02
1.679869571305687259e+00 5.206630847579172041e+02
1.679969593310528309e+00 5.204609333360994015e+02
1.680069615315369358e+00 5.202582898009818564e+02
1.680169637320210407e+00 5.200551555394107481e+02
1.680269659325051235e+00 5.198515319473394811e+02
1.680369681329892284e+00 5.196474204298049244e+02
1.680469703334733556e+00 5.194428224009121777e+02
1.680569725339574605e+00 5.192377392838137666e+02
1.680669747344415654e+00 5.190321725106900885e+02
1.680769769349256926e+00 5.188261235227299721e+02
1.680869791354097975e+00 5.186195937701114644e+02
1.680969813358938802e+00 5.184125847119810260e+02
1.681069835363779852e+00 5.182050978164330672e+02
1.681169857368620901e+00 5.179971345604915314e+02
1.681269879373461951e+00 5.177886964300867021e+02
1.681369901378303222e+00 5.175797849200371274e+02
1.681469923383144272e+00 5.173704015340259730e+02
1.681569945387985321e+00 5.171605477845813539e+02
1.681669967392826148e+00 5.169502251930563261e+02
1.681769989397667420e+00 5.167394352896042165e+02
1.681870011402508469e+00 5.165281796131605461e+02
1.681970033407349518e+00 5.163164597114179060e+02
1.682070055412190568e+00 5.161042771408064027e+02
1.682170077417031617e+00 5.158916334664698979e+02
1.682270099421872889e+00 5.156785302622444078e+02
1.682370121426713716e+00 5.154649691106353657e+02
1.682470143431554765e+00 5.152509516027946574e+02
1.682570165436395815e+00 5.150364793384974291e+02
1.682670187441237086e+00 5.148215539261203730e+02
1.682770209446078136e+00 5.146061769826163754e+02
1.682870231450919185e+00 5.143903501334918928e+02
1.682970253455760012e+00 5.141740750127839874e+02
1.683070275460601062e+00 5.139573532630356567e+02
1.683170297465442111e+00 5.137401865352719597e+02
1.683270319470283383e+00 5.135225764889754601e+02
1.683370341475124432e+00 5.133045247920630345e+02
1.683470363479965481e+00 5.130860331208589287e+02
1.683570385484806753e+00 5.128671031600736114e+02
1.683670407489647580e+00 5.126477366027752396e+02
1.683770429494488630e+00 5.124279351503658972e+02
1.683870451499329679e+00 5.122077005125574942e+02
1.683970473504170728e+00 5.119870344073441970e+02
1.684070495509011778e+00 5.117659385609786113e+02
1.684170517513853049e+00 5.115444147079444974e+02
1.684270539518694099e+00 5.113224645909318724e+02
1.684370561523534926e+00 5.111000899608100099e+02
1.684470583528375975e+00 5.108772925766010076e+02
1.684570605533217247e+00 5.106540742054548332e+02
1.684670627538058296e+00 5.104304366226210163e+02
1.684770649542899346e+00 5.102063816114211363e+02
1.684870671547740395e+00 5.099819109632240384e+02
1.684970693552581444e+00 5.097570264774167867e+02
1.685070715557422272e+00 5.095317299613779483e+02
1.685170737562263543e+00 5.093060232304501369e+02
1.685270759567104593e+00 5.090799081079115354e+02
1.685370781571945642e+00 5.088533864249490648e+02
1.685470803576786913e+00 5.086264600206278033e+02
1.685570825581627963e+00 5.083991307418675092e+02
1.685670847586469012e+00 5.081714004434088565e+02
1.685770869591309840e+00 5.079432709877883099e+02
1.685870891596150889e+00 5.077147442453076565e+02
1.685970913600991938e+00 5.074858220940054707e+02
1.686070935605833210e+00 5.072565064196292042e+02
1.686170957610674259e+00 5.070267991156032963e+02
1.686270979615515309e+00 5.067967020830020601e+02
1.686371001620356580e+00 5.065662172305187596e+02
1.686471023625197407e+00 5.063353464744366761e+02
1.686571045630038457e+00 5.061040917385990952e+02
1.686671067634879506e+00 5.058724549543770763e+02
1.686771089639720556e+00 5.056404380606427935e+02
1.686871111644561605e+00 5.054080430037359406e+02
1.686971133649402876e+00 5.051752717374338317e+02
1.687071155654243926e+00 5.049421262229226386e+02
1.687171177659084753e+00 5.047086084287640233e+02
1.687271199663925803e+00 5.044747203308639882e+02
1.687371221668767074e+00 5.042404639124437153e+02
1.687471243673608123e+00 5.040058411640060285e+02
1.687571265678449173e+00 5.037708540833046982e+02
1.687671287683290222e+00 5.035355046753126089e+02
1.687771309688131272e+00 5.032997949521894157e+02
1.687871331692972099e+00 5.030637269332506207e+02
1.687971353697813370e+00 5.028273026449329564e+02
1.688071375702654420e+00 5.025905241207651102e+02
1.688171397707495469e+00 5.023533934013320845e+02
1.688271419712336741e+00 5.021159125342445577e+02
1.688371441717177790e+00 5.018780835741056876e+02
1.688471463722018839e+00 5.016399085824759823e+02
1.688571485726859667e+00 5.014013896278436277e+02
1.688671507731700716e+00 5.011625287855890178e+02
1.688771529736541765e+00 5.009233281379503069e+02
1.688871551741383037e+00 5.006837897739914069e+02
1.688971573746224086e+00 5.004439157895675407e+02
1.689071595751065136e+00 5.002037082872923293e+02
1.689171617755906407e+00 4.999631693765011278e+02
1.689271639760747235e+00 4.997223011732192504e+02
1.689371661765588284e+00 4.994811058001262722e+02
1.689471683770429333e+00 4.992395853865213553e+02
1.689571705775270383e+00 4.989977420682895399e+02
1.689671727780111432e+00 4.987555779878654221e+02
1.689771749784952704e+00 4.985130952941992746e+02
1.689871771789793753e+00 4.982702961427208947e+02
1.689971793794634580e+00 4.980271826953052141e+02
1.690071815799475630e+00 4.977837571202358617e+02
1.690171837804316901e+00 4.975400215921702056e+02
1.690271859809157950e+00 4.972959782921042233e+02
1.690371881813999000e+00 4.970516294073336780e+02
1.690471903818840049e+00 4.968069771314217746e+02
1.690571925823681099e+00 4.965620236641603356e+02
1.690671947828521926e+00 4.963167712115339327e+02
1.690771969833363197e+00 4.960712219856848151e+02
1.690871991838204247e+00 4.958253782048747667e+02
1.690972013843045296e+00 4.955792420934471352e+02
1.691072035847886568e+00 4.953328158817943745e+02
1.691172057852727617e+00 4.950861018063145593e+02
1.691272079857568666e+00 4.948391021093802919e+02
1.691372101862409494e+00 4.945918190392971496e+02
1.691472123867250543e+00 4.943442548502686122e+02
1.691572145872091593e+00 4.940964118023566130e+02
1.691672167876932864e+00 4.938482921614447605e+02
1.691772189881773913e+00 4.935998981992012205e+02
1.691872211886614963e+00 4.933512321930377880e+02
1.691972233891456234e+00 4.931022964260752701e+02
1.692072255896297062e+00 4.928530931871024450e+02
1.692172277901138111e+00 4.926036247705397955e+02
1.692272299905979160e+00 4.923538934763985253e+02
1.692372321910820210e+00 4.921039016102435539e+02
1.692472343915661259e+00 4.918536514831541808e+02
1.692572365920502531e+00 4.916031454116846362e+02
1.692672387925343580e+00 4.913523857178259959e+02
1.692772409930184407e+00 4.911013747289655953e+02
1.692872431935025457e+00 4.908501147778500808e+02
1.692972453939866728e+00 4.905986082025412998e+02
1.693072475944707778e+00 4.903468573463818529e+02
1.693172497949548827e+00 4.900948645579520075e+02
1.693272519954389876e+00 4.898426321910309298e+02
1.693372541959230926e+00 4.895901626045563830e+02
1.693472563964071753e+00 4.893374581625851079e+02
1.693572585968913025e+00 4.890845212342521791e+02
1.693672607973754074e+00 4.888313541937301352e+02
1.693772629978595123e+00 4.885779594201889608e+02
1.693872651983436395e+00 4.883243392977553867e+02
1.693972673988277444e+00 4.880704962154730424e+02
1.694072695993118494e+00 4.878164325672598238e+02
1.694172717997959321e+00 4.875621507518671933e+02
1.694272740002800370e+00 4.873076531728406735e+02
1.694372762007641420e+00 4.870529422384769305e+02
1.694472784012482691e+00 4.867980203617834150e+02
1.694572806017323741e+00 4.865428899604364688e+02
1.694672828022164790e+00 4.862875534567403406e+02
1.694772850027006061e+00 4.860320132775828483e+02
1.694872872031846889e+00 4.857762718543975780e+02
1.694972894036687938e+00 4.855203316231202280e+02
1.695072916041528988e+00 4.852641950241439304e+02
1.695172938046370037e+00 4.850078645022828141e+02
1.695272960051211086e+00 4.847513425067237449e+02
1.695372982056052358e+00 4.844946314909881266e+02
1.695473004060893407e+00 4.842377339128875064e+02
1.695573026065734235e+00 4.839806522344807149e+02
1.695673048070575284e+00 4.837233889220333367e+02
1.695773070075416555e+00 4.834659464459721221e+02
1.695873092080257605e+00 4.832083272808437755e+02
1.695973114085098654e+00 4.829505339052719819e+02
1.696073136089939704e+00 4.826925688019130121e+02
1.696173158094780753e+00 4.824344344574136585e+02
1.696273180099621580e+00 4.821761333623687733e+02
1.696373202104462852e+00 4.819176680112738040e+02
1.696473224109303901e+00 4.816590409024865380e+02
1.696573246114144951e+00 4.814002545381806613e+02
1.696673268118986222e+00 4.811413114243016480e+02
1.696773290123827271e+00 4.808822140705237871e+02
1.696873312128668321e+00 4.806229649902063557e+02
1.696973334133509148e+00 4.803635667003489402e+02
1.697073356138350197e+00 4.801040217215490884e+02
1.697173378143191247e+00 4.798443325779553561e+02
1.697273400148032518e+00 4.795845017972245614e+02
1.697373422152873568e+00 4.793245319104776172e+02
1.697473444157714617e+00 4.790644254522546817e+02
1.697573466162555889e+00 4.788041849604695699e+02
1.697673488167396716e+00 4.785438129763675192e+02
1.697773510172237765e+00 4.782833120444780661e+02
1.697873532177078815e+00 4.780226847125706513e+02
1.697973554181919864e+00 4.777619335316108504e+02
1.698073576186760913e+00 4.775010610557151836e+02
1.698173598191602185e+00 4.772400698421027982e+02
1.698273620196443234e+00 4.769789624510558497e+02
1.698373642201284062e+00 4.767177414458698763e+02
1.698473664206125111e+00 4.764564093928096327e+02
1.698573686210966383e+00 4.761949688610635008e+02
1.698673708215807432e+00 4.759334224226993797e+02
1.698773730220648481e+00 4.756717726526173919e+02
1.698873752225489531e+00 4.754100221285044086e+02
1.698973774230330580e+00 4.751481734307888019e+02
1.699073796235171407e+00 4.748862291425945159e+02
1.699173818240012679e+00 4.746241918496952508e+02
1.699273840244853728e+00 4.743620641404678508e+02
1.699373862249694778e+00 4.740998486058463754e+02
1.699473884254536049e+00 4.738375478392771356e+02
1.699573906259377098e+00 4.735751644366700361e+02
1.699673928264218148e+00 4.733127009963558862e+02
1.699773950269058975e+00 4.730501601190359793e+02
1.699873972273900025e+00 4.727875444077380962e+02
1.699973994278741074e+00 4.725248564677705190e+02
1.700074016283582345e+00 4.722620989066733728e+02
1.700174038288423395e+00 4.719992743341732080e+02
1.700274060293264444e+00 4.717363853621361045e+02
1.700374082298105272e+00 4.714734346045214011e+02
1.700474104302946543e+00 4.712104246773336627e+02
1.700574126307787592e+00 4.709473581985777741e+02
1.700674148312628642e+00 4.706842377882089750e+02
1.700774170317469691e+00 4.704210660680888623e+02
1.700874192322310741e+00 4.701578456619363351e+02
1.700974214327152012e+00 4.698945791952822333e+02
1.701074236331992839e+00 4.696312692954188606e+02
1.701174258336833889e+00 4.693679185913570677e+02
1.701274280341674938e+00 4.691045297137764010e+02
1.701374302346516210e+00 4.688411052949767850e+02
1.701474324351357259e+00 4.685776479688336167e+02
1.701574346356198308e+00 4.683141603707483682e+02
1.701674368361039358e+00 4.680506451376023733e+02
1.701774390365880185e+00 4.677871049077083399e+02
1.701874412370721235e+00 4.675235423207628287e+02
1.701974434375562506e+00 4.672599600177994716e+02
1.702074456380403555e+00 4.669963606411388355e+02
1.702174478385244605e+00 4.667327468343445958e+02
1.702274500390085876e+00 4.664691212421718660e+02
1.702374522394926926e+00 4.662054865105207000e+02
1.702474544399767753e+00 4.659418452863899347e+02
1.702574566404608802e+00 4.656782002178258608e+02
1.702674588409449852e+00 4.654145539538776575e+02
1.702774610414290901e+00 4.651509091445461195e+02
1.702874632419132173e+00 4.648872684407382394e+02
1.702974654423973222e+00 4.646236344942172991e+02
1.703074676428814271e+00 4.643600099575564855e+02
1.703174698433655099e+00 4.640963974840885840e+02
1.703274720438496370e+00 4.638327997278590829e+02
1.703374742443337420e+00 4.635692193435776858e+02
1.703474764448178469e+00 4.633056589865696537e+02
1.703574786453019518e+00 4.630421213127288524e+02
1.703674808457860568e+00 4.627786089784660817e+02
1.703774830462701839e+00 4.625151246406649648e+02
1.703874852467542667e+00 4.622516709566298232e+02
1.703974874472383716e+00 4.619882505840403155e+02
1.704074896477224765e+00 4.617248661809005625e+02
1.704174918482066037e+00 4.614615204054913420e+02
1.704274940486907086e+00 4.611982159163213737e+02
1.704374962491748136e+00 4.609349553720804238e+02
1.704474984496589185e+00 4.606717414315879182e+02
1.704575006501430012e+00 4.604085767537472975e+02
1.704675028506271062e+00 4.601454639974945167e+02
1.704775050511112333e+00 4.598824058217506945e+02
1.704875072515953383e+00 4.596194048853751610e+02
1.704975094520794432e+00 4.593564638471130479e+02
1.705075116525635703e+00 4.590935853655498704e+02
1.705175138530476753e+00 4.588307720990609369e+02
1.705275160535317580e+00 4.585680267057639981e+02
1.705375182540158630e+00 4.583053518434681450e+02
1.705475204544999679e+00 4.580427501696286754e+02
1.705575226549840728e+00 4.577802243412949110e+02
1.705675248554682000e+00 4.575177770150630749e+02
1.705775270559523049e+00 4.572554108470265533e+02
1.705875292564364099e+00 4.569931284927287152e+02
1.705975314569204926e+00 4.567309326071127771e+02
1.706075336574046197e+00 4.564688258444722351e+02
1.706175358578887247e+00 4.562068108584045376e+02
1.706275380583728296e+00 4.559448903017596422e+02
1.706375402588569345e+00 4.556830668265937447e+02
1.706475424593410395e+00 4.554213430841166428e+02
1.706575446598251666e+00 4.551597217246472837e+02
1.706675468603092494e+00 4.548982053975623785e+02
1.706775490607933543e+00 4.546367967512474024e+02
1.706875512612774592e+00 4.543754984330491880e+02
1.706975534617615864e+00 4.541143130892258455e+02
1.707075556622456913e+00 4.538532433648984465e+02
1.707175578627297963e+00 4.535922919040027637e+02
1.707275600632139012e+00 4.533314613492394756e+02
1.707375622636979839e+00 4.530707543420246566e+02
1.707475644641820889e+00 4.528101735224434492e+02
1.707575666646662160e+00 4.525497215291997577e+02
1.707675688651503210e+00 4.522894009995660554e+02
1.707775710656344259e+00 4.520292145693381372e+02
1.707875732661185531e+00 4.517691648727832217e+02
1.707975754666026580e+00 4.515092545425924868e+02
1.708075776670867407e+00 4.512494862098314456e+02
1.708175798675708457e+00 4.509898625038930504e+02
1.708275820680549506e+00 4.507303860524477273e+02
1.708375842685390555e+00 4.504710594813944340e+02
1.708475864690231827e+00 4.502118854148125706e+02
1.708575886695072876e+00 4.499528664749132076e+02
1.708675908699913926e+00 4.496940052819901439e+02
1.708775930704754753e+00 4.494353044543721012e+02
1.708875952709596024e+00 4.491767666083734980e+02
1.708975974714437074e+00 4.489183943582461893e+02
1.709075996719278123e+00 4.486601903161307519e+02
1.709176018724119173e+00 4.484021570920079398e+02
1.709276040728960222e+00 4.481442972936501405e+02
1.709376062733801493e+00 4.478866135265737967e+02
1.709476084738642321e+00 4.476291083939897248e+02
1.709576106743483370e+00 4.473717844967559927e+02
1.709676128748324420e+00 4.471146444333287491e+02
1.709776150753165691e+00 4.468576907997131684e+02
1.709876172758006740e+00 4.466009261894176916e+02
1.709976194762847790e+00 4.463443531934033217e+02
1.710076216767688839e+00 4.460879744000361598e+02
1.710176238772529667e+00 4.458317923950400541e+02
1.710276260777370716e+00 4.455758097614477720e+02
1.710376282782211987e+00 4.453200290795521710e+02
1.710476304787053037e+00 4.450644529268603833e+02
1.710576326791894086e+00 4.448090838780428840e+02
1.710676348796735358e+00 4.445539245048879025e+02
1.710776370801576407e+00 4.442989773762528785e+02
1.710876392806417234e+00 4.440442450580156901e+02
1.710976414811258284e+00 4.437897301130285541e+02
1.711076436816099333e+00 4.435354351010676623e+02
1.711176458820940383e+00 4.432813625787888441e+02
1.711276480825781654e+00 4.430275150996772027e+02
1.711376502830622703e+00 4.427738952140001629e+02
1.711476524835463753e+00 4.425205054687606321e+02
1.711576546840304580e+00 4.422673484076491945e+02
1.711676568845145852e+00 4.420144265709956244e+02
1.711776590849986901e+00 4.417617424957227854e+02
1.711876612854827950e+00 4.415092987152995079e+02
1.711976634859669000e+00 4.412570977596914190e+02
1.712076656864510049e+00 4.410051421553157525e+02
1.712176678869351321e+00 4.407534344249928608e+02
1.712276700874192148e+00 4.405019770879005137e+02
1.712376722879033197e+00 4.402507726595247846e+02
1.712476744883874247e+00 4.399998236516149177e+02
1.712576766888715518e+00 4.397491325721356361e+02
1.712676788893556568e+00 4.394987019252203595e+02
1.712776810898397617e+00 4.392485342111247633e+02
1.712876832903238666e+00 4.389986319261786321e+02
1.712976854908079494e+00 4.387489975627424883e+02
1.713076876912920543e+00 4.384996336091565468e+02
1.713176898917761815e+00 4.382505425496979683e+02
1.713276920922602864e+00 4.380017268645329978e+02
1.713376942927443913e+00 4.377531890296701249e+02
1.713476964932285185e+00 4.375049315169140982e+02
1.713576986937126234e+00 4.372569567938206774e+02
1.713677008941967062e+00 4.370092673236493397e+02
1.713777030946808111e+00 4.367618655653175210e+02
1.713877052951649160e+00 4.365147539733553685e+02
1.713977074956490210e+00 4.362679349978587879e+02
1.714077096961331481e+00 4.360214110844437982e+02
1.714177118966172531e+00 4.357751846742017392e+02
1.714277140971013580e+00 4.355292582036522617e+02
1.714377162975854407e+00 4.352836341046992743e+02
1.714477184980695679e+00 4.350383148045845019e+02
1.714577206985536728e+00 4.347933027258415564e+02
1.714677228990377778e+00 4.345486002862530199e+02
1.714777250995218827e+00 4.343042098988011617e+02
1.714877273000059876e+00 4.340601339716274651e+02
1.714977295004901148e+00 4.338163749079840272e+02
1.715077317009741975e+00 4.335729351061904708e+02
1.715177339014583024e+00 4.333298169595884701e+02
1.715277361019424074e+00 4.330870228564976401e+02
1.715377383024265345e+00 4.328445551801694364e+02
1.715477405029106395e+00 4.326024163087432726e+02
1.715577427033947444e+00 4.323606086152042280e+02
1.715677449038788493e+00 4.321191344673343337e+02
1.715777471043629321e+00 4.318779962276723836e+02
1.715877493048470370e+00 4.316371962534675504e+02
1.715977515053311642e+00 4.313967368966355593e+02
1.716077537058152691e+00 4.311566205037158852e+02
1.716177559062993740e+00 4.309168494158261069e+02
1.716277581067835012e+00 4.306774259686192181e+02
1.716377603072676061e+00 4.304383524922410516e+02
1.716477625077516889e+00 4.301996313112838948e+02
1.716577647082357938e+00 4.299612647447457334e+02
1.716677669087198987e+00 4.297232551059856860e+02
1.716777691092040037e+00 4.294856047026813144e+02
1.716877713096881308e+00 4.292483158367839451e+02
1.716977735101722358e+00 4.290113908044788218e+02
1.717077757106563407e+00 4.287748318961387781e+02
1.717177779111404234e+00 4.285386413962839924e+02
1.717277801116245506e+00 4.283028215835382184e+02
1.717377823121086555e+00 4.280673747305858114e+02
1.717477845125927605e+00 4.278323031041309719e+02
1.717577867130768654e+00 4.275976089648540892e+02
1.717677889135609703e+00 4.273632945673689960e+02
1.717777911140450531e+00 4.271293621601830068e+02
1.717877933145291802e+00 4.268958139856530920e+02
1.717977955150132852e+00 4.266626522799451777e+02
1.718077977154973901e+00 4.264298792729916272e+02
1.718177999159815172e+00 4.261974971884503134e+02
1.718278021164656222e+00 4.259655082436631233e+02
1.718378043169497271e+00 4.257339146496143485e+02
1.718478065174338099e+00 4.255027186108895307e+02
1.718578087179179148e+00 4.252719223256345344e+02
1.718678109184020197e+00 4.250415279855141080e+02
1.718778131188861469e+00 4.248115377756727185e+02
1.718878153193702518e+00 4.245819538746919761e+02
1.718978175198543568e+00 4.243527784545506734e+02
1.719078197203384839e+00 4.241240136805855627e+02
1.719178219208225666e+00 4.238956617114492929e+02
1.719278241213066716e+00 4.236677246990705044e+02
1.719378263217907765e+00 4.234402047886157447e+02
1.719478285222748815e+00 4.232131041184479727e+02
1.719578307227589864e+00 4.229864248200865404e+02
1.719678329232431135e+00 4.227601690181687673e+02
1.719778351237272185e+00 4.225343388304100927e+02
1.719878373242113012e+00 4.223089363675640016e+02
1.719978395246954062e+00 4.220839637333845076e+02
1.720078417251795333e+00 4.218594230245853964e+02
1.720178439256636382e+00 4.216353163308024250e+02
1.720278461261477432e+00 4.214116457345540994e+02
1.720378483266318481e+00 4.211884133112042150e+02
1.720478505271159531e+00 4.209656211289214980e+02
1.720578527276000358e+00 4.207432712486424862e+02
1.720678549280841629e+00 4.205213657240344673e+02
1.720778571285682679e+00 4.202999066014544951e+02
1.720878593290523728e+00 4.200788959199151122e+02
1.720978615295365000e+00 4.198583357110433099e+02
1.721078637300206049e+00 4.196382279990468191e+02
1.721178659305047098e+00 4.194185748006721042e+02
1.721278681309887926e+00 4.191993781251718474e+02
1.721378703314728975e+00 4.189806399742633403e+02
1.721478725319570025e+00 4.187623623420968784e+02
1.721578747324411296e+00 4.185445472152130151e+02
1.721678769329252345e+00 4.183271965725116388e+02
1.721778791334093395e+00 4.181103123852110457e+02
1.721878813338934666e+00 4.178938966168139473e+02
1.721978835343775494e+00 4.176779512230716591e+02
1.722078857348616543e+00 4.174624781519473800e+02
1.722178879353457592e+00 4.172474793435800393e+02
1.722278901358298642e+00 4.170329567302493388e+02
1.722378923363139691e+00 4.168189122363397132e+02
1.722478945367980963e+00 4.166053477783067933e+02
1.722578967372822012e+00 4.163922652646393772e+02
1.722678989377662839e+00 4.161796665958274843e+02
1.722779011382503889e+00 4.159675536643244413e+02
1.722879033387345160e+00 4.157559283545161861e+02
1.722979055392186210e+00 4.155447925426826146e+02
1.723079077397027259e+00 4.153341480969664872e+02
1.723179099401868308e+00 4.151239968773379587e+02
1.723279121406709358e+00 4.149143407355601312e+02
1.723379143411550185e+00 4.147051815151577898e+02
1.723479165416391456e+00 4.144965210513804550e+02
1.723579187421232506e+00 4.142883611711710046e+02
1.723679209426073555e+00 4.140807036931325342e+02
1.723779231430914827e+00 4.138735504274942514e+02
1.723879253435755876e+00 4.136669031760798703e+02
1.723979275440596926e+00 4.134607637322736196e+02
1.724079297445437753e+00 4.132551338809883532e+02
1.724179319450278802e+00 4.130500153986340592e+02
1.724279341455119852e+00 4.128454100530834694e+02
1.724379363459961123e+00 4.126413196036435238e+02
1.724479385464802172e+00 4.124377458010193322e+02
1.724579407469643222e+00 4.122346903872862640e+02
1.724679429474484493e+00 4.120321550958564103e+02
1.724779451479325321e+00 4.118301416514489119e+02
1.724879473484166370e+00 4.116286517700573881e+02
1.724979495489007419e+00 4.114276871589195252e+02
1.725079517493848469e+00 4.112272495164866655e+02
1.725179539498689518e+00 4.110273405323941915e+02
1.725279561503530790e+00 4.108279618874291828e+02
1.725379583508371839e+00 4.106291152535018796e+02
1.725479605513212666e+00 4.104308022936162388e+02
1.725579627518053716e+00 4.102330246618373621e+02
1.725679649522894987e+00 4.100357840032656895e+02
1.725779671527736037e+00 4.098390819540053940e+02
1.725879693532577086e+00 4.096429201411359031e+02
1.725979715537418135e+00 4.094473001826822838e+02
1.726079737542259185e+00 4.092522236875879003e+02
1.726179759547100012e+00 4.090576922556843442e+02
1.726279781551941284e+00 4.088637074776641498e+02
1.726379803556782333e+00 4.086702709350516329e+02
1.726479825561623382e+00 4.084773842001767434e+02
1.726579847566464654e+00 4.082850488361447105e+02
1.726679869571305703e+00 4.080932663968109182e+02
1.726779891576146753e+00 4.079020384267518011e+02
1.726879913580987580e+00 4.077113664612402317e+02
1.726979935585828629e+00 4.075212520262131761e+02
1.727079957590669679e+00 4.073316966382519695e+02
1.727179979595510950e+00 4.071427018045512796e+02
1.727280001600352000e+00 4.069542690228928450e+02
1.727380023605193049e+00 4.067663997816210895e+02
1.727480045610034320e+00 4.065790955596166896e+02
1.727580067614875148e+00 4.063923578262704268e+02
1.727680089619716197e+00 4.062061880414572101e+02
1.727780111624557247e+00 4.060205876555116333e+02
1.727880133629398296e+00 4.058355581092035322e+02
1.727980155634239345e+00 4.056511008337108137e+02
1.728080177639080617e+00 4.054672172505970593e+02
1.728180199643921666e+00 4.052839087717859456e+02
1.728280221648762494e+00 4.051011767995361197e+02
1.728380243653603543e+00 4.049190227264206214e+02
1.728480265658444814e+00 4.047374479352986896e+02
1.728580287663285864e+00 4.045564537992941609e+02
1.728680309668126913e+00 4.043760416817726764e+02
1.728780331672967963e+00 4.041962129363172380e+02
1.728880353677809012e+00 4.040169689067065519e+02
1.728980375682649839e+00 4.038383109268908129e+02
1.729080397687491111e+00 4.036602403209696490e+02
1.729180419692332160e+00 4.034827584031707488e+02
1.729280441697173210e+00 4.033058664778268962e+02
1.729380463702014481e+00 4.031295658393536883e+02
1.729480485706855530e+00 4.029538577722280479e+02
1.729580507711696580e+00 4.027787435509678176e+02
1.729680529716537407e+00 4.026042244401095331e+02
1.729780551721378457e+00 4.024303016941875057e+02
1.729880573726219506e+00 4.022569765577127896e+02
1.729980595731060777e+00 4.020842502651538553e+02
1.730080617735901827e+00 4.019121240409143638e+02
1.730180639740742876e+00 4.017405990993146929e+02
1.730280661745584148e+00 4.015696766445706771e+02
1.730380683750424975e+00 4.013993578707755319e+02
1.730480705755266024e+00 4.012296439618785371e+02
1.730580727760107074e+00 4.010605360916670179e+02
1.730680749764948123e+00 4.008920354237471315e+02
1.730780771769789173e+00 4.007241431115245405e+02
1.730880793774630444e+00 4.005568602981874164e+02
1.730980815779471493e+00 4.003901881166850103e+02
1.731080837784312321e+00 4.002241276897138960e+02
1.731180859789153370e+00 4.000586801296954604e+02
1.731280881793994642e+00 3.998938465387618635e+02
1.731380903798835691e+00 3.997296280087367677e+02
1.731480925803676740e+00 3.995660256211190244e+02
1.731580947808517790e+00 3.994030404470644839e+02
1.731680969813358839e+00 3.992406735473707045e+02
1.731780991818199666e+00 3.990789259724603539e+02
1.731881013823040938e+00 3.989177987623629633e+02
1.731981035827881987e+00 3.987572929467015683e+02
1.732081057832723037e+00 3.985974095446749743e+02
1.732181079837564308e+00 3.984381495650434317e+02
1.732281101842405358e+00 3.982795140061126631e+02
1.732381123847246407e+00 3.981215038557177763e+02
1.732481145852087234e+00 3.979641200912112140e+02
1.732581167856928284e+00 3.978073636794446770e+02
1.732681189861769333e+00 3.976512355767570170e+02
1.732781211866610604e+00 3.974957367289601962e+02
1.732881233871451654e+00 3.973408680713235412e+02
1.732981255876292703e+00 3.971866305285610679e+02
1.733081277881133975e+00 3.970330250148191453e+02
1.733181299885974802e+00 3.968800524336606372e+02
1.733281321890815851e+00 3.967277136780545561e+02
1.733381343895656901e+00 3.965760096303612841e+02
1.733481365900497950e+00 3.964249411623211472e+02
1.733581387905339000e+00 3.962745091350433881e+02
1.733681409910180271e+00 3.961247143989900792e+02
1.733781431915021320e+00 3.959755577939694149e+02
1.733881453919862148e+00 3.958270401491196253e+02
1.733981475924703197e+00 3.956791622829009611e+02
1.734081497929544469e+00 3.955319250030825060e+02
1.734181519934385518e+00 3.953853291067326836e+02
1.734281541939226567e+00 3.952393753802078891e+02
1.734381563944067617e+00 3.950940645991423708e+02
1.734481585948908666e+00 3.949493975284377143e+02
1.734581607953749494e+00 3.948053749222540887e+02
1.734681629958590765e+00 3.946619975239989913e+02
1.734781651963431814e+00 3.945192660663197444e+02
1.734881673968272864e+00 3.943771812710918994e+02
1.734981695973114135e+00 3.942357438494124153e+02
1.735081717977955185e+00 3.940949545015907347e+02
1.735181739982796012e+00 3.939548139171390631e+02
1.735281761987637061e+00 3.938153227747653773e+02
1.735381783992478111e+00 3.936764817423656382e+02
1.735481805997319160e+00 3.935382914770151501e+02
1.735581828002160432e+00 3.934007526249604325e+02
1.735681850007001481e+00 3.932638658216151839e+02
1.735781872011842530e+00 3.931276316915498796e+02
1.735881894016683358e+00 3.929920508484860875e+02
1.735981916021524629e+00 3.928571238952923750e+02
1.736081938026365679e+00 3.927228514239729407e+02
1.736181960031206728e+00 3.925892340156673299e+02
1.736281982036047777e+00 3.924562722406406579e+02
1.736382004040888827e+00 3.923239666582807672e+02
1.736482026045730098e+00 3.921923178170893038e+02
1.736582048050570926e+00 3.920613262546817737e+02
1.736682070055411975e+00 3.919309924977787887e+02
1.736782092060253024e+00 3.918013170622030543e+02
1.736882114065094296e+00 3.916723004528754473e+02
1.736982136069935345e+00 3.915439431638095584e+02
1.737082158074776395e+00 3.914162456781103288e+02
1.737182180079617444e+00 3.912892084679666027e+02
1.737282202084458271e+00 3.911628319946532315e+02
1.737382224089299321e+00 3.910371167085229445e+02
1.737482246094140592e+00 3.909120630490072017e+02
1.737582268098981642e+00 3.907876714446110782e+02
1.737682290103822691e+00 3.906639423129121269e+02
1.737782312108663962e+00 3.905408760605593557e+02
1.737882334113505012e+00 3.904184730832686228e+02
1.737982356118345839e+00 3.902967337658247970e+02
1.738082378123186889e+00 3.901756584820774378e+02
1.738182400128027938e+00 3.900552475949402265e+02
1.738282422132868987e+00 3.899355014563917621e+02
1.738382444137710259e+00 3.898164204074734585e+02
1.738482466142551308e+00 3.896980047782904535e+02
1.738582488147392358e+00 3.895802548880093923e+02
1.738682510152233185e+00 3.894631710448610420e+02
1.738782532157074456e+00 3.893467535461402349e+02
1.738882554161915506e+00 3.892310026782047885e+02
1.738982576166756555e+00 3.891159187164783475e+02
1.739082598171597605e+00 3.890015019254512367e+02
1.739182620176438654e+00 3.888877525586814272e+02
1.739282642181279925e+00 3.887746708587954458e+02
1.739382664186120753e+00 3.886622570574922975e+02
1.739482686190961802e+00 3.885505113755446018e+02
1.739582708195802851e+00 3.884394340228005262e+02
1.739682730200644123e+00 3.883290251981861729e+02
1.739782752205485172e+00 3.882192850897107519e+02
1.739882774210326222e+00 3.881102138744670356e+02
1.739982796215167271e+00 3.880018117186366453e+02
1.740082818220008098e+00 3.878940787774923820e+02
1.740182840224849148e+00 3.877870151954028870e+02
1.740282862229690419e+00 3.876806211058374174e+02
1.740382884234531469e+00 3.875748966313686878e+02
1.740482906239372518e+00 3.874698418836787823e+02
1.740582928244213790e+00 3.873654569635629059e+02
1.740682950249054839e+00 3.872617419609362059e+02
1.740782972253895666e+00 3.871586969548378647e+02
1.740882994258736716e+00 3.870563220134363860e+02
1.740983016263577765e+00 3.869546171940372687e+02
1.741083038268418814e+00 3.868535825430871000e+02
1.741183060273260086e+00 3.867532180961814561e+02
1.741283082278101135e+00 3.866535238780705299e+02
1.741383104282942185e+00 3.865544999026671462e+02
1.741483126287783012e+00 3.864561461730519909e+02
1.741583148292624283e+00 3.863584626814833882e+02
1.741683170297465333e+00 3.862614494094033830e+02
1.741783192302306382e+00 3.861651063274447893e+02
1.741883214307147432e+00 3.860694333954421040e+02
1.741983236311988481e+00 3.859744305624363960e+02
1.742083258316829752e+00 3.858800977666876975e+02
1.742183280321670580e+00 3.857864349356800631e+02
1.742283302326511629e+00 3.856934419861331662e+02
1.742383324331352679e+00 3.856011188240108822e+02
1.742483346336193950e+00 3.855094653445309518e+02
1.742583368341034999e+00 3.854184814321741896e+02
1.742683390345876049e+00 3.853281669606959667e+02
1.742783412350717098e+00 3.852385217931338275e+02
1.742883434355557926e+00 3.851495457818222121e+02
1.742983456360398975e+00 3.850612387683999032e+02
1.743083478365240246e+00 3.849736005838215078e+02
1.743183500370081296e+00 3.848866310483699635e+02
1.743283522374922345e+00 3.848003299716664287e+02
1.743383544379763617e+00 3.847146971526847210e+02
1.743483566384604666e+00 3.846297323797601280e+02
1.743583588389445493e+00 3.845454354306039590e+02
1.743683610394286543e+00 3.844618060723149711e+02
1.743783632399127592e+00 3.843788440613916464e+02
1.743883654403968642e+00 3.842965491437470291e+02
1.743983676408809913e+00 3.842149210547208327e+02
1.744083698413650962e+00 3.841339595190918317e+02
1.744183720418492012e+00 3.840536642510938350e+02
1.744283742423332839e+00 3.839740349544266564e+02
1.744383764428174111e+00 3.838950713222741342e+02
1.744483786433015160e+00 3.838167730373151016e+02
1.744583808437856209e+00 3.837391397717395307e+02
1.744683830442697259e+00 3.836621711872638798e+02
1.744783852447538308e+00 3.835858669351448498e+02
1.744883874452379580e+00 3.835102266561962097e+02
1.744983896457220407e+00 3.834352499808036896e+02
1.745083918462061456e+00 3.833609365289399875e+02
1.745183940466902506e+00 3.832872859101822769e+02
1.745283962471743777e+00 3.832142977237294872e+02
1.745383984476584827e+00 3.831419715584140135e+02
1.745484006481425876e+00 3.830703069927251931e+02
1.745584028486266925e+00 3.829993035948210718e+02
1.745684050491107753e+00 3.829289609225476170e+02
1.745784072495948802e+00 3.828592785234571352e+02
1.745884094500790074e+00 3.827902559348243585e+02
1.745984116505631123e+00 3.827218926836650894e+02
1.746084138510472172e+00 3.826541882867551863e+02
1.746184160515313444e+00 3.825871422506458543e+02
1.746284182520154493e+00 3.825207540716875769e+02
1.746384204524995321e+00 3.824550232360441555e+02
1.746484226529836370e+00 3.823899492197139693e+02
1.746584248534677419e+00 3.823255314885502116e+02
1.746684270539518469e+00 3.822617694982775447e+02
1.746784292544359740e+00 3.821986626945151784e+02
1.746884314549200790e+00 3.821362105127944915e+02
1.746984336554041839e+00 3.820744123785804618e+02
1.747084358558882666e+00 3.820132677072926981e+02
1.747184380563723938e+00 3.819527759043245396e+02
1.747284402568564987e+00 3.818929363650645996e+02
1.747384424573406037e+00 3.818337484749192186e+02
1.747484446578247086e+00 3.817752116093316204e+02
1.747584468583088135e+00 3.817173251338063551e+02
1.747684490587929407e+00 3.816600884039272614e+02
1.747784512592770234e+00 3.816035007653846378e+02
1.747884534597611284e+00 3.815475615539916703e+02
1.747984556602452333e+00 3.814922700957129109e+02
1.748084578607293604e+00 3.814376257066826952e+02
1.748184600612134654e+00 3.813836276932288456e+02
1.748284622616975703e+00 3.813302753518979671e+02
1.748384644621816753e+00 3.812775679694770474e+02
1.748484666626657580e+00 3.812255048230164221e+02
1.748584688631498629e+00 3.811740851798563767e+02
1.748684710636339901e+00 3.811233082976483502e+02
1.748784732641180950e+00 3.810731734243810251e+02
1.748884754646021999e+00 3.810236797984032364e+02
1.748984776650863271e+00 3.809748266484507440e+02
1.749084798655704320e+00 3.809266131936697661e+02
1.749184820660545148e+00 3.808790386436419340e+02
1.749284842665386197e+00 3.808321021984108370e+02
1.749384864670227246e+00 3.807858030485057270e+02
1.749484886675068296e+00 3.807401403749701103e+02
1.749584908679909567e+00 3.806951133493860766e+02
1.749684930684750617e+00 3.806507211338988554e+02
1.749784952689591666e+00 3.806069628812463179e+02
1.749884974694432493e+00 3.805638377347843289e+02
1.749984996699273765e+00 3.805213448285134064e+02
1.750085018704114814e+00 3.804794832871058361e+02
1.750185040708955864e+00 3.804382522259331267e+02
1.750285062713796913e+00 3.803976507510931242e+02
1.750385084718637962e+00 3.803576779594387745e+02
1.750485106723479234e+00 3.803183329386046125e+02
1.750585128728320061e+00 3.802796147670358096e+02
1.750685150733161111e+00 3.802415225140152870e+02
1.750785172738002160e+00 3.802040552396949238e+02
1.750885194742843431e+00 3.801672119951210789e+02
1.750985216747684481e+00 3.801309918222648321e+02
1.751085238752525530e+00 3.800953937540523384e+02
1.751185260757366580e+00 3.800604168143916013e+02
1.751285282762207407e+00 3.800260600182049302e+02
1.751385304767048456e+00 3.799923223714550318e+02
1.751485326771889728e+00 3.799592028711791727e+02
1.751585348776730777e+00 3.799267005055160098e+02
1.751685370781571827e+00 3.798948142537375361e+02
1.751785392786413098e+00 3.798635430862783551e+02
1.751885414791254147e+00 3.798328859647680815e+02
1.751985436796094975e+00 3.798028418420610137e+02
1.752085458800936024e+00 3.797734096622677384e+02
1.752185480805777074e+00 3.797445883607852011e+02
1.752285502810618123e+00 3.797163768643310959e+02
1.752385524815459394e+00 3.796887740909724585e+02
1.752485546820300444e+00 3.796617789501590323e+02
1.752585568825141271e+00 3.796353903427549312e+02
1.752685590829982321e+00 3.796096071610716649e+02
1.752785612834823592e+00 3.795844282888994030e+02
1.752885634839664641e+00 3.795598526015411949e+02
1.752985656844505691e+00 3.795358789658423575e+02
1.753085678849346740e+00 3.795125062402292428e+02
1.753185700854187790e+00 3.794897332747361247e+02
1.753285722859028617e+00 3.794675589110441933e+02
1.753385744863869888e+00 3.794459819825098634e+02
1.753485766868710938e+00 3.794250013142033140e+02
1.753585788873551987e+00 3.794046157229387290e+02
1.753685810878393259e+00 3.793848240173113027e+02
1.753785832883234308e+00 3.793656249977285029e+02
1.753885854888075357e+00 3.793470174564471904e+02
1.753985876892916185e+00 3.793290001776080089e+02
1.754085898897757234e+00 3.793115719372676153e+02
1.754185920902598284e+00 3.792947315034363100e+02
1.754285942907439555e+00 3.792784776361128820e+02
1.754385964912280604e+00 3.792628090873187716e+02
1.754485986917121654e+00 3.792477246011347916e+02
1.754586008921962925e+00 3.792332229137359718e+02
1.754686030926803753e+00 3.792193027534289058e+02
1.754786052931644802e+00 3.792059628406841512e+02
1.754886074936485851e+00 3.791932018881775548e+02
1.754986096941326901e+00 3.791810186008232222e+02
1.755086118946167950e+00 3.791694116758098971e+02
1.755186140951009222e+00 3.791583798026390468e+02
1.755286162955850271e+00 3.791479216631629470e+02
1.755386184960691098e+00 3.791380359316186741e+02
1.755486206965532148e+00 3.791287212746657929e+02
1.755586228970373419e+00 3.791199763514272831e+02
1.755686250975214469e+00 3.791117998135214862e+02
1.755786272980055518e+00 3.791041903051057034e+02
1.755886294984896567e+00 3.790971464629091088e+02
1.755986316989737617e+00 3.790906669162728804e+02
1.756086338994578444e+00 3.790847502871903316e+02
1.756186360999419716e+00 3.790793951903402217e+02
1.756286383004260765e+00 3.790746002331305249e+02
1.756386405009101814e+00 3.790703640157331051e+02
1.756486427013943086e+00 3.790666851311253822e+02
1.756586449018784135e+00 3.790635621651271663e+02
1.756686471023625185e+00 3.790609936964416988e+02
1.756786493028466012e+00 3.790589782966924872e+02
1.756886515033307061e+00 3.790575145304651414e+02
1.756986537038148111e+00 3.790566009553448339e+02
1.757086559042989382e+00 3.790562361219582499e+02
1.757186581047830432e+00 3.790564185740105358e+02
1.757286603052671481e+00 3.790571468483288413e+02
1.757386625057512752e+00 3.790584194748985283e+02
1.757486647062353580e+00 3.790602349769065995e+02
1.757586669067194629e+00 3.790625918707809774e+02
1.757686691072035678e+00 3.790654886662308058e+02
1.757786713076876728e+00 3.790689238662870366e+02
1.757886735081717777e+00 3.790728959673442091e+02
1.757986757086559049e+00 3.790774034592004682e+02
1.758086779091400098e+00 3.790824448250994010e+02
1.758186801096240925e+00 3.790880185417694861e+02
1.758286823101081975e+00 3.790941230794686589e+02
1.758386845105923246e+00 3.791007569020235906e+02
1.758486867110764296e+00 3.791079184668714106e+02
1.758586889115605345e+00 3.791156062251022831e+02
1.758686911120446394e+00 3.791238186215000496e+02
1.758786933125287444e+00 3.791325540945865669e+02
1.758886955130128271e+00 3.791418110766617247e+02
1.758986977134969543e+00 3.791515879938459079e+02
1.759086999139810592e+00 3.791618832661237093e+02
1.759187021144651641e+00 3.791726953073850837e+02
1.759287043149492913e+00 3.791840225254696861e+02
1.759387065154333962e+00 3.791958633222074582e+02
1.759487087159175012e+00 3.792082160934635908e+02
1.759587109164015839e+00 3.792210792291801909e+02
1.759687131168856888e+00 3.792344511134201639e+02
1.759787153173697938e+00 3.792483301244097333e+02
1.759887175178539209e+00 3.792627146345831761e+02
1.759987197183380259e+00 3.792776030106244889e+02
1.760087219188221308e+00 3.792929936135127491e+02
1.760187241193062579e+00 3.793088847985645771e+02
1.760287263197903407e+00 3.793252749154788717e+02
1.760387285202744456e+00 3.793421623083797272e+02
1.760487307207585506e+00 3.793595453158615101e+02
1.760587329212426555e+00 3.793774222710331969e+02
1.760687351217267604e+00 3.793957915015603248e+02
1.760787373222108876e+00 3.794146513297128536e+02
1.760887395226949925e+00 3.794340000724075708e+02
1.760987417231790753e+00 3.794538360412518614e+02
1.761087439236631802e+00 3.794741575425909446e+02
1.761187461241473073e+00 3.794949628775506199e+02
1.761287483246314123e+00 3.795162503420822304e+02
1.761387505251155172e+00 3.795380182270095020e+02
1.761487527255996222e+00 3.795602648180719143e+02
1.761587549260837271e+00 3.795829883959685844e+02
1.761687571265678098e+00 3.796061872364076635e+02
1.761787593270519370e+00 3.796298596101484577e+02
1.761887615275360419e+00 3.796540037830469601e+02
1.761987637280201469e+00 3.796786180161025186e+02
1.762087659285042740e+00 3.797037005655042776e+02
1.762187681289883789e+00 3.797292496826740376e+02
1.762287703294724839e+00 3.797552636143149130e+02
1.762387725299565666e+00 3.797817406024552156e+02
1.762487747304406716e+00 3.798086788844969988e+02
1.762587769309247765e+00 3.798360766932580077e+02
1.762687791314089036e+00 3.798639322570224408e+02
1.762787813318930086e+00 3.798922437995836390e+02
1.762887835323771135e+00 3.799210095402922320e+02
1.762987857328612407e+00 3.799502276941029777e+02
1.763087879333453234e+00 3.799798964716188721e+02
1.763187901338294283e+00 3.800100140791394097e+02
1.763287923343135333e+00 3.800405787187087299e+02
1.763387945347976382e+00 3.800715885881580789e+02
1.763487967352817432e+00 3.801030418811564004e+02
1.763587989357658703e+00 3.801349367872560379e+02
1.763688011362499752e+00 3.801672714919385498e+02
1.763788033367340580e+00 3.802000441766629137e+02
1.763888055372181629e+00 3.802332530189123645e+02
1.763988077377022901e+00 3.802668961922415178e+02
1.764088099381863950e+00 3.803009718663231524e+02
1.764188121386704999e+00 3.803354782069950488e+02
1.764288143391546049e+00 3.803704133763093296e+02
1.764388165396387098e+00 3.804057755325771950e+02
1.764488187401227925e+00 3.804415628304178085e+02
1.764588209406069197e+00 3.804777734208058746e+02
1.764688231410910246e+00 3.805144054511191598e+02
1.764788253415751296e+00 3.805514570651843655e+02
1.764888275420592567e+00 3.805889264033273776e+02
1.764988297425433617e+00 3.806268116024195933e+02
1.765088319430274666e+00 3.806651107959253295e+02
1.765188341435115493e+00 3.807038221139501957e+02
1.765288363439956543e+00 3.807429436832895817e+02
1.765388385444797592e+00 3.807824736274753263e+02
1.765488407449638864e+00 3.808224100668235792e+02
1.765588429454479913e+00 3.808627511184847663e+02
1.765688451459320962e+00 3.809034948964881551e+02
1.765788473464162234e+00 3.809446395117943212e+02
1.765888495469003061e+00 3.809861830723397134e+02
1.765988517473844110e+00 3.810281236830865055e+02
1.766088539478685160e+00 3.810704594460694352e+02
1.766188561483526209e+00 3.811131884604457696e+02
1.766288583488367259e+00 3.811563088225427123e+02
1.766388605493208530e+00 3.811998186259054933e+02
1.766488627498049580e+00 3.812437159613461972e+02
1.766588649502890407e+00 3.812879989169919099e+02
1.766688671507731456e+00 3.813326655783320120e+02
1.766788693512572728e+00 3.813777140282692244e+02
1.766888715517413777e+00 3.814231423471657649e+02
1.766988737522254826e+00 3.814689486128924614e+02
1.767088759527095876e+00 3.815151309008778640e+02
1.767188781531936925e+00 3.815616872841559939e+02
1.767288803536777753e+00 3.816086158334150582e+02
1.767388825541619024e+00 3.816559146170462782e+02
1.767488847546460073e+00 3.817035817011930021e+02
1.767588869551301123e+00 3.817516151497976011e+02
1.767688891556142394e+00 3.818000130246520030e+02
1.767788913560983444e+00 3.818487733854452131e+02
1.767888935565824493e+00 3.818978942898123137e+02
1.767988957570665320e+00 3.819473737933831785e+02
1.768088979575506370e+00 3.819972099498314719e+02
1.768189001580347419e+00 3.820474008109219994e+02
1.768289023585188691e+00 3.820979444265615257e+02
1.768389045590029740e+00 3.821488388448454998e+02
1.768489067594870789e+00 3.822000821121087029e+02
1.768589089599712061e+00 3.822516722729712342e+02
1.768689111604552888e+00 3.823036073703907505e+02
1.768789133609393938e+00 3.823558854457079974e+02
1.768889155614234987e+00 3.824085045386978550e+02
1.768989177619076036e+00 3.824614626876161765e+02
1.769089199623917086e+00 3.825147579292514592e+02
1.769189221628758357e+00 3.825683882989684435e+02
1.769289243633599407e+00 3.826223518307629092e+02
1.769389265638440234e+00 3.826766465573064124e+02
1.769489287643281283e+00 3.827312705099957952e+02
1.769589309648122555e+00 3.827862217190028105e+02
1.769689331652963604e+00 3.828414982133211879e+02
1.769789353657804654e+00 3.828970980208178503e+02
1.769889375662645703e+00 3.829530191682791269e+02
1.769989397667486530e+00 3.830092596814598664e+02
1.770089419672327580e+00 3.830658175851339138e+02
1.770189441677168851e+00 3.831226909031403807e+02
1.770289463682009901e+00 3.831798776584336110e+02
1.770389485686850950e+00 3.832373758731314979e+02
1.770489507691692221e+00 3.832951835685640845e+02
1.770589529696533271e+00 3.833532987653222790e+02
1.770689551701374098e+00 3.834117194833053759e+02
1.770789573706215148e+00 3.834704437417706231e+02
1.770889595711056197e+00 3.835294695593823917e+02
1.770989617715897246e+00 3.835887949542589013e+02
1.771089639720738518e+00 3.836484179440211051e+02
1.771189661725579567e+00 3.837083365458419166e+02
1.771289683730420617e+00 3.837685487764940717e+02
1.771389705735261444e+00 3.838290526523981043e+02
1.771489727740102715e+00 3.838898461896711751e+02
1.771589749744943765e+00 3.839509274041760705e+02
1.771689771749784814e+00 3.840122943115666203e+02
1.771789793754625864e+00 3.840739449273392552e+02
1.771889815759466913e+00 3.841358772668798451e+02
1.771989837764308184e+00 3.841980893455108799e+02
1.772089859769149012e+00 3.842605791785406950e+02
1.772189881773990061e+00 3.843233447813112775e+02
1.772289903778831111e+00 3.843863841692461278e+02
1.772389925783672382e+00 3.844496953578978946e+02
1.772489947788513431e+00 3.845132763629972033e+02
1.772589969793354481e+00 3.845771252004988128e+02
1.772689991798195530e+00 3.846412398866320359e+02
1.772790013803036357e+00 3.847056184379458728e+02
1.772890035807877407e+00 3.847702588713582372e+02
1.772990057812718678e+00 3.848351592042025118e+02
1.773090079817559728e+00 3.849003174542771717e+02
1.773190101822400777e+00 3.849657316398896114e+02
1.773290123827242049e+00 3.850313997799086678e+02
1.773390145832083098e+00 3.850973198938070254e+02
1.773490167836923925e+00 3.851634900017123755e+02
1.773590189841764975e+00 3.852299081244532317e+02
1.773690211846606024e+00 3.852965722836041778e+02
1.773790233851447073e+00 3.853634805015377083e+02
1.773890255856288345e+00 3.854306308014663500e+02
1.773990277861129394e+00 3.854980212074937072e+02
1.774090299865970444e+00 3.855656497446583444e+02
1.774190321870811271e+00 3.856335144389830134e+02
1.774290343875652542e+00 3.857016133175201844e+02
1.774390365880493592e+00 3.857699444083986009e+02
1.774490387885334641e+00 3.858385057408719376e+02
1.774590409890175691e+00 3.859072953453629680e+02
1.774690431895016740e+00 3.859763112535108007e+02
1.774790453899858012e+00 3.860455514982187424e+02
1.774890475904698839e+00 3.861150141136991465e+02
1.774990497909539888e+00 3.861846971355201390e+02
1.775090519914380938e+00 3.862545986006518888e+02
1.775190541919222209e+00 3.863247165475126508e+02
1.775290563924063258e+00 3.863950490160161166e+02
1.775390585928904308e+00 3.864655940476148430e+02
1.775490607933745357e+00 3.865363496853480001e+02
1.775590629938586185e+00 3.866073139738874715e+02
1.775690651943427234e+00 3.866784849595812261e+02
1.775790673948268505e+00 3.867498606905023166e+02
1.775890695953109555e+00 3.868214392164917967e+02
1.775990717957950604e+00 3.868932185892049347e+02
1.776090739962791876e+00 3.869651968621575975e+02
1.776190761967632925e+00 3.870373720907692245e+02
1.776290783972473752e+00 3.871097423324105193e+02
1.776390805977314802e+00 3.871823056464468209e+02
1.776490827982155851e+00 3.872550600942840902e+02
1.776590849986996901e+00 3.873280037394125657e+02
1.776690871991838172e+00 3.874011346474538300e+02
1.776790893996679221e+00 3.874744508862012822e+02
1.776890916001520271e+00 3.875479505256703305e+02
1.776990938006361098e+00 3.876216316381384672e+02
1.777090960011202370e+00 3.876954922981911977e+02
1.777190982016043419e+00 3.877695305827656398e+02
1.777291004020884468e+00 3.878437445711965665e+02
1.777391026025725518e+00 3.879181323452583570e+02
1.777491048030566567e+00 3.879926919892094475e+02
1.777591070035407839e+00 3.880674215898363855e+02
1.777691092040248666e+00 3.881423192364981105e+02
1.777791114045089715e+00 3.882173830211684162e+02
1.777891136049930765e+00 3.882926110384805156e+02
1.777991158054772036e+00 3.883680013857683662e+02
1.778091180059613086e+00 3.884435521631145320e+02
1.778191202064454135e+00 3.885192614733861660e+02
1.778291224069295184e+00 3.885951274222852589e+02
1.778391246074136012e+00 3.886711481183864407e+02
1.778491268078977061e+00 3.887473216731834214e+02
1.778591290083818333e+00 3.888236462011278149e+02
1.778691312088659382e+00 3.889001198196748987e+02
1.778791334093500431e+00 3.889767406493242561e+02
1.778891356098341703e+00 3.890535068136628638e+02
1.778991378103182752e+00 3.891304164394072131e+02
1.779091400108023580e+00 3.892074676564442370e+02
1.779191422112864629e+00 3.892846585978749090e+02
1.779291444117705678e+00 3.893619874000542040e+02
1.779391466122546728e+00 3.894394522026333334e+02
1.779491488127387999e+00 3.895170511486039118e+02
1.779591510132229049e+00 3.895947823843340529e+02
1.779691532137070098e+00 3.896726440596137309e+02
1.779791554141910925e+00 3.897506343276945131e+02
1.779891576146752197e+00 3.898287513453299766e+02
1.779991598151593246e+00 3.899069932728175445e+02
1.780091620156434296e+00 3.899853582740390721e+02
1.780191642161275345e+00 3.900638445164995574e+02
1.780291664166116394e+00 3.901424501713711948e+02
1.780391686170957666e+00 3.902211734135288452e+02
1.780491708175798493e+00 3.903000124215944879e+02
1.780591730180639543e+00 3.903789653779740547e+02
1.780691752185480592e+00 3.904580304688993806e+02
1.780791774190321863e+00 3.905372058844661751e+02
1.780891796195162913e+00 3.906164898186752907e+02
1.780991818200003962e+00 3.906958804694704668e+02
1.781091840204845012e+00 3.907753760387779494e+02
1.781191862209685839e+00 3.908549747325461112e+02
1.781291884214526888e+00 3.909346747607837642e+02
1.781391906219368160e+00 3.910144743375994949e+02
1.781491928224209209e+00 3.910943716812395792e+02
1.781591950229050259e+00 3.911743650141261810e+02
1.781691972233891530e+00 3.912544525628977681e+02
1.781791994238732579e+00 3.913346325584435590e+02
1.781892016243573407e+00 3.914149032359454168e+02
1.781992038248414456e+00 3.914952628349124097e+02
1.782092060253255505e+00 3.915757095992206018e+02
1.782192082258096555e+00 3.916562417771492619e+02
1.782292104262937826e+00 3.917368576214195741e+02
1.782392126267778876e+00 3.918175553892287439e+02
1.782492148272619925e+00 3.918983333422919486e+02
1.782592170277460752e+00 3.919791897468742263e+02
1.782692192282302024e+00 3.920601228738294708e+02
1.782792214287143073e+00 3.921411309986377773e+02
1.782892236291984123e+00 3.922222124014389806e+02
1.782992258296825172e+00 3.923033653670720469e+02
1.783092280301666221e+00 3.923845881851082140e+02
1.783192302306507493e+00 3.924658791498893606e+02
1.783292324311348320e+00 3.925472365605599521e+02
1.783392346316189370e+00 3.926286587211066035e+02
1.783492368321030419e+00 3.927101439403920722e+02
1.783592390325871690e+00 3.927916905321883405e+02
1.783692412330712740e+00 3.928732968152136777e+02
1.783792434335553789e+00 3.929549611131668030e+02
1.783892456340394839e+00 3.930366817547612754e+02
1.783992478345235666e+00 3.931184570737599984e+02
1.784092500350076715e+00 3.932002854090100072e+02
1.784192522354917987e+00 3.932821651044749274e+02
1.784292544359759036e+00 3.933640945092706716e+02
1.784392566364600086e+00 3.934460719776976703e+02
1.784492588369441357e+00 3.935280958692751483e+02
1.784592610374282406e+00 3.936101645487744918e+02
1.784692632379123234e+00 3.936922763862512511e+02
1.784792654383964283e+00 3.937744297570796448e+02
1.784892676388805333e+00 3.938566230419843350e+02
1.784992698393646382e+00 3.939388546270721463e+02
1.785092720398487653e+00 3.940211229038676493e+02
1.785192742403328703e+00 3.941034262693405594e+02
1.785292764408169752e+00 3.941857631259419463e+02
1.785392786413010580e+00 3.942681318816330531e+02
1.785492808417851851e+00 3.943505309499193459e+02
1.785592830422692900e+00 3.944329587498803562e+02
1.785692852427533950e+00 3.945154137062005475e+02
1.785792874432374999e+00 3.945978942492007491e+02
1.785892896437216049e+00 3.946803988148709550e+02
1.785992918442057320e+00 3.947629258448975520e+02
1.786092940446898147e+00 3.948454737866960613e+02
1.786192962451739197e+00 3.949280410934398446e+02
1.786292984456580246e+00 3.950106262240920501e+02
1.786393006461421518e+00 3.950932276434338064e+02
1.786493028466262567e+00 3.951758438220940093e+02
1.786593050471103616e+00 3.952584732365798459e+02
1.786693072475944666e+00 3.953411143693041367e+02
1.786793094480785493e+00 3.954237657086162017e+02
1.786893116485626543e+00 3.955064257488295993e+02
1.786993138490467814e+00 3.955890929902511175e+02
1.787093160495308863e+00 3.956717659392095356e+02
1.787193182500149913e+00 3.957544431080815457e+02
1.787293204504991184e+00 3.958371230153243800e+02
1.787393226509832012e+00 3.959198041854978669e+02
1.787493248514673061e+00 3.960024851492973426e+02
1.787593270519514110e+00 3.960851644435759908e+02
1.787693292524355160e+00 3.961678406113769597e+02
1.787793314529196209e+00 3.962505122019563260e+02
1.787893336534037481e+00 3.963331777708119716e+02
1.787993358538878530e+00 3.964158358797091068e+02
1.788093380543719357e+00 3.964984850967076682e+02
1.788193402548560407e+00 3.965811239961865340e+02
1.788293424553401678e+00 3.966637511588716052e+02
1.788393446558242728e+00 3.967463651718600772e+02
1.788493468563083777e+00 3.968289646286453944e+02
1.788593490567924826e+00 3.969115481291456149e+02
1.788693512572765876e+00 3.969941142797234761e+02
1.788793534577606703e+00 3.970766616932152147e+02
1.788893556582447975e+00 3.971591889889534173e+02
1.788993578587289024e+00 3.972416947927921456e+02
1.789093600592130073e+00 3.973241777371305261e+02
1.789193622596971345e+00 3.974066364609357720e+02
1.789293644601812394e+00 3.974890696097695582e+02
1.789393666606653444e+00 3.975714758358086556e+02
1.789493688611494271e+00 3.976538537978700560e+02
1.789593710616335320e+00 3.977362021614337095e+02
1.789693732621176370e+00 3.978185195986640110e+02
1.789793754626017641e+00 3.979008047884336747e+02
1.789893776630858691e+00 3.979830564163465851e+02
1.789993798635699740e+00 3.980652731747577491e+02
1.790093820640541011e+00 3.981474537627989321e+02
1.790193842645381839e+00 3.982295968863947451e+02
1.790293864650222888e+00 3.983117012582913503e+02
1.790393886655063937e+00 3.983937655980702175e+02
1.790493908659904987e+00 3.984757886321751812e+02
1.790593930664746036e+00 3.985577690939296645e+02
1.790693952669587308e+00 3.986397057235587909e+02
1.790793974674428357e+00 3.987215972682085408e+02
1.790893996679269184e+00 3.988034424819680908e+02
1.790994018684110234e+00 3.988852401258865257e+02
1.791094040688951505e+00 3.989669889679956896e+02
1.791194062693792555e+00 3.990486877833266135e+02
1.791294084698633604e+00 3.991303353539317982e+02
1.791394106703474653e+00 3.992119304689010733e+02
1.791494128708315703e+00 3.992934719243828567e+02
1.791594150713156530e+00 3.993749585236010944e+02
1.791694172717997802e+00 3.994563890768736201e+02
1.791794194722838851e+00 3.995377624016327900e+02
1.791894216727679900e+00 3.996190773224372492e+02
1.791994238732521172e+00 3.997003326709972271e+02
1.792094260737362221e+00 3.997815272861859057e+02
1.792194282742203271e+00 3.998626600140589744e+02
1.792294304747044098e+00 3.999437297078711140e+02
1.792394326751885147e+00 4.000247352280924247e+02
1.792494348756726197e+00 4.001056754424259907e+02
1.792594370761567468e+00 4.001865492258214090e+02
1.792694392766408518e+00 4.002673554604935475e+02
1.792794414771249567e+00 4.003480930359373815e+02
1.792894436776090838e+00 4.004287608489417494e+02
1.792994458780931666e+00 4.005093578036072586e+02
1.793094480785772715e+00 4.005898828113591890e+02
1.793194502790613765e+00 4.006703347909626700e+02
1.793294524795454814e+00 4.007507126685384264e+02
1.793394546800295863e+00 4.008310153775757954e+02
1.793494568805137135e+00 4.009112418589453455e+02
1.793594590809978184e+00 4.009913910609173513e+02
1.793694612814819012e+00 4.010714619391698079e+02
1.793794634819660061e+00 4.011514534568054273e+02
1.793894656824501332e+00 4.012313645843628365e+02
1.793994678829342382e+00 4.013111942998311861e+02
1.794094700834183431e+00 4.013909415886599845e+02
1.794194722839024481e+00 4.014706054437749003e+02
1.794294744843865530e+00 4.015501848655865160e+02
1.794394766848706357e+00 4.016296788620040843e+02
1.794494788853547629e+00 4.017090864484475787e+02
1.794594810858388678e+00 4.017884066478573573e+02
1.794694832863229728e+00 4.018676384907064403e+02
1.794794854868070999e+00 4.019467810150110836e+02
1.794894876872912048e+00 4.020258332663416923e+02
1.794994898877753098e+00 4.021047942978332230e+02
1.795094920882593925e+00 4.021836631701943361e+02
1.795194942887434975e+00 4.022624389517193890e+02
1.795294964892276024e+00 4.023411207182957696e+02
1.795394986897117295e+00 4.024197075534148098e+02
1.795495008901958345e+00 4.024981985481806532e+02
1.795595030906799394e+00 4.025765928013191797e+02
1.795695052911640666e+00 4.026548894191869294e+02
1.795795074916481493e+00 4.027330875157786068e+02
1.795895096921322542e+00 4.028111862127370841e+02
1.795995118926163592e+00 4.028891846393583478e+02
1.796095140931004641e+00 4.029670819326038895e+02
1.796195162935845691e+00 4.030448772371034920e+02
1.796295184940686962e+00 4.031225697051651196e+02
1.796395206945528011e+00 4.032001584967816257e+02
1.796495228950368839e+00 4.032776427796362668e+02
1.796595250955209888e+00 4.033550217291109448e+02
1.796695272960051160e+00 4.034322945282913793e+02
1.796795294964892209e+00 4.035094603679729062e+02
1.796895316969733258e+00 4.035865184466675828e+02
1.796995338974574308e+00 4.036634679706079964e+02
1.797095360979415357e+00 4.037403081537540857e+02
1.797195382984256184e+00 4.038170382177977444e+02
1.797295404989097456e+00 4.038936573921657782e+02
1.797395426993938505e+00 4.039701649140282598e+02
1.797495448998779555e+00 4.040465600282994956e+02
1.797595471003620826e+00 4.041228419876434259e+02
1.797695493008461876e+00 4.041990100524770355e+02
1.797795515013302925e+00 4.042750634909738778e+02
1.797895537018143752e+00 4.043510015790692478e+02
1.797995559022984802e+00 4.044268236004604660e+02
1.798095581027825851e+00 4.045025288466111419e+02
1.798195603032667123e+00 4.045781166167529932e+02
1.798295625037508172e+00 4.046535862178907905e+02
1.798395647042349221e+00 4.047289369647997432e+02
1.798495669047190493e+00 4.048041681800330025e+02
1.798595691052031320e+00 4.048792791939184212e+02
1.798695713056872370e+00 4.049542693445618511e+02
1.798795735061713419e+00 4.050291379778495866e+02
1.798895757066554468e+00 4.051038844474472853e+02
1.798995779071395518e+00 4.051785081148015593e+02
1.799095801076236789e+00 4.052530083491395203e+02
1.799195823081077839e+00 4.053273845274706559e+02
1.799295845085918666e+00 4.054016360345844419e+02
1.799395867090759715e+00 4.054757622630524452e+02
1.799495889095600987e+00 4.055497626132258233e+02
1.799595911100442036e+00 4.056236364932349261e+02
1.799695933105283085e+00 4.056973833189891252e+02
1.799795955110124135e+00 4.057710025141752794e+02
1.799895977114965184e+00 4.058444935102547220e+02
1.799995999119806012e+00 4.059178557464638288e+02
1.800096021124647283e+00 4.059910886698096419e+02
1.800196043129488332e+00 4.060641917350699259e+02
1.800296065134329382e+00 4.061371644047882796e+02
1.800396087139170653e+00 4.062100061492736245e+02
1.800496109144011703e+00 4.062827164465946908e+02
1.800596131148852752e+00 4.063552947825811543e+02
1.800696153153693579e+00 4.064277406508135755e+02
1.800796175158534629e+00 4.065000535526261274e+02
1.800896197163375678e+00 4.065722329970985811e+02
1.800996219168216950e+00 4.066442785010541456e+02
1.801096241173057999e+00 4.067161895890536130e+02
1.801196263177899048e+00 4.067879657933924022e+02
1.801296285182740320e+00 4.068596066540944776e+02
1.801396307187581147e+00 4.069311117189050719e+02
1.801496329192422197e+00 4.070024805432919379e+02
1.801596351197263246e+00 4.070737126904317620e+02
1.801696373202104295e+00 4.071448077312093687e+02
1.801796395206945345e+00 4.072157652442098197e+02
1.801896417211786616e+00 4.072865848157128994e+02
1.801996439216627666e+00 4.073572660396853280e+02
1.802096461221468493e+00 4.074278085177759294e+02
1.802196483226309542e+00 4.074982118593065366e+02
1.802296505231150814e+00 4.075684756812651131e+02
1.802396527235991863e+00 4.076385996082998986e+02
1.802496549240832913e+00 4.077085832727091201e+02
1.802596571245673962e+00 4.077784263144353076e+02
1.802696593250515011e+00 4.078481283810557443e+02
1.802796615255355839e+00 4.079176891277742243e+02
1.802896637260197110e+00 4.079871082174128105e+02
1.802996659265038160e+00 4.080563853204016596e+02
1.803096681269879209e+00 4.081255201147725984e+02
1.803196703274720480e+00 4.081945122861465052e+02
1.803296725279561530e+00 4.082633615277248964e+02
1.803396747284402579e+00 4.083320675402814004e+02
1.803496769289243407e+00 4.084006300321501044e+02
1.803596791294084456e+00 4.084690487192158344e+02
1.803696813298925505e+00 4.085373233249035820e+02
1.803796835303766777e+00 4.086054535801673637e+02
1.803896857308607826e+00 4.086734392234791926e+02
1.803996879313448876e+00 4.087412800008196996e+02
1.804096901318290147e+00 4.088089756656632971e+02
1.804196923323130974e+00 4.088765259789697666e+02
1.804296945327972024e+00 4.089439307091704450e+02
1.804396967332813073e+00 4.090111896321560039e+02
1.804496989337654123e+00 4.090783025312661039e+02
1.804597011342495172e+00 4.091452691972744447e+02
1.804697033347336443e+00 4.092120894283764869e+02
1.804797055352177271e+00 4.092787630301785384e+02
1.804897077357018320e+00 4.093452898156799051e+02
1.804997099361859370e+00 4.094116696052658426e+02
1.805097121366700641e+00 4.094779022266878314e+02
1.805197143371541690e+00 4.095439875150523790e+02
1.805297165376382740e+00 4.096099253128078317e+02
1.805397187381223789e+00 4.096757154697274359e+02
1.805497209386064617e+00 4.097413578428969458e+02
1.805597231390905666e+00 4.098068522966988780e+02
1.805697253395746937e+00 4.098721987027972773e+02
1.805797275400587987e+00 4.099373969401226532e+02
1.805897297405429036e+00 4.100024468948573144e+02
1.805997319410270308e+00 4.100673484604186569e+02
1.806097341415111357e+00 4.101321015374438730e+02
1.806197363419952184e+00 4.101967060337722728e+02
1.806297385424793234e+00 4.102611618644318696e+02
1.806397407429634283e+00 4.103254689516210192e+02
1.806497429434475332e+00 4.103896272246908552e+02
1.806597451439316604e+00 4.104536366201308510e+02
1.806697473444157653e+00 4.105174970815479014e+02
1.806797495448998703e+00 4.105812085596537599e+02
1.806897517453839530e+00 4.106447710122429271e+02
1.806997539458680802e+00 4.107081844041777003e+02
1.807097561463521851e+00 4.107714487073683927e+02
1.807197583468362900e+00 4.108345639007565069e+02
1.807297605473203950e+00 4.108975299702955226e+02
1.807397627478044999e+00 4.109603469089320811e+02
1.807497649482886271e+00 4.110230147165877952e+02
1.807597671487727098e+00 4.110855334001394112e+02
1.807697693492568147e+00 4.111479029734002779e+02
1.807797715497409197e+00 4.112101234571002237e+02
1.807897737502250468e+00 4.112721948788663440e+02
1.807997759507091518e+00 4.113341172732024802e+02
1.808097781511932567e+00 4.113958906814709735e+02
1.808197803516773616e+00 4.114575151518694156e+02
1.808297825521614444e+00 4.115189907394117199e+02
1.808397847526455493e+00 4.115803175059090222e+02
1.808497869531296764e+00 4.116414955199455221e+02
1.808597891536137814e+00 4.117025248568602365e+02
1.808697913540978863e+00 4.117634055987235797e+02
1.808797935545820135e+00 4.118241378343173551e+02
1.808897957550661184e+00 4.118847216591132110e+02
1.808997979555502011e+00 4.119451571752484256e+02
1.809098001560343061e+00 4.120054444915074896e+02
1.809198023565184110e+00 4.120655837232961289e+02
1.809298045570025160e+00 4.121255749926222052e+02
1.809398067574866431e+00 4.121854184280700792e+02
1.809498089579707480e+00 4.122451141647797499e+02
1.809598111584548530e+00 4.123046623444233774e+02
1.809698133589389357e+00 4.123640631151819775e+02
1.809798155594230629e+00 4.124233166317207520e+02
1.809898177599071678e+00 4.124824230551679989e+02
1.809998199603912727e+00 4.125413825530897043e+02
1.810098221608753777e+00 4.126001952994659518e+02
1.810198243613594826e+00 4.126588614746656845e+02
1.810298265618436098e+00 4.127173812654248195e+02
1.810398287623276925e+00 4.127757548648190209e+02
1.810498309628117974e+00 4.128339824722409048e+02
1.810598331632959024e+00 4.128920642933746308e+02
1.810698353637800295e+00 4.129500005401699809e+02
1.810798375642641345e+00 4.130077914308182585e+02
1.810898397647482394e+00 4.130654371897257988e+02
1.810998419652323443e+00 4.131229380474904360e+02
1.811098441657164271e+00 4.131802942408731951e+02
1.811198463662005320e+00 4.132375060127723714e+02
1.811298485666846592e+00 4.132945736122009066e+02
1.811398507671687641e+00 4.133514972942550116e+02
1.811498529676528690e+00 4.134082773200922247e+02
1.811598551681369962e+00 4.134649139569022509e+02
1.811698573686211011e+00 4.135214074778789382e+02
1.811798595691051839e+00 4.135777581621979380e+02
1.811898617695892888e+00 4.136339662949849298e+02
1.811998639700733937e+00 4.136900321672897007e+02
1.812098661705574987e+00 4.137459560760599402e+02
1.812198683710416258e+00 4.138017383241117955e+02
1.812298705715257308e+00 4.138573792201029846e+02
1.812398727720098357e+00 4.139128790785047158e+02
1.812498749724939184e+00 4.139682382195736068e+02
1.812598771729780456e+00 4.140234569693229787e+02
1.812698793734621505e+00 4.140785356594938662e+02
1.812798815739462555e+00 4.141334746275290399e+02
1.812898837744303604e+00 4.141882742165397531e+02
1.812998859749144653e+00 4.142429347752810145e+02
1.813098881753985925e+00 4.142974566581207796e+02
1.813198903758826752e+00 4.143518402250089139e+02
1.813298925763667802e+00 4.144060858414513291e+02
1.813398947768508851e+00 4.144601938784775257e+02
1.813498969773350122e+00 4.145141647126121143e+02
1.813598991778191172e+00 4.145679987258452570e+02
1.813699013783032221e+00 4.146216963056017448e+02
1.813799035787873271e+00 4.146752578447099609e+02
1.813899057792714098e+00 4.147286837413744252e+02
1.813999079797555147e+00 4.147819743991427686e+02
1.814099101802396419e+00 4.148351302268761174e+02
1.814199123807237468e+00 4.148881516387178294e+02
1.814299145812078518e+00 4.149410390540632534e+02
1.814399167816919789e+00 4.149937928975281238e+02
1.814499189821760838e+00 4.150464135989174679e+02
1.814599211826601666e+00 4.150989015931950235e+02
1.814699233831442715e+00 4.151512573204493606e+02
1.814799255836283765e+00 4.152034812258663123e+02
1.814899277841124814e+00 4.152555737596922540e+02
1.814999299845966085e+00 4.153075353772068183e+02
1.815099321850807135e+00 4.153593665386878229e+02
1.815199343855648184e+00 4.154110677093810864e+02
1.815299365860489011e+00 4.154626393594654701e+02
1.815399387865330283e+00 4.155140819640238306e+02
1.815499409870171332e+00 4.155653960030080611e+02
1.815599431875012382e+00 4.156165819612072028e+02
1.815699453879853431e+00 4.156676403282138494e+02
1.815799475884694480e+00 4.157185715983933392e+02
1.815899497889535752e+00 4.157693762708479994e+02
1.815999519894376579e+00 4.158200548493857696e+02
1.816099541899217629e+00 4.158706078424858674e+02
1.816199563904058678e+00 4.159210357632662181e+02
1.816299585908899950e+00 4.159713391294487792e+02
1.816399607913740999e+00 4.160215184633272543e+02
1.816499629918582048e+00 4.160715742917323041e+02
1.816599651923423098e+00 4.161215071459973842e+02
1.816699673928263925e+00 4.161713175619261165e+02
1.816799695933104974e+00 4.162210060797564779e+02
1.816899717937946246e+00 4.162705732441269788e+02
1.816999739942787295e+00 4.163200196040434662e+02
1.817099761947628345e+00 4.163693457128437103e+02
1.817199783952469616e+00 4.164185521281614797e+02
1.817299805957310666e+00 4.164676394118945382e+02
1.817399827962151493e+00 4.165166081301688905e+02
1.817499849966992542e+00 4.165654588533009246e+02
1.817599871971833592e+00 4.166141921557679098e+02
1.817699893976674641e+00 4.166628086161676947e+02
1.817799915981515912e+00 4.167113088171864206e+02
1.817899937986356962e+00 4.167596933455625958e+02
1.817999959991198011e+00 4.168079627920507733e+02
1.818099981996038839e+00 4.168561177513872735e+02
1.818200004000880110e+00 4.169041588222531232e+02
1.818300026005721159e+00 4.169520866072407443e+02
1.818400048010562209e+00 4.169999017128142782e+02
1.818500070015403258e+00 4.170476047492776956e+02
1.818600092020244308e+00 4.170951963307359165e+02
1.818700114025085579e+00 4.171426770750601918e+02
1.818800136029926406e+00 4.171900476038517240e+02
1.818900158034767456e+00 4.172373085424040937e+02
1.819000180039608505e+00 4.172844605196693237e+02
1.819100202044449777e+00 4.173315041682190554e+02
1.819200224049290826e+00 4.173784401242086801e+02
1.819300246054131875e+00 4.174252690273415283e+02
1.819400268058972925e+00 4.174719915208316934e+02
1.819500290063813752e+00 4.175186082513661177e+02
1.819600312068654802e+00 4.175651198690705996e+02
1.819700334073496073e+00 4.176115270274690374e+02
1.819800356078337122e+00 4.176578303834489247e+02
1.819900378083178172e+00 4.177040305972237206e+02
1.820000400088019443e+00 4.177501283322956738e+02
1.820100422092860493e+00 4.177961242554185333e+02
1.820200444097701320e+00 4.178420190365596909e+02
1.820300466102542369e+00 4.178878133488631192e+02
1.820400488107383419e+00 4.179335078686127645e+02
1.820500510112224468e+00 4.179791032751928128e+02
1.820600532117065740e+00 4.180246002510531866e+02
1.820700554121906789e+00 4.180699994816692424e+02
1.820800576126747838e+00 4.181153016555045951e+02
1.820900598131588666e+00 4.181605074639741133e+02
1.821000620136429937e+00 4.182056176014055495e+02
1.821100642141270987e+00 4.182506327650017965e+02
1.821200664146112036e+00 4.182955536548025179e+02
1.821300686150953085e+00 4.183403809736464041e+02
1.821400708155794135e+00 4.183851154271329733e+02
1.821500730160635406e+00 4.184297577235843164e+02
1.821600752165476234e+00 4.184743085740075230e+02
1.821700774170317283e+00 4.185187686920554029e+02
1.821800796175158332e+00 4.185631387939885144e+02
1.821900818179999604e+00 4.186074195986371365e+02
1.822000840184840653e+00 4.186516118273631264e+02
1.822100862189681703e+00 4.186957162040205276e+02
1.822200884194522530e+00 4.187397334549172001e+02
1.822300906199363579e+00 4.187836643087774746e+02
1.822400928204204629e+00 4.188275094967014525e+02
1.822500950209045900e+00 4.188712697521292512e+02
1.822600972213886950e+00 4.189149458107984287e+02
1.822700994218727999e+00 4.189585384107092523e+02
1.822801016223569270e+00 4.190020482920836002e+02
1.822901038228410098e+00 4.190454761973267637e+02
1.823001060233251147e+00 4.190888228709885652e+02
1.823101082238092197e+00 4.191320890597240236e+02
1.823201104242933246e+00 4.191752755122556664e+02
1.823301126247774295e+00 4.192183829793330574e+02
1.823401148252615567e+00 4.192614122136957917e+02
1.823501170257456616e+00 4.193043639700322274e+02
1.823601192262297443e+00 4.193472390049420255e+02
1.823701214267138493e+00 4.193900380768973264e+02
1.823801236271979764e+00 4.194327619462011398e+02
1.823901258276820814e+00 4.194754113749523299e+02
1.824001280281661863e+00 4.195179871270029821e+02
1.824101302286502913e+00 4.195604899679211712e+02
1.824201324291343962e+00 4.196029206649513412e+02
1.824301346296184789e+00 4.196452799869737191e+02
1.824401368301026061e+00 4.196875687044688448e+02
1.824501390305867110e+00 4.197297875894731760e+02
1.824601412310708159e+00 4.197719374155450964e+02
1.824701434315549431e+00 4.198140189577215438e+02
1.824801456320390480e+00 4.198560329924815164e+02
1.824901478325231530e+00 4.198979802977051463e+02
1.825001500330072357e+00 4.199398616526352157e+02
1.825101522334913406e+00 4.199816778378382764e+02
1.825201544339754456e+00 4.200234296351638363e+02
1.825301566344595727e+00 4.200651178277067856e+02
1.825401588349436777e+00 4.201067431997678341e+02
1.825501610354277826e+00 4.201483065368123562e+02
1.825601632359119098e+00 4.201898086254342957e+02
1.825701654363959925e+00 4.202312502533138741e+02
1.825801676368800974e+00 4.202726322091803013e+02
1.825901698373642024e+00 4.203139552827716443e+02
1.826001720378483073e+00 4.203552202647949798e+02
1.826101742383324122e+00 4.203964279468900713e+02
1.826201764388165394e+00 4.204375791215843492e+02
1.826301786393006443e+00 4.204786745822606235e+02
1.826401808397847271e+00 4.205197151231128601e+02
1.826501830402688320e+00 4.205607015391079244e+02
1.826601852407529591e+00 4.206016346259492025e+02
1.826701874412370641e+00 4.206425151800327740e+02
1.826801896417211690e+00 4.206833439984114307e+02
1.826901918422052740e+00 4.207241218787560229e+02
1.827001940426893789e+00 4.207648496193131678e+02
1.827101962431734616e+00 4.208055280188693246e+02
1.827201984436575888e+00 4.208461578767093556e+02
1.827302006441416937e+00 4.208867399925796917e+02
1.827402028446257987e+00 4.209272751666457566e+02
1.827502050451099258e+00 4.209677641994580881e+02
1.827602072455940307e+00 4.210082078919082278e+02
1.827702094460781357e+00 4.210486070451933642e+02
1.827802116465622184e+00 4.210889624607745532e+02
1.827902138470463234e+00 4.211292749403413609e+02
1.828002160475304283e+00 4.211695452857687769e+02
1.828102182480145554e+00 4.212097742990806637e+02
1.828202204484986604e+00 4.212499627824123536e+02
1.828302226489827653e+00 4.212901115379681869e+02
1.828402248494668925e+00 4.213302213679868373e+02
1.828502270499509752e+00 4.213702930746982815e+02
1.828602292504350801e+00 4.214103274602898637e+02
1.828702314509191851e+00 4.214503253268629237e+02
1.828802336514032900e+00 4.214902874763985210e+02
1.828902358518873950e+00 4.215302147107156543e+02
1.829002380523715221e+00 4.215701078314343135e+02
1.829102402528556270e+00 4.216099676399369969e+02
1.829202424533397098e+00 4.216497949373294887e+02
1.829302446538238147e+00 4.216895905244044798e+02
1.829402468543079419e+00 4.217293552015997307e+02
1.829502490547920468e+00 4.217690897689640792e+02
1.829602512552761517e+00 4.218087950261156607e+02
1.829702534557602567e+00 4.218484717722059258e+02
1.829802556562443616e+00 4.218881208058805896e+02
1.829902578567284444e+00 4.219277429252422280e+02
1.830002600572125715e+00 4.219673389278117952e+02
1.830102622576966764e+00 4.220069096104912205e+02
1.830202644581807814e+00 4.220464557695241865e+02
1.830302666586649085e+00 4.220859782004608292e+02
1.830402688591490135e+00 4.221254776981176633e+02
1.830502710596331184e+00 4.221649550565416575e+02
1.830602732601172011e+00 4.222044110689705576e+02
1.830702754606013061e+00 4.222438465277977002e+02
1.830802776610854110e+00 4.222832622245335870e+02
1.830902798615695382e+00 4.223226589497680834e+02
1.831002820620536431e+00 4.223620374931330730e+02
1.831102842625377480e+00 4.224013986432657930e+02
1.831202864630218752e+00 4.224407431877725116e+02
1.831302886635059579e+00 4.224800719131894198e+02
1.831402908639900629e+00 4.225193856049462511e+02
1.831502930644741678e+00 4.225586850473307550e+02
1.831602952649582727e+00 4.225979710234498725e+02
1.831702974654423777e+00 4.226372443151947209e+02
1.831802996659265048e+00 4.226765057032025084e+02
1.831903018664106098e+00 4.227157559668197564e+02
1.832003040668946925e+00 4.227549958840688191e+02
1.832103062673787974e+00 4.227942262316064443e+02
1.832203084678629246e+00 4.228334477846917707e+02
1.832303106683470295e+00 4.228726613171475606e+02
1.832403128688311345e+00 4.229118676013253548e+02
1.832503150693152394e+00 4.229510674080682975e+02
1.832603172697993443e+00 4.229902615066761769e+02
1.832703194702834271e+00 4.230294506648690458e+02
1.832803216707675542e+00 4.230686356487506714e+02
1.832903238712516591e+00 4.231078172227752248e+02
1.833003260717357641e+00 4.231469961497081158e+02
1.833103282722198912e+00 4.231861731905931947e+02
1.833203304727039962e+00 4.232253491047159741e+02
1.833303326731881011e+00 4.232645246495704896e+02
1.833403348736721838e+00 4.233037005808203617e+02
1.833503370741562888e+00 4.233428776522666226e+02
1.833603392746403937e+00 4.233820566158117913e+02
1.833703414751245209e+00 4.234212382214251420e+02
1.833803436756086258e+00 4.234604232171066087e+02
1.833903458760927307e+00 4.234996123488555213e+02
1.834003480765768579e+00 4.235388063606312699e+02
1.834103502770609406e+00 4.235780059943225524e+02
1.834203524775450456e+00 4.236172119897113930e+02
1.834303546780291505e+00 4.236564250844390358e+02
1.834403568785132554e+00 4.236956460139722935e+02
1.834503590789973604e+00 4.237348755115695553e+02
1.834603612794814875e+00 4.237741143082449753e+02
1.834703634799655925e+00 4.238133631327383455e+02
1.834803656804496752e+00 4.238526227114772951e+02
1.834903678809337801e+00 4.238918937685469928e+02
1.835003700814179073e+00 4.239311770256553018e+02
1.835103722819020122e+00 4.239704732020986171e+02
1.835203744823861172e+00 4.240097830147309423e+02
1.835303766828702221e+00 4.240491071779288177e+02
1.835403788833543270e+00 4.240884464035587484e+02
1.835503810838384098e+00 4.241278014009455433e+02
1.835603832843225369e+00 4.241671728768379808e+02
1.835703854848066419e+00 4.242065615353777730e+02
1.835803876852907468e+00 4.242459680780659710e+02
1.835903898857748739e+00 4.242853932037306208e+02
1.836003920862589789e+00 4.243248376084956703e+02
1.836103942867430838e+00 4.243643019857483409e+02
1.836203964872271666e+00 4.244037870261068974e+02
1.836303986877112715e+00 4.244432934173885315e+02
1.836404008881953764e+00 4.244828218445797461e+02
1.836504030886795036e+00 4.245223729898024203e+02
1.836604052891636085e+00 4.245619475322832272e+02
1.836704074896477135e+00 4.246015461483237914e+02
1.836804096901318406e+00 4.246411695112668667e+02
1.836904118906159233e+00 4.246808182914683130e+02
1.837004140911000283e+00 4.247204931562639558e+02
1.837104162915841332e+00 4.247601947699406537e+02
1.837204184920682382e+00 4.247999237937048065e+02
1.837304206925523431e+00 4.248396808856512052e+02
1.837404228930364702e+00 4.248794667007360886e+02
1.837504250935205752e+00 4.249192818907418996e+02
1.837604272940046579e+00 4.249591271042531844e+02
1.837704294944887629e+00 4.249990029866209511e+02
1.837804316949728900e+00 4.250389101799383411e+02
1.837904338954569949e+00 4.250788493230065797e+02
1.838004360959410999e+00 4.251188210513101922e+02
1.838104382964252048e+00 4.251588259969836940e+02
1.838204404969093098e+00 4.251988647887849311e+02
1.838304426973933925e+00 4.252389380520654640e+02
1.838404448978775196e+00 4.252790464087424880e+02
1.838504470983616246e+00 4.253191904772686485e+02
1.838604492988457295e+00 4.253593708726061777e+02
1.838704514993298567e+00 4.253995882061966540e+02
1.838804536998139616e+00 4.254398430859329210e+02
1.838904559002980665e+00 4.254801361161328259e+02
1.839004581007821493e+00 4.255204678975103434e+02
1.839104603012662542e+00 4.255608390271472672e+02
1.839204625017503592e+00 4.256012500984678582e+02
1.839304647022344863e+00 4.256417017012086603e+02
1.839404669027185912e+00 4.256821944213949678e+02
1.839504691032026962e+00 4.257227288413105271e+02
1.839604713036867789e+00 4.257633055394729809e+02
1.839704735041709061e+00 4.258039250906066968e+02
1.839804757046550110e+00 4.258445880656153690e+02
1.839904779051391159e+00 4.258852950315582575e+02
1.840004801056232209e+00 4.259260465516206295e+02
