1.900056013443226277e+00 5.147797289623554207e+02
1.900156037448987645e+00 5.147759719665352804e+02
1.900256061454749013e+00 5.147722519459925934e+02
1.900356085460510380e+00 5.147685691710055380e+02
1.900456109466271748e+00 5.147649239109125574e+02
1.900556133472033338e+00 5.147613164340968979e+02
1.900656157477794705e+00 5.147577470079767181e+02
1.900756181483556073e+00 5.147542158989920154e+02
1.900856205489317441e+00 5.147507233725923470e+02
1.900956229495078809e+00 5.147472696932236431e+02
1.901056253500840176e+00 5.147438551243192251e+02
1.901156277506601544e+00 5.147404799282830936e+02
1.901256301512362912e+00 5.147371443664811750e+02
1.901356325518124279e+00 5.147338486992287017e+02
1.901456349523885647e+00 5.147305931857757741e+02
1.901556373529647015e+00 5.147273780842987208e+02
1.901656397535408383e+00 5.147242036518848636e+02
1.901756421541169750e+00 5.147210701445233099e+02
1.901856445546931118e+00 5.147179778170891495e+02
1.901956469552692486e+00 5.147149269233370887e+02
1.902056493558453854e+00 5.147119177158824641e+02
1.902156517564215221e+00 5.147089504461965817e+02
1.902256541569976589e+00 5.147060253645880721e+02
1.902356565575737957e+00 5.147031427201966380e+02
1.902456589581499546e+00 5.147003027609762285e+02
1.902556613587260914e+00 5.146975057336876489e+02
1.902656637593022282e+00 5.146947518838833275e+02
1.902756661598783650e+00 5.146920414558977654e+02
1.902856685604545017e+00 5.146893746928340079e+02
1.902956709610306385e+00 5.146867518365538672e+02
1.903056733616067753e+00 5.146841731276639393e+02
1.903156757621829120e+00 5.146816388055057132e+02
1.903256781627590488e+00 5.146791491081431786e+02
1.903356805633351856e+00 5.146767042723511167e+02
1.903456829639113224e+00 5.146743045336040723e+02
1.903556853644874591e+00 5.146719501260640754e+02
1.903656877650635959e+00 5.146696412825695006e+02
1.903756901656397327e+00 5.146673782346242660e+02
1.903856925662158694e+00 5.146651612123843051e+02
1.903956949667920062e+00 5.146629904446484716e+02
1.904056973673681430e+00 5.146608661588458062e+02
1.904156997679442798e+00 5.146587885810240550e+02
1.904257021685204609e+00 5.146567579358402327e+02
1.904357045690965755e+00 5.146547744465462983e+02
1.904457069696727345e+00 5.146528383349792648e+02
1.904557093702488491e+00 5.146509498215525582e+02
1.904657117708250080e+00 5.146491091252394199e+02
1.904757141714011226e+00 5.146473164635674493e+02
1.904857165719772816e+00 5.146455720526029154e+02
1.904957189725533961e+00 5.146438761069423435e+02
1.905057213731295551e+00 5.146422288397008060e+02
1.905157237737056697e+00 5.146406304625010080e+02
1.905257261742818287e+00 5.146390811854612366e+02
1.905357285748579432e+00 5.146375812171869484e+02
1.905457309754341022e+00 5.146361307647568992e+02
1.905557333760102168e+00 5.146347300337138222e+02
1.905657357765863757e+00 5.146333792280545367e+02
1.905757381771624903e+00 5.146320785502174431e+02
1.905857405777386493e+00 5.146308282010725179e+02
1.905957429783147639e+00 5.146296283799102866e+02
1.906057453788909228e+00 5.146284792844330696e+02
1.906157477794670818e+00 5.146273811107411120e+02
1.906257501800432186e+00 5.146263340533250812e+02
1.906357525806193554e+00 5.146253383050529919e+02
1.906457549811954921e+00 5.146243940571615667e+02
1.906557573817716289e+00 5.146235014992461174e+02
1.906657597823477657e+00 5.146226608192491767e+02
1.906757621829239024e+00 5.146218722034491293e+02
1.906857645835000392e+00 5.146211358364516855e+02
1.906957669840761760e+00 5.146204519011794218e+02
1.907057693846523128e+00 5.146198205788615496e+02
1.907157717852284495e+00 5.146192420490232280e+02
1.907257741858045863e+00 5.146187164894746502e+02
1.907357765863807231e+00 5.146182440763037675e+02
1.907457789869568598e+00 5.146178249838635566e+02
1.907557813875329966e+00 5.146174593847646292e+02
1.907657837881091334e+00 5.146171474498606813e+02
1.907757861886852702e+00 5.146168893482456497e+02
1.907857885892614069e+00 5.146166852472367736e+02
1.907957909898375659e+00 5.146165353123706154e+02
1.908057933904137027e+00 5.146164397073895316e+02
1.908157957909898395e+00 5.146163985942339423e+02
1.908257981915659762e+00 5.146164121330313037e+02
1.908358005921421130e+00 5.146164804820887184e+02
1.908458029927182498e+00 5.146166037978809982e+02
1.908558053932943865e+00 5.146167822350432743e+02
1.908658077938705233e+00 5.146170159463605387e+02
1.908758101944466601e+00 5.146173050827577526e+02
1.908858125950227969e+00 5.146176497932923439e+02
1.908958149955989336e+00 5.146180502251431790e+02
1.909058173961750704e+00 5.146185065236027185e+02
1.909158197967512072e+00 5.146190188320668994e+02
1.909258221973273439e+00 5.146195872920269494e+02
1.909358245979034807e+00 5.146202120430600644e+02
1.909458269984796175e+00 5.146208932228196318e+02
1.909558293990557543e+00 5.146216309670278406e+02
1.909658317996318910e+00 5.146224254094660182e+02
1.909758342002080278e+00 5.146232766819650806e+02
1.909858366007841868e+00 5.146241849143990521e+02
1.909958390013603236e+00 5.146251502346738107e+02
1.910058414019364603e+00 5.146261727687203802e+02
1.910158438025125971e+00 5.146272526404854943e+02
1.910258462030887339e+00 5.146283899719235251e+02
1.910358486036648706e+00 5.146295848829871602e+02
1.910458510042410074e+00 5.146308374916210369e+02
1.910558534048171442e+00 5.146321479137506003e+02
1.910658558053932810e+00 5.146335162632765332e+02
1.910758582059694177e+00 5.146349426520658881e+02
1.910858606065455545e+00 5.146364271899420828e+02
1.910958630071216913e+00 5.146379699846791027e+02
1.911058654076978280e+00 5.146395711419925192e+02
1.911158678082739648e+00 5.146412307655324412e+02
1.911258702088501016e+00 5.146429489568738518e+02
1.911358726094262384e+00 5.146447258155106965e+02
1.911458750100023751e+00 5.146465614388472432e+02
1.911558774105785119e+00 5.146484559221901236e+02
1.911658798111546709e+00 5.146504093587418538e+02
1.911758822117308299e+00 5.146524218395913977e+02
1.911858846123069444e+00 5.146544934537091649e+02
1.911958870128831034e+00 5.146566242879373476e+02
1.912058894134592180e+00 5.146588144269840086e+02
1.912158918140353769e+00 5.146610639534147822e+02
1.912258942146114915e+00 5.146633729476468488e+02
1.912358966151876505e+00 5.146657414879401813e+02
1.912458990157637650e+00 5.146681696503919738e+02
1.912559014163399240e+00 5.146706575089289117e+02
1.912659038169160386e+00 5.146732051353002362e+02
1.912759062174921976e+00 5.146758125990708095e+02
1.912859086180683121e+00 5.146784799676153170e+02
1.912959110186444711e+00 5.146812073061095134e+02
1.913059134192205857e+00 5.146839946775246517e+02
1.913159158197967447e+00 5.146868421426224813e+02
1.913259182203728592e+00 5.146897497599449025e+02
1.913359206209490182e+00 5.146927175858116925e+02
1.913459230215251328e+00 5.146957456743108423e+02
1.913559254221013139e+00 5.146988340772936681e+02
1.913659278226774507e+00 5.147019828443701499e+02
1.913759302232535875e+00 5.147051920228981317e+02
1.913859326238297243e+00 5.147084616579821841e+02
1.913959350244058610e+00 5.147117917924650783e+02
1.914059374249819978e+00 5.147151824669216467e+02
1.914159398255581346e+00 5.147186337196545765e+02
1.914259422261342714e+00 5.147221455866858832e+02
1.914359446267104081e+00 5.147257181017536141e+02
1.914459470272865449e+00 5.147293512963055946e+02
1.914559494278626817e+00 5.147330451994928353e+02
1.914659518284388184e+00 5.147367998381656662e+02
1.914759542290149552e+00 5.147406152368657786e+02
1.914859566295910920e+00 5.147444914178244062e+02
1.914959590301672288e+00 5.147484284009528892e+02
1.915059614307433655e+00 5.147524262038401730e+02
1.915159638313195023e+00 5.147564848417484882e+02
1.915259662318956391e+00 5.147606043276047103e+02
1.915359686324717980e+00 5.147647846719986546e+02
1.915459710330479348e+00 5.147690258831764822e+02
1.915559734336240716e+00 5.147733279670362663e+02
1.915659758342002084e+00 5.147776909271235581e+02
1.915759782347763451e+00 5.147821147646262716e+02
1.915859806353524819e+00 5.147865994783688848e+02
1.915959830359286187e+00 5.147911450648120990e+02
1.916059854365047554e+00 5.147957515180420387e+02
1.916159878370808922e+00 5.148004188297713881e+02
1.916259902376570290e+00 5.148051469893325702e+02
1.916359926382331658e+00 5.148099359836733129e+02
1.916459950388093025e+00 5.148147857973531245e+02
1.916559974393854393e+00 5.148196964125392014e+02
1.916659998399615761e+00 5.148246678090035857e+02
1.916760022405377129e+00 5.148296999641157754e+02
1.916860046411138496e+00 5.148347928528429520e+02
1.916960070416899864e+00 5.148399464477436140e+02
1.917060094422661232e+00 5.148451607189643937e+02
1.917160118428422599e+00 5.148504356342373285e+02
1.917260142434184189e+00 5.148557711588754273e+02
1.917360166439945557e+00 5.148611672557697148e+02
1.917460190445706925e+00 5.148666238853857067e+02
1.917560214451468292e+00 5.148721410057597723e+02
1.917660238457229660e+00 5.148777185724966330e+02
1.917760262462991028e+00 5.148833565387654971e+02
1.917860286468752395e+00 5.148890548552982409e+02
1.917960310474513763e+00 5.148948134703841788e+02
1.918060334480275131e+00 5.149006323298702910e+02
1.918160358486036499e+00 5.149065113771550841e+02
1.918260382491797866e+00 5.149124505531893874e+02
1.918360406497559234e+00 5.149184497964702132e+02
1.918460430503320602e+00 5.149245090430410983e+02
1.918560454509081969e+00 5.149306282264876700e+02
1.918660478514843337e+00 5.149368072779366230e+02
1.918760502520604705e+00 5.149430461260526499e+02
1.918860526526366073e+00 5.149493446970357127e+02
1.918960550532127440e+00 5.149557029146205878e+02
1.919060574537889252e+00 5.149621207000736831e+02
1.919160598543650398e+00 5.149685979721906506e+02
1.919260622549411988e+00 5.149751346472960449e+02
1.919360646555173133e+00 5.149817306392392311e+02
1.919460670560934723e+00 5.149883858593959758e+02
1.919560694566695869e+00 5.149951002166624221e+02
1.919660718572457458e+00 5.150018736174586138e+02
1.919760742578218604e+00 5.150087059657221289e+02
1.919860766583980194e+00 5.150155971629094438e+02
1.919960790589741340e+00 5.150225471079962745e+02
1.920060814595502929e+00 5.150295556974716646e+02
1.920160838601264075e+00 5.150366228253406007e+02
1.920260862607025665e+00 5.150437483831223062e+02
1.920360886612786810e+00 5.150509322598478548e+02
1.920460910618548400e+00 5.150581743420611929e+02
1.920560934624309546e+00 5.150654745138174349e+02
1.920660958630071136e+00 5.150728326566812711e+02
1.920760982635832281e+00 5.150802486497284463e+02
1.920861006641593871e+00 5.150877223695438261e+02
1.920961030647355461e+00 5.150952536902208294e+02
1.921061054653116829e+00 5.151028424833618828e+02
1.921161078658878196e+00 5.151104886180778522e+02
1.921261102664639564e+00 5.151181919609873603e+02
1.921361126670400932e+00 5.151259523762178105e+02
1.921461150676162299e+00 5.151337697254045906e+02
1.921561174681923667e+00 5.151416438676910730e+02
1.921661198687685035e+00 5.151495746597282732e+02
1.921761222693446403e+00 5.151575619556776928e+02
1.921861246699207770e+00 5.151656056072081356e+02
1.921961270704969138e+00 5.151737054634991182e+02
1.922061294710730506e+00 5.151818613712385968e+02
1.922161318716491873e+00 5.151900731746268320e+02
1.922261342722253241e+00 5.151983407153742291e+02
1.922361366728014609e+00 5.152066638327033843e+02
1.922461390733775977e+00 5.152150423633502214e+02
1.922561414739537344e+00 5.152234761415643334e+02
1.922661438745298712e+00 5.152319649991095503e+02
1.922761462751060302e+00 5.152405087652675775e+02
1.922861486756821670e+00 5.152491072668358356e+02
1.922961510762583037e+00 5.152577603281299616e+02
1.923061534768344405e+00 5.152664677709873331e+02
1.923161558774105773e+00 5.152752294147659313e+02
1.923261582779867140e+00 5.152840450763462741e+02
1.923361606785628508e+00 5.152929145701343714e+02
1.923461630791389876e+00 5.153018377080627488e+02
1.923561654797151244e+00 5.153108142995915841e+02
1.923661678802912611e+00 5.153198441517118908e+02
1.923761702808673979e+00 5.153289270689464274e+02
1.923861726814435347e+00 5.153380628533529944e+02
1.923961750820196714e+00 5.153472513045252299e+02
1.924061774825958082e+00 5.153564922195961344e+02
1.924161798831719450e+00 5.153657853932400030e+02
1.924261822837480818e+00 5.153751306176741309e+02
1.924361846843242185e+00 5.153845276826621102e+02
1.924461870849003553e+00 5.153939763755175818e+02
1.924561894854764921e+00 5.154034764811035529e+02
1.924661918860526510e+00 5.154130277818396735e+02
1.924761942866287878e+00 5.154226300577012125e+02
1.924861966872049246e+00 5.154322830862246292e+02
1.924961990877810614e+00 5.154419866425090504e+02
1.925062014883571981e+00 5.154517404992203637e+02
1.925162038889333349e+00 5.154615444265947417e+02
1.925262062895094717e+00 5.154713981924400059e+02
1.925362086900856085e+00 5.154813015621423347e+02
1.925462110906617452e+00 5.154912542986655808e+02
1.925562134912378820e+00 5.155012561625593435e+02
1.925662158918140188e+00 5.155113069119602187e+02
1.925762182923901555e+00 5.155214063025945279e+02
1.925862206929662923e+00 5.155315540877838885e+02
1.925962230935424291e+00 5.155417500184501023e+02
1.926062254941185659e+00 5.155519938431169749e+02
1.926162278946947026e+00 5.155622853079154311e+02
1.926262302952708394e+00 5.155726241565872670e+02
1.926362326958469762e+00 5.155830101304904929e+02
1.926462350964231351e+00 5.155934429686024032e+02
1.926562374969992941e+00 5.156039224075259426e+02
1.926662398975754087e+00 5.156144481814915252e+02
1.926762422981515677e+00 5.156250200223652200e+02
1.926862446987276822e+00 5.156356376596488644e+02
1.926962470993038412e+00 5.156463008204899552e+02
1.927062494998799558e+00 5.156570092296827852e+02
1.927162519004561148e+00 5.156677626096750373e+02
1.927262543010322293e+00 5.156785606805732414e+02
1.927362567016083883e+00 5.156894031601461847e+02
1.927462591021845029e+00 5.157002897638329841e+02
1.927562615027606618e+00 5.157112202047451319e+02
1.927662639033367764e+00 5.157221941936747953e+02
1.927762663039129354e+00 5.157332114390983406e+02
1.927862687044890500e+00 5.157442716471836093e+02
1.927962711050652089e+00 5.157553745217936694e+02
1.928062735056413235e+00 5.157665197644944328e+02
1.928162759062174825e+00 5.157777070745606807e+02
1.928262783067935970e+00 5.157889361489782232e+02
1.928362807073697782e+00 5.158002066824556096e+02
1.928462831079459150e+00 5.158115183674266291e+02
1.928562855085220518e+00 5.158228708940569049e+02
1.928662879090981885e+00 5.158342639502517386e+02
1.928762903096743253e+00 5.158456972216598615e+02
1.928862927102504621e+00 5.158571703916828710e+02
1.928962951108265989e+00 5.158686831414797780e+02
1.929062975114027356e+00 5.158802351499740553e+02
1.929162999119788724e+00 5.158918260938606863e+02
1.929263023125550092e+00 5.159034556476137823e+02
1.929363047131311459e+00 5.159151234834905608e+02
1.929463071137072827e+00 5.159268292715423740e+02
1.929563095142834195e+00 5.159385726796188010e+02
1.929663119148595563e+00 5.159503533733749236e+02
1.929763143154356930e+00 5.159621710162811041e+02
1.929863167160118298e+00 5.159740252696262814e+02
1.929963191165879666e+00 5.159859157925301361e+02
1.930063215171641033e+00 5.159978422419458184e+02
1.930163239177402623e+00 5.160098042726707490e+02
1.930263263183163991e+00 5.160218015373537810e+02
1.930363287188925359e+00 5.160338336865015663e+02
1.930463311194686726e+00 5.160459003684877644e+02
1.930563335200448094e+00 5.160580012295594088e+02
1.930663359206209462e+00 5.160701359138470252e+02
1.930763383211970829e+00 5.160823040633713390e+02
1.930863407217732197e+00 5.160945053180508921e+02
1.930963431223493565e+00 5.161067393157121614e+02
1.931063455229254933e+00 5.161190056920955840e+02
1.931163479235016300e+00 5.161313040808656751e+02
1.931263503240777668e+00 5.161436341136188730e+02
1.931363527246539036e+00 5.161559954198918376e+02
1.931463551252300404e+00 5.161683876271708868e+02
1.931563575258061771e+00 5.161808103608993861e+02
1.931663599263823139e+00 5.161932632444879800e+02
1.931763623269584507e+00 5.162057458993225509e+02
1.931863647275345874e+00 5.162182579447734270e+02
1.931963671281107464e+00 5.162307989982045910e+02
1.932063695286868832e+00 5.162433686749830031e+02
1.932163719292630200e+00 5.162559665884859896e+02
1.932263743298391567e+00 5.162685923501144316e+02
1.932363767304152935e+00 5.162812455692966296e+02
1.932463791309914303e+00 5.162939258535031968e+02
1.932563815315675670e+00 5.163066328082526297e+02
1.932663839321437038e+00 5.163193660371235865e+02
1.932763863327198406e+00 5.163321251417619351e+02
1.932863887332959774e+00 5.163449097218930319e+02
1.932963911338721141e+00 5.163577193753301344e+02
1.933063935344482509e+00 5.163705536979839508e+02
1.933163959350243877e+00 5.163834122838741223e+02
1.933263983356005244e+00 5.163962947251376363e+02
1.933364007361766612e+00 5.164092006120404221e+02
1.933464031367527980e+00 5.164221295329861050e+02
1.933564055373289348e+00 5.164350810745276021e+02
1.933664079379050715e+00 5.164480548213762177e+02
1.933764103384812083e+00 5.164610503564130113e+02
1.933864127390573895e+00 5.164740672606997123e+02
1.933964151396335041e+00 5.164871051134875870e+02
1.934064175402096630e+00 5.165001634922294897e+02
1.934164199407857776e+00 5.165132419725902082e+02
1.934264223413619366e+00 5.165263401284577185e+02
1.934364247419380511e+00 5.165394575319522801e+02
1.934464271425142101e+00 5.165525937534398508e+02
1.934564295430903247e+00 5.165657483615422052e+02
1.934664319436664837e+00 5.165789209231464838e+02
1.934764343442425982e+00 5.165921110034186086e+02
1.934864367448187572e+00 5.166053181658138556e+02
1.934964391453948718e+00 5.166185419720867458e+02
1.935064415459710307e+00 5.166317819823044601e+02
1.935164439465471453e+00 5.166450377548569577e+02
1.935264463471233043e+00 5.166583088464686853e+02
1.935364487476994189e+00 5.166715948122116515e+02
1.935464511482755778e+00 5.166848952055137261e+02
1.935564535488516924e+00 5.166982095781745556e+02
1.935664559494278736e+00 5.167115374803735222e+02
1.935764583500040104e+00 5.167248784606846357e+02
1.935864607505801471e+00 5.167382320660874484e+02
1.935964631511562839e+00 5.167515978419778548e+02
1.936064655517324207e+00 5.167649753321809385e+02
1.936164679523085574e+00 5.167783640789645005e+02
1.936264703528846942e+00 5.167917636230486096e+02
1.936364727534608310e+00 5.168051735036208356e+02
1.936464751540369678e+00 5.168185932583464819e+02
1.936564775546131045e+00 5.168320224233806357e+02
1.936664799551892413e+00 5.168454605333841982e+02
1.936764823557653781e+00 5.168589071215309332e+02
1.936864847563415148e+00 5.168723617195247471e+02
1.936964871569176516e+00 5.168858238576098074e+02
1.937064895574937884e+00 5.168992930645850947e+02
1.937164919580699252e+00 5.169127688678152026e+02
1.937264943586460619e+00 5.169262507932446624e+02
1.937364967592221987e+00 5.169397383654099940e+02
1.937464991597983355e+00 5.169532311074536892e+02
1.937565015603744945e+00 5.169667285411362627e+02
1.937665039609506312e+00 5.169802301868496670e+02
1.937765063615267680e+00 5.169937355636311622e+02
1.937865087621029048e+00 5.170072441891759354e+02
1.937965111626790415e+00 5.170207555798498333e+02
1.938065135632551783e+00 5.170342692507031188e+02
1.938165159638313151e+00 5.170477847154855908e+02
1.938265183644074519e+00 5.170613014866576123e+02
1.938365207649835886e+00 5.170748190754037523e+02
1.938465231655597254e+00 5.170883369916493848e+02
1.938565255661358622e+00 5.171018547440698967e+02
1.938665279667119989e+00 5.171153718401091055e+02
1.938765303672881357e+00 5.171288877859883542e+02
1.938865327678642725e+00 5.171424020867241325e+02
1.938965351684404093e+00 5.171559142461405827e+02
1.939065375690165460e+00 5.171694237668821188e+02
1.939165399695926828e+00 5.171829301504299110e+02
1.939265423701688196e+00 5.171964328971137093e+02
1.939365447707449785e+00 5.172099315061282141e+02
1.939465471713211153e+00 5.172234254755445590e+02
1.939565495718972521e+00 5.172369143023267952e+02
1.939665519724733889e+00 5.172503974823451927e+02
1.939765543730495256e+00 5.172638745103909059e+02
1.939865567736256624e+00 5.172773448801892755e+02
1.939965591742017992e+00 5.172908080844165397e+02
1.940065615747779360e+00 5.173042636147116582e+02
1.940165639753540727e+00 5.173177109616930238e+02
1.940265663759302095e+00 5.173311496149718778e+02
1.940365687765063463e+00 5.173445790631667478e+02
1.940465711770824830e+00 5.173579987939197053e+02
1.940565735776586198e+00 5.173714082939090986e+02
1.940665759782347566e+00 5.173848070488659232e+02
1.940765783788108934e+00 5.173981945435879197e+02
1.940865807793870301e+00 5.174115702619535568e+02
1.940965831799631669e+00 5.174249336869405624e+02
1.941065855805393037e+00 5.174382843006358144e+02
1.941165879811154404e+00 5.174516215842540987e+02
1.941265903816915994e+00 5.174649450181515249e+02
1.941365927822677584e+00 5.174782540818422376e+02
1.941465951828438730e+00 5.174915482540111498e+02
1.941565975834200319e+00 5.175048270125316776e+02
1.941665999839961465e+00 5.175180898344791558e+02
1.941766023845723055e+00 5.175313361961469809e+02
1.941866047851484200e+00 5.175445655730625276e+02
1.941966071857245790e+00 5.175577774400005637e+02
1.942066095863006936e+00 5.175709712710020085e+02
1.942166119868768526e+00 5.175841465393853014e+02
1.942266143874529671e+00 5.175973027177658423e+02
1.942366167880291261e+00 5.176104392780683838e+02
1.942466191886052407e+00 5.176235556915453344e+02
1.942566215891813997e+00 5.176366514287899463e+02
1.942666239897575142e+00 5.176497259597540506e+02
1.942766263903336732e+00 5.176627787537627228e+02
1.942866287909097878e+00 5.176758092795301991e+02
1.942966311914859467e+00 5.176888170051761335e+02
1.943066335920621057e+00 5.177018013982406046e+02
1.943166359926382425e+00 5.177147619257009410e+02
1.943266383932143793e+00 5.177276980539859323e+02
1.943366407937905160e+00 5.177406092489959519e+02
1.943466431943666528e+00 5.177534949761127336e+02
1.943566455949427896e+00 5.177663547002213136e+02
1.943666479955189264e+00 5.177791878857220809e+02
1.943766503960950631e+00 5.177919939965488538e+02
1.943866527966711999e+00 5.178047724961847962e+02
1.943966551972473367e+00 5.178175228476779921e+02
1.944066575978234734e+00 5.178302445136579308e+02
1.944166599983996102e+00 5.178429369563519913e+02
1.944266623989757470e+00 5.178555996376015855e+02
1.944366647995518838e+00 5.178682320188785297e+02
1.944466672001280205e+00 5.178808335613010740e+02
1.944566696007041573e+00 5.178934037256506144e+02
1.944666720012802941e+00 5.179059419723879500e+02
1.944766744018564308e+00 5.179184477616697677e+02
1.944866768024325676e+00 5.179309205533643308e+02
1.944966792030087266e+00 5.179433598070704647e+02
1.945066816035848634e+00 5.179557649821307450e+02
1.945166840041610001e+00 5.179681355376501415e+02
1.945266864047371369e+00 5.179804709325125032e+02
1.945366888053132737e+00 5.179927706253960196e+02
1.945466912058894104e+00 5.180050340747909559e+02
1.945566936064655472e+00 5.180172607390155690e+02
1.945666960070416840e+00 5.180294500762333882e+02
1.945766984076178208e+00 5.180416015444696995e+02
1.945867008081939575e+00 5.180537146016289398e+02
1.945967032087700943e+00 5.180657887055094761e+02
1.946067056093462311e+00 5.180778233138216819e+02
1.946167080099223679e+00 5.180898178842062407e+02
1.946267104104985046e+00 5.181017718742474472e+02
1.946367128110746414e+00 5.181136847414933300e+02
1.946467152116507782e+00 5.181255559434709994e+02
1.946567176122269149e+00 5.181373849377035867e+02
1.946667200128030517e+00 5.181491711817268424e+02
1.946767224133792107e+00 5.181609141331075534e+02
1.946867248139553475e+00 5.181726132494583226e+02
1.946967272145314842e+00 5.181842679884563267e+02
1.947067296151076210e+00 5.181958778078598016e+02
1.947167320156837578e+00 5.182074421655241849e+02
1.947267344162598945e+00 5.182189605194198521e+02
1.947367368168360313e+00 5.182304323276498508e+02
1.947467392174121681e+00 5.182418570484651354e+02
1.947567416179883049e+00 5.182532341402835527e+02
1.947667440185644416e+00 5.182645630617054167e+02
1.947767464191405784e+00 5.182758432715316985e+02
1.947867488197167152e+00 5.182870742287796020e+02
1.947967512202928519e+00 5.182982553927018898e+02
1.948067536208689887e+00 5.183093862228021180e+02
1.948167560214451255e+00 5.183204661788524845e+02
1.948267584220212623e+00 5.183314947209114507e+02
1.948367608225973990e+00 5.183424713093399987e+02
1.948467632231735358e+00 5.183533954048186843e+02
1.948567656237496726e+00 5.183642664683663952e+02
1.948667680243258538e+00 5.183750839613558128e+02
1.948767704249019683e+00 5.183858473455310332e+02
1.948867728254781273e+00 5.183965560830256436e+02
1.948967752260542419e+00 5.184072096363784112e+02
1.949067776266304008e+00 5.184178074685522688e+02
1.949167800272065154e+00 5.184283490429504582e+02
1.949267824277826744e+00 5.184388338234332423e+02
1.949367848283587890e+00 5.184492612743359814e+02
1.949467872289349479e+00 5.184596308604867545e+02
1.949567896295110625e+00 5.184699420472227303e+02
1.949667920300872215e+00 5.184801943004079021e+02
1.949767944306633360e+00 5.184903870864493456e+02
1.949867968312394950e+00 5.185005198723162039e+02
1.949967992318156096e+00 5.185105921255563999e+02
1.950068016323917686e+00 5.185206033143114155e+02
1.950168040329678831e+00 5.185305529073375510e+02
1.950268064335440421e+00 5.185404403740205908e+02
1.950368088341201567e+00 5.185502651843942203e+02
1.950468112346963379e+00 5.185600268091558291e+02
1.950568136352724746e+00 5.185697247196843591e+02
1.950668160358486114e+00 5.185793583880595179e+02
1.950768184364247482e+00 5.185889272870764444e+02
1.950868208370008849e+00 5.185984308902633302e+02
1.950968232375770217e+00 5.186078686719002917e+02
1.951068256381531585e+00 5.186172401070347178e+02
1.951168280387292953e+00 5.186265446714990048e+02
1.951268304393054320e+00 5.186357818419289742e+02
1.951368328398815688e+00 5.186449510957795610e+02
1.951468352404577056e+00 5.186540519113430037e+02
1.951568376410338423e+00 5.186630837677646468e+02
1.951668400416099791e+00 5.186720461450622679e+02
1.951768424421861159e+00 5.186809385241413111e+02
1.951868448427622527e+00 5.186897603868138731e+02
1.951968472433383894e+00 5.186985112158129141e+02
1.952068496439145262e+00 5.187071904948135170e+02
1.952168520444906630e+00 5.187157977084468712e+02
1.952268544450667997e+00 5.187243323423180072e+02
1.952368568456429587e+00 5.187327938830234189e+02
1.952468592462190955e+00 5.187411818181686840e+02
1.952568616467952323e+00 5.187494956363848360e+02
1.952668640473713690e+00 5.187577348273438247e+02
1.952768664479475058e+00 5.187658988817796626e+02
1.952868688485236426e+00 5.187739872915014985e+02
1.952968712490997794e+00 5.187819995494126033e+02
1.953068736496759161e+00 5.187899351495276505e+02
1.953168760502520529e+00 5.187977935869868134e+02
1.953268784508281897e+00 5.188055743580777062e+02
1.953368808514043264e+00 5.188132769602487997e+02
1.953468832519804632e+00 5.188209008921261329e+02
1.953568856525566000e+00 5.188284456535318441e+02
1.953668880531327368e+00 5.188359107455013373e+02
1.953768904537088735e+00 5.188432956702978345e+02
1.953868928542850103e+00 5.188505999314327255e+02
1.953968952548611471e+00 5.188578230336785282e+02
1.954068976554372838e+00 5.188649644830886700e+02
1.954169000560134428e+00 5.188720237870128358e+02
1.954269024565895796e+00 5.188790004541147027e+02
1.954369048571657164e+00 5.188858939943874020e+02
1.954469072577418531e+00 5.188927039191709127e+02
1.954569096583179899e+00 5.188994297411704792e+02
1.954669120588941267e+00 5.189060709744697988e+02
1.954769144594702635e+00 5.189126271345493251e+02
1.954869168600464002e+00 5.189190977383057088e+02
1.954969192606225370e+00 5.189254823040628253e+02
1.955069216611986738e+00 5.189317803515926926e+02
1.955169240617748105e+00 5.189379914021303648e+02
1.955269264623509473e+00 5.189441149783909850e+02
1.955369288629270841e+00 5.189501506045858150e+02
1.955469312635032209e+00 5.189560978064396295e+02
1.955569336640793576e+00 5.189619561112041310e+02
1.955669360646554944e+00 5.189677250476800054e+02
1.955769384652316312e+00 5.189734041462265850e+02
1.955869408658077679e+00 5.189789929387833354e+02
1.955969432663839047e+00 5.189844909588844075e+02
1.956069456669600637e+00 5.189898977416742127e+02
1.956169480675362227e+00 5.189952128239243621e+02
1.956269504681123372e+00 5.190004357440498097e+02
1.956369528686884962e+00 5.190055660421246557e+02
1.956469552692646108e+00 5.190106032598990851e+02
1.956569576698407698e+00 5.190155469408156250e+02
1.956669600704168843e+00 5.190203966300224465e+02
1.956769624709930433e+00 5.190251518743936003e+02
1.956869648715691579e+00 5.190298122225419775e+02
1.956969672721453168e+00 5.190343772248363621e+02
1.957069696727214314e+00 5.190388464334165519e+02
1.957169720732975904e+00 5.190432194022112071e+02
1.957269744738737050e+00 5.190474956869505831e+02
1.957369768744498639e+00 5.190516748451854028e+02
1.957469792750259785e+00 5.190557564363009533e+02
1.957569816756021375e+00 5.190597400215317521e+02
1.957669840761782520e+00 5.190636251639806460e+02
1.957769864767544110e+00 5.190674114286313170e+02
1.957869888773305700e+00 5.190710983823644256e+02
1.957969912779067068e+00 5.190746855939740954e+02
1.958069936784828435e+00 5.190781726341826925e+02
1.958169960790589803e+00 5.190815590756571964e+02
1.958269984796351171e+00 5.190848444930234109e+02
1.958370008802112539e+00 5.190880284628807431e+02
1.958470032807873906e+00 5.190911105638208483e+02
1.958570056813635274e+00 5.190940903764380892e+02
1.958670080819396642e+00 5.190969674833499994e+02
1.958770104825158009e+00 5.190997414692066059e+02
1.958870128830919377e+00 5.191024119207119156e+02
1.958970152836680745e+00 5.191049784266338065e+02
1.959070176842442113e+00 5.191074405778213077e+02
1.959170200848203480e+00 5.191097979672194924e+02
1.959270224853964848e+00 5.191120501898836892e+02
1.959370248859726216e+00 5.191141968429961935e+02
1.959470272865487583e+00 5.191162375258783186e+02
1.959570296871248951e+00 5.191181718400074487e+02
1.959670320877010319e+00 5.191199993890302267e+02
1.959770344882771909e+00 5.191217197787788109e+02
1.959870368888533276e+00 5.191233326172839497e+02
1.959970392894294644e+00 5.191248375147898741e+02
1.960070416900056012e+00 5.191262340837699867e+02
1.960170440905817379e+00 5.191275219389399354e+02
1.960270464911578747e+00 5.191287006972723930e+02
1.960370488917340115e+00 5.191297699780120638e+02
1.960470512923101483e+00 5.191307294026887575e+02
1.960570536928862850e+00 5.191315785951326234e+02
1.960670560934624218e+00 5.191323171814873376e+02
1.960770584940385586e+00 5.191329447902259062e+02
1.960870608946146953e+00 5.191334610521632840e+02
1.960970632951908321e+00 5.191338656004703580e+02
1.961070656957669689e+00 5.191341580706882723e+02
1.961170680963431057e+00 5.191343381007420703e+02
1.961270704969192424e+00 5.191344053309562696e+02
1.961370728974953792e+00 5.191343594040649805e+02
1.961470752980715160e+00 5.191341999652283903e+02
1.961570776986476750e+00 5.191339266620466333e+02
1.961670800992238117e+00 5.191335391445713867e+02
1.961770824997999485e+00 5.191330370653207638e+02
1.961870849003760853e+00 5.191324200792918191e+02
1.961970873009522220e+00 5.191316878439754419e+02
1.962070897015283588e+00 5.191308400193679518e+02
1.962170921021044956e+00 5.191298762679862193e+02
1.962270945026806324e+00 5.191287962548781252e+02
1.962370969032567691e+00 5.191275996476384762e+02
1.962470993038329059e+00 5.191262861164203741e+02
1.962571017044090427e+00 5.191248553339491991e+02
1.962671041049851794e+00 5.191233069755343195e+02
1.962771065055613162e+00 5.191216407190834161e+02
1.962871089061374530e+00 5.191198562451138514e+02
1.962971113067135898e+00 5.191179532367664251e+02
1.963071137072897265e+00 5.191159313798177664e+02
1.963171161078658633e+00 5.191137903626929528e+02
1.963271185084420001e+00 5.191115298764760837e+02
1.963371209090181368e+00 5.191091496149272189e+02
1.963471233095943180e+00 5.191066492744898824e+02
1.963571257101704326e+00 5.191040285543065238e+02
1.963671281107465916e+00 5.191012871562298869e+02
1.963771305113227061e+00 5.190984247848336963e+02
1.963871329118988651e+00 5.190954411474275503e+02
1.963971353124749797e+00 5.190923359540657884e+02
1.964071377130511387e+00 5.190891089175627258e+02
1.964171401136272532e+00 5.190857597535014065e+02
1.964271425142034122e+00 5.190822881802482698e+02
1.964371449147795268e+00 5.190786939189615623e+02
1.964471473153556857e+00 5.190749766936058904e+02
1.964571497159318003e+00 5.190711362309623382e+02
1.964671521165079593e+00 5.190671722606413141e+02
1.964771545170840739e+00 5.190630845150910773e+02
1.964871569176602328e+00 5.190588727296128582e+02
1.964971593182363474e+00 5.190545366423682481e+02
1.965071617188125064e+00 5.190500759943944331e+02
1.965171641193886209e+00 5.190454905296109018e+02
1.965271665199648021e+00 5.190407799948352476e+02
1.965371689205409389e+00 5.190359441397893079e+02
1.965471713211170757e+00 5.190309827171138295e+02
1.965571737216932124e+00 5.190258954823768818e+02
1.965671761222693492e+00 5.190206821940855662e+02
1.965771785228454860e+00 5.190153426136973849e+02
1.965871809234216228e+00 5.190098765056280854e+02
1.965971833239977595e+00 5.190042836372662123e+02
1.966071857245738963e+00 5.189985637789791326e+02
1.966171881251500331e+00 5.189927167041270195e+02
1.966271905257261698e+00 5.189867421890700143e+02
1.966371929263023066e+00 5.189806400131806186e+02
1.966471953268784434e+00 5.189744099588531299e+02
1.966571977274545802e+00 5.189680518115131918e+02
1.966672001280307169e+00 5.189615653596270022e+02
1.966772025286068537e+00 5.189549503947135918e+02
1.966872049291829905e+00 5.189482067113513040e+02
1.966972073297591272e+00 5.189413341071905279e+02
1.967072097303352640e+00 5.189343323829605197e+02
1.967172121309114230e+00 5.189272013424812258e+02
1.967272145314875598e+00 5.189199407926709000e+02
1.967372169320636965e+00 5.189125505435563355e+02
1.967472193326398333e+00 5.189050304082804814e+02
1.967572217332159701e+00 5.188973802031150626e+02
1.967672241337921069e+00 5.188895997474660362e+02
1.967772265343682436e+00 5.188816888638835962e+02
1.967872289349443804e+00 5.188736473780729739e+02
1.967972313355205172e+00 5.188654751188985301e+02
1.968072337360966539e+00 5.188571719183991036e+02
1.968172361366727907e+00 5.188487376117897156e+02
1.968272385372489275e+00 5.188401720374755541e+02
1.968372409378250643e+00 5.188314750370558386e+02
1.968472433384012010e+00 5.188226464553368942e+02
1.968572457389773378e+00 5.188136861403361308e+02
1.968672481395534746e+00 5.188045939432928435e+02
1.968772505401296113e+00 5.187953697186740101e+02
1.968872529407057481e+00 5.187860133241853191e+02
1.968972553412819071e+00 5.187765246207757173e+02
1.969072577418580439e+00 5.187669034726480959e+02
1.969172601424341806e+00 5.187571497472639521e+02
1.969272625430103174e+00 5.187472633153544166e+02
1.969372649435864542e+00 5.187372440509248008e+02
1.969472673441625910e+00 5.187270918312626691e+02
1.969572697447387277e+00 5.187168065369477290e+02
1.969672721453148645e+00 5.187063880518543328e+02
1.969772745458910013e+00 5.186958362631629598e+02
1.969872769464671380e+00 5.186851510613649907e+02
1.969972793470432748e+00 5.186743323402688475e+02
1.970072817476194116e+00 5.186633799970111340e+02
1.970172841481955484e+00 5.186522939320565229e+02
1.970272865487716851e+00 5.186410740492115110e+02
1.970372889493478219e+00 5.186297202556251023e+02
1.970472913499239587e+00 5.186182324618002895e+02
1.970572937505000954e+00 5.186066105815954188e+02
1.970672961510762322e+00 5.185948545322344216e+02
1.970772985516523690e+00 5.185829642343113619e+02
1.970873009522285280e+00 5.185709396117964616e+02
1.970973033528046869e+00 5.185587805920417850e+02
1.971073057533808015e+00 5.185464871057891969e+02
1.971173081539569605e+00 5.185340590871727500e+02
1.971273105545330750e+00 5.185214964737265291e+02
1.971373129551092340e+00 5.185087992063903357e+02
1.971473153556853486e+00 5.184959672295143491e+02
1.971573177562615076e+00 5.184830004908651517e+02
1.971673201568376221e+00 5.184698989416306176e+02
1.971773225574137811e+00 5.184566625364241190e+02
1.971873249579898957e+00 5.184432912332921433e+02
1.971973273585660547e+00 5.184297849937169076e+02
1.972073297591421692e+00 5.184161437826221572e+02
1.972173321597183282e+00 5.184023675683785086e+02
1.972273345602944428e+00 5.183884563228065190e+02
1.972373369608706017e+00 5.183744100211828254e+02
1.972473393614467163e+00 5.183602286422442376e+02
1.972573417620228753e+00 5.183459121681918305e+02
1.972673441625990343e+00 5.183314605846960603e+02
1.972773465631751710e+00 5.183168738808979015e+02
1.972873489637513078e+00 5.183021520494178276e+02
1.972973513643274446e+00 5.182872950863564938e+02
1.973073537649035814e+00 5.182723029912987158e+02
1.973173561654797181e+00 5.182571757673177899e+02
1.973273585660558549e+00 5.182419134209804952e+02
1.973373609666319917e+00 5.182265159623482305e+02
1.973473633672081284e+00 5.182109834049822439e+02
1.973573657677842652e+00 5.181953157659460203e+02
1.973673681683604020e+00 5.181795130658096014e+02
1.973773705689365388e+00 5.181635753286510635e+02
1.973873729695126755e+00 5.181475025820615201e+02
1.973973753700888123e+00 5.181312948571467132e+02
1.974073777706649491e+00 5.181149521885303102e+02
1.974173801712410858e+00 5.180984746143562916e+02
1.974273825718172226e+00 5.180818621762932707e+02
1.974373849723933594e+00 5.180651149195343805e+02
1.974473873729694962e+00 5.180482328928005700e+02
1.974573897735456551e+00 5.180312161483458340e+02
1.974673921741217919e+00 5.180140647419535753e+02
1.974773945746979287e+00 5.179967787329455859e+02
1.974873969752740654e+00 5.179793581841785226e+02
1.974973993758502022e+00 5.179618031620475449e+02
1.975074017764263390e+00 5.179441137364906353e+02
1.975174041770024758e+00 5.179262899809865530e+02
1.975274065775786125e+00 5.179083319725580168e+02
1.975374089781547493e+00 5.178902397917734106e+02
1.975474113787308861e+00 5.178720135227491710e+02
1.975574137793070228e+00 5.178536532531481953e+02
1.975674161798831596e+00 5.178351590741839345e+02
1.975774185804592964e+00 5.178165310806194839e+02
1.975874209810354332e+00 5.177977693707694016e+02
1.975974233816115699e+00 5.177788740465010733e+02
1.976074257821877067e+00 5.177598452132344846e+02
1.976174281827638435e+00 5.177406829799433581e+02
1.976274305833399803e+00 5.177213874591554941e+02
1.976374329839161392e+00 5.177019587669532257e+02
1.976474353844922760e+00 5.176823970229739871e+02
1.976574377850684128e+00 5.176627023504109957e+02
1.976674401856445495e+00 5.176428748760118879e+02
1.976774425862206863e+00 5.176229147300796285e+02
1.976874449867968231e+00 5.176028220464735341e+02
1.976974473873729599e+00 5.175825969626062033e+02
1.977074497879490966e+00 5.175622396194469275e+02
1.977174521885252334e+00 5.175417501615175979e+02
1.977274545891013702e+00 5.175211287368954345e+02
1.977374569896775069e+00 5.175003754972093475e+02
1.977474593902536437e+00 5.174794905976418704e+02
1.977574617908297805e+00 5.174584741969276820e+02
1.977674641914059173e+00 5.174373264573495135e+02
1.977774665919820540e+00 5.174160475447420140e+02
1.977874689925581908e+00 5.173946376284886810e+02
1.977974713931343276e+00 5.173730968815182223e+02
1.978074737937104643e+00 5.173514254803066024e+02
1.978174761942866011e+00 5.173296236048740866e+02
1.978274785948627823e+00 5.173076914387834222e+02
1.978374809954388969e+00 5.172856291691381330e+02
1.978474833960150558e+00 5.172634369865818371e+02
1.978574857965911704e+00 5.172411150852951778e+02
1.978674881971673294e+00 5.172186636629941177e+02
1.978774905977434440e+00 5.171960829209277790e+02
1.978874929983196029e+00 5.171733730638770794e+02
1.978974953988957175e+00 5.171505343001506390e+02
1.979074977994718765e+00 5.171275668415848941e+02
1.979175002000479910e+00 5.171044709035379583e+02
1.979275026006241500e+00 5.170812467048904182e+02
1.979375050012002646e+00 5.170578944680418090e+02
1.979475074017764236e+00 5.170344144189056124e+02
1.979575098023525381e+00 5.170108067869089155e+02
1.979675122029286971e+00 5.169870718049879770e+02
1.979775146035048117e+00 5.169632097095852714e+02
1.979875170040809707e+00 5.169392207406461921e+02
1.979975194046570852e+00 5.169151051416167775e+02
1.980075218052332664e+00 5.168908631594375720e+02
1.980175242058094032e+00 5.168664950445426030e+02
1.980275266063855399e+00 5.168420010508547193e+02
1.980375290069616767e+00 5.168173814357817264e+02
1.980475314075378135e+00 5.167926364602114973e+02
1.980575338081139503e+00 5.167677663885108359e+02
1.980675362086900870e+00 5.167427714885180876e+02
1.980775386092662238e+00 5.167176520315399557e+02
1.980875410098423606e+00 5.166924082923501373e+02
1.980975434104184973e+00 5.166670405491779547e+02
1.981075458109946341e+00 5.166415490837121069e+02
1.981175482115707709e+00 5.166159341810888463e+02
1.981275506121469077e+00 5.165901961298927745e+02
1.981375530127230444e+00 5.165643352221479745e+02
1.981475554132991812e+00 5.165383517533152826e+02
1.981575578138753180e+00 5.165122460222861491e+02
1.981675602144514547e+00 5.164860183313785456e+02
1.981775626150275915e+00 5.164596689863299162e+02
1.981875650156037283e+00 5.164331982962933125e+02
1.981975674161798873e+00 5.164066065738315956e+02
1.982075698167560240e+00 5.163798941349120923e+02
1.982175722173321608e+00 5.163530612988993198e+02
1.982275746179082976e+00 5.163261083885510061e+02
1.982375770184844344e+00 5.162990357300110418e+02
1.982475794190605711e+00 5.162718436528048187e+02
1.982575818196367079e+00 5.162445324898308172e+02
1.982675842202128447e+00 5.162171025773565134e+02
1.982775866207889814e+00 5.161895542550124674e+02
1.982875890213651182e+00 5.161618878657823188e+02
1.982975914219412550e+00 5.161341037559997176e+02
1.983075938225173918e+00 5.161062022753416159e+02
1.983175962230935285e+00 5.160781837768187188e+02
1.983275986236696653e+00 5.160500486167718464e+02
1.983376010242458021e+00 5.160217971548636342e+02
1.983476034248219388e+00 5.159934297540704620e+02
1.983576058253980756e+00 5.159649467806759731e+02
1.983676082259742124e+00 5.159363486042668683e+02
1.983776106265503714e+00 5.159076355977188086e+02
1.983876130271265081e+00 5.158788081371965291e+02
1.983976154277026449e+00 5.158498666021411054e+02
1.984076178282787817e+00 5.158208113752634745e+02
1.984176202288549185e+00 5.157916428425381810e+02
1.984276226294310552e+00 5.157623613931945101e+02
1.984376250300071920e+00 5.157329674197075065e+02
1.984476274305833288e+00 5.157034613177912661e+02
1.984576298311594655e+00 5.156738434863913199e+02
1.984676322317356023e+00 5.156441143276738330e+02
1.984776346323117391e+00 5.156142742470210578e+02
1.984876370328878759e+00 5.155843236530184868e+02
1.984976394334640126e+00 5.155542629574499642e+02
1.985076418340401494e+00 5.155240925752869998e+02
1.985176442346162862e+00 5.154938129246808103e+02
1.985276466351924229e+00 5.154634244269534520e+02
1.985376490357685597e+00 5.154329275065872480e+02
1.985476514363446965e+00 5.154023225912198996e+02
1.985576538369208333e+00 5.153716101116297068e+02
1.985676562374969922e+00 5.153407905017318171e+02
1.985776586380731512e+00 5.153098641985643553e+02
1.985876610386492658e+00 5.152788316422812613e+02
1.985976634392254248e+00 5.152476932761431954e+02
1.986076658398015393e+00 5.152164495465073060e+02
1.986176682403776983e+00 5.151851009028158614e+02
1.986276706409538129e+00 5.151536477975892012e+02
1.986376730415299718e+00 5.151220906864141398e+02
1.986476754421060864e+00 5.150904300279337349e+02
1.986576778426822454e+00 5.150586662838386474e+02
1.986676802432583600e+00 5.150267999188557724e+02
1.986776826438345189e+00 5.149948314007390309e+02
1.986876850444106335e+00 5.149627612002561818e+02
1.986976874449867925e+00 5.149305897911814327e+02
1.987076898455629070e+00 5.148983176502847527e+02
1.987176922461390660e+00 5.148659452573184581e+02
1.987276946467151806e+00 5.148334730950091398e+02
1.987376970472913396e+00 5.148009016490458407e+02
1.987476994478674985e+00 5.147682314080688002e+02
1.987577018484436353e+00 5.147354628636586540e+02
1.987677042490197721e+00 5.147025965103257477e+02
1.987777066495959088e+00 5.146696328454991090e+02
1.987877090501720456e+00 5.146365723695130328e+02
1.987977114507481824e+00 5.146034155855973040e+02
1.988077138513243192e+00 5.145701629998675344e+02
1.988177162519004559e+00 5.145368151213091323e+02
1.988277186524765927e+00 5.145033724617701409e+02
1.988377210530527295e+00 5.144698355359462312e+02
1.988477234536288663e+00 5.144362048613696743e+02
1.988577258542050030e+00 5.144024809583993374e+02
1.988677282547811398e+00 5.143686643502059042e+02
1.988777306553572766e+00 5.143347555627605061e+02
1.988877330559334133e+00 5.143007551248244908e+02
1.988977354565095501e+00 5.142666635679333922e+02
1.989077378570856869e+00 5.142324814263886310e+02
1.989177402576618237e+00 5.141982092372422812e+02
1.989277426582379604e+00 5.141638475402849053e+02
1.989377450588141194e+00 5.141293968780342993e+02
1.989477474593902562e+00 5.140948577957205998e+02
1.989577498599663929e+00 5.140602308412753700e+02
1.989677522605425297e+00 5.140255165653182985e+02
1.989777546611186665e+00 5.139907155211426470e+02
1.989877570616948033e+00 5.139558282647049055e+02
1.989977594622709400e+00 5.139208553546086478e+02
1.990077618628470768e+00 5.138857973520939595e+02
1.990177642634232136e+00 5.138506548210215215e+02
1.990277666639993503e+00 5.138154283278627190e+02
1.990377690645754871e+00 5.137801184416820206e+02
1.990477714651516239e+00 5.137447257341268596e+02
1.990577738657277607e+00 5.137092507794109224e+02
1.990677762663038974e+00 5.136736941543033481e+02
1.990777786668800342e+00 5.136380564381133809e+02
1.990877810674561710e+00 5.136023382126757042e+02
1.990977834680323078e+00 5.135665400623390724e+02
1.991077858686084445e+00 5.135306625739494848e+02
1.991177882691846035e+00 5.134947063368371118e+02
1.991277906697607403e+00 5.134586719428025390e+02
1.991377930703368770e+00 5.134225599861017599e+02
1.991477954709130138e+00 5.133863710634331028e+02
1.991577978714891506e+00 5.133501057739201769e+02
1.991678002720652874e+00 5.133137647190998223e+02
1.991778026726414241e+00 5.132773485029074436e+02
1.991878050732175609e+00 5.132408577316595029e+02
1.991978074737936977e+00 5.132042930140428325e+02
1.992078098743698344e+00 5.131676549610969005e+02
1.992178122749459712e+00 5.131309441861997129e+02
1.992278146755221080e+00 5.130941613050525802e+02
1.992378170760982448e+00 5.130573069356663609e+02
1.992478194766743815e+00 5.130203816983441811e+02
1.992578218772505183e+00 5.129833862156680198e+02
1.992678242778266551e+00 5.129463211124827922e+02
1.992778266784027918e+00 5.129091870158807751e+02
1.992878290789789286e+00 5.128719845551869412e+02
1.992978314795550654e+00 5.128347143619427015e+02
1.993078338801312466e+00 5.127973770698903309e+02
1.993178362807073611e+00 5.127599733149569374e+02
1.993278386812835201e+00 5.127225037352411618e+02
1.993378410818596347e+00 5.126849689709946460e+02
1.993478434824357937e+00 5.126473696646066855e+02
1.993578458830119082e+00 5.126097064605899050e+02
1.993678482835880672e+00 5.125719800055625228e+02
1.993778506841641818e+00 5.125341909482333449e+02
1.993878530847403407e+00 5.124963399393849386e+02
1.993978554853164553e+00 5.124584276318580578e+02
1.994078578858926143e+00 5.124204546805352720e+02
1.994178602864687289e+00 5.123824217423241407e+02
1.994278626870448878e+00 5.123443294761425477e+02
1.994378650876210024e+00 5.123061785428977828e+02
1.994478674881971614e+00 5.122679696054769920e+02
1.994578698887732759e+00 5.122297033287239856e+02
1.994678722893494349e+00 5.121913803794275282e+02
1.994778746899255495e+00 5.121530014263004205e+02
1.994878770905017307e+00 5.121145671399669936e+02
1.994978794910778674e+00 5.120760781929421910e+02
1.995078818916540042e+00 5.120375352596176981e+02
1.995178842922301410e+00 5.119989390162439804e+02
1.995278866928062778e+00 5.119602901409131164e+02
1.995378890933824145e+00 5.119215893135410624e+02
1.995478914939585513e+00 5.118828372158527600e+02
1.995578938945346881e+00 5.118440345313626381e+02
1.995678962951108248e+00 5.118051819453580151e+02
1.995778986956869616e+00 5.117662801448826713e+02
1.995879010962630984e+00 5.117273298187183173e+02
1.995979034968392352e+00 5.116883316573678826e+02
1.996079058974153719e+00 5.116492863530378941e+02
1.996179082979915087e+00 5.116101945996214226e+02
1.996279106985676455e+00 5.115710570926790979e+02
1.996379130991437822e+00 5.115318745294226801e+02
1.996479154997199190e+00 5.114926476086980074e+02
1.996579179002960558e+00 5.114533770309649299e+02
1.996679203008721926e+00 5.114140634982815072e+02
1.996779227014483515e+00 5.113747077142857052e+02
1.996879251020244883e+00 5.113353103841776601e+02
1.996979275026006251e+00 5.112958722146999548e+02
1.997079299031767619e+00 5.112563939141227820e+02
1.997179323037528986e+00 5.112168761922233671e+02
1.997279347043290354e+00 5.111773197602690288e+02
1.997379371049051722e+00 5.111377253309979665e+02
1.997479395054813089e+00 5.110980936186020926e+02
1.997579419060574457e+00 5.110584253387096396e+02
1.997679443066335825e+00 5.110187212083637860e+02
1.997779467072097193e+00 5.109789819460065701e+02
1.997879491077858560e+00 5.109392082714617800e+02
1.997979515083619928e+00 5.108994009059132395e+02
1.998079539089381296e+00 5.108595605718880961e+02
1.998179563095142663e+00 5.108196879932389720e+02
1.998279587100904031e+00 5.107797838951236713e+02
1.998379611106665399e+00 5.107398490039877856e+02
1.998479635112426767e+00 5.106998840475463339e+02
1.998579659118188356e+00 5.106598897547640377e+02
1.998679683123949724e+00 5.106198668558360509e+02
1.998779707129711092e+00 5.105798160821706233e+02
1.998879731135472460e+00 5.105397381663714214e+02
1.998979755141233827e+00 5.104996338422143936e+02
1.999079779146995195e+00 5.104595038446331614e+02
1.999179803152756563e+00 5.104193489096973053e+02
1.999279827158517930e+00 5.103791697745954821e+02
1.999379851164279298e+00 5.103389671776147338e+02
1.999479875170040666e+00 5.102987418581219572e+02
1.999579899175802034e+00 5.102584945565458270e+02
1.999679923181563401e+00 5.102182260143549115e+02
1.999779947187324769e+00 5.101779369740424386e+02
1.999879971193086137e+00 5.101376281791038991e+02
1.999979995198847504e+00 5.100973003740183458e+02
2.000080019204609094e+00 5.307312029923050432e+02
2.000180043210370240e+00 5.308670275775668870e+02
2.000280067216131830e+00 5.310027004768071492e+02
2.000380091221892975e+00 5.311382197344422593e+02
2.000480115227654565e+00 5.312735834004884055e+02
2.000580139233416155e+00 5.314087895306223572e+02
2.000680163239177300e+00 5.315438361862393322e+02
2.000780187244938890e+00 5.316787214345096118e+02
2.000880211250700036e+00 5.318134433484392503e+02
2.000980235256461626e+00 5.319480000069256675e+02
2.001080259262222771e+00 5.320823894948161978e+02
2.001180283267984361e+00 5.322166099029662973e+02
2.001280307273745507e+00 5.323506593282938866e+02
2.001380331279507097e+00 5.324845358738373307e+02
2.001480355285268242e+00 5.326182376488134196e+02
2.001580379291029832e+00 5.327517627686712558e+02
2.001680403296790978e+00 5.328851093551493250e+02
2.001780427302552567e+00 5.330182755363304068e+02
2.001880451308313713e+00 5.331512594466976225e+02
2.001980475314075303e+00 5.332840592271891182e+02
2.002080499319836449e+00 5.334166730252516118e+02
2.002180523325598038e+00 5.335490989948972356e+02
2.002280547331359628e+00 5.336813352967561741e+02
2.002380571337120774e+00 5.338133800981297554e+02
2.002480595342882363e+00 5.339452315730466125e+02
2.002580619348643509e+00 5.340768879023125919e+02
2.002680643354405099e+00 5.342083472735657779e+02
2.002780667360166245e+00 5.343396078813300392e+02
2.002880691365927834e+00 5.344706679270650511e+02
2.002980715371688980e+00 5.346015256192193874e+02
2.003080739377450570e+00 5.347321791732824749e+02
2.003180763383211715e+00 5.348626268118359803e+02
2.003280787388973305e+00 5.349928667646038321e+02
2.003380811394734451e+00 5.351228972685053122e+02
2.003480835400496041e+00 5.352527165677030325e+02
2.003580859406257186e+00 5.353823229136552300e+02
2.003680883412018776e+00 5.355117145651638566e+02
2.003780907417779922e+00 5.356408897884249427e+02
2.003880931423541512e+00 5.357698468570770274e+02
2.003980955429302657e+00 5.358985840522531134e+02
2.004080979435064247e+00 5.360270996626238684e+02
2.004181003440825837e+00 5.361553919844502616e+02
2.004281027446586982e+00 5.362834593216298344e+02
2.004381051452348572e+00 5.364112999857439945e+02
2.004481075458110162e+00 5.365389122961055364e+02
2.004581099463871308e+00 5.366662945798065039e+02
2.004681123469632453e+00 5.367934451717624142e+02
2.004781147475394043e+00 5.369203624147603477e+02
2.004881171481155633e+00 5.370470446595048770e+02
2.004981195486916778e+00 5.371734902646622913e+02
2.005081219492677924e+00 5.372996975969060713e+02
2.005181243498439514e+00 5.374256650309631596e+02
2.005281267504201104e+00 5.375513909496568203e+02
2.005381291509962249e+00 5.376768737439507504e+02
2.005481315515723395e+00 5.378021118129935303e+02
2.005581339521484985e+00 5.379271035641628487e+02
2.005681363527246575e+00 5.380518474131058611e+02
2.005781387533007720e+00 5.381763417837848920e+02
2.005881411538768866e+00 5.383005851085183622e+02
2.005981435544530900e+00 5.384245758280212613e+02
2.006081459550292045e+00 5.385483123914505086e+02
2.006181483556053635e+00 5.386717932564428111e+02
2.006281507561814781e+00 5.387950168891560452e+02
2.006381531567576371e+00 5.389179817643124579e+02
2.006481555573337516e+00 5.390406863652352740e+02
2.006581579579099106e+00 5.391631291838896232e+02
2.006681603584860252e+00 5.392853087209239220e+02
2.006781627590621842e+00 5.394072234857060266e+02
2.006881651596382987e+00 5.395288719963634776e+02
2.006981675602144577e+00 5.396502527798211304e+02
2.007081699607905723e+00 5.397713643718398089e+02
2.007181723613667312e+00 5.398922053170531399e+02
2.007281747619428458e+00 5.400127741690051835e+02
2.007381771625190048e+00 5.401330694901855622e+02
2.007481795630951193e+00 5.402530898520695928e+02
2.007581819636712783e+00 5.403728338351490947e+02
2.007681843642473929e+00 5.404923000289725223e+02
2.007781867648235519e+00 5.406114870321782746e+02
2.007881891653997108e+00 5.407303934525284603e+02
2.007981915659758254e+00 5.408490179069451642e+02
2.008081939665519844e+00 5.409673590215438708e+02
2.008181963671280990e+00 5.410854154316671156e+02
2.008281987677042579e+00 5.412031857819170000e+02
2.008382011682803725e+00 5.413206687261890693e+02
2.008482035688565315e+00 5.414378629277044865e+02
2.008582059694326460e+00 5.415547670590419784e+02
2.008682083700088050e+00 5.416713798021686443e+02
2.008782107705849196e+00 5.417876998484731530e+02
2.008882131711610786e+00 5.419037258987942778e+02
2.008982155717371931e+00 5.420194566634543207e+02
2.009082179723133521e+00 5.421348908622851468e+02
2.009182203728894667e+00 5.422500272246622899e+02
2.009282227734656257e+00 5.423648644895303050e+02
2.009382251740417402e+00 5.424794014054332365e+02
2.009482275746178992e+00 5.425936367305446311e+02
2.009582299751940138e+00 5.427075692326927765e+02
2.009682323757701727e+00 5.428211976893886686e+02
2.009782347763463317e+00 5.429345208878562516e+02
2.009882371769224463e+00 5.430475376250550426e+02
2.009982395774986053e+00 5.431602467077094616e+02
2.010082419780747198e+00 5.432726469523328205e+02
2.010182443786508788e+00 5.433847371852546075e+02
2.010282467792269934e+00 5.434965162426444749e+02
2.010382491798031523e+00 5.436079829705369093e+02
2.010482515803792669e+00 5.437191362248556743e+02
2.010582539809554259e+00 5.438299748714390489e+02
2.010682563815315405e+00 5.439404977860604049e+02
2.010782587821076994e+00 5.440507038544536726e+02
2.010882611826838140e+00 5.441605919723356237e+02
2.010982635832599730e+00 5.442701610454259935e+02
2.011082659838360875e+00 5.443794099894722649e+02
2.011182683844122465e+00 5.444883377302687677e+02
2.011282707849883611e+00 5.445969432036787339e+02
2.011382731855645201e+00 5.447052253556535106e+02
2.011482755861406346e+00 5.448131831422545019e+02
2.011582779867167936e+00 5.449208155296711311e+02
2.011682803872929526e+00 5.450281214942409633e+02
2.011782827878691116e+00 5.451351000224673271e+02
2.011882851884452261e+00 5.452417501110398916e+02
2.011982875890213407e+00 5.453480707668500145e+02
2.012082899895974997e+00 5.454540610070098410e+02
2.012182923901736586e+00 5.455597198588690162e+02
2.012282947907497732e+00 5.456650463600302601e+02
2.012382971913258878e+00 5.457700395583673298e+02
2.012482995919020468e+00 5.458746985120401405e+02
2.012583019924782057e+00 5.459790222895088618e+02
2.012683043930543203e+00 5.460830099695502895e+02
2.012783067936304349e+00 5.461866606412723968e+02
2.012883091942065938e+00 5.462899734041258171e+02
2.012983115947827528e+00 5.463929473679218063e+02
2.013083139953588674e+00 5.464955816528412242e+02
2.013183163959349820e+00 5.465978753894490865e+02
2.013283187965111409e+00 5.466998277187071835e+02
2.013383211970872999e+00 5.468014377919854496e+02
2.013483235976634589e+00 5.469027047710727629e+02
2.013583259982395735e+00 5.470036278281885416e+02
2.013683283988157324e+00 5.471042061459936576e+02
2.013783307993918470e+00 5.472044389175996457e+02
2.013883331999680060e+00 5.473043253465792759e+02
2.013983356005441205e+00 5.474038646469738296e+02
2.014083380011202795e+00 5.475030560433053779e+02
2.014183404016963941e+00 5.476018987705805330e+02
2.014283428022725531e+00 5.477003920743027265e+02
2.014383452028486676e+00 5.477985352104772119e+02
2.014483476034248266e+00 5.478963274456177714e+02
2.014583500040009412e+00 5.479937680567552434e+02
2.014683524045771001e+00 5.480908563314418416e+02
2.014783548051532147e+00 5.481875915677568400e+02
2.014883572057293737e+00 5.482839730743140763e+02
2.014983596063054883e+00 5.483800001702638838e+02
2.015083620068816472e+00 5.484756721852993451e+02
2.015183644074577618e+00 5.485709884596582242e+02
2.015283668080339208e+00 5.486659483441299017e+02
2.015383692086100798e+00 5.487605512000548060e+02
2.015483716091861943e+00 5.488547963993289613e+02
2.015583740097623533e+00 5.489486833244059198e+02
2.015683764103384679e+00 5.490422113682975578e+02
2.015783788109146268e+00 5.491353799345765765e+02
2.015883812114907414e+00 5.492281884373765024e+02
2.015983836120669004e+00 5.493206363013933924e+02
2.016083860126430150e+00 5.494127229618825368e+02
2.016183884132191739e+00 5.495044478646630068e+02
2.016283908137952885e+00 5.495958104661114021e+02
2.016383932143714475e+00 5.496868102331642376e+02
2.016483956149475620e+00 5.497774466433153293e+02
2.016583980155237210e+00 5.498677191846115875e+02
2.016684004160998356e+00 5.499576273556539263e+02
2.016784028166759946e+00 5.500471706655896469e+02
2.016884052172521091e+00 5.501363486341133466e+02
2.016984076178282681e+00 5.502251607914594160e+02
2.017084100184044271e+00 5.503136066783999922e+02
2.017184124189805416e+00 5.504016858462375694e+02
2.017284148195567006e+00 5.504893978568036346e+02
2.017384172201328152e+00 5.505767422824482082e+02
2.017484196207089742e+00 5.506637187060371161e+02
2.017584220212850887e+00 5.507503267209438036e+02
2.017684244218612477e+00 5.508365659310420597e+02
2.017784268224373623e+00 5.509224359506999917e+02
2.017884292230135213e+00 5.510079364047701347e+02
2.017984316235896358e+00 5.510930669285826298e+02
2.018084340241657948e+00 5.511778271679364707e+02
2.018184364247419094e+00 5.512622167790876802e+02
2.018284388253180683e+00 5.513462354287430571e+02
2.018384412258941829e+00 5.514298827940485808e+02
2.018484436264703419e+00 5.515131585625784965e+02
2.018584460270464565e+00 5.515960624323233787e+02
2.018684484276226154e+00 5.516785941116821732e+02
2.018784508281987300e+00 5.517607533194471898e+02
2.018884532287748890e+00 5.518425397847919385e+02
2.018984556293510479e+00 5.519239532472604424e+02
2.019084580299272069e+00 5.520049934567524588e+02
2.019184604305033215e+00 5.520856601735104050e+02
2.019284628310794361e+00 5.521659531681050339e+02
2.019384652316555950e+00 5.522458722214212230e+02
2.019484676322317540e+00 5.523254171246442183e+02
2.019584700328078686e+00 5.524045876792418994e+02
2.019684724333839831e+00 5.524833836969519325e+02
2.019784748339601421e+00 5.525618049997624439e+02
2.019884772345363011e+00 5.526398514198984913e+02
2.019984796351124157e+00 5.527175227998029641e+02
2.020084820356885302e+00 5.527948189921211224e+02
2.020184844362646892e+00 5.528717398596807016e+02
2.020284868368408482e+00 5.529482852754749729e+02
2.020384892374169628e+00 5.530244551226439853e+02
2.020484916379930773e+00 5.531002492944545565e+02
2.020584940385692363e+00 5.531756676942821969e+02
2.020684964391453953e+00 5.532507102355897359e+02
2.020784988397215542e+00 5.533253768419079961e+02
2.020885012402976688e+00 5.533996674468153287e+02
2.020985036408738278e+00 5.534735819939149906e+02
2.021085060414499424e+00 5.535471204368144527e+02
2.021185084420261013e+00 5.536202827391037999e+02
2.021285108426022159e+00 5.536930688743331075e+02
2.021385132431783749e+00 5.537654788259890211e+02
2.021485156437544894e+00 5.538375125874716787e+02
2.021585180443306484e+00 5.539091701620722006e+02
2.021685204449067630e+00 5.539804515629472235e+02
2.021785228454829220e+00 5.540513568130943440e+02
2.021885252460590365e+00 5.541218859453299501e+02
2.021985276466351955e+00 5.541920390022600031e+02
2.022085300472113101e+00 5.542618160362574145e+02
2.022185324477874691e+00 5.543312171094338510e+02
2.022285348483635836e+00 5.544002422936159746e+02
2.022385372489397426e+00 5.544688916703152017e+02
2.022485396495158572e+00 5.545371653307043971e+02
2.022585420500920161e+00 5.546050633755853596e+02
2.022685444506681751e+00 5.546725859153650617e+02
2.022785468512442897e+00 5.547397330700258635e+02
2.022885492518204487e+00 5.548065049690954993e+02
2.022985516523965632e+00 5.548729017516186559e+02
2.023085540529727222e+00 5.549389235661287785e+02
2.023185564535488368e+00 5.550045705706153285e+02
2.023285588541249957e+00 5.550698429324953622e+02
2.023385612547011103e+00 5.551347408285820393e+02
2.023485636552772693e+00 5.551992644450534726e+02
2.023585660558533839e+00 5.552634139774220330e+02
2.023685684564295428e+00 5.553271896305011524e+02
2.023785708570056574e+00 5.553905916183728095e+02
2.023885732575818164e+00 5.554536201643571758e+02
2.023985756581579309e+00 5.555162755009769171e+02
2.024085780587340899e+00 5.555785578699249072e+02
2.024185804593102045e+00 5.556404675220301215e+02
2.024285828598863635e+00 5.557020047172237582e+02
2.024385852604624780e+00 5.557631697245051328e+02
2.024485876610386370e+00 5.558239628219051838e+02
2.024585900616147960e+00 5.558843842964525948e+02
2.024685924621909106e+00 5.559444344441371868e+02
2.024785948627670695e+00 5.560041135698752441e+02
2.024885972633431841e+00 5.560634219874712016e+02
2.024985996639193431e+00 5.561223600195825156e+02
2.025086020644954576e+00 5.561809279976813514e+02
2.025186044650716166e+00 5.562391262620182033e+02
2.025286068656477312e+00 5.562969551615834689e+02
2.025386092662238902e+00 5.563544150540681130e+02
2.025486116668000047e+00 5.564115063058279702e+02
2.025586140673761637e+00 5.564682292918421354e+02
2.025686164679522783e+00 5.565245843956753333e+02
2.025786188685284372e+00 5.565805720094363096e+02
2.025886212691045518e+00 5.566361925337412231e+02
2.025986236696807108e+00 5.566914463776696493e+02
2.026086260702568254e+00 5.567463339587269502e+02
2.026186284708329843e+00 5.568008557028015275e+02
2.026286308714090989e+00 5.568550120441234412e+02
2.026386332719853023e+00 5.569088034252243915e+02
2.026486356725614169e+00 5.569622302968939493e+02
2.026586380731375314e+00 5.570152931181372651e+02
2.026686404737136904e+00 5.570679923561347096e+02
2.026786428742898494e+00 5.571203284861958309e+02
2.026886452748659639e+00 5.571723019917176316e+02
2.026986476754420785e+00 5.572239133641413673e+02
2.027086500760182375e+00 5.572751631029063901e+02
2.027186524765943965e+00 5.573260517154093350e+02
2.027286548771705110e+00 5.573765797169560301e+02
2.027386572777466256e+00 5.574267476307185234e+02
2.027486596783227846e+00 5.574765559876888119e+02
2.027586620788989435e+00 5.575260053266346176e+02
2.027686644794750581e+00 5.575750961940525485e+02
2.027786668800511727e+00 5.576238291441212596e+02
2.027886692806273317e+00 5.576722047386560916e+02
2.027986716812034906e+00 5.577202235470616642e+02
2.028086740817796052e+00 5.577678861462857185e+02
2.028186764823557642e+00 5.578151931207700045e+02
2.028286788829319232e+00 5.578621450624034424e+02
2.028386812835080377e+00 5.579087425704750558e+02
2.028486836840841967e+00 5.579549862516231542e+02
2.028586860846603113e+00 5.580008767197898578e+02
2.028686884852364702e+00 5.580464145961692566e+02
2.028786908858125848e+00 5.580916005091610259e+02
2.028886932863887438e+00 5.581364350943174486e+02
2.028986956869648584e+00 5.581809189942975991e+02
2.029086980875410173e+00 5.582250528588136831e+02
2.029187004881171319e+00 5.582688373445834031e+02
2.029287028886932909e+00 5.583122731152777760e+02
2.029387052892694054e+00 5.583553608414706559e+02
2.029487076898455644e+00 5.583981012005881439e+02
2.029587100904216790e+00 5.584404948768554959e+02
2.029687124909978380e+00 5.584825425612478966e+02
2.029787148915739525e+00 5.585242449514353211e+02
2.029887172921501115e+00 5.585656027517342181e+02
2.029987196927262261e+00 5.586066166730508940e+02
2.030087220933023850e+00 5.586472874328313765e+02
2.030187244938785440e+00 5.586876157550074140e+02
2.030287268944546586e+00 5.587276023699437246e+02
2.030387292950308176e+00 5.587672480143838811e+02
2.030487316956069321e+00 5.588065534313964235e+02
2.030587340961830911e+00 5.588455193703219948e+02
2.030687364967592057e+00 5.588841465867162697e+02
2.030787388973353647e+00 5.589224358422998193e+02
2.030887412979114792e+00 5.589603879048988802e+02
2.030987436984876382e+00 5.589980035483928305e+02
2.031087460990637528e+00 5.590352835526578019e+02
2.031187484996399117e+00 5.590722287035118825e+02
2.031287509002160263e+00 5.591088397926595235e+02
2.031387533007921853e+00 5.591451176176353783e+02
2.031487557013682999e+00 5.591810629817460949e+02
2.031587581019444588e+00 5.592166766940181333e+02
2.031687605025205734e+00 5.592519595691368295e+02
2.031787629030967324e+00 5.592869124273921670e+02
2.031887653036728913e+00 5.593215360946207966e+02
2.031987677042490059e+00 5.593558314021479418e+02
2.032087701048251649e+00 5.593897991867314659e+02
2.032187725054012795e+00 5.594234402905043453e+02
2.032287749059774384e+00 5.594567555609135070e+02
2.032387773065535530e+00 5.594897458506650310e+02
2.032487797071297120e+00 5.595224120176652605e+02
2.032587821077058265e+00 5.595547549249606618e+02
2.032687845082819855e+00 5.595867754406807535e+02
2.032787869088581001e+00 5.596184744379781932e+02
2.032887893094342591e+00 5.596498527949693198e+02
2.032987917100103736e+00 5.596809113946765137e+02
2.033087941105865326e+00 5.597116511249666928e+02
2.033187965111626472e+00 5.597420728784923085e+02
2.033287989117388062e+00 5.597721775526323427e+02
2.033388013123149207e+00 5.598019660494306891e+02
2.033488037128910797e+00 5.598314392755373774e+02
2.033588061134671943e+00 5.598605981421470688e+02
2.033688085140433532e+00 5.598894435649385741e+02
2.033788109146195122e+00 5.599179764640136909e+02
2.033888133151956268e+00 5.599461977638392227e+02
2.033988157157717858e+00 5.599741083931806997e+02
2.034088181163479447e+00 5.600017092850459903e+02
2.034188205169240593e+00 5.600290013766204993e+02
2.034288229175001739e+00 5.600559856092075961e+02
2.034388253180763328e+00 5.600826629281654050e+02
2.034488277186524918e+00 5.601090342828473467e+02
2.034588301192286064e+00 5.601351006265363139e+02
2.034688325198047210e+00 5.601608629163852129e+02
2.034788349203808799e+00 5.601863221133548905e+02
2.034888373209570389e+00 5.602114791821496738e+02
2.034988397215331535e+00 5.602363350911563202e+02
2.035088421221092680e+00 5.602608908123812625e+02
2.035188445226854270e+00 5.602851473213858071e+02
2.035288469232615860e+00 5.603091055972259937e+02
2.035388493238377006e+00 5.603327666223863162e+02
2.035488517244138151e+00 5.603561313827208323e+02
2.035588541249900185e+00 5.603792008673840428e+02
2.035688565255661331e+00 5.604019760687732514e+02
2.035788589261422921e+00 5.604244579824596713e+02
2.035888613267184066e+00 5.604466476071283978e+02
2.035988637272945656e+00 5.604685459445131528e+02
2.036088661278706802e+00 5.604901539993328470e+02
2.036188685284468392e+00 5.605114727792259828e+02
2.036288709290229537e+00 5.605325032946891497e+02
2.036388733295991127e+00 5.605532465590092670e+02
2.036488757301752273e+00 5.605737035882035570e+02
2.036588781307513862e+00 5.605938754009509921e+02
2.036688805313275008e+00 5.606137630185309035e+02
2.036788829319036598e+00 5.606333674647552243e+02
2.036888853324797743e+00 5.606526897659068709e+02
2.036988877330559333e+00 5.606717309506734637e+02
2.037088901336320479e+00 5.606904920500812750e+02
2.037188925342082069e+00 5.607089740974333836e+02
2.037288949347843214e+00 5.607271781282415759e+02
2.037388973353604804e+00 5.607451051801624544e+02
2.037488997359366394e+00 5.607627562929325222e+02
2.037589021365127540e+00 5.607801325083029269e+02
2.037689045370889129e+00 5.607972348699732947e+02
2.037789069376650275e+00 5.608140644235278387e+02
2.037889093382411865e+00 5.608306222163678285e+02
2.037989117388173010e+00 5.608469092976488355e+02
2.038089141393934600e+00 5.608629267182124067e+02
2.038189165399695746e+00 5.608786755305225142e+02
2.038289189405457336e+00 5.608941567885991617e+02
2.038389213411218481e+00 5.609093715479517641e+02
2.038489237416980071e+00 5.609243208655168473e+02
2.038589261422741217e+00 5.609390057995871075e+02
2.038689285428502806e+00 5.609534274097499065e+02
2.038789309434263952e+00 5.609675867568200829e+02
2.038889333440025542e+00 5.609814849027731043e+02
2.038989357445786688e+00 5.609951229106816299e+02
2.039089381451548277e+00 5.610085018446458207e+02
2.039189405457309423e+00 5.610216227697320619e+02
2.039289429463071013e+00 5.610344867519032732e+02
2.039389453468832603e+00 5.610470948579542210e+02
2.039489477474593748e+00 5.610594481554469439e+02
2.039589501480355338e+00 5.610715477126422002e+02
2.039689525486116484e+00 5.610833945984359161e+02
2.039789549491878073e+00 5.610949898822910882e+02
2.039889573497639219e+00 5.611063346341736633e+02
2.039989597503400809e+00 5.611174299244860322e+02
2.040089621509161955e+00 5.611282768239999541e+02
2.040189645514923544e+00 5.611388764037915280e+02
2.040289669520684690e+00 5.611492297351759362e+02
2.040389693526446280e+00 5.611593378896405966e+02
2.040489717532207425e+00 5.611692019387791106e+02
2.040589741537969015e+00 5.611788229542246427e+02
2.040689765543730161e+00 5.611882020075880746e+02
2.040789789549491751e+00 5.611973401703857007e+02
2.040889813555252896e+00 5.612062385139793150e+02
2.040989837561014486e+00 5.612148981095068621e+02
2.041089861566775632e+00 5.612233200278183176e+02
2.041189885572537221e+00 5.612315053394090683e+02
2.041289909578298811e+00 5.612394551143551098e+02
2.041389933584060401e+00 5.612471704222466542e+02
2.041489957589821547e+00 5.612546523321229870e+02
2.041589981595582692e+00 5.612619019124067563e+02
2.041690005601344282e+00 5.612689202308388303e+02
2.041790029607105872e+00 5.612757083544123589e+02
2.041890053612867018e+00 5.612822673493071761e+02
2.041990077618628163e+00 5.612885982808256813e+02
2.042090101624389753e+00 5.612947022133271275e+02
2.042190125630151343e+00 5.613005802101610016e+02
2.042290149635912488e+00 5.613062333336038137e+02
2.042390173641673634e+00 5.613116626447937278e+02
2.042490197647435224e+00 5.613168692036640550e+02
2.042590221653196814e+00 5.613218540688803841e+02
2.042690245658957959e+00 5.613266182977752123e+02
2.042790269664719105e+00 5.613311629462820065e+02
2.042890293670480695e+00 5.613354890688718797e+02
2.042990317676242285e+00 5.613395977184894718e+02
2.043090341682003874e+00 5.613434899464855334e+02
2.043190365687765020e+00 5.613471668025567851e+02
2.043290389693526610e+00 5.613506293346792972e+02
2.043390413699287755e+00 5.613538785890430063e+02
2.043490437705049345e+00 5.613569156099910060e+02
2.043590461710810491e+00 5.613597414399532681e+02
2.043690485716572081e+00 5.613623571193828639e+02
2.043790509722333226e+00 5.613647636866930952e+02
2.043890533728094816e+00 5.613669621781932619e+02
2.043990557733855962e+00 5.613689536280267021e+02
2.044090581739617551e+00 5.613707390681041716e+02
2.044190605745378697e+00 5.613723195280434766e+02
2.044290629751140287e+00 5.613736960351053540e+02
2.044390653756901433e+00 5.613748696141300343e+02
2.044490677762663022e+00 5.613758412874755095e+02
2.044590701768424168e+00 5.613766120749534139e+02
2.044690725774185758e+00 5.613771829937680877e+02
2.044790749779946903e+00 5.613775550584517759e+02
2.044890773785708493e+00 5.613777292808044876e+02
2.044990797791470083e+00 5.613777066698309000e+02
2.045090821797231229e+00 5.613774882316783987e+02
2.045190845802992818e+00 5.613770749695752329e+02
2.045290869808753964e+00 5.613764678837683277e+02
2.045390893814515554e+00 5.613756679714624624e+02
2.045490917820276700e+00 5.613746762267588792e+02
2.045590941826038289e+00 5.613734936405927556e+02
2.045690965831799435e+00 5.613721212006742007e+02
2.045790989837561025e+00 5.613705598914257280e+02
2.045891013843322170e+00 5.613688106939208637e+02
2.045991037849083760e+00 5.613668745858267357e+02
2.046091061854844906e+00 5.613647525413401809e+02
2.046191085860606496e+00 5.613624455311293104e+02
2.046291109866367641e+00 5.613599545222723464e+02
2.046391133872129231e+00 5.613572804781999821e+02
2.046491157877890377e+00 5.613544243586331959e+02
2.046591181883651966e+00 5.613513871195245883e+02
2.046691205889413556e+00 5.613481697130004022e+02
2.046791229895174702e+00 5.613447730872991315e+02
2.046891253900936292e+00 5.613411981867143368e+02
2.046991277906697437e+00 5.613374459515345052e+02
2.047091301912459027e+00 5.613335173179873436e+02
2.047191325918220173e+00 5.613294132181779332e+02
2.047291349923981763e+00 5.613251345800323406e+02
2.047391373929742908e+00 5.613206823272403199e+02
2.047491397935504498e+00 5.613160573791960815e+02
2.047591421941265644e+00 5.613112606509424722e+02
2.047691445947027233e+00 5.613062930531125403e+02
2.047791469952788379e+00 5.613011554918732600e+02
2.047891493958549969e+00 5.612958488688675516e+02
2.047991517964311114e+00 5.612903740811597117e+02
2.048091541970072704e+00 5.612847320211765236e+02
2.048191565975833850e+00 5.612789235766538241e+02
2.048291589981595440e+00 5.612729496305787507e+02
2.048391613987356585e+00 5.612668110611341490e+02
2.048491637993118175e+00 5.612605087416442302e+02
2.048591661998879765e+00 5.612540435405180688e+02
2.048691686004641355e+00 5.612474163211969653e+02
2.048791710010402500e+00 5.612406279420963529e+02
2.048891734016163646e+00 5.612336792565546375e+02
2.048991758021925236e+00 5.612265711127754457e+02
2.049091782027686826e+00 5.612193043537787389e+02
2.049191806033447971e+00 5.612118798173414689e+02
2.049291830039209117e+00 5.612042983359489199e+02
2.049391854044970707e+00 5.611965607367376379e+02
2.049491878050732296e+00 5.611886678414452945e+02
2.049591902056493442e+00 5.611806204663580502e+02
2.049691926062254588e+00 5.611724194222547339e+02
2.049791950068016178e+00 5.611640655143597769e+02
2.049891974073777767e+00 5.611555595422877332e+02
2.049991998079538913e+00 5.611469022999921208e+02
2.050092022085300059e+00 5.611380945757156269e+02
2.050192046091061648e+00 5.611291371519388349e+02
2.050292070096823238e+00 5.611200308053274739e+02
2.050392094102584828e+00 5.611107763066851248e+02
2.050492118108345974e+00 5.611013744208989920e+02
2.050592142114107563e+00 5.610918259068952239e+02
2.050692166119868709e+00 5.610821315175851396e+02
2.050792190125630299e+00 5.610722919998166844e+02
2.050892214131391444e+00 5.610623080943275909e+02
2.050992238137153034e+00 5.610521805356935374e+02
2.051092262142914180e+00 5.610419100522832423e+02
2.051192286148675770e+00 5.610314973662070770e+02
2.051292310154436915e+00 5.610209431932706821e+02
2.051392334160198505e+00 5.610102482429280144e+02
2.051492358165959651e+00 5.609994132182341673e+02
2.051592382171721241e+00 5.609884388157963713e+02
2.051692406177482386e+00 5.609773257257309069e+02
2.051792430183243976e+00 5.609660746316129689e+02
2.051892454189005122e+00 5.609546862104351703e+02
2.051992478194766711e+00 5.609431611325569520e+02
2.052092502200527857e+00 5.609315000616636553e+02
2.052192526206289447e+00 5.609197036547188873e+02
2.052292550212051037e+00 5.609077725619213197e+02
2.052392574217812182e+00 5.608957074266595555e+02
2.052492598223573772e+00 5.608835088854679043e+02
2.052592622229334918e+00 5.608711775679837501e+02
2.052692646235096507e+00 5.608587140969036682e+02
2.052792670240857653e+00 5.608461190879404512e+02
2.052892694246619243e+00 5.608333931497794538e+02
2.052992718252380389e+00 5.608205368840394840e+02
2.053092742258141978e+00 5.608075508852258508e+02
2.053192766263903124e+00 5.607944357406945528e+02
2.053292790269664714e+00 5.607811920306047568e+02
2.053392814275425859e+00 5.607678203278834417e+02
2.053492838281187449e+00 5.607543211981816285e+02
2.053592862286948595e+00 5.607406951998350451e+02
2.053692886292710185e+00 5.607269428838234262e+02
2.053792910298471330e+00 5.607130647937333379e+02
2.053892934304232920e+00 5.606990614657153174e+02
2.053992958309994066e+00 5.606849334284495399e+02
2.054092982315755656e+00 5.606706812031019354e+02
2.054193006321517245e+00 5.606563053032916741e+02
2.054293030327278391e+00 5.606418062350492164e+02
2.054393054333039981e+00 5.606271844967824336e+02
2.054493078338801126e+00 5.606124405792349989e+02
2.054593102344562716e+00 5.605975749654554647e+02
2.054693126350323862e+00 5.605825881307559939e+02
2.054793150356085452e+00 5.605674805426795047e+02
2.054893174361846597e+00 5.605522526609631768e+02
2.054993198367608187e+00 5.605369049375027544e+02
2.055093222373369333e+00 5.605214378163191213e+02
2.055193246379130922e+00 5.605058517335226043e+02
2.055293270384892068e+00 5.604901471172798892e+02
2.055393294390653658e+00 5.604743243877802570e+02
2.055493318396414804e+00 5.604583839572017041e+02
2.055593342402176393e+00 5.604423262296791108e+02
2.055693366407937539e+00 5.604261516012702486e+02
2.055793390413699129e+00 5.604098604599261080e+02
2.055893414419460719e+00 5.603934531854571333e+02
2.055993438425222308e+00 5.603769301495021864e+02
2.056093462430983454e+00 5.603602917154988745e+02
2.056193486436744600e+00 5.603435382386522861e+02
2.056293510442506189e+00 5.603266700659044091e+02
2.056393534448267779e+00 5.603096875359050273e+02
2.056493558454028925e+00 5.602925909789830712e+02
2.056593582459790071e+00 5.602753807171150129e+02
2.056693606465551660e+00 5.602580570639014468e+02
2.056793630471313250e+00 5.602406203245330971e+02
2.056893654477074396e+00 5.602230707957671711e+02
2.056993678482835541e+00 5.602054087658987100e+02
2.057093702488597131e+00 5.601876345147338725e+02
2.057193726494358721e+00 5.601697483135628772e+02
2.057293750500119867e+00 5.601517504251359014e+02
2.057393774505881012e+00 5.601336411036345453e+02
2.057493798511642602e+00 5.601154205946489810e+02
2.057593822517404192e+00 5.600970891351521459e+02
2.057693846523165337e+00 5.600786469534749585e+02
2.057793870528926927e+00 5.600600942692844910e+02
2.057893894534688517e+00 5.600414312935569114e+02
2.057993918540449663e+00 5.600226582285571340e+02
2.058093942546211252e+00 5.600037752678161951e+02
2.058193966551972398e+00 5.599847825961057879e+02
2.058293990557733988e+00 5.599656803894208679e+02
2.058394014563495134e+00 5.599464688149539597e+02
2.058494038569256723e+00 5.599271480310783318e+02
2.058594062575017869e+00 5.599077181873224163e+02
2.058694086580779459e+00 5.598881794243561671e+02
2.058794110586540604e+00 5.598685318739640024e+02
2.058894134592302194e+00 5.598487756590309345e+02
2.058994158598063340e+00 5.598289108935217655e+02
2.059094182603824930e+00 5.598089376824626697e+02
2.059194206609586075e+00 5.597888561219232315e+02
2.059294230615347665e+00 5.597686662989985962e+02
2.059394254621108811e+00 5.597483682917933265e+02
2.059494278626870400e+00 5.597279621694037814e+02
2.059594302632631990e+00 5.597074479919016312e+02
2.059694326638393136e+00 5.596868258103195330e+02
2.059794350644154726e+00 5.596660956666337370e+02
2.059894374649915871e+00 5.596452575937521488e+02
2.059994398655677461e+00 5.596243116154944346e+02
2.060094422661438607e+00 5.596032577465846316e+02
2.060194446667200197e+00 5.595820959926319347e+02
2.060294470672961342e+00 5.595608263501225110e+02
2.060394494678722932e+00 5.595394488064016514e+02
2.060494518684484078e+00 5.595179633396643339e+02
2.060594542690245667e+00 5.594963699189445379e+02
2.060694566696006813e+00 5.594746685041011460e+02
2.060794590701768403e+00 5.594528590458082817e+02
2.060894614707529549e+00 5.594309414855457590e+02
2.060994638713291138e+00 5.594089157555862357e+02
2.061094662719052284e+00 5.593867817789885066e+02
2.061194686724813874e+00 5.593645394695877258e+02
2.061294710730575019e+00 5.593421887319852885e+02
2.061394734736336609e+00 5.593197294615421242e+02
2.061494758742098199e+00 5.592971615443705105e+02
2.061594782747859345e+00 5.592744848573258878e+02
2.061694806753620934e+00 5.592516992680008343e+02
2.061794830759382080e+00 5.592288046347189265e+02
2.061894854765143670e+00 5.592058008065279182e+02
2.061994878770904815e+00 5.591826876231949655e+02
2.062094902776666405e+00 5.591594649152001466e+02
2.062194926782427551e+00 5.591361325037348706e+02
2.062294950788189141e+00 5.591126902006940327e+02
2.062394974793950286e+00 5.590891378086744226e+02
2.062494998799711876e+00 5.590654751209717688e+02
2.062595022805473022e+00 5.590417019215766459e+02
2.062695046811234612e+00 5.590178179851735649e+02
2.062795070816995757e+00 5.589938230771374492e+02
2.062895094822757347e+00 5.589697169535334069e+02
2.062995118828518493e+00 5.589454993611157079e+02
2.063095142834280082e+00 5.589211700373280109e+02
2.063195166840041228e+00 5.588967287103005219e+02
2.063295190845803262e+00 5.588721750988541999e+02
2.063395214851564408e+00 5.588475089124985971e+02
2.063495238857325553e+00 5.588227298514348149e+02
2.063595262863087143e+00 5.587978376065575503e+02
2.063695286868848733e+00 5.587728318594556640e+02
2.063795310874609878e+00 5.587477122824166145e+02
2.063895334880371024e+00 5.587224785384295274e+02
2.063995358886132614e+00 5.586971302811878104e+02
2.064095382891894204e+00 5.586716671550932460e+02
2.064195406897655349e+00 5.586460887952626990e+02
2.064295430903416495e+00 5.586203948275302764e+02
2.064395454909178085e+00 5.585945848684552857e+02
2.064495478914939675e+00 5.585686585253264411e+02
2.064595502920700820e+00 5.585426153961692535e+02
2.064695526926461966e+00 5.585164550697526238e+02
2.064795550932223556e+00 5.584901771255965741e+02
2.064895574937985145e+00 5.584637811339792961e+02
2.064995598943746291e+00 5.584372666559459049e+02
2.065095622949507437e+00 5.584106332433170792e+02
2.065195646955269471e+00 5.583838804386991796e+02
2.065295670961030616e+00 5.583570077754918657e+02
2.065395694966792206e+00 5.583300147779002600e+02
2.065495718972553352e+00 5.583029009609446121e+02
2.065595742978314941e+00 5.582756658304713255e+02
2.065695766984076087e+00 5.582483088831643272e+02
2.065795790989837677e+00 5.582208296065580271e+02
2.065895814995598823e+00 5.581932274790480051e+02
2.065995839001360412e+00 5.581655019699057902e+02
2.066095863007121558e+00 5.581376525392912527e+02
2.066195887012883148e+00 5.581096786382669279e+02
2.066295911018644293e+00 5.580815797088102954e+02
2.066395935024405883e+00 5.580533551838316271e+02
2.066495959030167029e+00 5.580250044871869477e+02
2.066595983035928619e+00 5.579965270336954291e+02
2.066696007041689764e+00 5.579679222291530323e+02
2.066796031047451354e+00 5.579391894703512662e+02
2.066896055053212500e+00 5.579103281450935583e+02
2.066996079058974090e+00 5.578813376322117392e+02
2.067096103064735679e+00 5.578522173015866201e+02
2.067196127070496825e+00 5.578229665141632267e+02
2.067296151076258415e+00 5.577935846219713767e+02
2.067396175082019560e+00 5.577640709681444378e+02
2.067496199087781150e+00 5.577344248869401326e+02
2.067596223093542296e+00 5.577046457037598657e+02
2.067696247099303886e+00 5.576747327351672538e+02
2.067796271105065031e+00 5.576446852889152979e+02
2.067896295110826621e+00 5.576145026639616162e+02
2.067996319116587767e+00 5.575841841504925469e+02
2.068096343122349356e+00 5.575537290299477036e+02
2.068196367128110502e+00 5.575231365750405530e+02
2.068296391133872092e+00 5.574924060497824030e+02
2.068396415139633238e+00 5.574615367095062766e+02
2.068496439145394827e+00 5.574305278008911273e+02
2.068596463151155973e+00 5.573993785619869641e+02
2.068696487156917563e+00 5.573680882222398623e+02
2.068796511162678708e+00 5.573366560025170884e+02
2.068896535168440298e+00 5.573050811151337030e+02
2.068996559174201888e+00 5.572733627638783673e+02
2.069096583179963034e+00 5.572415001440415381e+02
2.069196607185724623e+00 5.572094924424417286e+02
2.069296631191485769e+00 5.571773388374533624e+02
2.069396655197247359e+00 5.571450384990361044e+02
2.069496679203008505e+00 5.571125905887629415e+02
2.069596703208770094e+00 5.570799942598482630e+02
2.069696727214531240e+00 5.570472486571793524e+02
2.069796751220292830e+00 5.570143529173460593e+02
2.069896775226053975e+00 5.569813061686691071e+02
2.069996799231815565e+00 5.569481075312335179e+02
2.070096823237576711e+00 5.569147561169197616e+02
2.070196847243338301e+00 5.568812510294336562e+02
2.070296871249099446e+00 5.568475913643407011e+02
2.070396895254861036e+00 5.568137762090970000e+02
2.070496919260622182e+00 5.567798046430832528e+02
2.070596943266383771e+00 5.567456757376390897e+02
2.070696967272145361e+00 5.567113885560941071e+02
2.070796991277906507e+00 5.566769421538062943e+02
2.070897015283668097e+00 5.566423355781923874e+02
2.070997039289429686e+00 5.566075678687674326e+02
2.071097063295190832e+00 5.565726380571763912e+02
2.071197087300951978e+00 5.565375451672332474e+02
2.071297111306713568e+00 5.565022882149565930e+02
2.071397135312475157e+00 5.564668662086050972e+02
2.071497159318236303e+00 5.564312781487162738e+02
2.071597183323997449e+00 5.563955230281453623e+02
2.071697207329759038e+00 5.563595998320997751e+02
2.071797231335520628e+00 5.563235075381813886e+02
2.071897255341281774e+00 5.562872451164229233e+02
2.071997279347042920e+00 5.562508115293295532e+02
2.072097303352804509e+00 5.562142057319163087e+02
2.072197327358566099e+00 5.561774266717509363e+02
2.072297351364327245e+00 5.561404732889922116e+02
2.072397375370088390e+00 5.561033445164315481e+02
2.072497399375849980e+00 5.560660392795352891e+02
2.072597423381611570e+00 5.560285564964858622e+02
2.072697447387373160e+00 5.559908950782244119e+02
2.072797471393134305e+00 5.559530539284921815e+02
2.072897495398895895e+00 5.559150319438748511e+02
2.072997519404657041e+00 5.558768280138467617e+02
2.073097543410418631e+00 5.558384410208115014e+02
2.073197567416179776e+00 5.557998698401497677e+02
2.073297591421941366e+00 5.557611133402617725e+02
2.073397615427702512e+00 5.557221703826132853e+02
2.073497639433464101e+00 5.556830398217796301e+02
2.073597663439225247e+00 5.556437205054943433e+02
2.073697687444986837e+00 5.556042112746910107e+02
2.073797711450747983e+00 5.555645109635541985e+02
2.073897735456509572e+00 5.555246183995636784e+02
2.073997759462270718e+00 5.554845324035427439e+02
2.074097783468032308e+00 5.554442517897048219e+02
2.074197807473793453e+00 5.554037753657034955e+02
2.074297831479555043e+00 5.553631019326797968e+02
2.074397855485316633e+00 5.553222302853108658e+02
2.074497879491077779e+00 5.552811592118588351e+02
2.074597903496839368e+00 5.552398874942218754e+02
2.074697927502600514e+00 5.551984139079827401e+02
2.074797951508362104e+00 5.551567372224600376e+02
2.074897975514123249e+00 5.551148562007572309e+02
2.074997999519884839e+00 5.550727695998165245e+02
2.075098023525645985e+00 5.550304761704675229e+02
2.075198047531407575e+00 5.549879746574799810e+02
2.075298071537168720e+00 5.549452637996175781e+02
2.075398095542930310e+00 5.549023423296866895e+02
2.075498119548691456e+00 5.548592089745926614e+02
2.075598143554453046e+00 5.548158624553919935e+02
2.075698167560214191e+00 5.547723014873449756e+02
2.075798191565975781e+00 5.547285247799701438e+02
2.075898215571736927e+00 5.546845310370991911e+02
2.075998239577498516e+00 5.546403189569297183e+02
2.076098263583259662e+00 5.545958872320834416e+02
2.076198287589021252e+00 5.545512345496571243e+02
2.076298311594782842e+00 5.545063595912824894e+02
2.076398335600543987e+00 5.544612610331780616e+02
2.076498359606305577e+00 5.544159375462088519e+02
2.076598383612066723e+00 5.543703877959412694e+02
2.076698407617828313e+00 5.543246104427004184e+02
2.076798431623589458e+00 5.542786041416270564e+02
2.076898455629351048e+00 5.542323675427359149e+02
2.076998479635112194e+00 5.541858992909723156e+02
2.077098503640873783e+00 5.541391980262725383e+02
2.077198527646634929e+00 5.540922623836198682e+02
2.077298551652396519e+00 5.540450909931048500e+02
2.077398575658157664e+00 5.539976824799852011e+02
2.077498599663919254e+00 5.539500354647433369e+02
2.077598623669680400e+00 5.539021485631476480e+02
2.077698647675441990e+00 5.538540203863129818e+02
2.077798671681203135e+00 5.538056495407588500e+02
2.077898695686964725e+00 5.537570346284732068e+02
2.077998719692725871e+00 5.537081742469694063e+02
2.078098743698487461e+00 5.536590669893544145e+02
2.078198767704249050e+00 5.536097114443807641e+02
2.078298791710010640e+00 5.535601061965188592e+02
2.078398815715771786e+00 5.535102498260096127e+02
2.078498839721532931e+00 5.534601409089347044e+02
2.078598863727294521e+00 5.534097780172746752e+02
2.078698887733056111e+00 5.533591597189737286e+02
2.078798911738817257e+00 5.533082845780029402e+02
2.078898935744578402e+00 5.532571511544238092e+02
2.078998959750339992e+00 5.532057580044523775e+02
2.079098983756101582e+00 5.531541036805224394e+02
2.079199007761862728e+00 5.531021867313515941e+02
2.079299031767623873e+00 5.530500057020051372e+02
2.079399055773385463e+00 5.529975591339607490e+02
2.079499079779147053e+00 5.529448455651746599e+02
2.079599103784908198e+00 5.528918635301466793e+02
2.079699127790669344e+00 5.528386115599855657e+02
2.079799151796430934e+00 5.527850881824756470e+02
2.079899175802192524e+00 5.527312919221435550e+02
2.079999199807954113e+00 5.526772213003239358e+02
2.080099223813715259e+00 5.526228748352267530e+02
2.080199247819476849e+00 5.525682510420042490e+02
2.080299271825237994e+00 5.525133484328184750e+02
2.080399295830999584e+00 5.524581655169083660e+02
2.080499319836760730e+00 5.524027008006573851e+02
2.080599343842522320e+00 5.523469527876636676e+02
2.080699367848283465e+00 5.522909199788044816e+02
2.080799391854045055e+00 5.522346008723086470e+02
2.080899415859806201e+00 5.521779939638229280e+02
2.080999439865567791e+00 5.521210977464811549e+02
2.081099463871328936e+00 5.520639107109750512e+02
2.081199487877090526e+00 5.520064313456213085e+02
2.081299511882851672e+00 5.519486581364327549e+02
2.081399535888613261e+00 5.518905895671887265e+02
2.081499559894374407e+00 5.518322241195022571e+02
2.081599583900135997e+00 5.517735602728951108e+02
2.081699607905897143e+00 5.517145965048634935e+02
2.081799631911658732e+00 5.516553312909510396e+02
2.081899655917420322e+00 5.515957631048208896e+02
2.081999679923181468e+00 5.515358904183235609e+02
2.082099703928943057e+00 5.514757117015716403e+02
2.082199727934704203e+00 5.514152254230079961e+02
2.082299751940465793e+00 5.513544300494806976e+02
2.082399775946226939e+00 5.512933240463133870e+02
2.082499799951988528e+00 5.512319058773755387e+02
2.082599823957749674e+00 5.511701740051585148e+02
2.082699847963511264e+00 5.511081268908452557e+02
2.082799871969272409e+00 5.510457629943834945e+02
2.082899895975033999e+00 5.509830807745581751e+02
2.082999919980795145e+00 5.509200786890665995e+02
2.083099943986556735e+00 5.508567551945882315e+02
2.083199967992317880e+00 5.507931087468598434e+02
2.083299991998079470e+00 5.507291378007496405e+02
2.083400016003840616e+00 5.506648408103291104e+02
2.083500040009602206e+00 5.506002162289476018e+02
2.083600064015363351e+00 5.505352625093076995e+02
2.083700088021124941e+00 5.504699781035367323e+02
2.083800112026886531e+00 5.504043614632618073e+02
2.083900136032647676e+00 5.503384110396860933e+02
2.084000160038409266e+00 5.502721252836610120e+02
2.084100184044170412e+00 5.502055026457622944e+02
2.084200208049932002e+00 5.501385415763634228e+02
2.084300232055693147e+00 5.500712405257124828e+02
2.084400256061454737e+00 5.500035979440052643e+02
2.084500280067215883e+00 5.499356122814618857e+02
2.084600304072977472e+00 5.498672819884021692e+02
2.084700328078738618e+00 5.497986055153195366e+02
2.084800352084500208e+00 5.497295813129578619e+02
2.084900376090261354e+00 5.496602078323879823e+02
2.085000400096022943e+00 5.495904835250807992e+02
2.085100424101784089e+00 5.495204068429861763e+02
2.085200448107545679e+00 5.494499762386077464e+02
2.085300472113306824e+00 5.493791901650776026e+02
2.085400496119068414e+00 5.493080470762349705e+02
2.085500520124830004e+00 5.492365454267019231e+02
2.085600544130591594e+00 5.491646836719573912e+02
2.085700568136352739e+00 5.490924602684185629e+02
2.085800592142113885e+00 5.490198736735118246e+02
2.085900616147875475e+00 5.489469223457537055e+02
2.086000640153637065e+00 5.488736047448265936e+02
2.086100664159398210e+00 5.487999193316539959e+02
2.086200688165159356e+00 5.487258645684797784e+02
2.086300712170920946e+00 5.486514389189431995e+02
2.086400736176682535e+00 5.485766408481583767e+02
2.086500760182443681e+00 5.485014688227886381e+02
2.086600784188204827e+00 5.484259213111256486e+02
2.086700808193966417e+00 5.483499967831667163e+02
2.086800832199728006e+00 5.482736937106908499e+02
2.086900856205489152e+00 5.481970105673379976e+02
2.087000880211250298e+00 5.481199458286833988e+02
2.087100904217011887e+00 5.480424979723210299e+02
2.087200928222773477e+00 5.479646654779330675e+02
2.087300952228534623e+00 5.478864468273743569e+02
2.087400976234296213e+00 5.478078405047472188e+02
2.087501000240057802e+00 5.477288449964792107e+02
2.087601024245818948e+00 5.476494587914004342e+02
2.087701048251580538e+00 5.475696803808228879e+02
2.087801072257341684e+00 5.474895082586165245e+02
2.087901096263103273e+00 5.474089409212887176e+02
2.088001120268864419e+00 5.473279768680606594e+02
2.088101144274626009e+00 5.472466146009458043e+02
2.088201168280387154e+00 5.471648526248279722e+02
2.088301192286148744e+00 5.470826894475383142e+02
2.088401216291909890e+00 5.470001235799352344e+02
2.088501240297671480e+00 5.469171535359795371e+02
2.088601264303432625e+00 5.468337778328150307e+02
2.088701288309194215e+00 5.467499949908442431e+02
2.088801312314955361e+00 5.466658035338074342e+02
2.088901336320716950e+00 5.465812019888609257e+02
2.089001360326478096e+00 5.464961888866533855e+02
2.089101384332239686e+00 5.464107627614057492e+02
2.089201408338001276e+00 5.463249221509876179e+02
2.089301432343762421e+00 5.462386655969958156e+02
2.089401456349524011e+00 5.461519916448310141e+02
2.089501480355285157e+00 5.460648988437778826e+02
2.089601504361046747e+00 5.459773857470810299e+02
2.089701528366807892e+00 5.458894509120225393e+02
2.089801552372569482e+00 5.458010929000015494e+02
2.089901576378330628e+00 5.457123102766095144e+02
2.090001600384092217e+00 5.456231016117102399e+02
2.090101624389853363e+00 5.455334654795148026e+02
2.090201648395614953e+00 5.454434004586622677e+02
2.090301672401376099e+00 5.453529051322954047e+02
2.090401696407137688e+00 5.452619780881359475e+02
2.090501720412898834e+00 5.451706179185681549e+02
2.090601744418660424e+00 5.450788232207092960e+02
2.090701768424421569e+00 5.449865925964909366e+02
2.090801792430183159e+00 5.448939246527349951e+02
2.090901816435944305e+00 5.448008180012317325e+02
2.091001840441705895e+00 5.447072712588150125e+02
2.091101864447467484e+00 5.446132830474413140e+02
2.091201888453228630e+00 5.445188519942651055e+02
2.091301912458990220e+00 5.444239767317169481e+02
2.091401936464751365e+00 5.443286558975798926e+02
2.091501960470512955e+00 5.442328881350645133e+02
2.091601984476274101e+00 5.441366720928883751e+02
2.091702008482035691e+00 5.440400064253494747e+02
2.091802032487796836e+00 5.439428897924060493e+02
2.091902056493558426e+00 5.438453208597493358e+02
2.092002080499319572e+00 5.437472982988819012e+02
2.092102104505081162e+00 5.436488207871940403e+02
2.092202128510842307e+00 5.435498870080375582e+02
2.092302152516603897e+00 5.434504956508038731e+02
2.092402176522365043e+00 5.433506454109984816e+02
2.092502200528126632e+00 5.432503349903176968e+02
2.092602224533887778e+00 5.431495630967220904e+02
2.092702248539649368e+00 5.430483284445143681e+02
2.092802272545410514e+00 5.429466297544136069e+02
2.092902296551172547e+00 5.428444657536292652e+02
2.093002320556933693e+00 5.427418351759380357e+02
2.093102344562694839e+00 5.426387367617570590e+02
2.093202368568456428e+00 5.425351692582204350e+02
2.093302392574218018e+00 5.424311314192509599e+02
2.093402416579979164e+00 5.423266220056382281e+02
2.093502440585740310e+00 5.422216397851108241e+02
2.093602464591501899e+00 5.421161835324090816e+02
2.093702488597263489e+00 5.420102520293617090e+02
2.093802512603024635e+00 5.419038440649592303e+02
2.093902536608785780e+00 5.417969584354246990e+02
2.094002560614547370e+00 5.416895939442921417e+02
2.094102584620308960e+00 5.415817494024743155e+02
2.094202608626070106e+00 5.414734236283410382e+02
2.094302632631831251e+00 5.413646154477881964e+02
2.094402656637592841e+00 5.412553236943124375e+02
2.094502680643354431e+00 5.411455472090842704e+02
2.094602704649115577e+00 5.410352848410182105e+02
2.094702728654876722e+00 5.409245354468482674e+02
2.094802752660638756e+00 5.408132978911960436e+02
2.094902776666399902e+00 5.407015710466469045e+02
2.095002800672161491e+00 5.405893537938184181e+02
2.095102824677922637e+00 5.404766450214330007e+02
2.095202848683684227e+00 5.403634436263889711e+02
2.095302872689445373e+00 5.402497485138324009e+02
2.095402896695206962e+00 5.401355585972265771e+02
2.095502920700968108e+00 5.400208727984245343e+02
2.095602944706729698e+00 5.399056900477364707e+02
2.095702968712490843e+00 5.397900092840035313e+02
2.095802992718252433e+00 5.396738294546655652e+02
2.095903016724013579e+00 5.395571495158319522e+02
2.096003040729775169e+00 5.394399684323494739e+02
2.096103064735536314e+00 5.393222851778746190e+02
2.096203088741297904e+00 5.392040987349389525e+02
2.096303112747059050e+00 5.390854080950219895e+02
2.096403136752820640e+00 5.389662122586158830e+02
2.096503160758581785e+00 5.388465102352972735e+02
2.096603184764343375e+00 5.387263010437932280e+02
2.096703208770104965e+00 5.386055837120494516e+02
2.096803232775866110e+00 5.384843572772983862e+02
2.096903256781627700e+00 5.383626207861284456e+02
2.097003280787388846e+00 5.382403732945456341e+02
2.097103304793150436e+00 5.381176138680475560e+02
2.097203328798911581e+00 5.379943415816842389e+02
2.097303352804673171e+00 5.378705555201273683e+02
2.097403376810434317e+00 5.377462547777373629e+02
2.097503400816195906e+00 5.376214384586251072e+02
2.097603424821957052e+00 5.374961056767218679e+02
2.097703448827718642e+00 5.373702555558430731e+02
2.097803472833479788e+00 5.372438872297518628e+02
2.097903496839241377e+00 5.371169998422253684e+02
2.098003520845002523e+00 5.369895925471200826e+02
2.098103544850764113e+00 5.368616645084329093e+02
2.098203568856525258e+00 5.367332149003688073e+02
2.098303592862286848e+00 5.366042429074009306e+02
2.098403616868047994e+00 5.364747477243370213e+02
2.098503640873809584e+00 5.363447285563800051e+02
2.098603664879571173e+00 5.362141846191915420e+02
2.098703688885332319e+00 5.360831151389556908e+02
2.098803712891093909e+00 5.359515193524381402e+02
2.098903736896855055e+00 5.358193965070512377e+02
2.099003760902616644e+00 5.356867458609135610e+02
2.099103784908377790e+00 5.355535666829107413e+02
2.099203808914139380e+00 5.354198582527583312e+02
2.099303832919900525e+00 5.352856198610598994e+02
2.099403856925662115e+00 5.351508508093695582e+02
2.099503880931423261e+00 5.350155504102505120e+02
2.099603904937184851e+00 5.348797179873340610e+02
2.099703928942945996e+00 5.347433528753808787e+02
2.099803952948707586e+00 5.346064544203383093e+02
2.099903976954468732e+00 5.344690219793993720e+02
2.100004000960230321e+00 5.343310549210610816e+02
2.100104024965991467e+00 5.341925526251822021e+02
2.100204048971753057e+00 5.340535144830411127e+02
2.100304072977514647e+00 5.339139398973936750e+02
2.100404096983275792e+00 5.337738282825280294e+02
2.100504120989037382e+00 5.336331790643229169e+02
2.100604144994798972e+00 5.334919916803034994e+02
2.100704169000560118e+00 5.333502655796978615e+02
2.100804193006321263e+00 5.332080002234910125e+02
2.100904217012082853e+00 5.330651950844800240e+02
2.101004241017844443e+00 5.329218496473301911e+02
2.101104265023605588e+00 5.327779634086292617e+02
2.101204289029366734e+00 5.326335358769406412e+02
2.101304313035128324e+00 5.324885665728570530e+02
2.101404337040889914e+00 5.323430550290544261e+02
2.101504361046651059e+00 5.321970007903443047e+02
2.101604385052412205e+00 5.320504034137272811e+02
2.101704409058173795e+00 5.319032624684434722e+02
2.101804433063935384e+00 5.317555775360267489e+02
2.101904457069696530e+00 5.316073482103535071e+02
2.102004481075457676e+00 5.314585740976956458e+02
2.102104505081219266e+00 5.313092548167707037e+02
2.102204529086980855e+00 5.311593899987916529e+02
2.102304553092742445e+00 5.310089792875164676e+02
2.102404577098503591e+00 5.308580223392989410e+02
2.102504601104265181e+00 5.307065188231381399e+02
2.102604625110026326e+00 5.305544684207227419e+02
2.102704649115787916e+00 5.304018708264851512e+02
2.102804673121549062e+00 5.302487257476461764e+02
2.102904697127310651e+00 5.300950329042630074e+02
2.103004721133071797e+00 5.299407920292755989e+02
2.103104745138833387e+00 5.297860028685545331e+02
2.103204769144594533e+00 5.296306651809471759e+02
2.103304793150356122e+00 5.294747787383223567e+02
2.103404817156117268e+00 5.293183433256173203e+02
2.103504841161878858e+00 5.291613587408813828e+02
2.103604865167640003e+00 5.290038247953207247e+02
2.103704889173401593e+00 5.288457413133443197e+02
2.103804913179162739e+00 5.286871081326046351e+02
2.103904937184924329e+00 5.285279251040420831e+02
2.104004961190685918e+00 5.283681920919312915e+02
2.104104985196447064e+00 5.282079089739171422e+02
2.104205009202208654e+00 5.280470756410621789e+02
2.104305033207969799e+00 5.278856919978859423e+02
2.104405057213731389e+00 5.277237579624062391e+02
2.104505081219492535e+00 5.275612734661799550e+02
2.104605105225254125e+00 5.273982384543440958e+02
2.104705129231015270e+00 5.272346528856531904e+02
2.104805153236776860e+00 5.270705167325224920e+02
2.104905177242538006e+00 5.269058299810640165e+02
2.105005201248299596e+00 5.267405926311255371e+02
2.105105225254060741e+00 5.265748046963287834e+02
2.105205249259822331e+00 5.264084662041079810e+02
2.105305273265583477e+00 5.262415771957452080e+02
2.105405297271345066e+00 5.260741377264095036e+02
2.105505321277106212e+00 5.259061478651906327e+02
2.105605345282867802e+00 5.257376076951352388e+02
2.105705369288628948e+00 5.255685173132848149e+02
2.105805393294390537e+00 5.253988768307065129e+02
2.105905417300152127e+00 5.252286863725308876e+02
2.106005441305913273e+00 5.250579460779831606e+02
2.106105465311674863e+00 5.248866561004196001e+02
2.106205489317436008e+00 5.247148166073575339e+02
2.106305513323197598e+00 5.245424277805104794e+02
2.106405537328958744e+00 5.243694898158178148e+02
2.106505561334720333e+00 5.241960029234776357e+02
2.106605585340481479e+00 5.240219673279781318e+02
2.106705609346243069e+00 5.238473832681277145e+02
2.106805633352004214e+00 5.236722509970848023e+02
2.106905657357765804e+00 5.234965707823884031e+02
2.107005681363526950e+00 5.233203429059861946e+02
2.107105705369288540e+00 5.231435676642635144e+02
2.107205729375049685e+00 5.229662453680733734e+02
2.107305753380811275e+00 5.227883763427603299e+02
2.107405777386572421e+00 5.226099609281918674e+02
2.107505801392334011e+00 5.224309994787832920e+02
2.107605825398095156e+00 5.222514923635228570e+02
2.107705849403856746e+00 5.220714399659988203e+02
2.107805873409618336e+00 5.218908426844255928e+02
2.107905897415379926e+00 5.217097009316664753e+02
2.108005921421141071e+00 5.215280151352599205e+02
2.108105945426902217e+00 5.213457857374415880e+02
2.108205969432663807e+00 5.211630131951678777e+02
2.108305993438425396e+00 5.209796979801411680e+02
2.108406017444186542e+00 5.207958405788280061e+02
2.108506041449947688e+00 5.206114414924838911e+02
2.108606065455709278e+00 5.204265012371747616e+02
2.108706089461470867e+00 5.202410203437948439e+02
2.108806113467232013e+00 5.200549993580898445e+02
2.108906137472993159e+00 5.198684388406757080e+02
2.109006161478754748e+00 5.196813393670574897e+02
2.109106185484516338e+00 5.194937015276487955e+02
2.109206209490277484e+00 5.193055259277896312e+02
2.109306233496038629e+00 5.191168131877625456e+02
2.109406257501800219e+00 5.189275639428140039e+02
2.109506281507561809e+00 5.187377788431668932e+02
2.109606305513323399e+00 5.185474585540387125e+02
2.109706329519084544e+00 5.183566037556564652e+02
2.109806353524846134e+00 5.181652151432728033e+02
2.109906377530607280e+00 5.179732934271792146e+02
2.110006401536368870e+00 5.177808393327218255e+02
2.110106425542130015e+00 5.175878536003132240e+02
2.110206449547891605e+00 5.173943369854465573e+02
2.110306473553652751e+00 5.172002902587087192e+02
2.110406497559414341e+00 5.170057142057899000e+02
2.110506521565175486e+00 5.168106096274987067e+02
2.110606545570937076e+00 5.166149773397689842e+02
2.110706569576698222e+00 5.164188181736745946e+02
2.110806593582459811e+00 5.162221329754353292e+02
2.110906617588220957e+00 5.160249226064289587e+02
2.111006641593982547e+00 5.158271879431991920e+02
2.111106665599743692e+00 5.156289298774640883e+02
2.111206689605505282e+00 5.154301493161234475e+02
2.111306713611266428e+00 5.152308471812671087e+02
2.111406737617028018e+00 5.150310244101802937e+02
2.111506761622789607e+00 5.148306819553511104e+02
2.111606785628550753e+00 5.146298207844758963e+02
2.111706809634312343e+00 5.144284418804629695e+02
2.111806833640073489e+00 5.142265462414395643e+02
2.111906857645835078e+00 5.140241348807545592e+02
2.112006881651596224e+00 5.138212088269821152e+02
2.112106905657357814e+00 5.136177691239237220e+02
2.112206929663118959e+00 5.134138168306138823e+02
2.112306953668880549e+00 5.132093530213174972e+02
2.112406977674641695e+00 5.130043787855352093e+02
2.112507001680403285e+00 5.127988952280020385e+02
2.112607025686164430e+00 5.125929034686886325e+02
2.112707049691926020e+00 5.123864046428002439e+02
2.112807073697687166e+00 5.121793999007771845e+02
2.112907097703448756e+00 5.119718904082916424e+02
2.113007121709209901e+00 5.117638773462480231e+02
2.113107145714971491e+00 5.115553619107790837e+02
2.113207169720732637e+00 5.113463453132434324e+02
2.113307193726494226e+00 5.111368287802224586e+02
2.113407217732255816e+00 5.109268135535151600e+02
2.113507241738016962e+00 5.107163008901350736e+02
2.113607265743778552e+00 5.105052920623040791e+02
2.113707289749539697e+00 5.102937883574472266e+02
2.113807313755301287e+00 5.100817910781865976e+02
2.113907337761062433e+00 5.098693015423345400e+02
2.114007361766824022e+00 5.096563210828859951e+02
2.114107385772585168e+00 5.094428510480110504e+02
2.114207409778346758e+00 5.092288928010474933e+02
2.114307433784107904e+00 5.090144477204894429e+02
2.114407457789869493e+00 5.087995171999805279e+02
2.114507481795630639e+00 5.085841026483024052e+02
2.114607505801392229e+00 5.083682054893654367e+02
2.114707529807153374e+00 5.081518271621951044e+02
2.114807553812914964e+00 5.079349691209240518e+02
2.114907577818676110e+00 5.077176328347768504e+02
2.115007601824437700e+00 5.074998197880588577e+02
2.115107625830199289e+00 5.072815314801426894e+02
2.115207649835960879e+00 5.070627694254534390e+02
2.115307673841722025e+00 5.068435351534561164e+02
2.115407697847483171e+00 5.066238302086400722e+02
2.115507721853244760e+00 5.064036561505021723e+02
2.115607745859006350e+00 5.061830145535325869e+02
2.115707769864767496e+00 5.059619070071989881e+02
2.115807793870528641e+00 5.057403351159251770e+02
2.115907817876290231e+00 5.055183004990799986e+02
2.116007841882051821e+00 5.052958047909532979e+02
2.116107865887812967e+00 5.050728496407408556e+02
2.116207889893574112e+00 5.048494367125234135e+02
2.116307913899335702e+00 5.046255676852474039e+02
2.116407937905097292e+00 5.044012442527053963e+02
2.116507961910858437e+00 5.041764681235134162e+02
2.116607985916619583e+00 5.039512410210919029e+02
2.116708009922381173e+00 5.037255646836421192e+02
2.116808033928142763e+00 5.034994408641239829e+02
2.116908057933903908e+00 5.032728713302328174e+02
2.117008081939665498e+00 5.030458578643771261e+02
2.117108105945427088e+00 5.028184022636529562e+02
2.117208129951188234e+00 5.025905063398189441e+02
2.117308153956949823e+00 5.023621719192746582e+02
2.117408177962710969e+00 5.021334008430295626e+02
2.117508201968472559e+00 5.019041949666813025e+02
2.117608225974233704e+00 5.016745561603851229e+02
2.117708249979995294e+00 5.014444863088313014e+02
2.117808273985756440e+00 5.012139873112123496e+02
2.117908297991518030e+00 5.009830610811976044e+02
2.118008321997279175e+00 5.007517095469035553e+02
2.118108346003040765e+00 5.005199346508641156e+02
2.118208370008801911e+00 5.002877383500011206e+02
2.118308394014563500e+00 5.000551226155932909e+02
2.118408418020324646e+00 4.998220894332451394e+02
2.118508442026086236e+00 4.995886408028565029e+02
2.118608466031847382e+00 4.993547787385890615e+02
2.118708490037608971e+00 4.991205052688339947e+02
2.118808514043370561e+00 4.988858224361796374e+02
2.118908538049131707e+00 4.986507322973766350e+02
2.119008562054893297e+00 4.984152369233037234e+02
2.119108586060654442e+00 4.981793383989357835e+02
2.119208610066416032e+00 4.979430388233037661e+02
2.119308634072177178e+00 4.977063403094622913e+02
2.119408658077938767e+00 4.974692449844516204e+02
2.119508682083699913e+00 4.972317549892637771e+02
2.119608706089461503e+00 4.969938724788008813e+02
2.119708730095222649e+00 4.967555996218399059e+02
2.119808754100984238e+00 4.965169386009935693e+02
2.119908778106745384e+00 4.962778916126727609e+02
2.120008802112506974e+00 4.960384608670436251e+02
2.120108826118268119e+00 4.957986485879915222e+02
2.120208850124029709e+00 4.955584570130781685e+02
2.120308874129790855e+00 4.953178883935016188e+02
2.120408898135552445e+00 4.950769449940542017e+02
2.120508922141313590e+00 4.948356290930805130e+02
2.120608946147075180e+00 4.945939429824355784e+02
2.120708970152836770e+00 4.943518889674409138e+02
2.120808994158597915e+00 4.941094693668409263e+02
2.120909018164359505e+00 4.938666865127602819e+02
2.121009042170120651e+00 4.936235427506573501e+02
2.121109066175882241e+00 4.933800404392806627e+02
2.121209090181643386e+00 4.931361819506223014e+02
2.121309114187404976e+00 4.928919696698726511e+02
2.121409138193166122e+00 4.926474059953733899e+02
2.121509162198927712e+00 4.924024933385696272e+02
2.121609186204688857e+00 4.921572341239642583e+02
2.121709210210450447e+00 4.919116307890678286e+02
2.121809234216211593e+00 4.916656857843506714e+02
2.121909258221973182e+00 4.914194015731947047e+02
2.122009282227734328e+00 4.911727806318430112e+02
2.122109306233495918e+00 4.909258254493497020e+02
2.122209330239257064e+00 4.906785385275289855e+02
2.122309354245018653e+00 4.904309223809061677e+02
2.122409378250779799e+00 4.901829795366623443e+02
2.122509402256541833e+00 4.899347125345866516e+02
2.122609426262302978e+00 4.896861239270209580e+02
2.122709450268064124e+00 4.894372162788079095e+02
2.122809474273825714e+00 4.891879921672367573e+02
2.122909498279587304e+00 4.889384541819903802e+02
2.123009522285348449e+00 4.886886049250903170e+02
2.123109546291109595e+00 4.884384470108419123e+02
2.123209570296871185e+00 4.881879830657777575e+02
2.123309594302632775e+00 4.879372157286054517e+02
2.123409618308393920e+00 4.876861476501455854e+02
2.123509642314155066e+00 4.874347814932809229e+02
2.123609666319916656e+00 4.871831199328948401e+02
2.123709690325678245e+00 4.869311656558159598e+02
2.123809714331439391e+00 4.866789213607584088e+02
2.123909738337200537e+00 4.864263897582641221e+02
2.124009762342962127e+00 4.861735735706437254e+02
2.124109786348723716e+00 4.859204755319163382e+02
2.124209810354484862e+00 4.856670983877494905e+02
2.124309834360246008e+00 4.854134448953997207e+02
2.124409858366008041e+00 4.851595178236505603e+02
2.124509882371769187e+00 4.849053199527511424e+02
2.124609906377530777e+00 4.846508540743554363e+02
2.124709930383291923e+00 4.843961229914581850e+02
2.124809954389053512e+00 4.841411295183337984e+02
2.124909978394814658e+00 4.838858764804724046e+02
2.125010002400576248e+00 4.836303667145156169e+02
2.125110026406337393e+00 4.833746030681937782e+02
2.125210050412098983e+00 4.831185884002607622e+02
2.125310074417860129e+00 4.828623255804287737e+02
2.125410098423621719e+00 4.826058174893026944e+02
2.125510122429382864e+00 4.823490670183165321e+02
2.125610146435144454e+00 4.820920770696629347e+02
2.125710170440905600e+00 4.818348505562302648e+02
2.125810194446667190e+00 4.815773904015345579e+02
2.125910218452428335e+00 4.813196995396507418e+02
2.126010242458189925e+00 4.810617809151455049e+02
2.126110266463951071e+00 4.808036374830094815e+02
2.126210290469712660e+00 4.805452722085880737e+02
2.126310314475474250e+00 4.802866880675112498e+02
2.126410338481235396e+00 4.800278880456246497e+02
2.126510362486996986e+00 4.797688751389206345e+02
2.126610386492758131e+00 4.795096523534651851e+02
2.126710410498519721e+00 4.792502227053311117e+02
2.126810434504280867e+00 4.789905892205221107e+02
2.126910458510042456e+00 4.787307549349038709e+02
2.127010482515803602e+00 4.784707228941319386e+02
2.127110506521565192e+00 4.782104961535778784e+02
2.127210530527326338e+00 4.779500777782582190e+02
2.127310554533087927e+00 4.776894708427598175e+02
2.127410578538849073e+00 4.774286784311667589e+02
2.127510602544610663e+00 4.771677036369861753e+02
2.127610626550371808e+00 4.769065495630737246e+02
2.127710650556133398e+00 4.766452193215587840e+02
2.127810674561894544e+00 4.763837160337694741e+02
2.127910698567656134e+00 4.761220428301575112e+02
2.128010722573417279e+00 4.758602028502205030e+02
2.128110746579178869e+00 4.755981992424291320e+02
2.128210770584940459e+00 4.753360351641455850e+02
2.128310794590701605e+00 4.750737137815503957e+02
2.128410818596463194e+00 4.748112382695639440e+02
2.128510842602224340e+00 4.745486118117672163e+02
2.128610866607985930e+00 4.742858376003264880e+02
2.128710890613747075e+00 4.740229188359116961e+02
2.128810914619508665e+00 4.737598587276199851e+02
2.128910938625269811e+00 4.734966604928952165e+02
2.129010962631031401e+00 4.732333273574489567e+02
2.129110986636792546e+00 4.729698625551793612e+02
2.129211010642554136e+00 4.727062693280933559e+02
2.129311034648315282e+00 4.724425509262227365e+02
2.129411058654076871e+00 4.721787106075460088e+02
2.129511082659838017e+00 4.719147516379061926e+02
2.129611106665599607e+00 4.716506772909291954e+02
2.129711130671360753e+00 4.713864908479400242e+02
2.129811154677122342e+00 4.711221955978842288e+02
2.129911178682883932e+00 4.708577948372410447e+02
2.130011202688645078e+00 4.705932918699447214e+02
2.130111226694406668e+00 4.703286900072974390e+02
2.130211250700168257e+00 4.700639925678884197e+02
2.130311274705929403e+00 4.697992028775081508e+02
2.130411298711690549e+00 4.695343242690653369e+02
2.130511322717452138e+00 4.692693600825022031e+02
2.130611346723213728e+00 4.690043136647089455e+02
2.130711370728974874e+00 4.687391883694388071e+02
2.130811394734736020e+00 4.684739875572234951e+02
2.130911418740497609e+00 4.682087145952871197e+02
2.131011442746259199e+00 4.679433728574584848e+02
2.131111466752020345e+00 4.676779657240863344e+02
2.131211490757781490e+00 4.674124965819538602e+02
2.131311514763543080e+00 4.671469688241882636e+02
2.131411538769304670e+00 4.668813858501773666e+02
2.131511562775065816e+00 4.666157510654790599e+02
2.131611586780826961e+00 4.663500678817350149e+02
2.131711610786588551e+00 4.660843397165834858e+02
2.131811634792350141e+00 4.658185699935687012e+02
2.131911658798111731e+00 4.655527621420530977e+02
2.132011682803872876e+00 4.652869195971308613e+02
2.132111706809634466e+00 4.650210457995342495e+02
2.132211730815395612e+00 4.647551441955477003e+02
2.132311754821157201e+00 4.644892182369177362e+02
2.132411778826918347e+00 4.642232713807611049e+02
2.132511802832679937e+00 4.639573070894775242e+02
2.132611826838441083e+00 4.636913288306562890e+02
2.132711850844202672e+00 4.634253400769877658e+02
2.132811874849963818e+00 4.631593443061708513e+02
2.132911898855725408e+00 4.628933450008235582e+02
2.133011922861486553e+00 4.626273456483903601e+02
2.133111946867248143e+00 4.623613497410506170e+02
2.133211970873009289e+00 4.620953607756276256e+02
2.133311994878770879e+00 4.618293822534951687e+02
2.133412018884532024e+00 4.615634176804862818e+02
2.133512042890293614e+00 4.612974705668007687e+02
2.133612066896055204e+00 4.610315444269112959e+02
2.133712090901816349e+00 4.607656427794708520e+02
2.133812114907577939e+00 4.604997691472214001e+02
2.133912138913339085e+00 4.602339270568975280e+02
2.134012162919100675e+00 4.599681200391347033e+02
2.134112186924861820e+00 4.597023516283744584e+02
2.134212210930623410e+00 4.594366253627717356e+02
2.134312234936384556e+00 4.591709447840996745e+02
2.134412258942146146e+00 4.589053134376547405e+02
2.134512282947907291e+00 4.586397348721627623e+02
2.134612306953668881e+00 4.583742126396856520e+02
2.134712330959430027e+00 4.581087502955229525e+02
2.134812354965191616e+00 4.578433513981190117e+02
2.134912378970952762e+00 4.575780195089685094e+02
2.135012402976714352e+00 4.573127581925181744e+02
2.135112426982475498e+00 4.570475710160739027e+02
2.135212450988237087e+00 4.567824615497027025e+02
2.135312474993998233e+00 4.565174333661379933e+02
2.135412498999759823e+00 4.562524900406830284e+02
2.135512523005521413e+00 4.559876351511150006e+02
2.135612547011282558e+00 4.557228722775871006e+02
2.135712571017044148e+00 4.554582050025339299e+02
2.135812595022805294e+00 4.551936369105726499e+02
2.135912619028566883e+00 4.549291715884083374e+02
2.136012643034328029e+00 4.546648126247343953e+02
2.136112667040089619e+00 4.544005636101369987e+02
2.136212691045850764e+00 4.541364281369979494e+02
2.136312715051612354e+00 4.538724097993954842e+02
2.136412739057373500e+00 4.536085121930079254e+02
2.136512763063135090e+00 4.533447389150165350e+02
2.136612787068896235e+00 4.530810935640055277e+02
2.136712811074657825e+00 4.528175797398661189e+02
2.136812835080418971e+00 4.525542010436980718e+02
2.136912859086180561e+00 4.522909610777099942e+02
2.137012883091941706e+00 4.520278634451223638e+02
2.137112907097703296e+00 4.517649117500697571e+02
2.137212931103464442e+00 4.515021095975008620e+02
2.137312955109226031e+00 4.512394605930787179e+02
2.137412979114987621e+00 4.509769683430866394e+02
2.137513003120749211e+00 4.507146364543235677e+02
2.137613027126510357e+00 4.504524685340097676e+02
2.137713051132271502e+00 4.501904681896849638e+02
2.137813075138033092e+00 4.499286390291111957e+02
2.137913099143794682e+00 4.496669846601715221e+02
2.138013123149555827e+00 4.494055086907732175e+02
2.138113147155316973e+00 4.491442147287473290e+02
2.138213171161078563e+00 4.488831063817478935e+02
2.138313195166840153e+00 4.486221872571549625e+02
2.138413219172601298e+00 4.483614609619737621e+02
2.138513243178362444e+00 4.481009311027351600e+02
2.138613267184124034e+00 4.478406012853960192e+02
2.138713291189885624e+00 4.475804751152407448e+02
2.138813315195646769e+00 4.473205561967798758e+02
2.138913339201407915e+00 4.470608481336504383e+02
2.139013363207169505e+00 4.468013545285177202e+02
2.139113387212931094e+00 4.465420789829735213e+02
2.139213411218692684e+00 4.462830250974379851e+02
2.139313435224453830e+00 4.460241964710588718e+02
2.139413459230215420e+00 4.457655967016105478e+02
2.139513483235976565e+00 4.455072293853964993e+02
2.139613507241738155e+00 4.452490981171472413e+02
2.139713531247499301e+00 4.449912064899207849e+02
2.139813555253260891e+00 4.447335580950041845e+02
2.139913579259022036e+00 4.444761565218106512e+02
2.140013603264783626e+00 4.442190053577814979e+02
