4.000880193642600835e-01 5.199228492803440531e+02
4.001880413691011884e-01 5.199469764738408912e+02
4.002880633739422378e-01 5.199710586750710490e+02
4.003880853787832872e-01 5.199950936517640230e+02
4.004881073836243921e-01 5.200190792367995982e+02
4.005881293884654415e-01 5.200430133279272695e+02
4.006881513933064909e-01 5.200668938874307514e+02
4.007881733981475403e-01 5.200907189417470136e+02
4.008881954029886452e-01 5.201144865810297233e+02
4.009882174078296946e-01 5.201381949586700557e+02
4.010882394126707440e-01 5.201618422907595232e+02
4.011882614175118489e-01 5.201854268555098315e+02
4.012882834223528983e-01 5.202089469926227139e+02
4.013883054271939477e-01 5.202324011026091739e+02
4.014883274320349971e-01 5.202557876460645048e+02
4.015883494368761020e-01 5.202791051428929450e+02
4.016883714417171514e-01 5.203023521714876551e+02
4.017883934465582008e-01 5.203255273678641970e+02
4.018884154513993057e-01 5.203486294247477417e+02
4.019884374562403551e-01 5.203716570906154857e+02
4.020884594610814045e-01 5.203946091686993896e+02
4.021884814659224539e-01 5.204174845159334382e+02
4.022885034707635588e-01 5.204402820418749798e+02
4.023885254756046082e-01 5.204630007075688809e+02
4.024885474804456575e-01 5.204856395243805309e+02
4.025885694852867625e-01 5.205081975527837130e+02
4.026885914901278118e-01 5.205306739011091395e+02
4.027886134949688612e-01 5.205530677242556976e+02
4.028886354998099106e-01 5.205753782223649750e+02
4.029886575046510155e-01 5.205976046394545165e+02
4.030886795094920649e-01 5.206197462620212946e+02
4.031887015143331143e-01 5.206418024176043673e+02
4.032887235191742192e-01 5.206637724733168398e+02
4.033887455240152686e-01 5.206856558343461074e+02
4.034887675288563180e-01 5.207074519424178334e+02
4.035887895336973674e-01 5.207291602742341183e+02
4.036888115385384168e-01 5.207507803398784745e+02
4.037888335433795217e-01 5.207723116811932869e+02
4.038888555482205711e-01 5.207937538701307858e+02
4.039888775530616760e-01 5.208151065070757113e+02
4.040888995579027254e-01 5.208363692191458085e+02
4.041889215627437748e-01 5.208575416584660616e+02
4.042889435675848242e-01 5.208786235004193941e+02
4.043889655724258736e-01 5.208996144418791800e+02
4.044889875772669785e-01 5.209205141994206087e+02
4.045890095821080279e-01 5.209413225075101082e+02
4.046890315869491328e-01 5.209620391166806712e+02
4.047890535917901822e-01 5.209826637916904701e+02
4.048890755966312316e-01 5.210031963096629397e+02
4.049890976014722810e-01 5.210236364582192437e+02
4.050891196063133304e-01 5.210439840335922099e+02
4.051891416111544353e-01 5.210642388387326491e+02
4.052891636159954847e-01 5.210844006814083968e+02
4.053891856208365896e-01 5.211044693722874399e+02
4.054892076256776390e-01 5.211244447230225205e+02
4.055892296305186884e-01 5.211443265443253949e+02
4.056892516353597378e-01 5.211641146440395005e+02
4.057892736402007872e-01 5.211838088252063699e+02
4.058892956450418921e-01 5.212034088841378434e+02
4.059893176498829415e-01 5.212229146084796412e+02
4.060893396547240464e-01 5.212423257752834616e+02
4.061893616595650958e-01 5.212616421490796483e+02
4.062893836644061452e-01 5.212808634799530410e+02
4.063894056692471946e-01 5.212999895016278060e+02
4.064894276740882439e-01 5.213190199295584080e+02
4.065894496789293489e-01 5.213379544590285377e+02
4.066894716837703982e-01 5.213567927632589090e+02
4.067894936886115032e-01 5.213755344915327896e+02
4.068895156934525525e-01 5.213941792673285818e+02
4.069895376982936019e-01 5.214127266864690000e+02
4.070895597031346513e-01 5.214311763152884396e+02
4.071895817079757007e-01 5.214495276888127364e+02
4.072896037128168056e-01 5.214677803089653025e+02
4.073896257176578550e-01 5.214859336427855396e+02
4.074896477224989599e-01 5.215039871206769249e+02
4.075896697273400093e-01 5.215219401346680570e+02
4.076896917321810032e-01 5.215397920367113329e+02
4.077897137370221081e-01 5.215575421369953801e+02
4.078897357418631575e-01 5.215751897022926187e+02
4.079897577467042624e-01 5.215927339543319476e+02
4.080897797515453118e-01 5.216101740682023546e+02
4.081898017563864167e-01 5.216275091707867659e+02
4.082898237612274661e-01 5.216447383392321626e+02
4.083898457660684600e-01 5.216618605994481186e+02
4.084898677709095649e-01 5.216788749246460384e+02
4.085898897757506143e-01 5.216957802339099999e+02
4.086899117805917192e-01 5.217125753908096613e+02
4.087899337854327686e-01 5.217292592020489792e+02
4.088899557902738735e-01 5.217458304161577871e+02
4.089899777951149229e-01 5.217622877222224815e+02
4.090899997999559168e-01 5.217786297486586591e+02
4.091900218047970217e-01 5.217948550620328660e+02
4.092900438096380711e-01 5.218109621659226605e+02
4.093900658144791760e-01 5.218269494998251048e+02
4.094900878193202254e-01 5.218428154381139166e+02
4.095901098241613303e-01 5.218585582890432306e+02
4.096901318290023797e-01 5.218741762938000193e+02
4.097901538338433736e-01 5.218896676256072169e+02
4.098901758386844785e-01 5.219050303888786857e+02
4.099901978435255279e-01 5.219202626184256815e+02
4.100902198483666328e-01 5.219353622787150471e+02
4.101902418532076822e-01 5.219503272631835671e+02
4.102902638580487871e-01 5.219651553936062101e+02
4.103902858628898365e-01 5.219798444195174625e+02
4.104903078677308303e-01 5.219943920176939400e+02
4.105903298725719353e-01 5.220087957916902042e+02
4.106903518774129846e-01 5.220230532714341507e+02
4.107903738822540896e-01 5.220371619128786733e+02
4.108903958870951389e-01 5.220511190977169917e+02
4.109904178919362439e-01 5.220649221331535728e+02
4.110904398967772932e-01 5.220785682517384885e+02
4.111904619016182871e-01 5.220920546112593001e+02
4.112904839064593920e-01 5.221053782946983119e+02
4.113905059113004414e-01 5.221185363102516703e+02
4.114905279161415463e-01 5.221315255914064437e+02
4.115905499209825957e-01 5.221443429970859142e+02
4.116905719258237006e-01 5.221569853118550100e+02
4.117905939306647500e-01 5.221694492461919026e+02
4.118906159355057439e-01 5.221817314368202005e+02
4.119906379403468488e-01 5.221938284471093539e+02
4.120906599451878982e-01 5.222057367675353134e+02
4.121906819500290031e-01 5.222174528162094020e+02
4.122907039548700525e-01 5.222289729394707365e+02
4.123907259597110464e-01 5.222402934125415186e+02
4.124907479645522068e-01 5.222514104402523571e+02
4.125907699693932007e-01 5.222623201578256840e+02
4.126907919742343056e-01 5.222730186317313610e+02
4.127908139790753550e-01 5.222835018606008362e+02
4.128908359839164599e-01 5.222937657762117851e+02
4.129908579887575093e-01 5.223038062445325522e+02
4.130908799935985032e-01 5.223136190668348036e+02
4.131909019984396636e-01 5.223231999808673436e+02
4.132909240032806575e-01 5.223325446620995081e+02
4.133909460081217624e-01 5.223416487250192404e+02
4.134909680129628118e-01 5.223505077245047232e+02
4.135909900178039167e-01 5.223591171572522853e+02
4.136910120226449661e-01 5.223674724632679727e+02
4.137910340274859600e-01 5.223755690274249446e+02
4.138910560323271204e-01 5.223834021810779404e+02
4.139910780371681143e-01 5.223909672037409564e+02
4.140911000420092192e-01 5.223982593248277908e+02
4.141911220468502686e-01 5.224052737254454541e+02
4.142911440516913735e-01 5.224120055402579510e+02
4.143911660565324229e-01 5.224184498593961052e+02
4.144911880613734168e-01 5.224246017304365068e+02
4.145912100662145772e-01 5.224304561604285482e+02
4.146912320710555711e-01 5.224360081179836470e+02
4.147912540758966760e-01 5.224412525354179024e+02
4.148912760807377254e-01 5.224461843109471602e+02
4.149912980855788303e-01 5.224507983109399447e+02
4.150913200904198797e-01 5.224550893722193905e+02
4.151913420952608735e-01 5.224590523044167867e+02
4.152913641001020340e-01 5.224626818923799192e+02
4.153913861049430278e-01 5.224659728986239315e+02
4.154914081097841327e-01 5.224689200658372101e+02
4.155914301146251821e-01 5.224715181194291063e+02
4.156914521194662870e-01 5.224737617701268846e+02
4.157914741243073364e-01 5.224756457166175778e+02
4.158914961291483303e-01 5.224771646482311098e+02
4.159915181339894907e-01 5.224783132476645733e+02
4.160915401388304846e-01 5.224790861937544832e+02
4.161915621436715895e-01 5.224794781642779071e+02
4.162915841485126389e-01 5.224794838388007747e+02
4.163916061533536883e-01 5.224790979015583616e+02
4.164916281581947932e-01 5.224783150443714703e+02
4.165916501630357871e-01 5.224771299695986500e+02
4.166916721678769475e-01 5.224755373931157010e+02
4.167916941727179414e-01 5.224735320473324691e+02
4.168917161775590463e-01 5.224711086842331724e+02
4.169917381824000957e-01 5.224682620784470828e+02
4.170917601872411451e-01 5.224649870303443322e+02
4.171917821920822500e-01 5.224612783691570712e+02
4.172918041969232439e-01 5.224571309561217731e+02
4.173918262017644043e-01 5.224525396876429113e+02
4.174918482066053982e-01 5.224474994984767591e+02
4.175918702114465031e-01 5.224420053649314468e+02
4.176918922162875525e-01 5.224360523080831626e+02
4.177919142211286019e-01 5.224296353970082691e+02
4.178919362259697068e-01 5.224227497520226962e+02
4.179919582308107007e-01 5.224153905479392961e+02
4.180919802356518611e-01 5.224075530173247444e+02
4.181920022404928550e-01 5.223992324537716740e+02
4.182920242453339599e-01 5.223904242151699009e+02
4.183920462501750093e-01 5.223811237269827643e+02
4.184920682550160587e-01 5.223713264855256284e+02
4.185920902598571636e-01 5.223610280612417682e+02
4.186921122646981575e-01 5.223502241019753001e+02
4.187921342695393179e-01 5.223389103362426340e+02
4.188921562743803118e-01 5.223270825764948313e+02
4.189921782792214167e-01 5.223147367223712081e+02
4.190922002840624661e-01 5.223018687639447535e+02
4.191922222889035154e-01 5.222884747849539053e+02
4.192922442937446204e-01 5.222745509660185235e+02
4.193922662985856142e-01 5.222600935878460859e+02
4.194922883034267747e-01 5.222450990344094635e+02
4.195923103082677685e-01 5.222295637961145758e+02
4.196923323131088734e-01 5.222134844729409906e+02
4.197923543179499228e-01 5.221968577775579661e+02
4.198923763227909722e-01 5.221796805384187792e+02
4.199923983276320771e-01 5.221619497028226533e+02
4.200924203324730710e-01 5.221436623399498558e+02
4.201924423373142314e-01 5.221248156438637125e+02
4.202924643421552253e-01 5.221054069364799943e+02
4.203924863469963302e-01 5.220854336705006062e+02
4.204925083518373796e-01 5.220648934323091908e+02
4.205925303566784290e-01 5.220437839448267141e+02
4.206925523615195339e-01 5.220221030703303313e+02
4.207925743663605278e-01 5.219998488132229113e+02
4.208925963712016882e-01 5.219770193227609525e+02
4.209926183760426821e-01 5.219536128957370238e+02
4.210926403808837315e-01 5.219296279791115012e+02
4.211926623857248364e-01 5.219050631725932590e+02
4.212926843905658858e-01 5.218799172311714756e+02
4.213927063954069907e-01 5.218541890675894592e+02
4.214927284002479846e-01 5.218278777547666323e+02
4.215927504050891450e-01 5.218009825281599205e+02
4.216927724099301389e-01 5.217735027880692087e+02
4.217927944147711883e-01 5.217454381018776530e+02
4.218928164196122932e-01 5.217167882062341278e+02
4.219928384244533426e-01 5.216875530091683686e+02
4.220928604292944475e-01 5.216577325921433612e+02
4.221928824341354414e-01 5.216273272120361071e+02
4.222929044389766018e-01 5.215963373030542698e+02
4.223929264438175957e-01 5.215647634785797209e+02
4.224929484486586451e-01 5.215326065329396670e+02
4.225929704534997500e-01 5.214998674431088830e+02
4.226929924583407994e-01 5.214665473703302041e+02
4.227930144631819043e-01 5.214326476616658965e+02
4.228930364680228982e-01 5.213981698514656955e+02
4.229930584728640586e-01 5.213631156627624250e+02
4.230930804777050525e-01 5.213274870085801922e+02
4.231931024825461019e-01 5.212912859931669800e+02
4.232931244873872068e-01 5.212545149131424296e+02
4.233931464922282562e-01 5.212171762585624037e+02
4.234931684970693611e-01 5.211792727138972623e+02
4.235931905019103549e-01 5.211408071589276005e+02
4.236932125067515154e-01 5.211017826695481290e+02
4.237932345115925092e-01 5.210622025184885615e+02
4.238932565164335586e-01 5.210220701759419626e+02
4.239932785212746635e-01 5.209813893101049871e+02
4.240933005261157129e-01 5.209401637876264886e+02
4.241933225309568178e-01 5.208983976739644959e+02
4.242933445357978117e-01 5.208560952336520131e+02
4.243933665406389721e-01 5.208132609304680045e+02
4.244933885454799660e-01 5.207698994275144742e+02
4.245934105503210154e-01 5.207260155872025962e+02
4.246934325551621203e-01 5.206816144711373227e+02
4.247934545600031697e-01 5.206367013399132020e+02
4.248934765648442746e-01 5.205912816528082203e+02
4.249934985696852685e-01 5.205453610673848743e+02
4.250935205745263179e-01 5.204989454389922230e+02
4.251935425793674228e-01 5.204520408201724422e+02
4.252935645842084722e-01 5.204046534599666529e+02
4.253935865890495771e-01 5.203567898031242294e+02
4.254936085938906265e-01 5.203084564892170647e+02
4.255936305987317314e-01 5.202596603516496998e+02
4.256936526035727253e-01 5.202104084165738414e+02
4.257936746084137747e-01 5.201607079017060187e+02
4.258936966132548796e-01 5.201105662150451963e+02
4.259937186180959290e-01 5.200599909534901144e+02
4.260937406229370339e-01 5.200089899013607919e+02
4.261937626277780833e-01 5.199575710288208938e+02
4.262937846326191882e-01 5.199057424902030107e+02
4.263938066374601821e-01 5.198535126222343479e+02
4.264938286423012315e-01 5.198008899421670321e+02
4.265938506471423364e-01 5.197478831458092827e+02
4.266938726519833858e-01 5.196945011054623365e+02
4.267938946568244907e-01 5.196407528677583514e+02
4.268939166616655401e-01 5.195866476514054284e+02
4.269939386665066450e-01 5.195321948448362264e+02
4.270939606713476389e-01 5.194774040037623308e+02
4.271939826761886883e-01 5.194222848486348312e+02
4.272940046810297932e-01 5.193668472620115608e+02
4.273940266858708426e-01 5.193111012858322511e+02
4.274940486907119475e-01 5.192550571186050092e+02
4.275940706955529969e-01 5.191987251124963905e+02
4.276940927003941018e-01 5.191421157703375684e+02
4.277941147052350956e-01 5.190852397425392155e+02
4.278941367100761450e-01 5.190281078239188446e+02
4.279941587149172499e-01 5.189707309504450450e+02
4.280941807197582993e-01 5.189131201958900874e+02
4.281942027245994042e-01 5.188552867684047669e+02
4.282942247294404536e-01 5.187972420070066164e+02
4.283942467342815585e-01 5.187389973779889942e+02
4.284942687391225524e-01 5.186805644712474077e+02
4.285942907439636018e-01 5.186219549965309170e+02
4.286943127488047067e-01 5.185631807796099793e+02
4.287943347536457561e-01 5.185042537583755120e+02
4.288943567584868610e-01 5.184451859788599677e+02
4.289943787633279104e-01 5.183859895911841704e+02
4.290944007681690153e-01 5.183266768454363955e+02
4.291944227730100092e-01 5.182672600874809632e+02
4.292944447778510586e-01 5.182077517546958916e+02
4.293944667826921635e-01 5.181481643716506369e+02
4.294944887875332129e-01 5.180885105457138025e+02
4.295945107923743178e-01 5.180288029626007074e+02
4.296945327972153672e-01 5.179690543818629749e+02
4.297945548020564166e-01 5.179092776323133194e+02
4.298945768068974660e-01 5.178494856074014479e+02
4.299945988117385154e-01 5.177896912605282296e+02
4.300946208165796203e-01 5.177299076003100708e+02
4.301946428214206697e-01 5.176701476857962234e+02
4.302946648262617746e-01 5.176104246216295905e+02
4.303946868311028240e-01 5.175507515531701301e+02
4.304947088359438734e-01 5.174911416615651660e+02
4.305947308407849228e-01 5.174316081587862755e+02
4.306947528456259722e-01 5.173721642826199059e+02
4.307947748504670771e-01 5.173128232916228626e+02
4.308947968553081265e-01 5.172535984600430083e+02
4.309948188601492314e-01 5.171945030727072208e+02
4.310948408649902808e-01 5.171355504198750168e+02
4.311948628698313302e-01 5.170767537920695531e+02
4.312948848746723796e-01 5.170181264748789545e+02
4.313949068795134290e-01 5.169596817437355867e+02
4.314949288843545339e-01 5.169014328586716829e+02
4.315949508891955833e-01 5.168433930590613272e+02
4.316949728940366882e-01 5.167855755583416340e+02
4.317949948988777376e-01 5.167279935387221030e+02
4.318950169037187869e-01 5.166706601458836303e+02
4.319950389085598363e-01 5.166135884836671721e+02
4.320950609134008857e-01 5.165567916087562708e+02
4.321950829182419906e-01 5.165002825253587844e+02
4.322951049230830400e-01 5.164440741798832732e+02
4.323951269279241449e-01 5.163881794556209570e+02
4.324951489327651943e-01 5.163326111674289223e+02
4.325951709376062437e-01 5.162773820564214020e+02
4.326951929424472931e-01 5.162225047846700363e+02
4.327952149472883425e-01 5.161679919299162975e+02
4.328952369521294474e-01 5.161138559802973305e+02
4.329952589569704968e-01 5.160601093290903236e+02
4.330952809618116017e-01 5.160067642694745018e+02
4.331953029666526511e-01 5.159538329893184709e+02
4.332953249714937005e-01 5.159013275659899591e+02
4.333953469763347499e-01 5.158492599611928426e+02
4.334953689811757993e-01 5.157976420158357769e+02
4.335953909860169042e-01 5.157464854449325458e+02
4.336954129908579536e-01 5.156958018325385638e+02
4.337954349956990030e-01 5.156456026267234165e+02
4.338954570005401079e-01 5.155958991345848972e+02
4.339954790053811573e-01 5.155467025173059028e+02
4.340955010102222067e-01 5.154980237852573737e+02
4.341955230150632561e-01 5.154498737931484129e+02
4.342955450199043610e-01 5.154022632352242681e+02
4.343955670247454104e-01 5.153552026405237712e+02
4.344955890295864598e-01 5.153087023681866867e+02
4.345956110344275647e-01 5.152627726028200641e+02
4.346956330392686141e-01 5.152174233499257525e+02
4.347956550441096635e-01 5.151726644313921497e+02
4.348956770489507129e-01 5.151285054810457495e+02
4.349956990537918178e-01 5.150849559402773821e+02
4.350957210586328672e-01 5.150420250537330276e+02
4.351957430634739166e-01 5.149997218650780724e+02
4.352957650683150215e-01 5.149580552128365980e+02
4.353957870731560709e-01 5.149170337263085457e+02
4.354958090779971203e-01 5.148766658215620282e+02
4.355958310828381697e-01 5.148369596975098830e+02
4.356958530876792746e-01 5.147979233320712638e+02
4.357958750925203240e-01 5.147595644784114484e+02
4.358958970973613734e-01 5.147218906612780529e+02
4.359959191022024783e-01 5.146849091734193280e+02
4.360959411070435277e-01 5.146486270721002256e+02
4.361959631118845770e-01 5.146130511757054364e+02
4.362959851167256264e-01 5.145781880604456546e+02
4.363960071215667313e-01 5.145440440571537692e+02
4.364960291264077807e-01 5.145106252481841693e+02
4.365960511312488301e-01 5.144779374644147083e+02
4.366960731360899350e-01 5.144459862823465528e+02
4.367960951409309844e-01 5.144147770213126023e+02
4.368961171457720338e-01 5.143843147407915239e+02
4.369961391506130832e-01 5.143546042378272887e+02
4.370961611554541881e-01 5.143256500445610300e+02
4.371961831602952375e-01 5.142974564258728378e+02
4.372962051651362869e-01 5.142700273771348520e+02
4.373962271699773918e-01 5.142433666220798614e+02
4.374962491748184412e-01 5.142174776107847265e+02
4.375962711796594906e-01 5.141923635177694223e+02
4.376962931845005400e-01 5.141680272402156788e+02
4.377963151893416449e-01 5.141444713963026061e+02
4.378963371941826943e-01 5.141216983236644182e+02
4.379963591990237437e-01 5.140997100779683251e+02
4.380963812038648486e-01 5.140785084316160010e+02
4.381964032087058980e-01 5.140580948725671533e+02
4.382964252135469474e-01 5.140384706032881468e+02
4.383964472183879968e-01 5.140196365398250009e+02
4.384964692232290462e-01 5.140015933110037167e+02
4.385964912280701511e-01 5.139843412577590698e+02
4.386965132329112005e-01 5.139678804325831152e+02
4.387965352377523054e-01 5.139522105991131866e+02
4.388965572425933548e-01 5.139373312318392664e+02
4.389965792474344042e-01 5.139232415159452785e+02
4.390966012522754536e-01 5.139099403472787344e+02
4.391966232571165030e-01 5.138974263324516869e+02
4.392966452619576079e-01 5.138856977890683311e+02
4.393966672667986573e-01 5.138747527460899391e+02
4.394966892716397622e-01 5.138645889443226906e+02
4.395967112764808116e-01 5.138552038370444279e+02
4.396967332813218610e-01 5.138465945907560126e+02
4.397967552861629104e-01 5.138387580860672870e+02
4.398967772910039598e-01 5.138316909187149122e+02
4.399967992958450647e-01 5.138253894007066265e+02
4.400968213006861141e-01 5.138198495616024957e+02
4.401968433055272190e-01 5.138150671499213331e+02
4.402968653103682684e-01 5.138110376346802468e+02
4.403968873152093177e-01 5.138077562070639033e+02
4.404969093200503671e-01 5.138052177822211206e+02
4.405969313248914165e-01 5.138034170011947026e+02
4.406969533297325214e-01 5.138023482329733724e+02
4.407969753345735708e-01 5.138020055766779706e+02
4.408969973394146757e-01 5.138023828638704344e+02
4.409970193442557251e-01 5.138034736609895390e+02
4.410970413490967745e-01 5.138052712719155579e+02
4.411970633539378239e-01 5.138077687406531595e+02
4.412970853587788733e-01 5.138109588541459516e+02
4.413971073636199782e-01 5.138148341452049408e+02
4.414971293684610276e-01 5.138193868955673906e+02
4.415971513733021325e-01 5.138246091390682295e+02
4.416971733781431819e-01 5.138304926649361732e+02
4.417971953829842313e-01 5.138370290212055806e+02
4.418972173878252807e-01 5.138442095182447247e+02
4.419972393926663301e-01 5.138520252324017292e+02
4.420972613975074350e-01 5.138604670097599865e+02
4.421972834023484844e-01 5.138695254700108990e+02
4.422973054071895893e-01 5.138791910104338285e+02
4.423973274120306387e-01 5.138894538099882539e+02
4.424973494168716326e-01 5.139003038335097244e+02
4.425973714217127375e-01 5.139117308360150673e+02
4.426973934265537869e-01 5.139237243671100259e+02
4.427974154313948918e-01 5.139362737755009221e+02
4.428974374362359412e-01 5.139493682136032930e+02
4.429974594410770461e-01 5.139629966422514826e+02
4.430974814459180955e-01 5.139771478355039562e+02
4.431975034507590894e-01 5.139918103855452500e+02
4.432975254556001943e-01 5.140069727076756863e+02
4.433975474604412437e-01 5.140226230453932885e+02
4.434975694652823486e-01 5.140387494755667603e+02
4.435975914701233980e-01 5.140553399136899770e+02
4.436976134749645029e-01 5.140723821192200376e+02
4.437976354798055523e-01 5.140898637010004677e+02
4.438976574846465462e-01 5.141077721227600250e+02
4.439976794894876511e-01 5.141260947086858550e+02
4.440977014943287005e-01 5.141448186490761145e+02
4.441977234991698054e-01 5.141639310060593289e+02
4.442977455040108548e-01 5.141834187193849175e+02
4.443977675088519597e-01 5.142032686122772702e+02
4.444977895136930091e-01 5.142234673973593999e+02
4.445978115185340029e-01 5.142440016826277542e+02
4.446978335233751078e-01 5.142648579774977406e+02
4.447978555282161572e-01 5.142860226988904060e+02
4.448978775330572621e-01 5.143074821773891472e+02
4.449978995378983115e-01 5.143292226634280269e+02
4.450979215427394164e-01 5.143512303335419347e+02
4.451979435475804658e-01 5.143734912966539241e+02
4.452979655524214597e-01 5.143959916004042725e+02
4.453979875572625646e-01 5.144187172375216051e+02
4.454980095621036140e-01 5.144416541522260786e+02
4.455980315669447189e-01 5.144647882466676947e+02
4.456980535717857683e-01 5.144881053873926930e+02
4.457980755766268732e-01 5.145115914118377987e+02
4.458980975814679226e-01 5.145352321348485702e+02
4.459981195863089165e-01 5.145590133552148018e+02
4.460981415911500214e-01 5.145829208622316173e+02
4.461981635959910708e-01 5.146069404422653406e+02
4.462981856008321757e-01 5.146310578853388051e+02
4.463982076056732251e-01 5.146552589917204159e+02
4.464982296105143300e-01 5.146795295785217377e+02
4.465982516153553794e-01 5.147038554862938327e+02
4.466982736201963733e-01 5.147282225856274636e+02
4.467982956250374782e-01 5.147526167837440880e+02
4.468983176298785276e-01 5.147770240310841245e+02
4.469983396347196325e-01 5.148014303278828265e+02
4.470983616395606819e-01 5.148258217307329687e+02
4.471983836444016758e-01 5.148501843591322995e+02
4.472984056492428362e-01 5.148745044020084833e+02
4.473984276540838301e-01 5.148987681242273311e+02
4.474984496589249350e-01 5.149229618730676066e+02
4.475984716637659844e-01 5.149470720846720724e+02
4.476984936686070893e-01 5.149710852904659077e+02
4.477985156734481387e-01 5.149949881235373823e+02
4.478985376782891326e-01 5.150187673249845375e+02
4.479985596831302930e-01 5.150424097502162795e+02
4.480985816879712869e-01 5.150659023752119765e+02
4.481986036928123918e-01 5.150892323027342172e+02
4.482986256976534412e-01 5.151123867684865445e+02
4.483986477024945461e-01 5.151353531472252598e+02
4.484986697073355955e-01 5.151581189588073357e+02
4.485986917121765893e-01 5.151806718741852364e+02
4.486987137170177498e-01 5.152029997213336401e+02
4.487987357218587436e-01 5.152250904911171574e+02
4.488987577266998485e-01 5.152469323430839268e+02
4.489987797315408979e-01 5.152685136111942938e+02
4.490988017363820028e-01 5.152898228094693422e+02
4.491988237412230522e-01 5.153108486375675739e+02
4.492988457460640461e-01 5.153315799862816675e+02
4.493988677509052065e-01 5.153520059429504272e+02
4.494988897557462004e-01 5.153721157967872841e+02
4.495989117605873053e-01 5.153918990441252390e+02
4.496989337654283547e-01 5.154113453935628968e+02
4.497989557702694596e-01 5.154304447710269415e+02
4.498989777751105090e-01 5.154491873247335434e+02
4.499989997799515029e-01 5.154675634300532465e+02
4.500990217847926633e-01 5.154855636942781985e+02
4.501990437896336572e-01 5.155031789612826287e+02
4.502990657944747621e-01 5.155204003160793036e+02
4.503990877993158115e-01 5.155372190892719573e+02
4.504991098041569164e-01 5.155536268613916491e+02
4.505991318089979658e-01 5.155696154671285285e+02
4.506991538138389597e-01 5.155851769994427514e+02
4.507991758186801201e-01 5.156003038135620500e+02
4.508991978235211140e-01 5.156149885308607281e+02
4.509992198283622189e-01 5.156292240426203080e+02
4.510992418332032683e-01 5.156430035136593233e+02
4.511992638380443177e-01 5.156563203858513589e+02
4.512992858428854226e-01 5.156691683815049601e+02
4.513993078477264165e-01 5.156815415066232617e+02
4.514993298525675769e-01 5.156934340540277617e+02
4.515993518574085708e-01 5.157048406063565835e+02
4.516993738622496757e-01 5.157157560389237005e+02
4.517993958670907251e-01 5.157261755224465105e+02
4.518994178719317745e-01 5.157360945256360765e+02
4.519994398767728794e-01 5.157455088176487834e+02
4.520994618816138733e-01 5.157544144704003202e+02
4.521994838864550337e-01 5.157628078607367570e+02
4.522995058912960276e-01 5.157706856724646514e+02
4.523995278961371325e-01 5.157780448982402959e+02
4.524995499009781819e-01 5.157848828413093543e+02
4.525995719058192313e-01 5.157911971171045025e+02
4.526995939106603362e-01 5.157969856546984602e+02
4.527996159155013300e-01 5.158022466981045682e+02
4.528996379203424905e-01 5.158069788074327562e+02
4.529996599251834843e-01 5.158111808598955577e+02
4.530996819300245892e-01 5.158148520506617842e+02
4.531997039348656386e-01 5.158179918935657042e+02
4.532997259397066880e-01 5.158206002216579691e+02
4.533997479445477929e-01 5.158226771876087469e+02
4.534997699493887868e-01 5.158242232639571512e+02
4.535997919542299472e-01 5.158252392432106035e+02
4.536998139590709411e-01 5.158257262377866255e+02
4.537998359639120460e-01 5.158256856798082026e+02
4.538998579687530954e-01 5.158251193207365759e+02
4.539998799735941448e-01 5.158240292308591961e+02
4.540999019784352497e-01 5.158224177986191989e+02
4.541999239832762436e-01 5.158202877297939040e+02
4.542999459881174040e-01 5.158176420465168803e+02
4.543999679929583979e-01 5.158144840861490366e+02
4.544999899977995028e-01 5.158108174999973699e+02
4.546000120026405522e-01 5.158066462518786466e+02
4.547000340074816016e-01 5.158019746165313109e+02
4.548000560123227065e-01 5.157968071778777812e+02
4.549000780171637004e-01 5.157911488271312237e+02
4.550001000220048608e-01 5.157850047607565784e+02
4.551001220268458547e-01 5.157783804782769721e+02
4.552001440316869596e-01 5.157712817799335880e+02
4.553001660365280090e-01 5.157637147641956972e+02
4.554001880413690584e-01 5.157556858251244876e+02
4.555002100462101633e-01 5.157472016495863727e+02
4.556002320510511572e-01 5.157382692143272607e+02
4.557002540558923176e-01 5.157288957828933462e+02
4.558002760607333115e-01 5.157190889024202534e+02
4.559002980655743609e-01 5.157088564002655175e+02
4.560003200704154658e-01 5.156982063805137386e+02
4.561003420752565152e-01 5.156871472203325766e+02
4.562003640800976201e-01 5.156756875661953927e+02
4.563003860849386140e-01 5.156638363299678076e+02
4.564004080897797744e-01 5.156516026848527190e+02
4.565004300946207683e-01 5.156389960612134473e+02
4.566004520994618177e-01 5.156260261422517033e+02
4.567004741043029226e-01 5.156127028595661841e+02
4.568004961091439720e-01 5.155990363885775878e+02
4.569005181139850769e-01 5.155850371438285720e+02
4.570005401188260707e-01 5.155707157741604760e+02
4.571005621236672312e-01 5.155560831577647605e+02
4.572005841285082250e-01 5.155411503971179172e+02
4.573006061333492744e-01 5.155259288137953035e+02
4.574006281381903793e-01 5.155104299431703794e+02
4.575006501430314287e-01 5.154946655289993487e+02
4.576006721478725336e-01 5.154786475178947285e+02
4.577006941527135275e-01 5.154623880536906881e+02
4.578007161575546879e-01 5.154458994716995903e+02
4.579007381623956818e-01 5.154291942928661001e+02
4.580007601672367312e-01 5.154122852178184075e+02
4.581007821720778361e-01 5.153951851208206563e+02
4.582008041769188855e-01 5.153779070436296479e+02
4.583008261817599904e-01 5.153604641892545715e+02
4.584008481866009843e-01 5.153428699156299899e+02
4.585008701914421447e-01 5.153251377291951485e+02
4.586008921962831386e-01 5.153072812783939298e+02
4.587009142011241880e-01 5.152893143470831774e+02
4.588009362059652929e-01 5.152712508478714426e+02
4.589009582108063423e-01 5.152531048153711026e+02
4.590009802156474472e-01 5.152348903993821523e+02
4.591010022204884411e-01 5.152166218580027817e+02
4.592010242253296015e-01 5.151983135506729923e+02
4.593010462301705954e-01 5.151799799311504557e+02
4.594010682350116448e-01 5.151616355404285059e+02
4.595010902398527497e-01 5.151432949995920580e+02
4.596011122446937991e-01 5.151249730026183897e+02
4.597011342495349040e-01 5.151066843091277860e+02
4.598011562543758979e-01 5.150884437370810929e+02
4.599011782592169473e-01 5.150702661554350925e+02
4.600012002640580522e-01 5.150521664767532002e+02
4.601012222688991016e-01 5.150341596497773935e+02
4.602012442737402065e-01 5.150162606519634210e+02
4.603012662785812559e-01 5.149984844819837235e+02
4.604012882834223608e-01 5.149808461522015932e+02
4.605013102882633547e-01 5.149633606811195250e+02
4.606013322931044041e-01 5.149460430858024438e+02
4.607013542979455090e-01 5.149289083742870616e+02
4.608013763027865584e-01 5.149119715379689524e+02
4.609013983076276633e-01 5.148952475439837144e+02
4.610014203124687127e-01 5.148787513275741503e+02
4.611014423173098176e-01 5.148624977844568775e+02
4.612014643221508114e-01 5.148465017631838236e+02
4.613014863269918608e-01 5.148307780575051993e+02
4.614015083318329657e-01 5.148153413987411113e+02
4.615015303366740151e-01 5.148002064481580646e+02
4.616015523415151200e-01 5.147853877893604704e+02
4.617015743463561694e-01 5.147708999206946601e+02
4.618015963511972743e-01 5.147567572476759779e+02
4.619016183560382682e-01 5.147429740754339491e+02
4.620016403608793176e-01 5.147295646011890540e+02
4.621016623657204225e-01 5.147165429067543982e+02
4.622016843705614719e-01 5.147039229510717178e+02
4.623017063754025768e-01 5.146917185627853542e+02
4.624017283802436262e-01 5.146799434328547704e+02
4.625017503850847311e-01 5.146686111072115182e+02
4.626017723899257250e-01 5.146577349794612246e+02
4.627017943947667744e-01 5.146473282836386716e+02
4.628018163996078793e-01 5.146374040870131239e+02
4.629018384044489287e-01 5.146279752829542531e+02
4.630018604092900336e-01 5.146190545838550179e+02
4.631018824141310830e-01 5.146106545141219613e+02
4.632019044189721879e-01 5.146027874032271257e+02
4.633019264238131818e-01 5.145954653788376163e+02
4.634019484286542312e-01 5.145887003600107619e+02
4.635019704334953361e-01 5.145825040504723802e+02
4.636019924383363855e-01 5.145768879319725784e+02
4.637020144431774904e-01 5.145718632577223843e+02
4.638020364480185398e-01 5.145674410459208730e+02
4.639020584528596447e-01 5.145636320733697175e+02
4.640020804577006386e-01 5.145604468691798274e+02
4.641021024625416880e-01 5.145578957085734828e+02
4.642021244673827929e-01 5.145559886067854904e+02
4.643021464722238423e-01 5.145547353130660895e+02
4.644021684770649472e-01 5.145541453047868572e+02
4.645021904819059966e-01 5.145542277816546175e+02
4.646022124867470460e-01 5.145549916600377856e+02
4.647022344915880954e-01 5.145564455673995781e+02
4.648022564964291448e-01 5.145585978368536644e+02
4.649022785012702497e-01 5.145614565018321400e+02
4.650023005061112991e-01 5.145650292908804886e+02
4.651023225109524040e-01 5.145693236225685041e+02
4.652023445157934534e-01 5.145743466005367281e+02
4.653023665206345028e-01 5.145801050086608939e+02
4.654023885254755522e-01 5.145866053063568870e+02
4.655024105303166015e-01 5.145938536240130361e+02
4.656024325351577065e-01 5.146018557585608733e+02
4.657024545399987558e-01 5.146106171691817508e+02
4.658024765448398608e-01 5.146201429731573853e+02
4.659024985496809101e-01 5.146304379418578492e+02
4.660025205545219595e-01 5.146415064968787192e+02
4.661025425593630089e-01 5.146533527063227211e+02
4.662025645642040583e-01 5.146659802812280304e+02
4.663025865690451632e-01 5.146793925721508458e+02
4.664026085738862126e-01 5.146935925658974611e+02
4.665026305787273175e-01 5.147085828824119744e+02
4.666026525835683669e-01 5.147243657718186114e+02
4.667026745884094163e-01 5.147409431116227552e+02
4.668026965932504657e-01 5.147583164040688644e+02
4.669027185980915151e-01 5.147764867736643737e+02
4.670027406029326200e-01 5.147954549648568445e+02
4.671027626077736694e-01 5.148152213398846015e+02
4.672027846126147743e-01 5.148357858767851667e+02
4.673028066174558237e-01 5.148571481675702444e+02
4.674028286222968731e-01 5.148793074165721464e+02
4.675028506271379225e-01 5.149022624389569955e+02
4.676028726319789719e-01 5.149260116594037981e+02
4.677028946368200768e-01 5.149505531109582535e+02
4.678029166416611262e-01 5.149758844340559563e+02
4.679029386465022311e-01 5.150020028757170394e+02
4.680029606513432805e-01 5.150289052889188497e+02
4.681029826561843299e-01 5.150565881321314237e+02
4.682030046610253793e-01 5.150850474690406600e+02
4.683030266658664287e-01 5.151142789684337231e+02
4.684030486707075336e-01 5.151442779042696429e+02
4.685030706755485830e-01 5.151750391559190803e+02
4.686030926803896324e-01 5.152065572085821259e+02
4.687031146852307373e-01 5.152388261538817460e+02
4.688031366900717867e-01 5.152718396906354883e+02
4.689031586949128361e-01 5.153055911258005608e+02
4.690031806997538855e-01 5.153400733755975125e+02
4.691032027045949904e-01 5.153752789668077412e+02
4.692032247094360398e-01 5.154112000382511951e+02
4.693032467142770892e-01 5.154478283424351730e+02
4.694032687191181941e-01 5.154851552473822949e+02
4.695032907239592435e-01 5.155231717386333230e+02
4.696033127288002929e-01 5.155618684214227869e+02
4.697033347336413422e-01 5.156012355230305957e+02
4.698033567384824472e-01 5.156412628953064541e+02
4.699033787433234965e-01 5.156819400173678787e+02
4.700034007481645459e-01 5.157232559984722684e+02
4.701034227530056508e-01 5.157651995810554126e+02
4.702034447578467002e-01 5.158077591439458729e+02
4.703034667626877496e-01 5.158509227057450062e+02
4.704034887675287990e-01 5.158946779283795649e+02
4.705035107723699039e-01 5.159390121208155051e+02
4.706035327772109533e-01 5.159839122429460758e+02
4.707035547820520027e-01 5.160293649096386162e+02
4.708035767868931076e-01 5.160753563949460840e+02
4.709035987917341570e-01 5.161218726364836584e+02
4.710036207965752064e-01 5.161688992399620020e+02
4.711036428014162558e-01 5.162164214838837779e+02
4.712036648062573607e-01 5.162644243243940991e+02
4.713036868110984101e-01 5.163128924002887743e+02
4.714037088159394595e-01 5.163618100381779641e+02
4.715037308207805644e-01 5.164111612577969481e+02
4.716037528256216138e-01 5.164609297774741208e+02
4.717037748304626632e-01 5.165110990197421188e+02
4.718037968353037126e-01 5.165616521170991291e+02
4.719038188401448175e-01 5.166125719179087810e+02
4.720038408449858669e-01 5.166638409924503321e+02
4.721038628498269163e-01 5.167154416391026643e+02
4.722038848546680212e-01 5.167673558906668632e+02
4.723039068595090706e-01 5.168195655208256767e+02
4.724039288643501200e-01 5.168720520507347373e+02
4.725039508691911694e-01 5.169247967557450920e+02
4.726039728740322743e-01 5.169777806722527203e+02
4.727039948788733237e-01 5.170309846046724260e+02
4.728040168837143731e-01 5.170843891325386039e+02
4.729040388885554780e-01 5.171379746177194647e+02
4.730040608933965274e-01 5.171917212117544977e+02
4.731040828982375768e-01 5.172456088633023228e+02
4.732041049030786262e-01 5.172996173257035935e+02
4.733041269079196756e-01 5.173537261646476964e+02
4.734041489127607805e-01 5.174079147659510909e+02
4.735041709176018299e-01 5.174621623434321691e+02
4.736041929224429348e-01 5.175164479468918444e+02
4.737042149272839842e-01 5.175707504701850894e+02
4.738042369321250336e-01 5.176250486593895630e+02
4.739042589369660829e-01 5.176793211210640493e+02
4.740042809418071323e-01 5.177335463305912526e+02
4.741043029466482372e-01 5.177877026406072218e+02
4.742043249514892866e-01 5.178417682895093321e+02
4.743043469563303915e-01 5.178957214100424835e+02
4.744043689611714409e-01 5.179495400379566945e+02
4.745043909660124903e-01 5.180032021207405251e+02
4.746044129708535397e-01 5.180566855264108881e+02
4.747044349756945891e-01 5.181099680523773259e+02
4.748044569805356940e-01 5.181630274343602878e+02
4.749044789853767434e-01 5.182158413553618175e+02
4.750045009902178483e-01 5.182683874547003597e+02
4.751045229950588977e-01 5.183206433370799004e+02
4.752045449998999471e-01 5.183725865817166323e+02
4.753045670047409965e-01 5.184241947514994990e+02
4.754045890095820459e-01 5.184754454021933725e+02
4.755046110144231508e-01 5.185263160916724701e+02
4.756046330192642002e-01 5.185767843891868552e+02
4.757046550241053051e-01 5.186268278846541762e+02
4.758046770289463545e-01 5.186764241979773260e+02
4.759046990337874039e-01 5.187255509883749482e+02
4.760047210386284533e-01 5.187741859637345669e+02
4.761047430434695027e-01 5.188223068899716282e+02
4.762047650483106076e-01 5.188698916003986596e+02
4.763047870531516570e-01 5.189169180050989780e+02
4.764048090579927619e-01 5.189633641002982358e+02
4.765048310628338113e-01 5.190092079777326717e+02
4.766048530676748607e-01 5.190544278340111077e+02
4.767048750725159101e-01 5.190990019799635320e+02
4.768048970773569595e-01 5.191429088499752424e+02
4.769049190821980644e-01 5.191861270113008686e+02
4.770049410870391138e-01 5.192286351733561105e+02
4.771049630918802187e-01 5.192704121969807147e+02
4.772049850967212681e-01 5.193114371036747343e+02
4.773050071015622620e-01 5.193516890847913601e+02
4.774050291064033669e-01 5.193911475107029219e+02
4.775050511112444163e-01 5.194297919399144803e+02
4.776050731160855212e-01 5.194676021281344447e+02
4.777050951209265706e-01 5.195045580372976701e+02
4.778051171257676755e-01 5.195406398445308014e+02
4.779051391306087249e-01 5.195758279510616831e+02
4.780051611354497187e-01 5.196101029910668103e+02
4.781051831402908237e-01 5.196434458404550014e+02
4.782052051451318730e-01 5.196758376255789926e+02
4.783052271499729780e-01 5.197072597318784801e+02
4.784052491548140273e-01 5.197376938124415346e+02
4.785052711596551323e-01 5.197671217964923471e+02
4.786052931644961816e-01 5.197955258977887070e+02
4.787053151693371755e-01 5.198228886229370573e+02
4.788053371741782804e-01 5.198491927796162599e+02
4.789053591790193298e-01 5.198744214847014291e+02
4.790053811838604347e-01 5.198985581722997722e+02
4.791054031887014841e-01 5.199215866016730843e+02
4.792054251935425890e-01 5.199434908650659963e+02
4.793054471983836384e-01 5.199642553954199684e+02
4.794054692032246323e-01 5.199838649739762104e+02
4.795054912080657372e-01 5.200023047377646890e+02
4.796055132129067866e-01 5.200195601869743314e+02
4.797055352177478915e-01 5.200356171922029489e+02
4.798055572225889409e-01 5.200504620015772161e+02
4.799055792274300458e-01 5.200640812477531654e+02
4.800056012322710952e-01 5.200764619547776419e+02
4.801056232371120891e-01 5.200875915448184514e+02
4.802056452419531940e-01 5.200974578447594467e+02
4.803056672467942434e-01 5.201060490926511193e+02
4.804056892516353483e-01 5.201133539440212417e+02
4.805057112564763977e-01 5.201193614780376038e+02
4.806057332613175026e-01 5.201240612035231834e+02
4.807057552661585520e-01 5.201274430648184079e+02
4.808057772709995459e-01 5.201294974474891433e+02
4.809057992758406508e-01 5.201302151838779082e+02
4.810058212806817002e-01 5.201295875584974056e+02
4.811058432855228051e-01 5.201276063132550007e+02
4.812058652903638545e-01 5.201242636525223588e+02
4.813058872952049594e-01 5.201195522480284126e+02
4.814059093000460088e-01 5.201134652435898715e+02
4.815059313048870027e-01 5.201059962596656305e+02
4.816059533097281076e-01 5.200971393977386015e+02
4.817059753145691570e-01 5.200868892445206484e+02
4.818059973194102619e-01 5.200752408759796026e+02
4.819060193242513113e-01 5.200621898611864253e+02
4.820060413290923051e-01 5.200477322659781976e+02
4.821060633339334656e-01 5.200318646564373921e+02
4.822060853387744594e-01 5.200145841021868591e+02
4.823061073436155644e-01 5.199958881794938179e+02
4.824061293484566137e-01 5.199757749741856969e+02
4.825061513532977187e-01 5.199542430843740703e+02
4.826061733581387680e-01 5.199312916229887378e+02
4.827061953629797619e-01 5.199069202201120561e+02
4.828062173678209223e-01 5.198811290251209130e+02
4.829062393726619162e-01 5.198539187086315678e+02
4.830062613775030211e-01 5.198252904642461090e+02
4.831062833823440705e-01 5.197952460100976850e+02
4.832063053871851754e-01 5.197637875901963298e+02
4.833063273920262248e-01 5.197309179755753803e+02
4.834063493968672187e-01 5.196966404652282563e+02
4.835063714017083791e-01 5.196609588868501532e+02
4.836063934065493730e-01 5.196238775973711199e+02
4.837064154113904779e-01 5.195854014832825669e+02
4.838064374162315273e-01 5.195455359607618675e+02
4.839064594210726322e-01 5.195042869755880020e+02
4.840064814259136816e-01 5.194616610028523382e+02
4.841065034307546755e-01 5.194176650464589784e+02
4.842065254355958359e-01 5.193723066384226286e+02
4.843065474404368298e-01 5.193255938379559211e+02
4.844065694452779347e-01 5.192775352303451655e+02
4.845065914501189841e-01 5.192281399256276018e+02
4.846066134549600890e-01 5.191774175570503758e+02
4.847066354598011384e-01 5.191253782793309028e+02
4.848066574646421323e-01 5.190720327666987259e+02
4.849066794694832927e-01 5.190173922107435374e+02
4.850067014743242866e-01 5.189614683180420798e+02
4.851067234791653915e-01 5.189042733075906426e+02
4.852067454840064409e-01 5.188458199080209852e+02
4.853067674888475458e-01 5.187861213546169665e+02
4.854067894936885952e-01 5.187251913861269941e+02
4.855068114985295891e-01 5.186630442413645596e+02
4.856068335033707495e-01 5.185996946556150533e+02
4.857068555082117434e-01 5.185351578568329387e+02
4.858068775130528483e-01 5.184694495616396352e+02
4.859068995178938977e-01 5.184025859711224484e+02
4.860069215227349471e-01 5.183345837664325018e+02
4.861069435275760520e-01 5.182654601041816704e+02
4.862069655324170458e-01 5.181952326116497716e+02
4.863069875372582063e-01 5.181239193817906425e+02
4.864070095420992002e-01 5.180515389680432463e+02
4.865070315469403051e-01 5.179781103789559893e+02
4.866070535517813545e-01 5.179036530726151568e+02
4.867070755566224038e-01 5.178281869508862201e+02
4.868070975614635088e-01 5.177517323534655134e+02
4.869071195663045026e-01 5.176743100517512630e+02
4.870071415711456631e-01 5.175959412425239634e+02
4.871071635759866569e-01 5.175166475414525848e+02
4.872071855808277618e-01 5.174364509764143349e+02
4.873072075856688112e-01 5.173553739806402518e+02
4.874072295905098606e-01 5.172734393856877659e+02
4.875072515953509655e-01 5.171906704142343187e+02
4.876072736001919594e-01 5.171070906727064767e+02
4.877072956050331198e-01 5.170227241437372641e+02
4.878073176098741137e-01 5.169375951784567178e+02
4.879073396147152186e-01 5.168517284886249854e+02
4.880073616195562680e-01 5.167651491385989857e+02
4.881073836243973174e-01 5.166778825371438870e+02
4.882074056292384223e-01 5.165899544290898575e+02
4.883074276340794162e-01 5.165013908868352246e+02
4.884074496389205766e-01 5.164122183017020689e+02
4.885074716437615705e-01 5.163224633751442525e+02
4.886074936486026754e-01 5.162321531098139076e+02
4.887075156534437248e-01 5.161413148004847926e+02
4.888075376582847742e-01 5.160499760248408165e+02
4.889075596631258791e-01 5.159581646341325722e+02
4.890075816679668730e-01 5.158659087436979007e+02
4.891076036728080334e-01 5.157732367233610375e+02
4.892076256776490273e-01 5.156801771877042029e+02
4.893076476824901322e-01 5.155867589862223213e+02
4.894076696873311816e-01 5.154930111933545049e+02
4.895076916921722310e-01 5.153989630984107180e+02
4.896077136970133359e-01 5.153046441953833892e+02
4.897077357018543298e-01 5.152100841726519320e+02
4.898077577066954902e-01 5.151153129025902899e+02
4.899077797115364841e-01 5.150203604310710261e+02
4.900078017163775890e-01 5.149252569668752813e+02
4.901078237212186384e-01 5.148300328710155327e+02
4.902078457260596878e-01 5.147347186459662680e+02
4.903078677309007927e-01 5.146393449248148499e+02
4.904078897357417866e-01 5.145439424603312091e+02
4.905079117405829470e-01 5.144485421139645496e+02
4.906079337454239409e-01 5.143531748447666132e+02
4.907079557502649902e-01 5.142578716982493461e+02
4.908079777551060952e-01 5.141626637951792418e+02
4.909079997599471445e-01 5.140675823203119990e+02
4.910080217647882495e-01 5.139726585110761334e+02
4.911080437696292433e-01 5.138779236461997471e+02
4.912080657744704038e-01 5.137834090342970512e+02
4.913080877793113976e-01 5.136891460024108937e+02
4.914081097841524470e-01 5.135951658845182237e+02
4.915081317889935519e-01 5.135015000099984945e+02
4.916081537938346013e-01 5.134081796920802390e+02
4.917081757986757062e-01 5.133152362162581994e+02
4.918081978035167001e-01 5.132227008286884029e+02
4.919082198083578605e-01 5.131306047245743684e+02
4.920082418131988544e-01 5.130389790365350109e+02
4.921082638180399038e-01 5.129478548229703847e+02
4.922082858228810087e-01 5.128572630564201518e+02
4.923083078277220581e-01 5.127672346119305757e+02
4.924083298325631630e-01 5.126778002554206068e+02
4.925083518374041569e-01 5.125889906320660430e+02
4.926083738422453173e-01 5.125008362546916487e+02
4.927083958470863112e-01 5.124133674921895363e+02
4.928084178519273606e-01 5.123266145579583508e+02
4.929084398567684655e-01 5.122406074983723556e+02
4.930084618616095149e-01 5.121553761812834864e+02
4.931084838664506198e-01 5.120709502845604675e+02
4.932085058712916137e-01 5.119873592846735164e+02
4.933085278761327741e-01 5.119046324453208285e+02
4.934085498809737680e-01 5.118227988061095743e+02
4.935085718858148174e-01 5.117418871712928308e+02
4.936085938906559223e-01 5.116619260985637538e+02
4.937086158954969717e-01 5.115829438879172812e+02
4.938086379003380766e-01 5.115049685705795923e+02
4.939086599051790705e-01 5.114280278980104981e+02
4.940086819100202309e-01 5.113521493309836501e+02
4.941087039148612248e-01 5.112773600287507065e+02
4.942087259197022742e-01 5.112036868382899684e+02
4.943087479245433791e-01 5.111311562836444295e+02
4.944087699293844285e-01 5.110597945553598151e+02
4.945087919342255334e-01 5.109896275000169794e+02
4.946088139390665273e-01 5.109206806098717379e+02
4.947088359439075766e-01 5.108529790125983254e+02
4.948088579487486816e-01 5.107865474611487002e+02
4.949088799535897309e-01 5.107214103237267864e+02
4.950089019584308359e-01 5.106575915738820868e+02
4.951089239632718852e-01 5.105951147807285793e+02
4.952089459681129902e-01 5.105340030992915672e+02
4.953089679729539840e-01 5.104742792609869753e+02
4.954089899777950334e-01 5.104159655642381495e+02
4.955090119826361383e-01 5.103590838652297634e+02
4.956090339874771877e-01 5.103036555688103704e+02
4.957090559923182926e-01 5.102497016195378592e+02
4.958090779971593420e-01 5.101972424928823671e+02
4.959091000020004469e-01 5.101462981865795996e+02
4.960091220068414408e-01 5.100968882121450179e+02
4.961091440116824902e-01 5.100490315865537809e+02
4.962091660165235951e-01 5.100027468240811004e+02
4.963091880213646445e-01 5.099580519283175022e+02
4.964092100262057494e-01 5.099149643843561535e+02
4.965092320310467988e-01 5.098735011511559492e+02
4.966092540358879037e-01 5.098336786540849062e+02
4.967092760407288976e-01 5.097955127776476729e+02
4.968092980455699470e-01 5.097590188583999407e+02
4.969093200504110519e-01 5.097242116780504375e+02
4.970093420552521013e-01 5.096911054567588053e+02
4.971093640600932062e-01 5.096597138466269143e+02
4.972093860649342556e-01 5.096300499253911198e+02
4.973094080697753605e-01 5.096021261903129016e+02
4.974094300746163544e-01 5.095759545522786311e+02
4.975094520794574038e-01 5.095515463301030081e+02
4.976094740842985087e-01 5.095289122450434434e+02
4.977094960891395581e-01 5.095080624155283431e+02
4.978095180939806630e-01 5.094890063520981585e+02
4.979095400988217124e-01 5.094717529525667032e+02
4.980095621036628173e-01 5.094563104973996133e+02
4.981095841085038112e-01 5.094426866453163711e+02
4.982096061133448606e-01 5.094308884291181130e+02
4.983096281181859655e-01 5.094209222517387161e+02
4.984096501230270149e-01 5.094127938825276942e+02
4.985096721278681198e-01 5.094065084537617167e+02
4.986096941327091692e-01 5.094020704573887883e+02
4.987097161375502741e-01 5.093994837420079875e+02
4.988097381423912680e-01 5.093987515100833434e+02
4.989097601472323174e-01 5.093998763153967388e+02
4.990097821520734223e-01 5.094028600607398403e+02
4.991098041569144717e-01 5.094077039958437467e+02
4.992098261617555766e-01 5.094144087155557372e+02
4.993098481665966260e-01 5.094229741582553288e+02
4.994098701714376753e-01 5.094333996045150457e+02
4.995098921762787247e-01 5.094456836760089118e+02
4.996099141811197741e-01 5.094598243346638924e+02
4.997099361859608790e-01 5.094758188820633222e+02
4.998099581908019284e-01 5.094936639590934533e+02
4.999099801956430333e-01 5.095133555458421597e+02
5.000100022004840827e-01 5.119773832653356749e+02
5.001100242053251321e-01 5.119592310562898660e+02
5.002100462101661815e-01 5.119413203370843348e+02
5.003100682150072309e-01 5.119236724837102770e+02
5.004100902198483913e-01 5.119063088979303870e+02
5.005101122246893297e-01 5.118892509974493805e+02
5.006101342295304901e-01 5.118725202059648609e+02
5.007101562343715395e-01 5.118561379431066030e+02
5.008101782392125889e-01 5.118401256142652187e+02
5.009102002440536383e-01 5.118245046003184484e+02
5.010102222488946877e-01 5.118092962472547356e+02
5.011102442537358481e-01 5.117945218557045450e+02
5.012102662585768975e-01 5.117802026703791398e+02
5.013102882634179469e-01 5.117663598694238658e+02
5.014103102682589963e-01 5.117530145536942996e+02
5.015103322731000457e-01 5.117401877359525315e+02
5.016103542779410951e-01 5.117279003299972260e+02
5.017103762827821445e-01 5.117161731397256972e+02
5.018103982876233049e-01 5.117050268481397097e+02
5.019104202924642433e-01 5.116944820062978465e+02
5.020104422973054037e-01 5.116845590222144438e+02
5.021104643021464531e-01 5.116752781497228852e+02
5.022104863069875025e-01 5.116666594773001862e+02
5.023105083118285519e-01 5.116587229168573003e+02
5.024105303166696013e-01 5.116514881925084524e+02
5.025105523215107617e-01 5.116449748293218818e+02
5.026105743263518111e-01 5.116392021420543301e+02
5.027105963311928605e-01 5.116341892238835953e+02
5.028106183360339099e-01 5.116299549351371638e+02
5.029106403408749593e-01 5.116265178920273229e+02
5.030106623457160087e-01 5.116238964554009954e+02
5.031106843505570581e-01 5.116221087195049790e+02
5.032107063553982185e-01 5.116211725007784139e+02
5.033107283602391568e-01 5.116211053266770818e+02
5.034107503650802062e-01 5.116219244245330628e+02
5.035107723699213667e-01 5.116236467104636176e+02
5.036107943747624160e-01 5.116262887783257156e+02
5.037108163796034654e-01 5.116298668887347958e+02
5.038108383844445148e-01 5.116343969581415649e+02
5.039108603892856753e-01 5.116398945479866711e+02
5.040108823941267246e-01 5.116463748539270000e+02
5.041109043989676630e-01 5.116538526951517269e+02
5.042109264038088234e-01 5.116623425037867037e+02
5.043109484086498728e-01 5.116718583143982073e+02
5.044109704134909222e-01 5.116824137536011676e+02
5.045109924183319716e-01 5.116940220297799442e+02
5.046110144231731320e-01 5.117066959229260874e+02
5.047110364280140704e-01 5.117204477746004159e+02
5.048110584328551198e-01 5.117352894780312909e+02
5.049110804376962802e-01 5.117512324683449378e+02
5.050111024425373296e-01 5.117682877129460621e+02
5.051111244473783790e-01 5.117864657020477352e+02
5.052111464522194284e-01 5.118057764393595903e+02
5.053111684570605888e-01 5.118262294329412612e+02
5.054111904619016382e-01 5.118478336862294213e+02
5.055112124667425766e-01 5.118705976892376839e+02
5.056112344715837370e-01 5.118945294099455623e+02
5.057112564764247864e-01 5.119196362858763223e+02
5.058112784812658358e-01 5.119459252158711706e+02
5.059113004861068852e-01 5.119734025520673981e+02
5.060113224909480456e-01 5.120020740920872413e+02
5.061113444957889840e-01 5.120319450714393952e+02
5.062113665006300334e-01 5.120630201561436934e+02
5.063113885054711938e-01 5.120953034355866293e+02
5.064114105103122432e-01 5.121287984156016364e+02
5.065114325151532926e-01 5.121635080117990810e+02
5.066114545199943420e-01 5.121994345431338616e+02
5.067114765248355024e-01 5.122365797257255053e+02
5.068114985296765518e-01 5.122749446669367899e+02
5.069115205345174902e-01 5.123145298597086139e+02
5.070115425393586506e-01 5.123553351771677171e+02
5.071115645441997000e-01 5.123973598675005405e+02
5.072115865490407494e-01 5.124406025491095988e+02
5.073116085538817988e-01 5.124850612060455433e+02
5.074116305587229592e-01 5.125307331837321954e+02
5.075116525635638975e-01 5.125776151849778444e+02
5.076116745684049469e-01 5.126257032662863367e+02
5.077116965732461074e-01 5.126749928344661384e+02
5.078117185780871568e-01 5.127254786435437381e+02
5.079117405829282061e-01 5.127771547919891191e+02
5.080117625877692555e-01 5.128300147202492099e+02
5.081117845926103049e-01 5.128840512086028411e+02
5.082118065974514654e-01 5.129392563753307286e+02
5.083118286022924037e-01 5.129956216752158298e+02
5.084118506071335641e-01 5.130531378983632749e+02
5.085118726119746135e-01 5.131117951693588566e+02
5.086118946168156629e-01 5.131715829467516414e+02
5.087119166216567123e-01 5.132324900228833258e+02
5.088119386264977617e-01 5.132945045240475110e+02
5.089119606313388111e-01 5.133576139109965197e+02
5.090119826361798605e-01 5.134218049797880212e+02
5.091120046410210209e-01 5.134870638629822679e+02
5.092120266458620703e-01 5.135533760311820970e+02
5.093120486507031197e-01 5.136207262949270671e+02
5.094120706555441691e-01 5.136890988069383184e+02
5.095120926603852185e-01 5.137584770647132473e+02
5.096121146652263789e-01 5.138288439134787495e+02
5.097121366700673173e-01 5.139001815494973471e+02
5.098121586749084777e-01 5.139724715237291548e+02
5.099121806797495271e-01 5.140456947458516197e+02
5.100122026845905765e-01 5.141198314886358958e+02
5.101122246894316259e-01 5.141948613926808775e+02
5.102122466942726753e-01 5.142707634715050062e+02
5.103122686991137247e-01 5.143475161169945977e+02
5.104122907039547741e-01 5.144250971052101704e+02
5.105123127087959345e-01 5.145034836025494087e+02
5.106123347136369839e-01 5.145826521722635789e+02
5.107123567184780333e-01 5.146625787813322859e+02
5.108123787233190827e-01 5.147432388076896359e+02
5.109124007281601321e-01 5.148246070478022602e+02
5.110124227330012925e-01 5.149066577245989720e+02
5.111124447378422309e-01 5.149893644957496690e+02
5.112124667426833913e-01 5.150727004622895038e+02
5.113124887475244407e-01 5.151566381775895707e+02
5.114125107523654901e-01 5.152411496566678579e+02
5.115125327572065395e-01 5.153262063858414876e+02
5.116125547620475889e-01 5.154117793327150139e+02
5.117125767668886382e-01 5.154978389565005727e+02
5.118125987717296876e-01 5.155843552186739771e+02
5.119126207765708481e-01 5.156712975939510670e+02
5.120126427814118975e-01 5.157586350815909100e+02
5.121126647862529468e-01 5.158463362170192568e+02
5.122126867910939962e-01 5.159343690837649774e+02
5.123127087959350456e-01 5.160227013257083399e+02
5.124127308007762061e-01 5.161113001596386312e+02
5.125127528056171444e-01 5.162001323881087274e+02
5.126127748104583048e-01 5.162891644125913899e+02
5.127127968152993542e-01 5.163783622469242118e+02
5.128128188201404036e-01 5.164676915310435561e+02
5.129128408249814530e-01 5.165571175449989596e+02
5.130128628298225024e-01 5.166466052232420907e+02
5.131128848346635518e-01 5.167361191691878730e+02
5.132129068395046012e-01 5.168256236700368618e+02
5.133129288443457616e-01 5.169150827118570533e+02
5.134129508491868110e-01 5.170044599949162603e+02
5.135129728540278604e-01 5.170937189492570951e+02
5.136129948588689098e-01 5.171828227505143332e+02
5.137130168637099592e-01 5.172717343359574897e+02
5.138130388685511196e-01 5.173604164207632721e+02
5.139130608733920580e-01 5.174488315144967601e+02
5.140130828782332184e-01 5.175369419378135944e+02
5.141131048830742678e-01 5.176247098393483839e+02
5.142131268879153172e-01 5.177120972128112726e+02
5.143131488927563666e-01 5.177990659142609502e+02
5.144131708975974160e-01 5.178855776795604697e+02
5.145131929024384654e-01 5.179715941419998444e+02
5.146132149072795148e-01 5.180570768500824670e+02
5.147132369121206752e-01 5.181419872854612549e+02
5.148132589169617246e-01 5.182262868810249756e+02
5.149132809218027740e-01 5.183099370391114462e+02
5.150133029266438234e-01 5.183928991498556798e+02
5.151133249314848728e-01 5.184751346096506950e+02
5.152133469363260332e-01 5.185566048397204213e+02
5.153133689411669716e-01 5.186372713047869638e+02
5.154133909460081320e-01 5.187170955318356391e+02
5.155134129508491814e-01 5.187960391289533391e+02
5.156134349556902308e-01 5.188740638042411319e+02
5.157134569605312802e-01 5.189511313847912106e+02
5.158134789653723296e-01 5.190272038357103384e+02
5.159135009702133789e-01 5.191022432791905885e+02
5.160135229750544283e-01 5.191762120136074827e+02
5.161135449798955888e-01 5.192490725326462098e+02
5.162135669847366382e-01 5.193207875444343244e+02
5.163135889895776875e-01 5.193913199906818363e+02
5.164136109944187369e-01 5.194606330658109528e+02
5.165136329992597863e-01 5.195286902360676322e+02
5.166136550041009468e-01 5.195954552586073305e+02
5.167136770089418851e-01 5.196608922005389104e+02
5.168136990137829345e-01 5.197249654579254639e+02
5.169137210186240949e-01 5.197876397747191959e+02
5.170137430234651443e-01 5.198488802616335533e+02
5.171137650283061937e-01 5.199086524149316801e+02
5.172137870331472431e-01 5.199669221351284705e+02
5.173138090379882925e-01 5.200236557455868933e+02
5.174138310428293419e-01 5.200788200110119988e+02
5.175138530476703913e-01 5.201323821558153213e+02
5.176138750525115517e-01 5.201843098823540004e+02
5.177138970573526011e-01 5.202345713890274510e+02
5.178139190621936505e-01 5.202831353882189660e+02
5.179139410670346999e-01 5.203299711240791794e+02
5.180139630718758603e-01 5.203750483901363850e+02
5.181139850767167987e-01 5.204183375467215456e+02
5.182140070815578481e-01 5.204598095382054908e+02
5.183140290863990085e-01 5.204994359100287511e+02
5.184140510912400579e-01 5.205371888255224349e+02
5.185140730960811073e-01 5.205730410825040053e+02
5.186140951009221567e-01 5.206069661296431832e+02
5.187141171057632061e-01 5.206389380825830813e+02
5.188141391106042555e-01 5.206689317398099774e+02
5.189141611154453049e-01 5.206969225982634271e+02
5.190141831202864653e-01 5.207228868686725036e+02
5.191142051251275147e-01 5.207468014906138478e+02
5.192142271299685641e-01 5.207686441472792467e+02
5.193142491348096135e-01 5.207883932799420563e+02
5.194142711396507739e-01 5.208060281021213314e+02
5.195142931444917123e-01 5.208215286134205826e+02
5.196143151493327617e-01 5.208348756130487800e+02
5.197143371541739221e-01 5.208460507130017731e+02
5.198143591590149715e-01 5.208550363509011731e+02
5.199143811638560209e-01 5.208618158024855802e+02
5.200144031686970703e-01 5.208663731937366492e+02
5.201144251735381197e-01 5.208686935126410162e+02
5.202144471783791690e-01 5.208687626205762626e+02
5.203144691832202184e-01 5.208665672633102304e+02
5.204144911880613789e-01 5.208620950816143704e+02
5.205145131929024283e-01 5.208553346214742987e+02
5.206145351977434776e-01 5.208462753438966502e+02
5.207145572025845270e-01 5.208349076343024535e+02
5.208145792074256875e-01 5.208212228115025937e+02
5.209146012122666258e-01 5.208052131362438786e+02
5.210146232171076752e-01 5.207868718193253699e+02
5.211146452219488356e-01 5.207661930292749730e+02
5.212146672267898850e-01 5.207431718995798064e+02
5.213146892316309344e-01 5.207178045354689857e+02
5.214147112364719838e-01 5.206900880202355211e+02
5.215147332413130332e-01 5.206600204211002847e+02
5.216147552461540826e-01 5.206276007946077016e+02
5.217147772509951320e-01 5.205928291915498676e+02
5.218147992558362924e-01 5.205557066614146606e+02
5.219148212606773418e-01 5.205162352563504555e+02
5.220148432655183912e-01 5.204744180346510802e+02
5.221148652703594406e-01 5.204302590637445292e+02
5.222148872752004900e-01 5.203837634226972568e+02
5.223149092800415394e-01 5.203349372042132472e+02
5.224149312848825888e-01 5.202837875161425245e+02
5.225149532897237492e-01 5.202303224824806875e+02
5.226149752945647986e-01 5.201745512438660626e+02
5.227149972994058480e-01 5.201164839575700398e+02
5.228150193042468974e-01 5.200561317969763877e+02
5.229150413090879468e-01 5.199935069505498859e+02
5.230150633139289962e-01 5.199286226202915486e+02
5.231150853187700456e-01 5.198614930196799833e+02
5.232151073236112060e-01 5.197921333710958152e+02
5.233151293284522554e-01 5.197205599027314520e+02
5.234151513332933048e-01 5.196467898449819813e+02
5.235151733381343542e-01 5.195708414263224313e+02
5.236151953429754036e-01 5.194927338686633220e+02
5.237152173478164530e-01 5.194124873821916708e+02
5.238152393526575024e-01 5.193301231596987009e+02
5.239152613574986628e-01 5.192456633703859552e+02
5.240152833623397122e-01 5.191591311531626616e+02
5.241153053671807616e-01 5.190705506094274142e+02
5.242153273720218110e-01 5.189799467953404246e+02
5.243153493768628604e-01 5.188873457135848639e+02
5.244153713817039097e-01 5.187927743046237765e+02
5.245153933865449591e-01 5.186962604374509738e+02
5.246154153913861196e-01 5.185978328998412508e+02
5.247154373962271690e-01 5.184975213881016316e+02
5.248154594010682183e-01 5.183953564963294411e+02
5.249154814059092677e-01 5.182913697051776580e+02
5.250155034107503171e-01 5.181855933701330059e+02
5.251155254155913665e-01 5.180780607093129220e+02
5.252155474204324159e-01 5.179688057907818575e+02
5.253155694252735763e-01 5.178578635193948685e+02
5.254155914301146257e-01 5.177452696231732716e+02
5.255156134349556751e-01 5.176310606392162299e+02
5.256156354397967245e-01 5.175152738991538399e+02
5.257156574446377739e-01 5.173979475141509283e+02
5.258156794494788233e-01 5.172791203594631497e+02
5.259157014543198727e-01 5.171588320585540259e+02
5.260157234591610331e-01 5.170371229667806574e+02
5.261157454640020825e-01 5.169140341546524269e+02
5.262157674688430209e-01 5.167896073906709944e+02
5.263157894736841813e-01 5.166638851237607923e+02
5.264158114785252307e-01 5.165369104652954775e+02
5.265158334833662801e-01 5.164087271707277296e+02
5.266158554882073295e-01 5.162793796208331969e+02
5.267158774930484899e-01 5.161489128025733635e+02
5.268158994978895393e-01 5.160173722895917763e+02
5.269159215027305887e-01 5.158848042223447692e+02
5.270159435075716381e-01 5.157512552878819179e+02
5.271159655124126875e-01 5.156167726992844109e+02
5.272159875172537369e-01 5.154814041747650890e+02
5.273160095220947863e-01 5.153451979164515251e+02
5.274160315269359467e-01 5.152082025888482804e+02
5.275160535317769961e-01 5.150704672970010733e+02
5.276160755366179345e-01 5.149320415643639990e+02
5.277160975414590949e-01 5.147929753103830990e+02
5.278161195463001443e-01 5.146533188278118587e+02
5.279161415511411937e-01 5.145131227597606767e+02
5.280161635559822431e-01 5.143724380764997477e+02
5.281161855608234035e-01 5.142313160520208157e+02
5.282162075656644529e-01 5.140898082403697344e+02
5.283162295705055023e-01 5.139479664517683659e+02
5.284162515753465517e-01 5.138058427285250218e+02
5.285162735801876011e-01 5.136634893207599362e+02
5.286162955850286504e-01 5.135209586619431548e+02
5.287163175898696998e-01 5.133783033442691703e+02
5.288163395947108603e-01 5.132355760938723961e+02
5.289163615995519097e-01 5.130928297459018950e+02
5.290163836043928480e-01 5.129501172194615037e+02
5.291164056092340084e-01 5.128074914924344512e+02
5.292164276140750578e-01 5.126650055762009970e+02
5.293164496189161072e-01 5.125227124902623927e+02
5.294164716237571566e-01 5.123806652367852621e+02
5.295164936285983170e-01 5.122389167750810657e+02
5.296165156334393664e-01 5.120975199960266764e+02
5.297165376382804158e-01 5.119565276964497116e+02
5.298165596431214652e-01 5.118159925534827721e+02
5.299165816479625146e-01 5.116759670989028450e+02
5.300166036528035640e-01 5.115365036934729233e+02
5.301166256576446134e-01 5.113976545012925499e+02
5.302166476624856628e-01 5.112594714641770679e+02
5.303166696673268232e-01 5.111220062760710903e+02
5.304166916721677616e-01 5.109853103575223372e+02
5.305167136770089220e-01 5.108494348302126582e+02
5.306167356818499714e-01 5.107144304915743760e+02
5.307167576866910208e-01 5.105803477894981484e+02
5.308167796915320702e-01 5.104472367971447397e+02
5.309168016963731196e-01 5.103151471878815642e+02
5.310168237012142800e-01 5.101841282103445110e+02
5.311168457060553294e-01 5.100542286636562039e+02
5.312168677108963788e-01 5.099254968727942696e+02
5.313168897157374282e-01 5.097979806641405389e+02
5.314169117205784776e-01 5.096717273412089071e+02
5.315169337254195270e-01 5.095467836605811840e+02
5.316169557302605764e-01 5.094231958080474101e+02
5.317169777351017368e-01 5.093010093749776956e+02
5.318169997399426752e-01 5.091802693349276296e+02
5.319170217447838356e-01 5.090610200204990292e+02
5.320170437496248850e-01 5.089433051004632489e+02
5.321170657544659344e-01 5.088271675571597257e+02
5.322170877593069838e-01 5.087126496641843687e+02
5.323171097641480332e-01 5.085997929643821180e+02
5.324171317689891936e-01 5.084886382481483338e+02
5.325171537738302430e-01 5.083792255320607296e+02
5.326171757786712924e-01 5.082715940378475352e+02
5.327171977835123418e-01 5.081657821717038246e+02
5.328172197883533912e-01 5.080618275039715854e+02
5.329172417931944405e-01 5.079597667491922266e+02
5.330172637980354899e-01 5.078596357465430629e+02
5.331172858028766504e-01 5.077614694406689750e+02
5.332173078077175887e-01 5.076653018629210692e+02
5.333173298125587491e-01 5.075711661130134758e+02
5.334173518173997985e-01 5.074790943411071567e+02
5.335173738222408479e-01 5.073891177303311792e+02
5.336173958270818973e-01 5.073012664797548155e+02
5.337174178319229467e-01 5.072155697878158662e+02
5.338174398367641071e-01 5.071320558362215252e+02
5.339174618416051565e-01 5.070507517743194512e+02
5.340174838464462059e-01 5.069716837039650272e+02
5.341175058512872553e-01 5.068948766648783248e+02
5.342175278561283047e-01 5.068203546205099315e+02
5.343175498609693541e-01 5.067481404444179702e+02
5.344175718658104035e-01 5.066782559071696141e+02
5.345175938706515639e-01 5.066107216637710735e+02
5.346176158754925023e-01 5.065455572416353220e+02
5.347176378803336627e-01 5.064827810290983621e+02
5.348176598851747121e-01 5.064224102644835739e+02
5.349176818900157615e-01 5.063644610257295540e+02
5.350177038948568109e-01 5.063089482205846252e+02
5.351177258996978603e-01 5.062558855773694404e+02
5.352177479045390207e-01 5.062052856363260389e+02
5.353177699093800701e-01 5.061571597415459678e+02
5.354177919142211195e-01 5.061115180334927572e+02
5.355178139190621689e-01 5.060683694421149994e+02
5.356178359239032183e-01 5.060277216805676517e+02
5.357178579287442677e-01 5.059895812395320718e+02
5.358178799335853171e-01 5.059539533821487680e+02
5.359179019384264775e-01 5.059208421395630353e+02
5.360179239432674159e-01 5.058902503070871148e+02
5.361179459481085763e-01 5.058621794409874042e+02
5.362179679529496257e-01 5.058366298558864855e+02
5.363179899577906751e-01 5.058136006228019141e+02
5.364180119626317245e-01 5.057930895678071579e+02
5.365180339674727739e-01 5.057750932713241241e+02
5.366180559723139343e-01 5.057596070680516505e+02
5.367180779771549837e-01 5.057466250475233096e+02
5.368180999819960331e-01 5.057361400553043609e+02
5.369181219868370825e-01 5.057281436948237001e+02
5.370181439916781319e-01 5.057226263298361459e+02
5.371181659965191812e-01 5.057195770875331391e+02
5.372181880013602306e-01 5.057189838622766729e+02
5.373182100062013911e-01 5.057208333199740764e+02
5.374182320110423294e-01 5.057251109030898419e+02
5.375182540158834898e-01 5.057318008362846058e+02
5.376182760207245392e-01 5.057408861326887290e+02
5.377182980255655886e-01 5.057523486008061013e+02
5.378183200304066380e-01 5.057661688520406642e+02
5.379183420352476874e-01 5.057823263088537828e+02
5.380183640400888478e-01 5.058007992135345035e+02
5.381183860449298972e-01 5.058215646375952588e+02
5.382184080497709466e-01 5.058445984917796068e+02
5.383184300546119960e-01 5.058698755366752948e+02
5.384184520594530454e-01 5.058973693939422560e+02
5.385184740642940948e-01 5.059270525581324591e+02
5.386184960691351442e-01 5.059588964091125263e+02
5.387185180739763046e-01 5.059928712250745093e+02
5.388185400788172430e-01 5.060289461961303346e+02
5.389185620836582924e-01 5.060670894384894041e+02
5.390185840884994528e-01 5.061072680092042901e+02
5.391186060933405022e-01 5.061494479214870239e+02
5.392186280981815516e-01 5.061935941605789822e+02
5.393186501030226010e-01 5.062396707001801133e+02
5.394186721078637614e-01 5.062876405194165841e+02
5.395186941127048108e-01 5.063374656203451423e+02
5.396187161175457492e-01 5.063891070459912385e+02
5.397187381223869096e-01 5.064425248988991370e+02
5.398187601272279590e-01 5.064976783602006662e+02
5.399187821320690084e-01 5.065545257091803251e+02
5.400188041369100578e-01 5.066130243433357236e+02
5.401188261417512182e-01 5.066731307989207380e+02
5.402188481465921566e-01 5.067348007719612042e+02
5.403188701514332060e-01 5.067979891397348524e+02
5.404188921562743664e-01 5.068626499827029193e+02
5.405189141611154158e-01 5.069287366068818983e+02
5.406189361659564652e-01 5.069962015666505408e+02
5.407189581707975146e-01 5.070649966879727231e+02
5.408189801756386750e-01 5.071350730920301544e+02
5.409190021804797244e-01 5.072063812192520800e+02
5.410190241853206627e-01 5.072788708537281082e+02
5.411190461901618232e-01 5.073524911479955790e+02
5.412190681950028726e-01 5.074271906481861834e+02
5.413190901998439220e-01 5.075029173195198950e+02
5.414191122046849713e-01 5.075796185721349048e+02
5.415191342095261318e-01 5.076572412872380937e+02
5.416191562143670701e-01 5.077357318435658726e+02
5.417191782192081195e-01 5.078150361441390714e+02
5.418192002240492799e-01 5.078950996433006253e+02
5.419192222288903293e-01 5.079758673740203108e+02
5.420192442337313787e-01 5.080572839754555616e+02
5.421192662385724281e-01 5.081392937207510840e+02
5.422192882434135885e-01 5.082218405450653904e+02
5.423193102482546379e-01 5.083048680738086205e+02
5.424193322530955763e-01 5.083883196510774383e+02
5.425193542579367367e-01 5.084721383682745568e+02
5.426193762627777861e-01 5.085562670928941316e+02
5.427193982676188355e-01 5.086406484974605178e+02
5.428194202724598849e-01 5.087252250886076013e+02
5.429194422773009343e-01 5.088099392362794902e+02
5.430194642821419837e-01 5.088947332030382995e+02
5.431194862869830331e-01 5.089795491734689108e+02
5.432195082918241935e-01 5.090643292836580258e+02
5.433195302966652429e-01 5.091490156507349525e+02
5.434195523015062923e-01 5.092335504024648571e+02
5.435195743063473417e-01 5.093178757068675395e+02
5.436195963111883911e-01 5.094019338018547387e+02
5.437196183160295515e-01 5.094856670248690875e+02
5.438196403208704899e-01 5.095690178425076056e+02
5.439196623257116503e-01 5.096519288801145535e+02
5.440196843305526997e-01 5.097343429513270507e+02
5.441197063353937491e-01 5.098162030875620871e+02
5.442197283402347985e-01 5.098974525674245797e+02
5.443197503450758479e-01 5.099780349460237403e+02
5.444197723499168973e-01 5.100578940841804183e+02
5.445197943547579467e-01 5.101369741775137641e+02
5.446198163595991071e-01 5.102152197853841926e+02
5.447198383644401565e-01 5.102925758596877586e+02
5.448198603692812059e-01 5.103689877734777838e+02
5.449198823741222553e-01 5.104444013494017440e+02
5.450199043789633047e-01 5.105187628879410227e+02
5.451199263838044651e-01 5.105920191954327834e+02
5.452199483886454034e-01 5.106641176118635030e+02
5.453199703934865639e-01 5.107350060384192716e+02
5.454199923983276133e-01 5.108046329647738162e+02
5.455200144031686627e-01 5.108729474961033930e+02
5.456200364080097120e-01 5.109398993798179163e+02
5.457200584128507614e-01 5.110054390319805862e+02
5.458200804176918108e-01 5.110695175634174916e+02
5.459201024225328602e-01 5.111320868054949074e+02
5.460201244273740206e-01 5.111930993355493911e+02
5.461201464322150700e-01 5.112525085019603353e+02
5.462201684370561194e-01 5.113102684488509908e+02
5.463201904418971688e-01 5.113663341404043194e+02
5.464202124467382182e-01 5.114206613847772473e+02
5.465202344515793786e-01 5.114732068576063284e+02
5.466202564564203170e-01 5.115239281250887302e+02
5.467202784612614774e-01 5.115727836666211488e+02
5.468203004661025268e-01 5.116197328969985847e+02
5.469203224709435762e-01 5.116647361881398979e+02
5.470203444757846256e-01 5.117077548903530442e+02
5.471203664806256750e-01 5.117487513531022501e+02
5.472203884854667244e-01 5.117876889452871865e+02
5.473204104903077738e-01 5.118245320750133942e+02
5.474204324951489342e-01 5.118592462088395223e+02
5.475204544999899836e-01 5.118917978905018344e+02
5.476204765048310330e-01 5.119221547590942691e+02
5.477204985096720824e-01 5.119502855667006997e+02
5.478205205145131318e-01 5.119761601954681964e+02
5.479205425193542922e-01 5.119997496741111149e+02
5.480205645241952306e-01 5.120210261938365193e+02
5.481205865290363910e-01 5.120399631236831510e+02
5.482206085338774404e-01 5.120565350252645658e+02
5.483206305387184898e-01 5.120707176669078535e+02
5.484206525435595392e-01 5.120824880371826566e+02
5.485206745484005886e-01 5.120918243578073543e+02
5.486206965532416380e-01 5.120987060959304245e+02
5.487207185580826874e-01 5.121031139757784558e+02
5.488207405629238478e-01 5.121050299896617162e+02
5.489207625677648972e-01 5.121044374083317052e+02
5.490207845726059466e-01 5.121013207906930802e+02
5.491208065774469960e-01 5.120956659928461931e+02
5.492208285822880454e-01 5.120874601764742238e+02
5.493208505871292058e-01 5.120766918165570587e+02
5.494208725919701441e-01 5.120633507084154417e+02
5.495208945968113046e-01 5.120474279740718657e+02
5.496209166016523540e-01 5.120289160679350289e+02
5.497209386064934034e-01 5.120078087817972801e+02
5.498209606113344528e-01 5.119841012491436345e+02
5.499209826161755021e-01 5.119577899487680952e+02
5.500210046210165515e-01 5.119288727077009185e+02
5.501210266258576009e-01 5.118973487034357959e+02
5.502210486306987614e-01 5.118632184654608182e+02
5.503210706355398107e-01 5.118264838760934481e+02
5.504210926403808601e-01 5.117871481706115446e+02
5.505211146452219095e-01 5.117452159366889646e+02
5.506211366500629589e-01 5.117006931131264764e+02
5.507211586549041193e-01 5.116535869878858875e+02
5.508211806597450577e-01 5.116039061954222689e+02
5.509212026645862181e-01 5.115516607133183129e+02
5.510212246694272675e-01 5.114968618582224167e+02
5.511212466742683169e-01 5.114395222810885571e+02
5.512212686791093663e-01 5.113796559617242110e+02
5.513212906839504157e-01 5.113172782026472305e+02
5.514213126887914651e-01 5.112524056222541162e+02
5.515213346936325145e-01 5.111850561472999743e+02
5.516213566984735639e-01 5.111152490047024912e+02
5.517213787033147243e-01 5.110430047126611157e+02
5.518214007081557737e-01 5.109683450711110027e+02
5.519214227129968231e-01 5.108912931514985303e+02
5.520214447178378725e-01 5.108118732858987414e+02
5.521214667226790329e-01 5.107301110554761863e+02
5.522214887275199713e-01 5.106460332782838236e+02
5.523215107323610207e-01 5.105596679964256737e+02
5.524215327372021811e-01 5.104710444625702053e+02
5.525215547420432305e-01 5.103801931258363425e+02
5.526215767468842799e-01 5.102871456170494184e+02
5.527215987517253293e-01 5.101919347333779911e+02
5.528216207565663787e-01 5.100945944223603874e+02
5.529216427614074281e-01 5.099951597653285376e+02
5.530216647662484775e-01 5.098936669602339862e+02
5.531216867710896379e-01 5.097901533038922821e+02
5.532217087759306873e-01 5.096846571736446094e+02
5.533217307807717367e-01 5.095772180084583738e+02
5.534217527856127861e-01 5.094678762894634474e+02
5.535217747904539465e-01 5.093566735199449340e+02
5.536217967952948849e-01 5.092436522047967173e+02
5.537218188001359342e-01 5.091288558294487530e+02
5.538218408049770947e-01 5.090123288382751525e+02
5.539218628098181441e-01 5.088941166125037512e+02
5.540218848146591935e-01 5.087742654476229518e+02
5.541219068195002428e-01 5.086528225303173372e+02
5.542219288243412922e-01 5.085298359149236376e+02
5.543219508291823416e-01 5.084053544994370668e+02
5.544219728340233910e-01 5.082794280010667762e+02
5.545219948388645514e-01 5.081521069313624253e+02
5.546220168437056008e-01 5.080234425709194284e+02
5.547220388485466502e-01 5.078934869436802728e+02
5.548220608533876996e-01 5.077622927908400357e+02
5.549220828582288600e-01 5.076299135443753130e+02
5.550221048630697984e-01 5.074964033002078168e+02
5.551221268679108478e-01 5.073618167910145189e+02
5.552221488727520082e-01 5.072262093587033291e+02
5.553221708775930576e-01 5.070896369265657313e+02
5.554221928824341070e-01 5.069521559711198506e+02
5.555222148872751564e-01 5.068138234936636763e+02
5.556222368921162058e-01 5.066746969915454315e+02
5.557222588969572552e-01 5.065348344291776925e+02
5.558222809017983046e-01 5.063942942087959977e+02
5.559223029066394650e-01 5.062531351409901390e+02
5.560223249114805144e-01 5.061114164150183115e+02
5.561223469163215638e-01 5.059691975689175933e+02
5.562223689211626132e-01 5.058265384594304805e+02
5.563223909260036626e-01 5.056834992317619708e+02
5.564224129308447120e-01 5.055401402891834550e+02
5.565224349356857614e-01 5.053965222624956937e+02
5.566224569405269218e-01 5.052527059793754916e+02
5.567224789453679712e-01 5.051087524336132901e+02
5.568225009502090206e-01 5.049647227542604355e+02
5.569225229550500700e-01 5.048206781747102241e+02
5.570225449598911194e-01 5.046766800017148284e+02
5.571225669647321688e-01 5.045327895843666965e+02
5.572225889695732182e-01 5.043890682830563605e+02
5.573226109744143786e-01 5.042455774384179108e+02
5.574226329792554280e-01 5.041023783402930007e+02
5.575226549840964774e-01 5.039595321967119617e+02
5.576226769889375268e-01 5.038171001029189142e+02
5.577226989937785762e-01 5.036751430104603173e+02
5.578227209986196256e-01 5.035337216963404217e+02
5.579227430034606749e-01 5.033928967322748917e+02
5.580227650083018354e-01 5.032527284540477694e+02
5.581227870131428848e-01 5.031132769309926971e+02
5.582228090179839342e-01 5.029746019356155102e+02
5.583228310228249835e-01 5.028367629133715013e+02
5.584228530276660329e-01 5.026998189526149190e+02
5.585228750325070823e-01 5.025638287547335494e+02
5.586228970373481317e-01 5.024288506044961196e+02
5.587229190421892921e-01 5.022949423406049050e+02
5.588229410470303415e-01 5.021621613264950383e+02
5.589229630518713909e-01 5.020305644213810865e+02
5.590229850567124403e-01 5.019002079515657897e+02
5.591230070615534897e-01 5.017711476820333019e+02
5.592230290663945391e-01 5.016434387883385284e+02
5.593230510712355885e-01 5.015171358288044416e+02
5.594230730760767489e-01 5.013922927170501680e+02
5.595230950809177983e-01 5.012689626948515524e+02
5.596231170857588477e-01 5.011471983053647818e+02
5.597231390905998971e-01 5.010270513667121577e+02
5.598231610954409465e-01 5.009085729459537788e+02
5.599231831002819959e-01 5.007918133334534332e+02
5.600232051051230453e-01 5.006768220176577984e+02
5.601232271099642057e-01 5.005636476602952598e+02
5.602232491148052551e-01 5.004523380720137880e+02
5.603232711196461935e-01 5.003429401884652634e+02
5.604232931244873539e-01 5.002355000468546677e+02
5.605233151293284033e-01 5.001300627629631208e+02
5.606233371341694527e-01 5.000266725086539168e+02
5.607233591390105021e-01 4.999253724898801465e+02
5.608233811438516625e-01 4.998262049252022052e+02
5.609234031486927119e-01 4.997292110248230870e+02
5.610234251535337613e-01 4.996344309701590305e+02
5.611234471583748107e-01 4.995419038939536449e+02
5.612234691632158601e-01 4.994516678609392102e+02
5.613234911680569095e-01 4.993637598490687424e+02
5.614235131728979589e-01 4.992782157313191647e+02
5.615235351777391193e-01 4.991950702580722350e+02
5.616235571825801687e-01 4.991143570400951148e+02
5.617235791874211071e-01 4.990361085321161454e+02
5.618236011922622675e-01 4.989603560170130550e+02
5.619236231971033169e-01 4.988871295906168370e+02
5.620236452019443663e-01 4.988164581471416454e+02
5.621236672067854157e-01 4.987483693652495731e+02
5.622236892116265761e-01 4.986828896947522480e+02
5.623237112164676255e-01 4.986200443439622632e+02
5.624237332213086749e-01 4.985598572676980211e+02
5.625237552261497243e-01 4.985023511559464851e+02
5.626237772309907736e-01 4.984475474231929866e+02
5.627237992358318230e-01 4.983954661984225822e+02
5.628238212406728724e-01 4.983461263157950043e+02
5.629238432455140329e-01 4.982995453060033242e+02
5.630238652503550822e-01 4.982557393883164423e+02
5.631238872551960206e-01 4.982147234633081325e+02
5.632239092600371810e-01 4.981765111062840106e+02
5.633239312648782304e-01 4.981411145613995473e+02
5.634239532697192798e-01 4.981085447364774836e+02
5.635239752745603292e-01 4.980788111985307296e+02
5.636239972794014896e-01 4.980519221699814807e+02
5.637240192842425390e-01 4.980278845255895703e+02
5.638240412890835884e-01 4.980067037900875562e+02
5.639240632939246378e-01 4.979883841365194712e+02
5.640240852987656872e-01 4.979729283852882418e+02
5.641241073036067366e-01 4.979603380039156946e+02
5.642241293084477860e-01 4.979506131075000326e+02
5.643241513132889464e-01 4.979437524598904474e+02
5.644241733181299958e-01 4.979397534755607353e+02
5.645241953229709342e-01 4.979386122221915230e+02
5.646242173278120946e-01 4.979403234239508720e+02
5.647242393326531440e-01 4.979448804654809919e+02
5.648242613374941934e-01 4.979522753965763968e+02
5.649242833423352428e-01 4.979624989375639643e+02
5.650243053471762922e-01 4.979755404853687537e+02
5.651243273520174526e-01 4.979913881202722337e+02
5.652243493568585020e-01 4.980100286133520058e+02
5.653243713616995514e-01 4.980314474346028533e+02
5.654243933665406008e-01 4.980556287617315547e+02
5.655244153713816502e-01 4.980825554896222229e+02
5.656244373762226996e-01 4.981122092404644945e+02
5.657244593810637490e-01 4.981445703745429228e+02
5.658244813859049094e-01 4.981796180016748394e+02
5.659245033907458478e-01 4.982173299932979944e+02
5.660245253955870082e-01 4.982576829951927948e+02
5.661245474004280576e-01 4.983006524408378937e+02
5.662245694052691070e-01 4.983462125653904877e+02
5.663245914101101564e-01 4.983943364202804105e+02
5.664246134149512057e-01 4.984449958884138141e+02
5.665246354197923662e-01 4.984981616999745597e+02
5.666246574246334156e-01 4.985538034488145058e+02
5.667246794294744650e-01 4.986118896094280331e+02
5.668247014343155143e-01 4.986723875544945486e+02
5.669247234391565637e-01 4.987352635729843655e+02
5.670247454439976131e-01 4.988004828888140310e+02
5.671247674488386625e-01 4.988680096800452475e+02
5.672247894536798229e-01 4.989378070986097100e+02
5.673248114585207613e-01 4.990098372905563338e+02
5.674248334633619217e-01 4.990840614168049001e+02
5.675248554682029711e-01 4.991604396743969119e+02
5.676248774730440205e-01 4.992389313182261503e+02
5.677248994778850699e-01 4.993194946832491041e+02
5.678249214827261193e-01 4.994020872071491226e+02
5.679249434875672797e-01 4.994866654534464487e+02
5.680249654924083291e-01 4.995731851350512898e+02
5.681249874972493785e-01 4.996616011382275246e+02
5.682250095020904279e-01 4.997518675469712548e+02
5.683250315069314773e-01 4.998439376677826544e+02
5.684250535117725267e-01 4.999377640548146928e+02
5.685250755166135761e-01 5.000332985353944082e+02
5.686250975214547365e-01 5.001304922358926888e+02
5.687251195262956749e-01 5.002292956079346595e+02
5.688251415311368353e-01 5.003296584549320869e+02
5.689251635359778847e-01 5.004315299589258075e+02
5.690251855408189341e-01 5.005348587077259594e+02
5.691252075456599835e-01 5.006395927223242097e+02
5.692252295505010329e-01 5.007456794845784884e+02
5.693252515553421933e-01 5.008530659651417523e+02
5.694252735601832427e-01 5.009616986516268184e+02
5.695252955650242921e-01 5.010715235769879428e+02
5.696253175698653415e-01 5.011824863481076591e+02
5.697253395747063909e-01 5.012945321745683032e+02
5.698253615795474403e-01 5.014076058975956585e+02
5.699253835843884897e-01 5.015216520191581822e+02
5.700254055892296501e-01 5.016366147312064072e+02
5.701254275940705885e-01 5.017524379450335346e+02
5.702254495989117489e-01 5.018690653207478363e+02
5.703254716037527983e-01 5.019864402968297554e+02
5.704254936085938477e-01 5.021045061197714858e+02
5.705255156134348971e-01 5.022232058737703255e+02
5.706255376182759464e-01 5.023424825104668798e+02
5.707255596231171069e-01 5.024622788787096397e+02
5.708255816279581563e-01 5.025825377543299624e+02
5.709256036327992057e-01 5.027032018699109699e+02
5.710256256376402551e-01 5.028242139445347902e+02
5.711256476424813044e-01 5.029455167134912017e+02
5.712256696473223538e-01 5.030670529579322761e+02
5.713256916521634032e-01 5.031887655344559676e+02
5.714257136570045637e-01 5.033105974046038114e+02
5.715257356618455020e-01 5.034324916642578955e+02
5.716257576666866624e-01 5.035543915729144260e+02
5.717257796715277118e-01 5.036762405828280293e+02
5.718258016763687612e-01 5.037979823680043410e+02
5.719258236812098106e-01 5.039195608530272352e+02
5.720258456860508600e-01 5.040409202417033612e+02
5.721258676908920204e-01 5.041620050455137516e+02
5.722258896957330698e-01 5.042827601118467555e+02
5.723259117005741192e-01 5.044031306520124645e+02
5.724259337054151686e-01 5.045230622690077098e+02
5.725259557102562180e-01 5.046425009850294146e+02
5.726259777150972674e-01 5.047613932687104352e+02
5.727259997199383168e-01 5.048796860620739153e+02
5.728260217247794772e-01 5.049973268071839811e+02
5.729260437296204156e-01 5.051142634724839127e+02
5.730260657344615760e-01 5.052304445788006433e+02
5.731260877393026254e-01 5.053458192250107572e+02
5.732261097441436748e-01 5.054603371133476912e+02
5.733261317489847242e-01 5.055739485743379760e+02
5.734261537538257736e-01 5.056866045913558310e+02
5.735261757586669340e-01 5.057982568247810491e+02
5.736261977635079834e-01 5.059088576357455622e+02
5.737262197683489218e-01 5.060183601094609003e+02
5.738262417731900822e-01 5.061267180781102297e+02
5.739262637780311316e-01 5.062338861432934323e+02
5.740262857828721810e-01 5.063398196980161856e+02
5.741263077877132304e-01 5.064444749482077555e+02
5.742263297925543908e-01 5.065478089337600522e+02
5.743263517973953292e-01 5.066497795490716385e+02
5.744263738022363786e-01 5.067503455630918552e+02
5.745263958070775390e-01 5.068494666388531869e+02
5.746264178119185884e-01 5.069471033524756081e+02
5.747264398167596378e-01 5.070432172116445031e+02
5.748264618216006872e-01 5.071377706735393645e+02
5.749264838264418476e-01 5.072307271622187272e+02
5.750265058312828970e-01 5.073220510854365557e+02
5.751265278361238353e-01 5.074117078508946861e+02
5.752265498409649958e-01 5.074996638819183659e+02
5.753265718458060451e-01 5.075858866325400527e+02
5.754265938506470945e-01 5.076703446020000570e+02
5.755266158554881439e-01 5.077530073486376523e+02
5.756266378603293044e-01 5.078338455031825447e+02
5.757266598651702427e-01 5.079128307814261234e+02
5.758266818700112921e-01 5.079899359962789163e+02
5.759267038748524525e-01 5.080651350691981634e+02
5.760267258796935019e-01 5.081384030409845423e+02
5.761267478845345513e-01 5.082097160819439523e+02
5.762267698893756007e-01 5.082790515014066841e+02
5.763267918942167611e-01 5.083463877566022688e+02
5.764268138990578105e-01 5.084117044608802871e+02
5.765268359038987489e-01 5.084749823912848115e+02
5.766268579087399093e-01 5.085362034954633828e+02
5.767268799135809587e-01 5.085953508979238791e+02
5.768269019184220081e-01 5.086524089056214848e+02
5.769269239232630575e-01 5.087073630128870718e+02
5.770269459281042179e-01 5.087601999056858517e+02
5.771269679329451563e-01 5.088109074652060713e+02
5.772269899377862057e-01 5.088594747707812758e+02
5.773270119426273661e-01 5.089058921021429001e+02
5.774270339474684155e-01 5.089501509409973323e+02
5.775270559523094649e-01 5.089922439719393310e+02
5.776270779571505143e-01 5.090321650826880386e+02
5.777270999619915637e-01 5.090699093636600310e+02
5.778271219668327241e-01 5.091054731068693400e+02
5.779271439716736625e-01 5.091388538041617835e+02
5.780271659765148229e-01 5.091700501447879219e+02
5.781271879813558723e-01 5.091990620123028748e+02
5.782272099861969217e-01 5.092258904808206808e+02
5.783272319910379711e-01 5.092505378105969385e+02
5.784272539958790205e-01 5.092730074429679803e+02
5.785272760007200699e-01 5.092933039946325948e+02
5.786272980055611193e-01 5.093114332512920441e+02
5.787273200104022797e-01 5.093274021606449082e+02
5.788273420152433291e-01 5.093412188247464201e+02
5.789273640200843785e-01 5.093528924917355880e+02
5.790273860249254279e-01 5.093624335469341418e+02
5.791274080297664772e-01 5.093698535033265671e+02
5.792274300346076377e-01 5.093751649914236168e+02
5.793274520394485760e-01 5.093783817485181658e+02
5.794274740442897365e-01 5.093795186073402306e+02
5.795274960491307858e-01 5.093785914841144518e+02
5.796275180539718352e-01 5.093756173660345894e+02
5.797275400588128846e-01 5.093706142981562266e+02
5.798275620636539340e-01 5.093636013697192766e+02
5.799275840684949834e-01 5.093545986999056367e+02
5.800276060733360328e-01 5.093436274230474510e+02
5.801276280781771932e-01 5.093307096732826835e+02
5.802276500830182426e-01 5.093158685686839249e+02
5.803276720878592920e-01 5.092991281948521873e+02
5.804276940927003414e-01 5.092805135880015541e+02
5.805277160975413908e-01 5.092600507175310440e+02
5.806277381023825512e-01 5.092377664681080773e+02
5.807277601072234896e-01 5.092136886212574609e+02
5.808277821120646500e-01 5.091878458364862468e+02
5.809278041169056994e-01 5.091602676319363923e+02
5.810278261217467488e-01 5.091309843645922797e+02
5.811278481265877982e-01 5.091000272100450843e+02
5.812278701314288476e-01 5.090674281418298506e+02
5.813278921362698970e-01 5.090332199103473840e+02
5.814279141411109464e-01 5.089974360213793716e+02
5.815279361459521068e-01 5.089601107142196952e+02
5.816279581507931562e-01 5.089212789394189826e+02
5.817279801556342056e-01 5.088809763361683736e+02
5.818280021604752550e-01 5.088392392093328453e+02
5.819280241653163044e-01 5.087961045061416598e+02
5.820280461701574648e-01 5.087516097925554845e+02
5.821280681749984032e-01 5.087057932293234899e+02
5.822280901798395636e-01 5.086586935477408815e+02
5.823281121846806130e-01 5.086103500251228979e+02
5.824281341895216624e-01 5.085608024600095405e+02
5.825281561943627118e-01 5.085100911471154745e+02
5.826281781992037612e-01 5.084582568520394261e+02
5.827282002040448106e-01 5.084053407857446132e+02
5.828282222088858600e-01 5.083513845788310164e+02
5.829282442137270204e-01 5.082964302556092662e+02
5.830282662185680698e-01 5.082405202079910396e+02
5.831282882234091192e-01 5.081836971692129623e+02
5.832283102282501686e-01 5.081260041874108424e+02
5.833283322330912180e-01 5.080674845990531594e+02
5.834283542379323784e-01 5.080081820022525676e+02
5.835283762427733167e-01 5.079481402299753086e+02
5.836283982476144772e-01 5.078874033231505791e+02
5.837284202524555266e-01 5.078260155037135064e+02
5.838284422572965759e-01 5.077640211475775232e+02
5.839284642621376253e-01 5.077014647575675781e+02
5.840284862669786747e-01 5.076383909363191833e+02
5.841285082718197241e-01 5.075748443591634214e+02
5.842285302766607735e-01 5.075108697470115544e+02
5.843285522815019339e-01 5.074465118392558338e+02
5.844285742863429833e-01 5.073818153666983335e+02
5.845285962911840327e-01 5.073168250245295212e+02
5.846286182960250821e-01 5.072515854453640713e+02
5.847286403008661315e-01 5.071861411723525634e+02
5.848286623057072919e-01 5.071205366323893031e+02
5.849286843105482303e-01 5.070548161094176862e+02
5.850287063153893907e-01 5.069890237178660755e+02
5.851287283202304401e-01 5.069232033762107221e+02
5.852287503250714895e-01 5.068573987806937566e+02
5.853287723299125389e-01 5.067916533792075597e+02
5.854287943347535883e-01 5.067260103453539841e+02
5.855288163395946377e-01 5.066605125527011069e+02
5.856288383444356871e-01 5.065952025492481994e+02
5.857288603492768475e-01 5.065301225321100560e+02
5.858288823541178969e-01 5.064653143224417136e+02
5.859289043589589463e-01 5.064008193406106102e+02
5.860289263637999957e-01 5.063366785816326683e+02
5.861289483686410451e-01 5.062729325908886153e+02
5.862289703734822055e-01 5.062096214401265115e+02
5.863289923783231439e-01 5.061467847037727665e+02
5.864290143831641933e-01 5.060844614355557951e+02
5.865290363880053537e-01 5.060226901454639119e+02
5.866290583928464031e-01 5.059615087770413879e+02
5.867290803976874525e-01 5.059009546850409720e+02
5.868291024025285019e-01 5.058410646134439617e+02
5.869291244073695513e-01 5.057818746738562368e+02
5.870291464122106007e-01 5.057234203242997523e+02
5.871291684170516501e-01 5.056657363483994914e+02
5.872291904218928105e-01 5.056088568349882166e+02
5.873292124267338599e-01 5.055528151581344218e+02
5.874292344315749093e-01 5.054976439576051916e+02
5.875292564364159587e-01 5.054433751197716447e+02
5.876292784412571191e-01 5.053900397589749787e+02
5.877293004460980574e-01 5.053376681993534589e+02
5.878293224509391068e-01 5.052862899571481421e+02
5.879293444557802673e-01 5.052359337234899499e+02
5.880293664606213166e-01 5.051866273476833840e+02
5.881293884654623660e-01 5.051383978209896668e+02
5.882294104703034154e-01 5.050912712609240884e+02
5.883294324751444648e-01 5.050452728960715376e+02
5.884294544799855142e-01 5.050004270514261862e+02
5.885294764848265636e-01 5.049567571342715837e+02
5.886294984896677240e-01 5.049142856205978092e+02
5.887295204945087734e-01 5.048730340420698894e+02
5.888295424993498228e-01 5.048330229735535681e+02
5.889295645041908722e-01 5.047942720211974574e+02
5.890295865090320326e-01 5.047567998110914687e+02
5.891296085138729710e-01 5.047206239784924833e+02
5.892296305187140204e-01 5.046857611576301110e+02
5.893296525235551808e-01 5.046522269721008911e+02
5.894296745283962302e-01 5.046200360258468436e+02
5.895296965332372796e-01 5.045892018947281485e+02
5.896297185380783290e-01 5.045597371186943860e+02
5.897297405429193784e-01 5.045316531945571228e+02
5.898297625477604278e-01 5.045049605693629360e+02
5.899297845526014772e-01 5.044796686343798910e+02
5.900298065574426376e-01 5.044557857196854798e+02
5.901298285622836870e-01 5.044333190893777896e+02
5.902298505671247364e-01 5.044122749373900092e+02
5.903298725719657858e-01 5.043926583839243563e+02
5.904298945768069462e-01 5.043744734725086118e+02
5.905299165816478846e-01 5.043577231676609358e+02
5.906299385864889340e-01 5.043424093531801873e+02
5.907299605913300944e-01 5.043285328310496425e+02
5.908299825961711438e-01 5.043160933209665018e+02
5.909300046010121932e-01 5.043050894604790528e+02
5.910300266058532426e-01 5.042955188057494524e+02
5.911300486106942920e-01 5.042873778329278025e+02
5.912300706155353414e-01 5.042806619401436592e+02
5.913300926203763908e-01 5.042753654501060510e+02
5.914301146252175512e-01 5.042714816133168370e+02
5.915301366300586006e-01 5.042690026118897322e+02
5.916301586348996500e-01 5.042679195639759087e+02
5.917301806397406994e-01 5.042682225287883853e+02
5.918302026445817487e-01 5.042699005122277072e+02
5.919302246494227981e-01 5.042729414730960684e+02
5.920302466542638475e-01 5.042773323299088588e+02
5.921302686591050080e-01 5.042830589682830578e+02
5.922302906639460574e-01 5.042901062489107176e+02
5.923303126687871067e-01 5.042984580161079293e+02
5.924303346736281561e-01 5.043080971069283578e+02
5.925303566784692055e-01 5.043190053608457788e+02
5.926303786833102549e-01 5.043311636299901011e+02
5.927304006881513043e-01 5.043445517899369293e+02
5.928304226929924647e-01 5.043591487510379352e+02
5.929304446978335141e-01 5.043749324702930039e+02
5.930304667026745635e-01 5.043918799637463053e+02
5.931304887075156129e-01 5.044099673194099296e+02
5.932305107123566623e-01 5.044291697106962147e+02
5.933305327171977117e-01 5.044494614103622325e+02
5.934305547220387611e-01 5.044708158049439817e+02
5.935305767268799215e-01 5.044932054096860838e+02
5.936305987317209709e-01 5.045166018839464641e+02
5.937306207365620203e-01 5.045409760470740821e+02
5.938306427414030697e-01 5.045662978947437978e+02
5.939306647462441191e-01 5.045925366157488838e+02
5.940306867510851685e-01 5.046196606092239563e+02
5.941307087559262179e-01 5.046476375023101468e+02
5.942307307607673783e-01 5.046764341682312534e+02
5.943307527656084277e-01 5.047060167447847334e+02
5.944307747704494771e-01 5.047363506532282713e+02
5.945307967752905265e-01 5.047674006175549266e+02
5.946308187801315759e-01 5.047991306841444157e+02
5.947308407849726253e-01 5.048315042417763721e+02
5.948308627898136747e-01 5.048644840420030278e+02
5.949308847946548351e-01 5.048980322198527801e+02
5.950309067994958845e-01 5.049321103148710677e+02
5.951309288043369339e-01 5.049666792924718948e+02
5.952309508091779833e-01 5.050016995655987557e+02
5.953309728140190327e-01 5.050371310166717649e+02
5.954309948188600821e-01 5.050729330198167304e+02
5.955310168237011315e-01 5.051090644633580382e+02
5.956310388285422919e-01 5.051454837725673883e+02
5.957310608333833413e-01 5.051821489326497385e+02
5.958310828382242796e-01 5.052190175119560536e+02
5.959311048430654401e-01 5.052560466854095580e+02
5.960311268479064895e-01 5.052931932581334991e+02
5.961311488527475388e-01 5.053304136892605811e+02
5.962311708575885882e-01 5.053676641159214000e+02
5.963311928624297487e-01 5.054049003773857294e+02
5.964312148672707981e-01 5.054420780393531913e+02
5.965312368721118474e-01 5.054791524183714841e+02
5.966312588769528968e-01 5.055160786063765954e+02
5.967312808817939462e-01 5.055528114953318664e+02
5.968313028866349956e-01 5.055893058019609043e+02
5.969313248914760450e-01 5.056255160925504697e+02
5.970313468963172054e-01 5.056613968078230528e+02
5.971313689011582548e-01 5.056969022878467968e+02
5.972313909059991932e-01 5.057319867969887355e+02
5.973314129108403536e-01 5.057666045488803093e+02
5.974314349156814030e-01 5.058007097313908957e+02
5.975314569205224524e-01 5.058342565315942352e+02
5.976314789253635018e-01 5.058671991607090490e+02
5.977315009302046622e-01 5.058994918790056090e+02
5.978315229350457116e-01 5.059310890206605791e+02
5.979315449398867610e-01 5.059619450185487040e+02
5.980315669447278104e-01 5.059920144289544055e+02
5.981315889495688598e-01 5.060212519561933959e+02
5.982316109544099092e-01 5.060496124771277664e+02
5.983316329592509586e-01 5.060770510655640351e+02
5.984316549640921190e-01 5.061035230165149983e+02
5.985316769689331684e-01 5.061289838703170858e+02
5.986316989737741068e-01 5.061533894365927040e+02
5.987317209786152672e-01 5.061766958180314759e+02
5.988317429834563166e-01 5.061988594339950396e+02
5.989317649882973660e-01 5.062198370439169253e+02
5.990317869931384154e-01 5.062395857704950686e+02
5.991318089979795758e-01 5.062580631226568926e+02
5.992318310028206252e-01 5.062752270182930374e+02
5.993318530076616746e-01 5.062910358067368861e+02
5.994318750125027240e-01 5.063054482909867602e+02
5.995318970173437734e-01 5.063184237496532774e+02
5.996319190221848228e-01 5.063299219586230606e+02
5.997319410270258722e-01 5.063399032124253836e+02
5.998319630318669216e-01 5.063483283452894170e+02
5.999319850367080820e-01 5.063551587518854831e+02
6.000320070415490203e-01 5.063603564077316150e+02
6.001320290463901808e-01 5.063638838892628087e+02
6.002320510512312302e-01 5.063657043935452862e+02
6.003320730560722795e-01 5.063657817576291791e+02
6.004320950609133289e-01 5.063640804775288302e+02
6.005321170657543783e-01 5.063605657268205960e+02
6.006321390705955388e-01 5.063552033748473491e+02
6.007321610754365881e-01 5.063479600045198481e+02
6.008321830802776375e-01 5.063388029297098001e+02
6.009322050851186869e-01 5.063277002122179624e+02
6.010322270899597363e-01 5.063146206783193293e+02
6.011322490948007857e-01 5.062995339348627226e+02
6.012322710996418351e-01 5.062824103849304720e+02
6.013322931044829955e-01 5.062632212430404479e+02
6.014323151093239339e-01 5.062419385498894258e+02
6.015323371141650943e-01 5.062185351866215797e+02
6.016323591190061437e-01 5.061929848886272794e+02
6.017323811238471931e-01 5.061652622588530903e+02
6.018324031286882425e-01 5.061353427806249101e+02
6.019324251335292919e-01 5.061032028299711101e+02
6.020324471383704523e-01 5.060688196874481264e+02
6.021324691432115017e-01 5.060321715494525279e+02
6.022324911480525511e-01 5.059932375390239372e+02
6.023325131528936005e-01 5.059519977161249358e+02
6.024325351577346499e-01 5.059084330874024431e+02
6.025325571625756993e-01 5.058625256154128920e+02
6.026325791674167487e-01 5.058142582273243875e+02
6.027326011722579091e-01 5.057636148230753292e+02
6.028326231770988475e-01 5.057105802829955223e+02
6.029326451819400079e-01 5.056551404748842060e+02
6.030326671867810573e-01 5.055972822605397141e+02
6.031326891916221067e-01 5.055369935017442344e+02
6.032327111964631561e-01 5.054742630656914457e+02
6.033327332013042055e-01 5.054090808298664115e+02
6.034327552061453659e-01 5.053414376863638608e+02
6.035327772109864153e-01 5.052713255456576462e+02
6.036327992158274647e-01 5.051987373398046657e+02
6.037328212206685141e-01 5.051236670250958696e+02
6.038328432255095635e-01 5.050461095841445172e+02
6.039328652303506129e-01 5.049660610274204942e+02
6.040328872351916623e-01 5.048835183942160256e+02
6.041329092400328227e-01 5.047984797530654077e+02
6.042329312448737610e-01 5.047109442015968170e+02
6.043329532497149215e-01 5.046209118658317152e+02
6.044329752545559709e-01 5.045283838989305423e+02
6.045329972593970203e-01 5.044333624793819126e+02
6.046330192642380696e-01 5.043358508086406005e+02
6.047330412690791190e-01 5.042358531082203399e+02
6.048330632739202795e-01 5.041333746162363241e+02
6.049330852787613289e-01 5.040284215834051338e+02
6.050331072836023782e-01 5.039210012685055062e+02
6.051331292884434276e-01 5.038111219333024451e+02
6.052331512932844770e-01 5.036987928369381962e+02
6.053331732981255264e-01 5.035840242297952045e+02
6.054331953029665758e-01 5.034668273468342932e+02
6.055332173078077362e-01 5.033472144004136908e+02
6.056332393126486746e-01 5.032251985725961276e+02
6.057332613174898350e-01 5.031007940069421238e+02
6.058332833223308844e-01 5.029740157998044197e+02
6.059333053271719338e-01 5.028448799911225819e+02
6.060333273320129832e-01 5.027134035547281883e+02
6.061333493368540326e-01 5.025796043881616697e+02
6.062333713416951930e-01 5.024435013020146812e+02
6.063333933465362424e-01 5.023051140087980002e+02
6.064334153513772918e-01 5.021644631113471178e+02
6.065334373562183412e-01 5.020215700907702967e+02
6.066334593610593906e-01 5.018764572939476238e+02
6.067334813659004400e-01 5.017291479205883888e+02
6.068335033707414894e-01 5.015796660098569646e+02
6.069335253755826498e-01 5.014280364265699745e+02
6.070335473804235882e-01 5.012742848469836758e+02
6.071335693852647486e-01 5.011184377441685456e+02
6.072335913901057980e-01 5.009605223729875547e+02
6.073336133949468474e-01 5.008005667546854056e+02
6.074336353997878968e-01 5.006385996610989650e+02
6.075336574046289462e-01 5.004746505984956002e+02
6.076336794094701066e-01 5.003087497910522643e+02
6.077337014143111560e-01 5.001409281639873257e+02
6.078337234191522054e-01 4.999712173263473005e+02
6.079337454239932548e-01 4.997996495534668497e+02
6.080337674288343042e-01 4.996262577691111346e+02
6.081337894336753536e-01 4.994510755273040559e+02
6.082338114385164030e-01 4.992741369938681828e+02
6.083338334433575634e-01 4.990954769276678462e+02
6.084338554481985017e-01 4.989151306615842714e+02
6.085338774530395511e-01 4.987331340832236606e+02
6.086338994578807116e-01 4.985495236153712995e+02
6.087339214627217610e-01 4.983643361962068070e+02
6.088339434675628103e-01 4.981776092592879195e+02
6.089339654724038597e-01 4.979893807133166774e+02
6.090339874772450202e-01 4.977996889217005787e+02
6.091340094820860696e-01 4.976085726819164279e+02
6.092340314869270079e-01 4.974160712046960384e+02
6.093340534917681683e-01 4.972222240930383350e+02
6.094340754966092177e-01 4.970270713210643976e+02
6.095340975014502671e-01 4.968306532127269861e+02
6.096341195062913165e-01 4.966330104203868245e+02
6.097341415111324769e-01 4.964341839032675807e+02
6.098341635159734153e-01 4.962342149057990923e+02
6.099341855208144647e-01 4.960331449358685632e+02
6.100342075256556251e-01 4.958310157429845049e+02
6.101342295304966745e-01 4.956278692963695107e+02
6.102342515353377239e-01 4.954237477629953901e+02
6.103342735401787733e-01 4.952186934855683376e+02
6.104342955450199337e-01 4.950127489604841458e+02
6.105343175498609831e-01 4.948059568157575541e+02
6.106343395547019215e-01 4.945983597889431849e+02
6.107343615595430819e-01 4.943900007050609702e+02
6.108343835643841313e-01 4.941809224545363577e+02
6.109344055692251807e-01 4.939711679711668921e+02
6.110344275740662301e-01 4.937607802101292691e+02
6.111344495789073905e-01 4.935498021260401629e+02
6.112344715837483289e-01 4.933382766510800934e+02
6.113344935885893783e-01 4.931262466731934637e+02
6.114345155934305387e-01 4.929137550143784097e+02
6.115345375982715881e-01 4.927008444090771491e+02
6.116345596031126375e-01 4.924875574826770617e+02
6.117345816079536869e-01 4.922739367301383595e+02
6.118346036127948473e-01 4.920600244947582951e+02
6.119346256176358967e-01 4.918458629470782171e+02
6.120346476224768351e-01 4.916314940639553583e+02
6.121346696273179955e-01 4.914169596078031645e+02
6.122346916321590449e-01 4.912023011060095996e+02
6.123347136370000943e-01 4.909875598305570179e+02
6.124347356418411437e-01 4.907727767778354178e+02
6.125347576466821931e-01 4.905579926486786917e+02
6.126347796515232424e-01 4.903432478286209744e+02
6.127348016563642918e-01 4.901285823683921876e+02
6.128348236612054523e-01 4.899140359646577849e+02
6.129348456660465017e-01 4.896996479410158258e+02
6.130348676708875510e-01 4.894854572292611579e+02
6.131348896757286004e-01 4.892715023509242656e+02
6.132349116805696498e-01 4.890578213990989980e+02
6.133349336854108103e-01 4.888444520205606523e+02
6.134349556902517486e-01 4.886314313981974919e+02
6.135349776950929090e-01 4.884187962337466615e+02
6.136349996999339584e-01 4.882065827308603616e+02
6.137350217047750078e-01 4.879948265784989303e+02
6.138350437096160572e-01 4.877835629346679980e+02
6.139350657144571066e-01 4.875728264104993173e+02
6.140350877192981560e-01 4.873626510546931740e+02
6.141351097241392054e-01 4.871530703383214131e+02
6.142351317289803658e-01 4.869441171400026747e+02
6.143351537338214152e-01 4.867358237314591065e+02
6.144351757386624646e-01 4.865282217634565995e+02
6.145351977435035140e-01 4.863213422521425855e+02
6.146352197483445634e-01 4.861152155657753724e+02
6.147352417531857238e-01 4.859098714118712792e+02
6.148352637580266622e-01 4.857053388247547900e+02
6.149352857628678226e-01 4.855016461535313397e+02
6.150353077677088720e-01 4.852988210504849462e+02
6.151353297725499214e-01 4.850968904599012603e+02
6.152353517773909708e-01 4.848958806073300138e+02
6.153353737822320202e-01 4.846958169892849355e+02
6.154353957870730696e-01 4.844967243633855674e+02
6.155354177919141190e-01 4.842986267389510999e+02
6.156354397967552794e-01 4.841015473680452601e+02
6.157354618015963288e-01 4.839055087369766852e+02
6.158354838064373782e-01 4.837105325582612068e+02
6.159355058112784276e-01 4.835166397630441679e+02
6.160355278161194770e-01 4.833238504939926656e+02
6.161355498209606374e-01 4.831321840986527150e+02
6.162355718258015758e-01 4.829416591232810561e+02
6.163355938306427362e-01 4.827522933071488751e+02
6.164356158354837856e-01 4.825641035773200542e+02
6.165356378403248350e-01 4.823771060439072471e+02
6.166356598451658844e-01 4.821913159958070310e+02
6.167356818500069338e-01 4.820067478969114632e+02
6.168357038548479832e-01 4.818234153828040007e+02
6.169357258596890325e-01 4.816413312579313697e+02
6.170357478645301930e-01 4.814605074932597972e+02
6.171357698693712424e-01 4.812809552244091833e+02
6.172357918742122918e-01 4.811026847502701003e+02
6.173358138790533411e-01 4.809257055320974814e+02
6.174358358838943905e-01 4.807500261930873080e+02
6.175358578887355510e-01 4.805756545184257220e+02
6.176358798935764893e-01 4.804025974558189773e+02
6.177359018984176497e-01 4.802308611164955323e+02
6.178359239032586991e-01 4.800604507766802840e+02
6.179359459080997485e-01 4.798913708795412845e+02
6.180359679129407979e-01 4.797236250376016642e+02
6.181359899177818473e-01 4.795572160356178415e+02
6.182360119226228967e-01 4.793921458339191872e+02
6.183360339274639461e-01 4.792284155722073251e+02
6.184360559323051065e-01 4.790660255738093269e+02
6.185360779371461559e-01 4.789049753503827560e+02
6.186360999419872053e-01 4.787452636070664198e+02
6.187361219468282547e-01 4.785868882480774573e+02
6.188361439516693041e-01 4.784298463827443584e+02
6.189361659565104645e-01 4.782741343319717657e+02
6.190361879613514029e-01 4.781197476351378555e+02
6.191362099661925633e-01 4.779666810574135525e+02
6.192362319710336127e-01 4.778149285974961913e+02
6.193362539758746621e-01 4.776644834957614876e+02
6.194362759807157115e-01 4.775153382428164832e+02
6.195362979855567609e-01 4.773674845884533511e+02
6.196363199903978103e-01 4.772209135509999669e+02
6.197363419952388597e-01 4.770756154270526963e+02
6.198363640000800201e-01 4.769315798015927612e+02
6.199363860049210695e-01 4.767887955584752717e+02
6.200364080097621189e-01 4.766472508912830222e+02
6.201364300146031683e-01 4.765069333145403334e+02
6.202364520194442177e-01 4.763678296752763686e+02
6.203364740242853781e-01 4.762299261649336017e+02
6.204364960291263165e-01 4.760932083316101853e+02
6.205365180339674769e-01 4.759576610926296212e+02
6.206365400388085263e-01 4.758232687474310296e+02
6.207365620436495757e-01 4.756900149907671107e+02
6.208365840484906251e-01 4.755578829262069576e+02
6.209366060533316745e-01 4.754268550799298509e+02
6.210366280581727239e-01 4.752969134148059425e+02
6.211366500630137732e-01 4.751680393447467736e+02
6.212366720678548226e-01 4.750402137493300074e+02
6.213366940726959831e-01 4.749134169886734753e+02
6.214367160775370325e-01 4.747876289185609835e+02
6.215367380823780818e-01 4.746628289058033943e+02
6.216367600872191312e-01 4.745389958438316285e+02
6.217367820920602917e-01 4.744161081685020349e+02
6.218368040969012300e-01 4.742941438741161164e+02
6.219368261017422794e-01 4.741730805296365361e+02
6.220368481065834398e-01 4.740528952950911616e+02
6.221368701114244892e-01 4.739335649381548592e+02
6.222368921162655386e-01 4.738150658509042614e+02
6.223369141211065880e-01 4.736973740667230004e+02
6.224369361259476374e-01 4.735804652773613839e+02
6.225369581307886868e-01 4.734643148501293126e+02
6.226369801356297362e-01 4.733488978452188576e+02
6.227370021404708966e-01 4.732341890331389322e+02
6.228370241453119460e-01 4.731201629122610939e+02
6.229370461501529954e-01 4.730067937264568627e+02
6.230370681549940448e-01 4.728940554828209315e+02
6.231370901598352052e-01 4.727819219694683284e+02
6.232371121646761436e-01 4.726703667733960401e+02
6.233371341695171930e-01 4.725593632983953967e+02
6.234371561743583534e-01 4.724488847830083387e+02
6.235371781791994028e-01 4.723389043185162564e+02
6.236372001840404522e-01 4.722293948669458814e+02
6.237372221888815016e-01 4.721203292790903561e+02
6.238372441937225510e-01 4.720116803125281990e+02
6.239372661985636004e-01 4.719034206496289698e+02
6.240372882034046498e-01 4.717955229155435291e+02
6.241373102082458102e-01 4.716879596961573498e+02
6.242373322130868596e-01 4.715807035560044937e+02
6.243373542179279090e-01 4.714737270561294622e+02
6.244373762227689584e-01 4.713670027718839037e+02
6.245373982276101188e-01 4.712605033106538599e+02
6.246374202324510572e-01 4.711542013295010065e+02
6.247374422372921066e-01 4.710480695527134003e+02
6.248374642421332670e-01 4.709420807892507810e+02
6.249374862469743164e-01 4.708362079500769255e+02
6.250375082518153658e-01 4.707304240653728584e+02
6.251375302566564152e-01 4.706247023016130697e+02
6.252375522614974646e-01 4.705190159785004766e+02
6.253375742663385140e-01 4.704133385857518874e+02
6.254375962711795633e-01 4.703076437997226549e+02
6.255376182760207238e-01 4.702019054998552861e+02
6.256376402808617732e-01 4.700960977849579194e+02
6.257376622857027115e-01 4.699901949892861239e+02
6.258376842905438719e-01 4.698841716984321693e+02
6.259377062953850324e-01 4.697780027650067041e+02
6.260377283002259707e-01 4.696716633241057366e+02
6.261377503050670201e-01 4.695651288085566648e+02
6.262377723099081805e-01 4.694583749639292591e+02
6.263377943147492299e-01 4.693513778633106313e+02
6.264378163195902793e-01 4.692441139218310013e+02
6.265378383244313287e-01 4.691365599109366258e+02
6.266378603292723781e-01 4.690286929723973230e+02
6.267378823341134275e-01 4.689204906320442205e+02
6.268379043389544769e-01 4.688119308132328342e+02
6.269379263437956373e-01 4.687029918500186341e+02
6.270379483486366867e-01 4.685936525000424240e+02
6.271379703534776251e-01 4.684838919571188853e+02
6.272379923583187855e-01 4.683736898635169155e+02
6.273380143631599459e-01 4.682630263219346602e+02
6.274380363680008843e-01 4.681518819071529265e+02
6.275380583728419337e-01 4.680402376773677133e+02
6.276380803776830941e-01 4.679280751851938476e+02
6.277381023825241435e-01 4.678153764883350618e+02
6.278381243873651929e-01 4.677021241599148880e+02
6.279381463922062423e-01 4.675883012984624543e+02
6.280381683970472917e-01 4.674738915375504575e+02
6.281381904018883411e-01 4.673588790550770113e+02
6.282382124067293905e-01 4.672432485821924502e+02
6.283382344115705509e-01 4.671269854118618241e+02
6.284382564164116003e-01 4.670100754070605831e+02
6.285382784212525387e-01 4.668925050086033934e+02
6.286383004260936991e-01 4.667742612425955713e+02
6.287383224309348595e-01 4.666553317275102017e+02
6.288383444357757979e-01 4.665357046808856012e+02
6.289383664406168473e-01 4.664153689256387452e+02
6.290383884454580077e-01 4.662943138959939233e+02
6.291384104502990571e-01 4.661725296430256549e+02
6.292384324551401065e-01 4.660500068398098961e+02
6.293384544599811559e-01 4.659267367861848470e+02
6.294384764648222053e-01 4.658027114131192548e+02
6.295384984696632547e-01 4.656779232866844040e+02
6.296385204745043040e-01 4.655523656116328084e+02
6.297385424793454645e-01 4.654260322345791110e+02
6.298385644841865139e-01 4.652989176467832522e+02
6.299385864890274522e-01 4.651710169865379498e+02
6.300386084938686126e-01 4.650423260411569686e+02
6.301386304987097731e-01 4.649128412485646322e+02
6.302386525035507114e-01 4.647825596984904450e+02
6.303386745083917608e-01 4.646514791332642176e+02
6.304386965132329212e-01 4.645195979482160737e+02
6.305387185180739706e-01 4.643869151916812825e+02
6.306387405229150200e-01 4.642534305646080384e+02
6.307387625277560694e-01 4.641191444197788769e+02
6.308387845325971188e-01 4.639840577606331067e+02
6.309388065374381682e-01 4.638481722397049793e+02
6.310388285422792176e-01 4.637114901566737899e+02
6.311388505471203780e-01 4.635740144560280669e+02
6.312388725519614274e-01 4.634357487243484002e+02
6.313388945568023658e-01 4.632966971872096451e+02
6.314389165616435262e-01 4.631568647057072781e+02
6.315389385664846866e-01 4.630162567726100633e+02
6.316389605713256250e-01 4.628748795081437493e+02
6.317389825761666744e-01 4.627327396554042593e+02
6.318390045810078348e-01 4.625898445754135082e+02
6.319390265858488842e-01 4.624462022418142624e+02
6.320390485906899336e-01 4.623018212352066598e+02
6.321390705955309830e-01 4.621567107371431575e+02
6.322390926003720324e-01 4.620108805237697425e+02
6.323391146052130818e-01 4.618643409591300042e+02
6.324391366100541312e-01 4.617171029881345703e+02
6.325391586148952916e-01 4.615691781291965299e+02
6.326391806197362300e-01 4.614205784665446686e+02
6.327392026245772794e-01 4.612713166422148561e+02
6.328392246294184398e-01 4.611214058477287381e+02
6.329392466342596002e-01 4.609708598154629726e+02
6.330392686391005386e-01 4.608196928097165710e+02
6.331392906439415880e-01 4.606679196174827666e+02
6.332393126487827484e-01 4.605155555389300162e+02
6.333393346536236868e-01 4.603626163775992381e+02
6.334393566584648472e-01 4.602091184303276918e+02
6.335393786633058966e-01 4.600550784768975063e+02
6.336394006681469460e-01 4.599005137694256291e+02
6.337394226729879954e-01 4.597454420214960464e+02
6.338394446778290447e-01 4.595898813970424612e+02
6.339394666826702052e-01 4.594338504989908643e+02
6.340394886875111435e-01 4.592773683576668873e+02
6.341395106923521929e-01 4.591204544189761236e+02
6.342395326971933533e-01 4.589631285323670227e+02
6.343395547020345138e-01 4.588054109385810762e+02
6.344395767068754521e-01 4.586473222571994484e+02
6.345395987117165015e-01 4.584888834739960544e+02
6.346396207165576620e-01 4.583301159280991897e+02
6.347396427213986003e-01 4.581710412989781958e+02
6.348396647262397607e-01 4.580116815932560712e+02
6.349396867310808101e-01 4.578520591313603632e+02
6.350397087359218595e-01 4.576921965340191036e+02
6.351397307407629089e-01 4.575321167086093510e+02
6.352397527456039583e-01 4.573718428353693639e+02
6.353397747504451187e-01 4.572113983534829913e+02
6.354397967552860571e-01 4.570508069470388364e+02
6.355398187601271065e-01 4.568900925308813612e+02
6.356398407649682669e-01 4.567292792363577973e+02
6.357398627698094273e-01 4.565683913969681953e+02
6.358398847746503657e-01 4.564074535339321415e+02
6.359399067794914151e-01 4.562464903416764628e+02
6.360399287843325755e-01 4.560855266732541509e+02
6.361399507891735139e-01 4.559245875257053626e+02
6.362399727940146743e-01 4.557636980253646470e+02
6.363399947988557237e-01 4.556028834131276994e+02
6.364400168036967731e-01 4.554421690296854877e+02
6.365400388085378225e-01 4.552815803007293312e+02
6.366400608133788719e-01 4.551211427221459189e+02
6.367400828182200323e-01 4.549608818452003902e+02
6.368401048230609707e-01 4.548008232617214617e+02
6.369401268279020201e-01 4.546409925892992874e+02
6.370401488327431805e-01 4.544814154564993487e+02
6.371401708375843409e-01 4.543221174881049365e+02
6.372401928424252793e-01 4.541631242903935117e+02
6.373402148472663287e-01 4.540044614364607583e+02
6.374402368521074891e-01 4.538461544515943160e+02
6.375402588569484275e-01 4.536882287987112932e+02
6.376402808617895879e-01 4.535307098638616594e+02
6.377403028666306373e-01 4.533736229418144603e+02
6.378403248714716867e-01 4.532169932217244650e+02
6.379403468763127361e-01 4.530608457728978351e+02
6.380403688811537855e-01 4.529052055306570423e+02
6.381403908859949459e-01 4.527500972823149823e+02
6.382404128908358842e-01 4.525955456532706194e+02
6.383404348956769336e-01 4.524415750932264473e+02
6.384404569005180941e-01 4.522882098625425442e+02
6.385404789053592545e-01 4.521354740187263133e+02
6.386405009102001928e-01 4.519833914030783717e+02
6.387405229150412422e-01 4.518319856274871995e+02
6.388405449198824027e-01 4.516812800613878380e+02
6.389405669247233410e-01 4.515312978188943021e+02
6.390405889295645014e-01 4.513820617461042843e+02
6.391406109344055508e-01 4.512335944085896813e+02
6.392406329392466002e-01 4.510859180790784535e+02
6.393406549440876496e-01 4.509390547253303225e+02
6.394406769489286990e-01 4.507930259982202870e+02
6.395406989537698594e-01 4.506478532200269456e+02
6.396407209586107978e-01 4.505035573729407474e+02
6.397407429634518472e-01 4.503601590877922831e+02
6.398407649682930076e-01 4.502176786330070399e+02
6.399407869731341680e-01 4.500761359037977627e+02
6.400408089779751064e-01 4.499355504115891335e+02
