2.000040008801936331e+00 5.173822202288843073e+02
2.000140030806777602e+00 5.175012280640039535e+02
2.000240052811618430e+00 5.176191239818724625e+02
2.000340074816459701e+00 5.177358844097354904e+02
2.000440096821300529e+00 5.178514863546132574e+02
2.000540118826141356e+00 5.179659074121374260e+02
2.000640140830982627e+00 5.180791257750591967e+02
2.000740162835823899e+00 5.181911202414307809e+02
2.000840184840664726e+00 5.183018702224536582e+02
2.000940206845505998e+00 5.184113557499897524e+02
2.001040228850347269e+00 5.185195574837304093e+02
2.001140250855187652e+00 5.186264567180255654e+02
2.001240272860028924e+00 5.187320353883584403e+02
2.001340294864870195e+00 5.188362760774764411e+02
2.001440316869711022e+00 5.189391620211628151e+02
2.001540338874552294e+00 5.190406771136566704e+02
2.001640360879393565e+00 5.191408059127091974e+02
2.001740382884234393e+00 5.192395336442814369e+02
2.001840404889075220e+00 5.193368462068782492e+02
2.001940426893916491e+00 5.194327301755149620e+02
2.002040448898757319e+00 5.195271728053181732e+02
2.002140470903598590e+00 5.196201620347561629e+02
2.002240492908439862e+00 5.197116864885024370e+02
2.002340514913280689e+00 5.198017354799216037e+02
2.002440536918121960e+00 5.198902990131882689e+02
2.002540558922962788e+00 5.199773677850314471e+02
2.002640580927804059e+00 5.200629331861024411e+02
2.002740602932644887e+00 5.201469873019733541e+02
2.002840624937486158e+00 5.202295229137561137e+02
2.002940646942326985e+00 5.203105334983522425e+02
2.003040668947168257e+00 5.203900132283241646e+02
2.003140690952009528e+00 5.204679569713985074e+02
2.003240712956850356e+00 5.205443602895900312e+02
2.003340734961691183e+00 5.206192194379613056e+02
2.003440756966532454e+00 5.206925313630052869e+02
2.003540778971373726e+00 5.207642937006617103e+02
2.003640800976214553e+00 5.208345047739649090e+02
2.003740822981055825e+00 5.209031635903274946e+02
2.003840844985896652e+00 5.209702698384551240e+02
2.003940866990737923e+00 5.210358238849046302e+02
2.004040888995578751e+00 5.210998267702788098e+02
2.004140911000420022e+00 5.211622802050652581e+02
2.004240933005260850e+00 5.212231865651204998e+02
2.004340955010102121e+00 5.212825488868038519e+02
2.004440977014943392e+00 5.213403708617594248e+02
2.004540999019784220e+00 5.213966568313582002e+02
2.004641021024625047e+00 5.214514117807918865e+02
2.004741043029466319e+00 5.215046413328351491e+02
2.004841065034307590e+00 5.215563517412704186e+02
2.004941087039148417e+00 5.216065498839824386e+02
2.005041109043989689e+00 5.216552432557275552e+02
2.005141131048830516e+00 5.217024399605837743e+02
2.005241153053671788e+00 5.217481487040790853e+02
2.005341175058512615e+00 5.217923787850124882e+02
2.005441197063353886e+00 5.218351400869661347e+02
2.005541219068194714e+00 5.218764430695144938e+02
2.005641241073035985e+00 5.219162987591382716e+02
2.005741263077877257e+00 5.219547187398461574e+02
2.005841285082718084e+00 5.219917151435115557e+02
2.005941307087559355e+00 5.220273006399274891e+02
2.006041329092400183e+00 5.220614884265914952e+02
2.006141351097241010e+00 5.220942922182173334e+02
2.006241373102082282e+00 5.221257262359880542e+02
2.006341395106923553e+00 5.221558051965546383e+02
2.006441417111764380e+00 5.221845443007808854e+02
2.006541439116605652e+00 5.222119592222521760e+02
2.006641461121446923e+00 5.222380660955436724e+02
2.006741483126287307e+00 5.222628815042617134e+02
2.006841505131128578e+00 5.222864224688647710e+02
2.006941527135969849e+00 5.223087064342657868e+02
2.007041549140810677e+00 5.223297512572321466e+02
2.007141571145651948e+00 5.223495751935829503e+02
2.007241593150493220e+00 5.223681968851922193e+02
2.007341615155334047e+00 5.223856353468111138e+02
2.007441637160174874e+00 5.224019099527090475e+02
2.007541659165016146e+00 5.224170404231482507e+02
2.007641681169856973e+00 5.224310468106937151e+02
2.007741703174698245e+00 5.224439494863728441e+02
2.007841725179539516e+00 5.224557691256848102e+02
2.007941747184380343e+00 5.224665266944773521e+02
2.008041769189221615e+00 5.224762434346905593e+02
2.008141791194062442e+00 5.224849408499801484e+02
2.008241813198903714e+00 5.224926406912290986e+02
2.008341835203744541e+00 5.224993649419526491e+02
2.008441857208585812e+00 5.225051358036098463e+02
2.008541879213426640e+00 5.225099756808250504e+02
2.008641901218267911e+00 5.225139071665296342e+02
2.008741923223109183e+00 5.225169530270383120e+02
2.008841945227950010e+00 5.225191361870558922e+02
2.008941967232790837e+00 5.225204797146374176e+02
2.009041989237632109e+00 5.225210068060987396e+02
2.009142011242473380e+00 5.225207407708946903e+02
2.009242033247314208e+00 5.225197050164656503e+02
2.009342055252155479e+00 5.225179230330705877e+02
2.009442077256996306e+00 5.225154183786069098e+02
2.009542099261837578e+00 5.225122146634275850e+02
2.009642121266678405e+00 5.225083355351704313e+02
2.009742143271519677e+00 5.225038046635994533e+02
2.009842165276360504e+00 5.224986457254722154e+02
2.009942187281201775e+00 5.224928823894410925e+02
2.010042209286043047e+00 5.224865383009964717e+02
2.010142231290883874e+00 5.224796370674600894e+02
2.010242253295724701e+00 5.224722022430395327e+02
2.010342275300565973e+00 5.224642573139467459e+02
2.010442297305407244e+00 5.224558256835972543e+02
2.010542319310248072e+00 5.224469306578916985e+02
2.010642341315089343e+00 5.224375954305901359e+02
2.010742363319930170e+00 5.224278430687905939e+02
2.010842385324771442e+00 5.224176964985135783e+02
2.010942407329612269e+00 5.224071784904090237e+02
2.011042429334453541e+00 5.223963116455842055e+02
2.011142451339294368e+00 5.223851183815719423e+02
2.011242473344135639e+00 5.223736209184354493e+02
2.011342495348976911e+00 5.223618412650262144e+02
2.011442517353817738e+00 5.223498012054013770e+02
2.011542539358659010e+00 5.223375222854029971e+02
2.011642561363499837e+00 5.223250257994124013e+02
2.011742583368340664e+00 5.223123327772864286e+02
2.011842605373181936e+00 5.222994639714817140e+02
2.011942627378023207e+00 5.222864398443721257e+02
2.012042649382864035e+00 5.222732805557724305e+02
2.012142671387705306e+00 5.222600059506697789e+02
2.012242693392546578e+00 5.222466355471726729e+02
2.012342715397386961e+00 5.222331885246831007e+02
2.012442737402228232e+00 5.222196837123011619e+02
2.012542759407069504e+00 5.222061395774620678e+02
2.012642781411910331e+00 5.221925742148230256e+02
2.012742803416751602e+00 5.221790053353936401e+02
2.012842825421592874e+00 5.221654502559266575e+02
2.012942847426433701e+00 5.221519258885673480e+02
2.013042869431274529e+00 5.221384487307740301e+02
2.013142891436115800e+00 5.221250348555072378e+02
2.013242913440956627e+00 5.221116999017039007e+02
2.013342935445797899e+00 5.220984590650315340e+02
2.013442957450639170e+00 5.220853270889321038e+02
2.013542979455479998e+00 5.220723182559621591e+02
2.013643001460320825e+00 5.220594463794332114e+02
2.013743023465162096e+00 5.220467247953532706e+02
2.013843045470003368e+00 5.220341663546811333e+02
2.013943067474844195e+00 5.220217834158875121e+02
2.014043089479685467e+00 5.220095878378436964e+02
2.014143111484526294e+00 5.219975909730185322e+02
2.014243133489367565e+00 5.219858036610135059e+02
2.014343155494208393e+00 5.219742362224162662e+02
2.014443177499049664e+00 5.219628984529917943e+02
2.014543199503890492e+00 5.219517996182086108e+02
2.014643221508731763e+00 5.219409484481018353e+02
2.014743243513573034e+00 5.219303531324773076e+02
2.014843265518413862e+00 5.219200213164637034e+02
2.014943287523255133e+00 5.219099600964049159e+02
2.015043309528095961e+00 5.219001760161070251e+02
2.015143331532937232e+00 5.218906750634322407e+02
2.015243353537778059e+00 5.218814626672486838e+02
2.015343375542619331e+00 5.218725436947304388e+02
2.015443397547460158e+00 5.218639224490182187e+02
2.015543419552301430e+00 5.218556026672345070e+02
2.015643441557142701e+00 5.218475875188554483e+02
2.015743463561983528e+00 5.218398796044459687e+02
2.015843485566824356e+00 5.218324809547522136e+02
2.015943507571665627e+00 5.218253930301524406e+02
2.016043529576506899e+00 5.218186167204719368e+02
2.016143551581347726e+00 5.218121523451566190e+02
2.016243573586188997e+00 5.218059996538049745e+02
2.016343595591029825e+00 5.218001578270642540e+02
2.016443617595870652e+00 5.217946254778833008e+02
2.016543639600711924e+00 5.217894006531222431e+02
2.016643661605553195e+00 5.217844808355253008e+02
2.016743683610394022e+00 5.217798629460415896e+02
2.016843705615235294e+00 5.217755433465113128e+02
2.016943727620076565e+00 5.217715178426957436e+02
2.017043749624917393e+00 5.217677816876632733e+02
2.017143771629758220e+00 5.217643295855265251e+02
2.017243793634599491e+00 5.217611556955239394e+02
2.017343815639440319e+00 5.217582536364463976e+02
2.017443837644281590e+00 5.217556164914074088e+02
2.017543859649122862e+00 5.217532368129548104e+02
2.017643881653963689e+00 5.217511066285119341e+02
2.017743903658804960e+00 5.217492174461626746e+02
2.017843925663645788e+00 5.217475602607572682e+02
2.017943947668486615e+00 5.217461255603499239e+02
2.018043969673327886e+00 5.217449033329575059e+02
2.018143991678169158e+00 5.217438830736351747e+02
2.018244013683009985e+00 5.217430537918722848e+02
2.018344035687851257e+00 5.217424040192925077e+02
2.018444057692692528e+00 5.217419218176635241e+02
2.018544079697533355e+00 5.217415947872048037e+02
2.018644101702374183e+00 5.217414100751991555e+02
2.018744123707215454e+00 5.217413543848850850e+02
2.018844145712056282e+00 5.217414139846454191e+02
2.018944167716897553e+00 5.217415747174694616e+02
2.019044189721738825e+00 5.217418220106967510e+02
2.019144211726579652e+00 5.217421408860270731e+02
2.019244233731420479e+00 5.217425159697942263e+02
2.019344255736261751e+00 5.217429315035003583e+02
2.019444277741103022e+00 5.217433713546030276e+02
2.019544299745943849e+00 5.217438190275427132e+02
2.019644321750785121e+00 5.217442576750175931e+02
2.019744343755625948e+00 5.217446701094845594e+02
2.019844365760467220e+00 5.217450388148902221e+02
2.019944387765308047e+00 5.217453459586207600e+02
2.020044409770149318e+00 5.217455734036647073e+02
2.020144431774990146e+00 5.217457027209803755e+02
2.020244453779831417e+00 5.217457152020623425e+02
2.020344475784672689e+00 5.217455918716996166e+02
2.020444497789513516e+00 5.217453135009161542e+02
2.020544519794354787e+00 5.217448606200917993e+02
2.020644541799195615e+00 5.217442135322448848e+02
2.020744563804036886e+00 5.217433523264835458e+02
2.020844585808877714e+00 5.217422568916064165e+02
2.020944607813718985e+00 5.217409069298474833e+02
2.021044629818559812e+00 5.217392819707631588e+02
2.021144651823401084e+00 5.217373613852449807e+02
2.021244673828242355e+00 5.217351243996549783e+02
2.021344695833083183e+00 5.217325501100734755e+02
2.021444717837924010e+00 5.217296174966559192e+02
2.021544739842765281e+00 5.217263054380786116e+02
2.021644761847606553e+00 5.217225927260811886e+02
2.021744783852447380e+00 5.217184580800836784e+02
2.021844805857288652e+00 5.217138801618777961e+02
2.021944827862129479e+00 5.217088375903778115e+02
2.022044849866970306e+00 5.217033089564308739e+02
2.022144871871811578e+00 5.216972728376688337e+02
2.022244893876652849e+00 5.216907078133992854e+02
2.022344915881493677e+00 5.216835924795251458e+02
2.022444937886334948e+00 5.216759054634846962e+02
2.022544959891176219e+00 5.216676254391998100e+02
2.022644981896017047e+00 5.216587311420316837e+02
2.022745003900857874e+00 5.216492013837278137e+02
2.022845025905699146e+00 5.216390150673526023e+02
2.022945047910539973e+00 5.216281512021985236e+02
2.023045069915381244e+00 5.216165889186635241e+02
2.023145091920222516e+00 5.216043074830837440e+02
2.023245113925063343e+00 5.215912863125251988e+02
2.023345135929904615e+00 5.215775049895100892e+02
2.023445157934745442e+00 5.215629432766797891e+02
2.023545179939586269e+00 5.215475811313825716e+02
2.023645201944427541e+00 5.215313987201777763e+02
2.023745223949268812e+00 5.215143764332465253e+02
2.023845245954109640e+00 5.214964948987053504e+02
2.023945267958950911e+00 5.214777349968056797e+02
2.024045289963792182e+00 5.214580778740217966e+02
2.024145311968633010e+00 5.214375049570095371e+02
2.024245333973473837e+00 5.214159979664344746e+02
2.024345355978315109e+00 5.213935389306553816e+02
2.024445377983155936e+00 5.213701101992589884e+02
2.024545399987997207e+00 5.213456944564402420e+02
2.024645421992838479e+00 5.213202747342113526e+02
2.024745443997679306e+00 5.212938344254431513e+02
2.024845466002520133e+00 5.212663572967215941e+02
2.024945488007361405e+00 5.212378275010181596e+02
2.025045510012202676e+00 5.212082295901626594e+02
2.025145532017043504e+00 5.211775485271137995e+02
2.025245554021884775e+00 5.211457696980188530e+02
2.025345576026725603e+00 5.211128789240542574e+02
2.025445598031566874e+00 5.210788624730444099e+02
2.025545620036407701e+00 5.210437070708455849e+02
2.025645642041248973e+00 5.210073999124919055e+02
2.025745664046089800e+00 5.209699286730988206e+02
2.025845686050931072e+00 5.209312815185120371e+02
2.025945708055772343e+00 5.208914471156980426e+02
2.026045730060613170e+00 5.208504146428750801e+02
2.026145752065454442e+00 5.208081737993661591e+02
2.026245774070295269e+00 5.207647148151827423e+02
2.026345796075136541e+00 5.207200284603218279e+02
2.026445818079977368e+00 5.206741060537785870e+02
2.026545840084818639e+00 5.206269394722627339e+02
2.026645862089659467e+00 5.205785211586173773e+02
2.026745884094500738e+00 5.205288441299356919e+02
2.026845906099342010e+00 5.204779019853663158e+02
2.026945928104182837e+00 5.204256889136069049e+02
2.027045950109023664e+00 5.203721997000794772e+02
2.027145972113864936e+00 5.203174297337825465e+02
2.027245994118706207e+00 5.202613750138151545e+02
2.027346016123547034e+00 5.202040321555728042e+02
2.027446038128388306e+00 5.201453983966052874e+02
2.027546060133229133e+00 5.200854716021381137e+02
2.027646082138069961e+00 5.200242502702494676e+02
2.027746104142911232e+00 5.199617335367037185e+02
2.027846126147752503e+00 5.198979211794327284e+02
2.027946148152593331e+00 5.198328136226698462e+02
2.028046170157434602e+00 5.197664119407256749e+02
2.028146192162275874e+00 5.196987178614068625e+02
2.028246214167116701e+00 5.196297337690766653e+02
2.028346236171957528e+00 5.195594627073525089e+02
2.028446258176798800e+00 5.194879083814394107e+02
2.028546280181639627e+00 5.194150751600998319e+02
2.028646302186480899e+00 5.193409680772517731e+02
2.028746324191322170e+00 5.192655928332034136e+02
2.028846346196162997e+00 5.191889557955125838e+02
2.028946368201004269e+00 5.191110639994808480e+02
2.029046390205845096e+00 5.190319251482692380e+02
2.029146412210685924e+00 5.189515476126495059e+02
2.029246434215527195e+00 5.188699404303733900e+02
2.029346456220368466e+00 5.187871133051785364e+02
2.029446478225209294e+00 5.187030766054136848e+02
2.029546500230050565e+00 5.186178413622963035e+02
2.029646522234891837e+00 5.185314192677957408e+02
2.029746544239732664e+00 5.184438226721440515e+02
2.029846566244573491e+00 5.183550645809805246e+02
2.029946588249414763e+00 5.182651586521189984e+02
2.030046610254255590e+00 5.181741191919542189e+02
2.030146632259096862e+00 5.180819611514980352e+02
2.030246654263938133e+00 5.179887001220492948e+02
2.030346676268778960e+00 5.178943523305026702e+02
2.030446698273619788e+00 5.177989346342938006e+02
2.030546720278461059e+00 5.177024645159896181e+02
2.030646742283302331e+00 5.176049600775151021e+02
2.030746764288143158e+00 5.175064400340336306e+02
2.030846786292984429e+00 5.174069237074716057e+02
2.030946808297825257e+00 5.173064310196959923e+02
2.031046830302666528e+00 5.172049824853475002e+02
2.031146852307507356e+00 5.171025992043352062e+02
2.031246874312348627e+00 5.169993028539869329e+02
2.031346896317189454e+00 5.168951156808723226e+02
2.031446918322030726e+00 5.167900604922924686e+02
2.031546940326871997e+00 5.166841606474465607e+02
2.031646962331712825e+00 5.165774400482732744e+02
2.031746984336553652e+00 5.164699231299795201e+02
2.031847006341394923e+00 5.163616348512547347e+02
2.031947028346236195e+00 5.162526006841798107e+02
2.032047050351077022e+00 5.161428466038322540e+02
2.032147072355918294e+00 5.160323990775962102e+02
2.032247094360759121e+00 5.159212850541787247e+02
2.032347116365600392e+00 5.158095319523438320e+02
2.032447138370441220e+00 5.156971676493624273e+02
2.032547160375282491e+00 5.155842204691915640e+02
2.032647182380123319e+00 5.154707191703830631e+02
2.032747204384964590e+00 5.153566929337314377e+02
2.032847226389805861e+00 5.152421713496645452e+02
2.032947248394646689e+00 5.151271844053883342e+02
2.033047270399487960e+00 5.150117624717845501e+02
2.033147292404328788e+00 5.148959362900761789e+02
2.033247314409169615e+00 5.147797369582623332e+02
2.033347336414010886e+00 5.146631959173317910e+02
2.033447358418852158e+00 5.145463449372613240e+02
2.033547380423692985e+00 5.144292161028042756e+02
2.033647402428534257e+00 5.143118417990851867e+02
2.033747424433375528e+00 5.141942546969934256e+02
2.033847446438215911e+00 5.140764877384006013e+02
2.033947468443057183e+00 5.139585741211902814e+02
2.034047490447898454e+00 5.138405472841283199e+02
2.034147512452739281e+00 5.137224408915639060e+02
2.034247534457580553e+00 5.136042888179802048e+02
2.034347556462421824e+00 5.134861251323998204e+02
2.034447578467262652e+00 5.133679840826503096e+02
2.034547600472103479e+00 5.132499000795021402e+02
2.034647622476944751e+00 5.131319076806845487e+02
2.034747644481785578e+00 5.130140415747910083e+02
2.034847666486626849e+00 5.128963365650768083e+02
2.034947688491468121e+00 5.127788275531632962e+02
2.035047710496308948e+00 5.126615495226575376e+02
2.035147732501150220e+00 5.125445375226862552e+02
2.035247754505991047e+00 5.124278266513670133e+02
2.035347776510832318e+00 5.123114520392143731e+02
2.035447798515673146e+00 5.121954488324967087e+02
2.035547820520514417e+00 5.120798521765429996e+02
2.035647842525355244e+00 5.119646971990243287e+02
2.035747864530196516e+00 5.118500189931999671e+02
2.035847886535037787e+00 5.117358526011528284e+02
2.035947908539878615e+00 5.116222329970131568e+02
2.036047930544719442e+00 5.115091950701840915e+02
2.036147952549560713e+00 5.113967736085753018e+02
2.036247974554401985e+00 5.112850032818562909e+02
2.036347996559242812e+00 5.111739186247366433e+02
2.036448018564084084e+00 5.110635540202821971e+02
2.036548040568924911e+00 5.109539436832733372e+02
2.036648062573766182e+00 5.108451216436209279e+02
2.036748084578607010e+00 5.107371217298418173e+02
2.036848106583448281e+00 5.106299775526078975e+02
2.036948128588289109e+00 5.105237224883717886e+02
2.037048150593130380e+00 5.104183896630820527e+02
2.037148172597971651e+00 5.103140119359994742e+02
2.037248194602812479e+00 5.102106218836123617e+02
2.037348216607653306e+00 5.101082517836708803e+02
2.037448238612494578e+00 5.100069335993437107e+02
2.037548260617335849e+00 5.099066989635038567e+02
2.037648282622176676e+00 5.098075791631539460e+02
2.037748304627017948e+00 5.097096051240052930e+02
2.037848326631858775e+00 5.096128073952010027e+02
2.037948348636700047e+00 5.095172161342174491e+02
2.038048370641540874e+00 5.094228610919250855e+02
2.038148392646382145e+00 5.093297715978394535e+02
2.038248414651222973e+00 5.092379765455530105e+02
2.038348436656064244e+00 5.091475043783659657e+02
2.038448458660905516e+00 5.090583830751222081e+02
2.038548480665746343e+00 5.089706401362500401e+02
2.038648502670587614e+00 5.088843025700288081e+02
2.038748524675428442e+00 5.087993968790761414e+02
2.038848546680269269e+00 5.087159490470684204e+02
2.038948568685110541e+00 5.086339845257052161e+02
2.039048590689951812e+00 5.085535282219154283e+02
2.039148612694792639e+00 5.084746044853197873e+02
2.039248634699633911e+00 5.083972370959550062e+02
2.039348656704475182e+00 5.083214492522627665e+02
2.039448678709315566e+00 5.082472635593537120e+02
2.039548700714156837e+00 5.081747020175487251e+02
2.039648722718998108e+00 5.081037860112105591e+02
2.039748744723838936e+00 5.080345362978622461e+02
2.039848766728680207e+00 5.079669729976076269e+02
2.039948788733521479e+00 5.079011155828515029e+02
2.040048810738362306e+00 5.078369828683316882e+02
2.040148832743203133e+00 5.077745930014620512e+02
2.040248854748044405e+00 5.077139634530001331e+02
2.040348876752885232e+00 5.076551110080328613e+02
2.040448898757726504e+00 5.075980517572962754e+02
2.040548920762567775e+00 5.075428010888266499e+02
2.040648942767408602e+00 5.074893736799522230e+02
2.040748964772249874e+00 5.074377834896244508e+02
2.040848986777090701e+00 5.073880437511000991e+02
2.040949008781931973e+00 5.073401669649715586e+02
2.041049030786772800e+00 5.072941648925518621e+02
2.041149052791614071e+00 5.072500485496188958e+02
2.041249074796454899e+00 5.072078282005212486e+02
2.041349096801296170e+00 5.071675133526483137e+02
2.041449118806137442e+00 5.071291127512672574e+02
2.041549140810978269e+00 5.070926343747340184e+02
2.041649162815819096e+00 5.070580854300726514e+02
2.041749184820660368e+00 5.070254723489352386e+02
2.041849206825501639e+00 5.069948007839358297e+02
2.041949228830342467e+00 5.069660756053664272e+02
2.042049250835183738e+00 5.069393008982966080e+02
2.042149272840024565e+00 5.069144799600501869e+02
2.042249294844865837e+00 5.068916152980744414e+02
2.042349316849706664e+00 5.068707086281899592e+02
2.042449338854547936e+00 5.068517608732292956e+02
2.042549360859388763e+00 5.068347721620655193e+02
2.042649382864230034e+00 5.068197418290254745e+02
2.042749404869071306e+00 5.068066684136945241e+02
2.042849426873912133e+00 5.067955496611107264e+02
2.042949448878752960e+00 5.067863825223467416e+02
2.043049470883594232e+00 5.067791631554803757e+02
2.043149492888435503e+00 5.067738869269559245e+02
2.043249514893276331e+00 5.067705484133321079e+02
2.043349536898117602e+00 5.067691414034151194e+02
2.043449558902958429e+00 5.067696589007819625e+02
2.043549580907799701e+00 5.067720931266856041e+02
2.043649602912640528e+00 5.067764355233442757e+02
2.043749624917481800e+00 5.067826767576120233e+02
2.043849646922322627e+00 5.067908067250306203e+02
2.043949668927163899e+00 5.068008145542602847e+02
2.044049690932005170e+00 5.068126886118815264e+02
2.044149712936845997e+00 5.068264165075754022e+02
2.044249734941687269e+00 5.068419850996719447e+02
2.044349756946528096e+00 5.068593805010681308e+02
2.044449778951368923e+00 5.068785880855074879e+02
2.044549800956210195e+00 5.068995924942263969e+02
2.044649822961051466e+00 5.069223776429533928e+02
2.044749844965892294e+00 5.069469267292670906e+02
2.044849866970733565e+00 5.069732222403044943e+02
2.044949888975574837e+00 5.070012459608136624e+02
2.045049910980415220e+00 5.070309789815536305e+02
2.045149932985256491e+00 5.070624017080300519e+02
2.045249954990097763e+00 5.070954938695640521e+02
2.045349976994938590e+00 5.071302345286948139e+02
2.045449998999779861e+00 5.071666020909046892e+02
2.045550021004621133e+00 5.072045743146589984e+02
2.045650043009461960e+00 5.072441283217719388e+02
2.045750065014302788e+00 5.072852406080707510e+02
2.045850087019144059e+00 5.073278870543671815e+02
2.045950109023984886e+00 5.073720429377324876e+02
2.046050131028826158e+00 5.074176829430555244e+02
2.046150153033667429e+00 5.074647811748937443e+02
2.046250175038508257e+00 5.075133111696024457e+02
2.046350197043349528e+00 5.075632459077390308e+02
2.046450219048190355e+00 5.076145578267340852e+02
2.046550241053031627e+00 5.076672188338226306e+02
2.046650263057872454e+00 5.077212003192335601e+02
2.046750285062713726e+00 5.077764731696216813e+02
2.046850307067554553e+00 5.078330077817469146e+02
2.046950329072395824e+00 5.078907740763797278e+02
2.047050351077237096e+00 5.079497415124421309e+02
2.047150373082077923e+00 5.080098791013599566e+02
2.047250395086918751e+00 5.080711554216308627e+02
2.047350417091760022e+00 5.081335386335989597e+02
2.047450439096601293e+00 5.081969964944221374e+02
2.047550461101442121e+00 5.082614963732313527e+02
2.047650483106283392e+00 5.083270052664702234e+02
2.047750505111124220e+00 5.083934898134099285e+02
2.047850527115965491e+00 5.084609163118276456e+02
2.047950549120806318e+00 5.085292507338424457e+02
2.048050571125647590e+00 5.085984587419047784e+02
2.048150593130488417e+00 5.086685057049213583e+02
2.048250615135329689e+00 5.087393567145167026e+02
2.048350637140170960e+00 5.088109766014186448e+02
2.048450659145011787e+00 5.088833299519606044e+02
2.048550681149852615e+00 5.089563811246881073e+02
2.048650703154693886e+00 5.090300942670721724e+02
2.048750725159535158e+00 5.091044333323034152e+02
2.048850747164375985e+00 5.091793620961773854e+02
2.048950769169217256e+00 5.092548441740468661e+02
2.049050791174058084e+00 5.093308430378439198e+02
2.049150813178898911e+00 5.094073220331533776e+02
2.049250835183740183e+00 5.094842443963374876e+02
2.049350857188581454e+00 5.095615732716959201e+02
2.049450879193422281e+00 5.096392717286604466e+02
2.049550901198263553e+00 5.097173027790029778e+02
2.049650923203104824e+00 5.097956293940641217e+02
2.049750945207945652e+00 5.098742145219795248e+02
2.049850967212786479e+00 5.099530211049035984e+02
2.049950989217627750e+00 5.100320120962176134e+02
2.050051011222468578e+00 5.101111504777160803e+02
2.050151033227309849e+00 5.101903992767611271e+02
2.050251055232151121e+00 5.102697215833952669e+02
2.050351077236991948e+00 5.103490805674086914e+02
2.050451099241833219e+00 5.104284394953426727e+02
2.050551121246674047e+00 5.105077617474346994e+02
2.050651143251514874e+00 5.105870108344804521e+02
2.050751165256356146e+00 5.106661504146180732e+02
2.050851187261197417e+00 5.107451443100170536e+02
2.050951209266038244e+00 5.108239565234690645e+02
2.051051231270879516e+00 5.109025512548673191e+02
2.051151253275720787e+00 5.109808929175710546e+02
2.051251275280561615e+00 5.110589461546429106e+02
2.051351297285402442e+00 5.111366758549519886e+02
2.051451319290243713e+00 5.112140471691392918e+02
2.051551341295084541e+00 5.112910255254258800e+02
2.051651363299925812e+00 5.113675766452714697e+02
2.051751385304767084e+00 5.114436665588584674e+02
2.051851407309607911e+00 5.115192616204122942e+02
2.051951429314448738e+00 5.115943285233303754e+02
2.052051451319290010e+00 5.116688343151308800e+02
2.052151473324131281e+00 5.117427464121989260e+02
2.052251495328972108e+00 5.118160326143329257e+02
2.052351517333813380e+00 5.118886611190775966e+02
2.052451539338654207e+00 5.119606005358393759e+02
2.052551561343495479e+00 5.120318198997778154e+02
2.052651583348336306e+00 5.121022886854639182e+02
2.052751605353177577e+00 5.121719768202983687e+02
2.052851627358018405e+00 5.122408546976853359e+02
2.052951649362859676e+00 5.123088931899558247e+02
2.053051671367700948e+00 5.123760636610277288e+02
2.053151693372541775e+00 5.124423379788069042e+02
2.053251715377383047e+00 5.125076885273117568e+02
2.053351737382223874e+00 5.125720882185253231e+02
2.053451759387065145e+00 5.126355105039617683e+02
2.053551781391905973e+00 5.126979293859450308e+02
2.053651803396747244e+00 5.127593194285943810e+02
2.053751825401588071e+00 5.128196557685110974e+02
2.053851847406429343e+00 5.128789141251565979e+02
2.053951869411270614e+00 5.129370708109272528e+02
2.054051891416111442e+00 5.129941027409071239e+02
2.054151913420952269e+00 5.130499874423107940e+02
2.054251935425793540e+00 5.131047030635932060e+02
2.054351957430634812e+00 5.131582283832372013e+02
2.054451979435475639e+00 5.132105428182056812e+02
2.054552001440316911e+00 5.132616264320596429e+02
2.054652023445157738e+00 5.133114599427350413e+02
2.054752045449998565e+00 5.133600247299735884e+02
2.054852067454839837e+00 5.134073028424099903e+02
2.054952089459681108e+00 5.134532770043067558e+02
2.055052111464521936e+00 5.134979306219329374e+02
2.055152133469363207e+00 5.135412477895882830e+02
2.055252155474204478e+00 5.135832132952698430e+02
2.055352177479045306e+00 5.136238126259723913e+02
2.055452199483886133e+00 5.136630319726248217e+02
2.055552221488727405e+00 5.137008582346638832e+02
2.055652243493568232e+00 5.137372790242327483e+02
2.055752265498409503e+00 5.137722826700180576e+02
2.055852287503250775e+00 5.138058582207032714e+02
2.055952309508091602e+00 5.138379954480589049e+02
2.056052331512932874e+00 5.138686848496528228e+02
2.056152353517773701e+00 5.138979176511850255e+02
2.056252375522614528e+00 5.139256858084468149e+02
2.056352397527455800e+00 5.139519820089027462e+02
2.056452419532297071e+00 5.139767996728944581e+02
2.056552441537137899e+00 5.140001329544661530e+02
2.056652463541979170e+00 5.140219767418133188e+02
2.056752485546820441e+00 5.140423266573518504e+02
2.056852507551661269e+00 5.140611790574117776e+02
2.056952529556502096e+00 5.140785310315516199e+02
2.057052551561343368e+00 5.140943804014992793e+02
2.057152573566184195e+00 5.141087257197139024e+02
2.057252595571025466e+00 5.141215662675792828e+02
2.057352617575866738e+00 5.141329020532166396e+02
2.057452639580707565e+00 5.141427338089325758e+02
2.057552661585548393e+00 5.141510629882955072e+02
2.057652683590389664e+00 5.141578917628413592e+02
2.057752705595230935e+00 5.141632230184188757e+02
2.057852727600071763e+00 5.141670603511644231e+02
2.057952749604913034e+00 5.141694080631244788e+02
2.058052771609753862e+00 5.141702711575105695e+02
2.058152793614595133e+00 5.141696553336056468e+02
2.058252815619435960e+00 5.141675669813139393e+02
2.058352837624277232e+00 5.141640131753634932e+02
2.058452859629118059e+00 5.141590016691601477e+02
2.058552881633959331e+00 5.141525408883012460e+02
2.058652903638800602e+00 5.141446399237511287e+02
2.058752925643641429e+00 5.141353085246767023e+02
2.058852947648482701e+00 5.141245570909579783e+02
2.058952969653323528e+00 5.141123966653683510e+02
2.059052991658164800e+00 5.140988389254334834e+02
2.059153013663005627e+00 5.140838961749727787e+02
2.059253035667846898e+00 5.140675813353249168e+02
2.059353057672687726e+00 5.140499079362696193e+02
2.059453079677528997e+00 5.140308901066425733e+02
2.059553101682370269e+00 5.140105425646523827e+02
2.059653123687211096e+00 5.139888806079075039e+02
2.059753145692051923e+00 5.139659201031511202e+02
2.059853167696893195e+00 5.139416774757189614e+02
2.059953189701734466e+00 5.139161696987171126e+02
2.060053211706575294e+00 5.138894142819319768e+02
2.060153233711416565e+00 5.138614292604759157e+02
2.060253255716257392e+00 5.138322331831726615e+02
2.060353277721098220e+00 5.138018451006925034e+02
2.060453299725939491e+00 5.137702845534429343e+02
2.060553321730780763e+00 5.137375715592195320e+02
2.060653343735621590e+00 5.137037266006217351e+02
2.060753365740462861e+00 5.136687706122473855e+02
2.060853387745304133e+00 5.136327249676671727e+02
2.060953409750144960e+00 5.135956114661842093e+02
2.061053431754985787e+00 5.135574523193935192e+02
2.061153453759827059e+00 5.135182701375413217e+02
2.061253475764667886e+00 5.134780879156935498e+02
2.061353497769509158e+00 5.134369290197222426e+02
2.061453519774350429e+00 5.133948171721181097e+02
2.061553541779191256e+00 5.133517764376291552e+02
2.061653563784032528e+00 5.133078312087465065e+02
2.061753585788873355e+00 5.132630061910323320e+02
2.061853607793714183e+00 5.132173263883033769e+02
2.061953629798555454e+00 5.131708170876780741e+02
2.062053651803396725e+00 5.131235038444933707e+02
2.062153673808237553e+00 5.130754124671022964e+02
2.062253695813078824e+00 5.130265690015531845e+02
2.062353717817920096e+00 5.129769997161687343e+02
2.062453739822760923e+00 5.129267310860244606e+02
2.062553761827601750e+00 5.128757897773373315e+02
2.062653783832443022e+00 5.128242026317764157e+02
2.062753805837283849e+00 5.127719966506965648e+02
2.062853827842125121e+00 5.127191989793089988e+02
2.062953849846966392e+00 5.126658368907980048e+02
2.063053871851807219e+00 5.126119377703847704e+02
2.063153893856648047e+00 5.125575290993514272e+02
2.063253915861489318e+00 5.125026384390392877e+02
2.063353937866330590e+00 5.124472934148155900e+02
2.063453959871171417e+00 5.123915217000317170e+02
2.063553981876012688e+00 5.123353509999687958e+02
2.063654003880853516e+00 5.122788090357905730e+02
2.063754025885694787e+00 5.122219235285003833e+02
2.063854047890535615e+00 5.121647221829217642e+02
2.063954069895376886e+00 5.121072326716994212e+02
2.064054091900217713e+00 5.120494826193386189e+02
2.064154113905058985e+00 5.119914995862868636e+02
2.064254135909900256e+00 5.119333110530646422e+02
2.064354157914741084e+00 5.118749444044571533e+02
2.064454179919582355e+00 5.118164269137709539e+02
2.064554201924423182e+00 5.117577857271691073e+02
2.064654223929264454e+00 5.116990478480842626e+02
2.064754245934105281e+00 5.116402401217291072e+02
2.064854267938946553e+00 5.115813892196991901e+02
2.064954289943787380e+00 5.115225216246893751e+02
2.065054311948628651e+00 5.114636636153192057e+02
2.065154333953469923e+00 5.114048412510858270e+02
2.065254355958310750e+00 5.113460803574390638e+02
2.065354377963151578e+00 5.112874065110049173e+02
2.065454399967992849e+00 5.112288450249446896e+02
2.065554421972834120e+00 5.111704209344708261e+02
2.065654443977674948e+00 5.111121589825215779e+02
2.065754465982516219e+00 5.110540836056062517e+02
2.065854487987357047e+00 5.109962189198154192e+02
2.065954509992197874e+00 5.109385887070243371e+02
2.066054531997039145e+00 5.108812164012756512e+02
2.066154554001880417e+00 5.108241250753593476e+02
2.066254576006721244e+00 5.107673374275972265e+02
2.066354598011562516e+00 5.107108757688313858e+02
2.066454620016403787e+00 5.106547620096332594e+02
2.066554642021244170e+00 5.105990176477263844e+02
2.066654664026085442e+00 5.105436637556435926e+02
2.066754686030926713e+00 5.104887209686149276e+02
2.066854708035767541e+00 5.104342094726936807e+02
2.066954730040608812e+00 5.103801489931334459e+02
2.067054752045450083e+00 5.103265587830098866e+02
2.067154774050290911e+00 5.102734576121042096e+02
2.067254796055131738e+00 5.102208637560474926e+02
2.067354818059973010e+00 5.101687949857332569e+02
2.067454840064813837e+00 5.101172685570028875e+02
2.067554862069655108e+00 5.100663012006095869e+02
2.067654884074496380e+00 5.100159091124642714e+02
2.067754906079337207e+00 5.099661079441730180e+02
2.067854928084178479e+00 5.099169127938609449e+02
2.067954950089019306e+00 5.098683381972975894e+02
2.068054972093860577e+00 5.098203981193254322e+02
2.068154994098701405e+00 5.097731059455852574e+02
2.068255016103542676e+00 5.097264744745612006e+02
2.068355038108383503e+00 5.096805159099326374e+02
2.068455060113224775e+00 5.096352418532450201e+02
2.068555082118066046e+00 5.095906632969007433e+02
2.068655104122906874e+00 5.095467906174745281e+02
2.068755126127747701e+00 5.095036335693550313e+02
2.068855148132588972e+00 5.094612012787177378e+02
2.068955170137430244e+00 5.094195022378265207e+02
2.069055192142271071e+00 5.093785442996787083e+02
2.069155214147112343e+00 5.093383346729785899e+02
2.069255236151953170e+00 5.092988799174577821e+02
2.069355258156794442e+00 5.092601859395369956e+02
2.069455280161635269e+00 5.092222579883297726e+02
2.069555302166476540e+00 5.091851006519942757e+02
2.069655324171317368e+00 5.091487178544323911e+02
2.069755346176158639e+00 5.091131128523397820e+02
2.069855368180999911e+00 5.090782882326010963e+02
2.069955390185840738e+00 5.090442459100440828e+02
2.070055412190681565e+00 5.090109871255421012e+02
2.070155434195522837e+00 5.089785124444671283e+02
2.070255456200364108e+00 5.089468217555033789e+02
2.070355478205204935e+00 5.089159142698090363e+02
2.070455500210046207e+00 5.088857885205351295e+02
2.070555522214887034e+00 5.088564423626986013e+02
2.070655544219728306e+00 5.088278729734073522e+02
2.070755566224569133e+00 5.088000768524426007e+02
2.070855588229410404e+00 5.087730498231902061e+02
2.070955610234251232e+00 5.087467870339297633e+02
2.071055632239092503e+00 5.087212829594687378e+02
2.071155654243933775e+00 5.086965314031345429e+02
2.071255676248774602e+00 5.086725254991088718e+02
2.071355698253615873e+00 5.086492577151158230e+02
2.071455720258456701e+00 5.086267198554526203e+02
2.071555742263297528e+00 5.086049030643678179e+02
2.071655764268138800e+00 5.085837978297778932e+02
2.071755786272980071e+00 5.085633939873292775e+02
2.071855808277820898e+00 5.085436807247955358e+02
2.071955830282662170e+00 5.085246465868134464e+02
2.072055852287503441e+00 5.085062794799476364e+02
2.072155874292343825e+00 5.084885666780913880e+02
2.072255896297185096e+00 5.084714948281903730e+02
2.072355918302026367e+00 5.084550499562927257e+02
2.072455940306867195e+00 5.084392174739222696e+02
2.072555962311708466e+00 5.084239821847672829e+02
2.072655984316549738e+00 5.084093282916837211e+02
2.072756006321390565e+00 5.083952394040097715e+02
2.072856028326231392e+00 5.083816985451880441e+02
2.072956050331072664e+00 5.083686881606893166e+02
2.073056072335913491e+00 5.083561901262340825e+02
2.073156094340754763e+00 5.083441857563118447e+02
2.073256116345596034e+00 5.083326558129867294e+02
2.073356138350436861e+00 5.083215805149894777e+02
2.073456160355278133e+00 5.083109395470918344e+02
2.073556182360118960e+00 5.083007120697547521e+02
2.073656204364960232e+00 5.082908767290465448e+02
2.073756226369801059e+00 5.082814116668308202e+02
2.073856248374642330e+00 5.082722945312109459e+02
2.073956270379483158e+00 5.082635024872299709e+02
2.074056292384324429e+00 5.082550122278224194e+02
2.074156314389165701e+00 5.082467999850084652e+02
2.074256336394006528e+00 5.082388415413273037e+02
2.074356358398847355e+00 5.082311122415005684e+02
2.074456380403688627e+00 5.082235870043268733e+02
2.074556402408529898e+00 5.082162403347927011e+02
2.074656424413370726e+00 5.082090463363990693e+02
2.074756446418211997e+00 5.082019787236978914e+02
2.074856468423052824e+00 5.081950108350267215e+02
2.074956490427894096e+00 5.081881156454435313e+02
2.075056512432734923e+00 5.081812657798460577e+02
2.075156534437576195e+00 5.081744335262746972e+02
2.075256556442417022e+00 5.081675908493954807e+02
2.075356578447258293e+00 5.081607094041418122e+02
2.075456600452099565e+00 5.081537605495298067e+02
2.075556622456940392e+00 5.081467153626208528e+02
2.075656644461781219e+00 5.081395446526347541e+02
2.075756666466622491e+00 5.081322189752046370e+02
2.075856688471463762e+00 5.081247086467648160e+02
2.075956710476304590e+00 5.081169837590668976e+02
2.076056732481145861e+00 5.081090141938134366e+02
2.076156754485986689e+00 5.081007696374041984e+02
2.076256776490827960e+00 5.080922195957916188e+02
2.076356798495668787e+00 5.080833334094270413e+02
2.076456820500510059e+00 5.080740802683031347e+02
2.076556842505350886e+00 5.080644292270765732e+02
2.076656864510192158e+00 5.080543492202662037e+02
2.076756886515033429e+00 5.080438090775194837e+02
2.076856908519874256e+00 5.080327775389406497e+02
2.076956930524715528e+00 5.080212232704686812e+02
2.077056952529556355e+00 5.080091148793054572e+02
2.077156974534397182e+00 5.079964209293755175e+02
2.077256996539238454e+00 5.079831099568211243e+02
2.077357018544079725e+00 5.079691504855204585e+02
2.077457040548920553e+00 5.079545110426133192e+02
2.077557062553761824e+00 5.079391601740467195e+02
2.077657084558603096e+00 5.079230664601072931e+02
2.077757106563443479e+00 5.079061985309569991e+02
2.077857128568284750e+00 5.078885250821477939e+02
2.077957150573126022e+00 5.078700148901124294e+02
2.078057172577966849e+00 5.078506368276338208e+02
2.078157194582808120e+00 5.078303598792634261e+02
2.078257216587649392e+00 5.078091531567089874e+02
2.078357238592490219e+00 5.077869859141554230e+02
2.078457260597331047e+00 5.077638275635402465e+02
2.078557282602172318e+00 5.077396476897491766e+02
2.078657304607013145e+00 5.077144160657462635e+02
2.078757326611854417e+00 5.076881026676163629e+02
2.078857348616695688e+00 5.076606776895224584e+02
2.078957370621536516e+00 5.076321115585643611e+02
2.079057392626377787e+00 5.076023749495357720e+02
2.079157414631218614e+00 5.075714387995709558e+02
2.079257436636059886e+00 5.075392743226720427e+02
2.079357458640900713e+00 5.075058530241158223e+02
2.079457480645741985e+00 5.074711467147273538e+02
2.079557502650582812e+00 5.074351275250140816e+02
2.079657524655424083e+00 5.073977679191600600e+02
2.079757546660265355e+00 5.073590407088644270e+02
2.079857568665106182e+00 5.073189190670267408e+02
2.079957590669947010e+00 5.072773765412636067e+02
2.080057612674788281e+00 5.072343870672588650e+02
2.080157634679629552e+00 5.071899249819347233e+02
2.080257656684470380e+00 5.071439650364417275e+02
2.080357678689311651e+00 5.070964824089578542e+02
2.080457700694152479e+00 5.070474527172950729e+02
2.080557722698993750e+00 5.069968520313024101e+02
2.080657744703834577e+00 5.069446568850662516e+02
2.080757766708675849e+00 5.068908442888936747e+02
2.080857788713516676e+00 5.068353917410828444e+02
2.080957810718357948e+00 5.067782772394667745e+02
2.081057832723199219e+00 5.067194792927297158e+02
2.081157854728040046e+00 5.066589769314911109e+02
2.081257876732880874e+00 5.065967497191477378e+02
2.081357898737722145e+00 5.065327777624766554e+02
2.081457920742563417e+00 5.064670417219826390e+02
2.081557942747404244e+00 5.063995228220018134e+02
2.081657964752245515e+00 5.063302028605382930e+02
2.081757986757086343e+00 5.062590642188424113e+02
2.081858008761927614e+00 5.061860898707244587e+02
2.081958030766768442e+00 5.061112633915931838e+02
2.082058052771609713e+00 5.060345689672214462e+02
2.082158074776450540e+00 5.059559914022332237e+02
2.082258096781291812e+00 5.058755161283093003e+02
2.082358118786133083e+00 5.057931292121015758e+02
2.082458140790973911e+00 5.057088173628642380e+02
2.082558162795815182e+00 5.056225679397877570e+02
2.082658184800656009e+00 5.055343689590361009e+02
2.082758206805496837e+00 5.054442091004880240e+02
2.082858228810338108e+00 5.053520777141715712e+02
2.082958250815179380e+00 5.052579648263987337e+02
2.083058272820020207e+00 5.051618611455862720e+02
2.083158294824861478e+00 5.050637580677709479e+02
2.083258316829702750e+00 5.049636476818116080e+02
2.083358338834543133e+00 5.048615227742753859e+02
2.083458360839384405e+00 5.047573768340058677e+02
2.083558382844225676e+00 5.046512040563774235e+02
2.083658404849066503e+00 5.045429993472237697e+02
2.083758426853907775e+00 5.044327583264488339e+02
2.083858448858749046e+00 5.043204773313117357e+02
2.083958470863589874e+00 5.042061534193898638e+02
2.084058492868430701e+00 5.040897843712133408e+02
2.084158514873271972e+00 5.039713686925751404e+02
2.084258536878112800e+00 5.038509056165137281e+02
2.084358558882954071e+00 5.037283951049672055e+02
2.084458580887795343e+00 5.036038378500990689e+02
2.084558602892636170e+00 5.034772352752955271e+02
2.084658624897476997e+00 5.033485895358348330e+02
2.084758646902318269e+00 5.032179035192248193e+02
2.084858668907159540e+00 5.030851808452179057e+02
2.084958690912000367e+00 5.029504258654880005e+02
2.085058712916841639e+00 5.028136436629897617e+02
2.085158734921682466e+00 5.026748400509846419e+02
2.085258756926523738e+00 5.025340215717394017e+02
2.085358778931364565e+00 5.023911954949052188e+02
2.085458800936205837e+00 5.022463698155644920e+02
2.085558822941046664e+00 5.020995532519595486e+02
2.085658844945887935e+00 5.019507552428993336e+02
2.085758866950729207e+00 5.017999859448408984e+02
2.085858888955570034e+00 5.016472562286567154e+02
2.085958910960411306e+00 5.014925776760856593e+02
2.086058932965252133e+00 5.013359625758627089e+02
2.086158954970093404e+00 5.011774239195428891e+02
2.086258976974934232e+00 5.010169753970112083e+02
2.086358998979775503e+00 5.008546313916821191e+02
2.086459020984616330e+00 5.006904069753979911e+02
2.086559042989457602e+00 5.005243179030198917e+02
2.086659064994298873e+00 5.003563806067221549e+02
2.086759086999139701e+00 5.001866121899844302e+02
2.086859109003980528e+00 5.000150304212955348e+02
2.086959131008821799e+00 4.998416537275595033e+02
2.087059153013663071e+00 4.996665011872194668e+02
2.087159175018503898e+00 4.994895925230933926e+02
2.087259197023345170e+00 4.993109480949302679e+02
2.087359219028185997e+00 4.991305888916905360e+02
2.087459241033026824e+00 4.989485365235493646e+02
2.087559263037868096e+00 4.987648132136345112e+02
2.087659285042709367e+00 4.985794417894967978e+02
2.087759307047550195e+00 4.983924456743196174e+02
2.087859329052391466e+00 4.982038488778732130e+02
2.087959351057232738e+00 4.980136759872116841e+02
2.088059373062073565e+00 4.978219521571290898e+02
2.088159395066914392e+00 4.976287031003660104e+02
2.088259417071755664e+00 4.974339550775804923e+02
2.088359439076596491e+00 4.972377348870845708e+02
2.088459461081437762e+00 4.970400698543521685e+02
2.088559483086279034e+00 4.968409878213018374e+02
2.088659505091119861e+00 4.966405171353617902e+02
2.088759527095961133e+00 4.964386866383209735e+02
2.088859549100801960e+00 4.962355256549724913e+02
2.088959571105642787e+00 4.960310639815521085e+02
2.089059593110484059e+00 4.958253318739815541e+02
2.089159615115325330e+00 4.956183600359186130e+02
2.089259637120166158e+00 4.954101796066203747e+02
2.089359659125007429e+00 4.952008221486260027e+02
2.089459681129848700e+00 4.949903196352673262e+02
2.089559703134689528e+00 4.947787044380044108e+02
2.089659725139530355e+00 4.945660093136040132e+02
2.089759747144371627e+00 4.943522673911569996e+02
2.089859769149212454e+00 4.941375121589455262e+02
2.089959791154053725e+00 4.939217774511653261e+02
2.090059813158894997e+00 4.937050974345073655e+02
2.090159835163735824e+00 4.934875065946117161e+02
2.090259857168576652e+00 4.932690397223857417e+02
2.090359879173417923e+00 4.930497319002092809e+02
2.090459901178259194e+00 4.928296184880256305e+02
2.090559923183100022e+00 4.926087351093187863e+02
2.090659945187941293e+00 4.923871176369953560e+02
2.090759967192782121e+00 4.921648021791679639e+02
2.090859989197623392e+00 4.919418250648540720e+02
2.090960011202464219e+00 4.917182228295863524e+02
2.091060033207305491e+00 4.914940322009547344e+02
2.091160055212146318e+00 4.912692900840734751e+02
2.091260077216987590e+00 4.910440335469906472e+02
2.091360099221828861e+00 4.908182998060380555e+02
2.091460121226669688e+00 4.905921262111331203e+02
2.091560143231510960e+00 4.903655502310381848e+02
2.091660165236351787e+00 4.901386094385849219e+02
2.091760187241193059e+00 4.899113414958654857e+02
2.091860209246033886e+00 4.896837841394043949e+02
2.091960231250875157e+00 4.894559751653116564e+02
2.092060253255715985e+00 4.892279524144282732e+02
2.092160275260557256e+00 4.889997537574651005e+02
2.092260297265398528e+00 4.887714170801473301e+02
2.092360319270239355e+00 4.885429802683703997e+02
2.092460341275080182e+00 4.883144811933671008e+02
2.092560363279921454e+00 4.880859576969016871e+02
2.092660385284762725e+00 4.878574475764926319e+02
2.092760407289603553e+00 4.876289885706705149e+02
2.092860429294444824e+00 4.874006183442767224e+02
2.092960451299285651e+00 4.871723744738137611e+02
2.093060473304126479e+00 4.869442944328460499e+02
2.093160495308967750e+00 4.867164155774691494e+02
2.093260517313809022e+00 4.864887751318345295e+02
2.093360539318649849e+00 4.862614101737639203e+02
2.093460561323491120e+00 4.860343576204269880e+02
2.093560583328332392e+00 4.858076542141175196e+02
2.093660605333173219e+00 4.855813365081148731e+02
2.093760627338014046e+00 4.853554408526472344e+02
2.093860649342855318e+00 4.851300033809546903e+02
2.093960671347696145e+00 4.849050599954669565e+02
2.094060693352537417e+00 4.846806463540928576e+02
2.094160715357378688e+00 4.844567978566352622e+02
2.094260737362219515e+00 4.842335496313283443e+02
2.094360759367060787e+00 4.840109365215132016e+02
2.094460781371901614e+00 4.837889930724476244e+02
2.094560803376742442e+00 4.835677535182614974e+02
2.094660825381583713e+00 4.833472517690628933e+02
2.094760847386424985e+00 4.831275213981942898e+02
2.094860869391265812e+00 4.829085956296574977e+02
2.094960891396107083e+00 4.826905073256920673e+02
2.095060913400948355e+00 4.824732889745345119e+02
2.095160935405789182e+00 4.822569726783458464e+02
2.095260957410630009e+00 4.820415901413230699e+02
2.095360979415471281e+00 4.818271726579941401e+02
2.095461001420312108e+00 4.816137511017020643e+02
2.095561023425153380e+00 4.814013559132852720e+02
2.095661045429994651e+00 4.811900170899539830e+02
2.095761067434835478e+00 4.809797641743740542e+02
2.095861089439676306e+00 4.807706262439547231e+02
2.095961111444517577e+00 4.805626319003478670e+02
2.096061133449358849e+00 4.803558092591690070e+02
2.096161155454199676e+00 4.801501859399290879e+02
2.096261177459040947e+00 4.799457890562016473e+02
2.096361199463881775e+00 4.797426452060066140e+02
2.096461221468723046e+00 4.795407804624327355e+02
2.096561243473563874e+00 4.793402203644926090e+02
2.096661265478405145e+00 4.791409899082175912e+02
2.096761287483245972e+00 4.789431135379919056e+02
2.096861309488087244e+00 4.787466151381364625e+02
2.096961331492928515e+00 4.785515180247340368e+02
2.097061353497769343e+00 4.783578449377167772e+02
2.097161375502610614e+00 4.781656180331945620e+02
2.097261397507451441e+00 4.779748588760506323e+02
2.097361419512292713e+00 4.777855884327946114e+02
2.097461441517133540e+00 4.775978270646733108e+02
2.097561463521974812e+00 4.774115945210527343e+02
2.097661485526815639e+00 4.772269099330630979e+02
2.097761507531656910e+00 4.770437918075127186e+02
2.097861529536498182e+00 4.768622580210758883e+02
2.097961551541339009e+00 4.766823258147531988e+02
2.098061573546179837e+00 4.765040117886034068e+02
2.098161595551021108e+00 4.763273318967569026e+02
2.098261617555862379e+00 4.761523014427047542e+02
2.098361639560703207e+00 4.759789350748683319e+02
2.098461661565544478e+00 4.758072467824484306e+02
2.098561683570385306e+00 4.756372498915587812e+02
2.098661705575226133e+00 4.754689570616410492e+02
2.098761727580067404e+00 4.753023802821658705e+02
2.098861749584908676e+00 4.751375308696161710e+02
2.098961771589749503e+00 4.749744194647590234e+02
2.099061793594590775e+00 4.748130560302022332e+02
2.099161815599432046e+00 4.746534498482368463e+02
2.099261837604272873e+00 4.744956095189698999e+02
2.099361859609113701e+00 4.743395429587390026e+02
2.099461881613954972e+00 4.741852573988206814e+02
2.099561903618795800e+00 4.740327593844195349e+02
2.099661925623637071e+00 4.738820547739486528e+02
2.099761947628478342e+00 4.737331487385961282e+02
2.099861969633319170e+00 4.735860457621744786e+02
2.099961991638160441e+00 4.734407496412604814e+02
2.100062013643001269e+00 4.732972634856172363e+02
2.100162035647842096e+00 4.731555897189000461e+02
2.100262057652683367e+00 4.730157300796475397e+02
2.100362079657524639e+00 4.728776856225530310e+02
2.100462101662365466e+00 4.727414567200165152e+02
2.100562123667206738e+00 4.726070430639816777e+02
2.100662145672048009e+00 4.724744436680429089e+02
2.100762167676888836e+00 4.723436568698348310e+02
2.100862189681729664e+00 4.722146803336974585e+02
2.100962211686570935e+00 4.720875110536090915e+02
2.101062233691411762e+00 4.719621453564000717e+02
2.101162255696253034e+00 4.718385789052273367e+02
2.101262277701094305e+00 4.717168067033193779e+02
2.101362299705935133e+00 4.715968230979894997e+02
2.101462321710775960e+00 4.714786217849107288e+02
2.101562343715617232e+00 4.713621958126464619e+02
2.101662365720458503e+00 4.712475375874477663e+02
2.101762387725299330e+00 4.711346388782998247e+02
2.101862409730140602e+00 4.710234908222239483e+02
2.101962431734981429e+00 4.709140839298275409e+02
2.102062453739822701e+00 4.708064080911046290e+02
2.102162475744663528e+00 4.707004525814773501e+02
2.102262497749504799e+00 4.705962060680790842e+02
2.102362519754345627e+00 4.704936566162765530e+02
2.102462541759186898e+00 4.703927916964256610e+02
2.102562563764028170e+00 4.702935981908564713e+02
2.102662585768868997e+00 4.701960624010902734e+02
2.102762607773709824e+00 4.701001700552764078e+02
2.102862629778551096e+00 4.700059063158515187e+02
2.102962651783392367e+00 4.699132557874147551e+02
2.103062673788233194e+00 4.698222025248151681e+02
2.103162695793074466e+00 4.697327300414522142e+02
2.103262717797915293e+00 4.696448213177724824e+02
2.103362739802756565e+00 4.695584588099778216e+02
2.103462761807597392e+00 4.694736244589215630e+02
2.103562783812438663e+00 4.693902996992014778e+02
2.103662805817279491e+00 4.693084654684415113e+02
2.103762827822120762e+00 4.692281022167546780e+02
2.103862849826962034e+00 4.691491899163864332e+02
2.103962871831802861e+00 4.690717080715359657e+02
2.104062893836644133e+00 4.689956357283420516e+02
2.104162915841484960e+00 4.689209514850415417e+02
2.104262937846325787e+00 4.688476335022826333e+02
2.104362959851167059e+00 4.687756595136005444e+02
2.104462981856008330e+00 4.687050068360400701e+02
2.104563003860849157e+00 4.686356523809290024e+02
2.104663025865690429e+00 4.685675726647881447e+02
2.104763047870531700e+00 4.685007438203864467e+02
2.104863069875372084e+00 4.684351416079213095e+02
2.104963091880213355e+00 4.683707414263282658e+02
2.105063113885054626e+00 4.683075183247147493e+02
2.105163135889895454e+00 4.682454470139072100e+02
2.105263157894736725e+00 4.681845018781139629e+02
2.105363179899577997e+00 4.681246569866924574e+02
2.105463201904418824e+00 4.680658861060172740e+02
2.105563223909259651e+00 4.680081627114479943e+02
2.105663245914100923e+00 4.679514599993842126e+02
2.105763267918941750e+00 4.678957508994092791e+02
2.105863289923783022e+00 4.678410080865130567e+02
2.105963311928624293e+00 4.677872039933895394e+02
2.106063333933465120e+00 4.677343108228078563e+02
2.106163355938306392e+00 4.676823005600411989e+02
2.106263377943147219e+00 4.676311449853629369e+02
2.106363399947988491e+00 4.675808156865895739e+02
2.106463421952829318e+00 4.675312840716759979e+02
2.106563443957670589e+00 4.674825213813550135e+02
2.106663465962511417e+00 4.674344987018089341e+02
2.106763487967352688e+00 4.673871869773795424e+02
2.106863509972193960e+00 4.673405570233026651e+02
2.106963531977034787e+00 4.672945795384616758e+02
2.107063553981875614e+00 4.672492251181626557e+02
2.107163575986716886e+00 4.672044642669146697e+02
2.107263597991558157e+00 4.671602674112192517e+02
2.107363619996398985e+00 4.671166049123581843e+02
2.107463642001240256e+00 4.670734470791769581e+02
2.107563664006081083e+00 4.670307641808559538e+02
2.107663686010922355e+00 4.669885264596676393e+02
2.107763708015763182e+00 4.669467041437123953e+02
2.107863730020604454e+00 4.669052674596242696e+02
2.107963752025445281e+00 4.668641866452516638e+02
2.108063774030286552e+00 4.668234319622939097e+02
2.108163796035127824e+00 4.667829737089001583e+02
2.108263818039968651e+00 4.667427822322214297e+02
2.108363840044809479e+00 4.667028279409043421e+02
2.108463862049650750e+00 4.666630813175362960e+02
2.108563884054492021e+00 4.666235129310203433e+02
2.108663906059332849e+00 4.665840934488861080e+02
2.108763928064174120e+00 4.665447936495267527e+02
2.108863950069014948e+00 4.665055844343603439e+02
2.108963972073856219e+00 4.664664368399062369e+02
2.109063994078697046e+00 4.664273220497765351e+02
2.109164016083538318e+00 4.663882114065729070e+02
2.109264038088379145e+00 4.663490764236885298e+02
2.109364060093220417e+00 4.663098887970094211e+02
2.109464082098061688e+00 4.662706204165065174e+02
2.109564104102902515e+00 4.662312433777191814e+02
2.109664126107743787e+00 4.661917299931226353e+02
2.109764148112584614e+00 4.661520528033771598e+02
2.109864170117425441e+00 4.661121845884499635e+02
2.109964192122266713e+00 4.660720983786127931e+02
2.110064214127107984e+00 4.660317674653015274e+02
2.110164236131948812e+00 4.659911654118436672e+02
2.110264258136790083e+00 4.659502660640425802e+02
2.110364280141631355e+00 4.659090435606136680e+02
2.110464302146471738e+00 4.658674723434781413e+02
2.110564324151313009e+00 4.658255271678954728e+02
2.110664346156154281e+00 4.657831831124447035e+02
2.110764368160995108e+00 4.657404155888413015e+02
2.110864390165836380e+00 4.656972003515916754e+02
2.110964412170677651e+00 4.656535135074768732e+02
2.111064434175518478e+00 4.656093315248671729e+02
2.111164456180359306e+00 4.655646312428588089e+02
2.111264478185200577e+00 4.655193898802334616e+02
2.111364500190041404e+00 4.654735850442334595e+02
2.111464522194882676e+00 4.654271947391546291e+02
2.111564544199723947e+00 4.653801973747479224e+02
2.111664566204564775e+00 4.653325717744302210e+02
2.111764588209406046e+00 4.652842971832998842e+02
2.111864610214246873e+00 4.652353532759575501e+02
2.111964632219088145e+00 4.651857201641198571e+02
2.112064654223928972e+00 4.651353784040371693e+02
2.112164676228770244e+00 4.650843090037025149e+02
2.112264698233611071e+00 4.650324934298488415e+02
2.112364720238452342e+00 4.649799136147418039e+02
2.112464742243293614e+00 4.649265519627541607e+02
2.112564764248134441e+00 4.648723913567251884e+02
2.112664786252975269e+00 4.648174151641055687e+02
2.112764808257816540e+00 4.647616072428772895e+02
2.112864830262657811e+00 4.647049519472561769e+02
2.112964852267498639e+00 4.646474341331689288e+02
2.113064874272339910e+00 4.645890391635017522e+02
2.113164896277180738e+00 4.645297529131266856e+02
2.113264918282022009e+00 4.644695617736949202e+02
2.113364940286862836e+00 4.644084526582005310e+02
2.113464962291704108e+00 4.643464130053131953e+02
2.113564984296544935e+00 4.642834307834751826e+02
2.113665006301386207e+00 4.642194944947672752e+02
2.113765028306227478e+00 4.641545931785353218e+02
2.113865050311068305e+00 4.640887164147819135e+02
2.113965072315909133e+00 4.640218543273201703e+02
2.114065094320750404e+00 4.639539975866870805e+02
2.114165116325591676e+00 4.638851374128204839e+02
2.114265138330432503e+00 4.638152655774936193e+02
2.114365160335273774e+00 4.637443744065094506e+02
2.114465182340114602e+00 4.636724567816542049e+02
2.114565204344955873e+00 4.635995061424100641e+02
2.114665226349796701e+00 4.635255164874242837e+02
2.114765248354637972e+00 4.634504823757372378e+02
2.114865270359478799e+00 4.633743989277714945e+02
2.114965292364320071e+00 4.632972618260720878e+02
2.115065314369161342e+00 4.632190673158120262e+02
2.115165336374002170e+00 4.631398122050519532e+02
2.115265358378843441e+00 4.630594938647589629e+02
2.115365380383684268e+00 4.629781102285874681e+02
2.115465402388525096e+00 4.628956597924146763e+02
2.115565424393366367e+00 4.628121416136400512e+02
2.115665446398207639e+00 4.627275553102467143e+02
2.115765468403048466e+00 4.626419010596177941e+02
2.115865490407889737e+00 4.625551795971242655e+02
2.115965512412731009e+00 4.624673922144708627e+02
2.116065534417571392e+00 4.623785407578054105e+02
2.116165556422412664e+00 4.622886276256004976e+02
2.116265578427253935e+00 4.621976557662941332e+02
2.116365600432094762e+00 4.621056286757055886e+02
2.116465622436936034e+00 4.620125503942172713e+02
2.116565644441777305e+00 4.619184255037282583e+02
2.116665666446618133e+00 4.618232591243822185e+02
2.116765688451458960e+00 4.617270569110690985e+02
2.116865710456300231e+00 4.616298250497041522e+02
2.116965732461141059e+00 4.615315702532834621e+02
2.117065754465982330e+00 4.614322997577223191e+02
2.117165776470823602e+00 4.613320213174729929e+02
2.117265798475664429e+00 4.612307432009315562e+02
2.117365820480505700e+00 4.611284741856261462e+02
2.117465842485346528e+00 4.610252235531972929e+02
2.117565864490187799e+00 4.609210010841703706e+02
2.117665886495028627e+00 4.608158170525185824e+02
2.117765908499869898e+00 4.607096822200265365e+02
2.117865930504710725e+00 4.606026078304497560e+02
2.117965952509551997e+00 4.604946056034775097e+02
2.118065974514393268e+00 4.603856877284983966e+02
2.118165996519234096e+00 4.602758668581758457e+02
2.118266018524074923e+00 4.601651561018313714e+02
2.118366040528916194e+00 4.600535690186429179e+02
2.118466062533757466e+00 4.599411196106581201e+02
2.118566084538598293e+00 4.598278223156280546e+02
2.118666106543439565e+00 4.597136919996629558e+02
2.118766128548280392e+00 4.595987439497127980e+02
2.118866150553121663e+00 4.594829938658808715e+02
2.118966172557962491e+00 4.593664578535638725e+02
2.119066194562803762e+00 4.592491524154339686e+02
2.119166216567644589e+00 4.591310944432567567e+02
2.119266238572485861e+00 4.590123012095526747e+02
2.119366260577327132e+00 4.588927903591068116e+02
2.119466282582167960e+00 4.587725799003293332e+02
2.119566304587008787e+00 4.586516881964645904e+02
2.119666326591850058e+00 4.585301339566677257e+02
2.119766348596691330e+00 4.584079362269330886e+02
2.119866370601532157e+00 4.582851143808969141e+02
2.119966392606373429e+00 4.581616881105017569e+02
2.120066414611214256e+00 4.580376774165417260e+02
2.120166436616055083e+00 4.579131025990803892e+02
2.120266458620896355e+00 4.577879842477532861e+02
2.120366480625737626e+00 4.576623432319522635e+02
2.120466502630578454e+00 4.575362006909069237e+02
2.120566524635419725e+00 4.574095780236519886e+02
2.120666546640260997e+00 4.572824968789005311e+02
2.120766568645101824e+00 4.571549791448127280e+02
2.120866590649942651e+00 4.570270469386798027e+02
2.120966612654783923e+00 4.568987225965117887e+02
2.121066634659624750e+00 4.567700286625450303e+02
2.121166656664466021e+00 4.566409878786702166e+02
2.121266678669307293e+00 4.565116231737828230e+02
2.121366700674148120e+00 4.563819576530639779e+02
2.121466722678989392e+00 4.562520145871941395e+02
2.121566744683830219e+00 4.561218174015064051e+02
2.121666766688671046e+00 4.559913896650809875e+02
2.121766788693512318e+00 4.558607550797847807e+02
2.121866810698353589e+00 4.557299374692688048e+02
2.121966832703194417e+00 4.555989607679146616e+02
2.122066854708035688e+00 4.554678490097475674e+02
2.122166876712876959e+00 4.553366263173097650e+02
2.122266898717717787e+00 4.552053168905106304e+02
2.122366920722558614e+00 4.550739449954418205e+02
2.122466942727399886e+00 4.549425349531837810e+02
2.122566964732240713e+00 4.548111111285850257e+02
2.122666986737081984e+00 4.546796979190378352e+02
2.122767008741923256e+00 4.545483197432415636e+02
2.122867030746764083e+00 4.544170010299691285e+02
2.122967052751604911e+00 4.542857662068311129e+02
2.123067074756446182e+00 4.541546396890502137e+02
2.123167096761287453e+00 4.540236458682468310e+02
2.123267118766128281e+00 4.538928091012401183e+02
2.123367140770969552e+00 4.537621536988696676e+02
2.123467162775810380e+00 4.536317039148460140e+02
2.123567184780651651e+00 4.535014839346271174e+02
2.123667206785492478e+00 4.533715178643320769e+02
2.123767228790333750e+00 4.532418297196937829e+02
2.123867250795174577e+00 4.531124434150561910e+02
2.123967272800015849e+00 4.529833827524162189e+02
2.124067294804857120e+00 4.528546714105253841e+02
2.124167316809697947e+00 4.527263329340416362e+02
2.124267338814539219e+00 4.525983907227481495e+02
2.124367360819380046e+00 4.524708680208358942e+02
2.124467382824221318e+00 4.523437879062569777e+02
2.124567404829062145e+00 4.522171732801550093e+02
2.124667426833903416e+00 4.520910468563714062e+02
2.124767448838744244e+00 4.519654311510394109e+02
2.124867470843585515e+00 4.518403484722625194e+02
2.124967492848426787e+00 4.517158209098872703e+02
2.125067514853267614e+00 4.515918703253726108e+02
2.125167536858108441e+00 4.514685183417576013e+02
2.125267558862949713e+00 4.513457863337368963e+02
2.125367580867790984e+00 4.512236954178412134e+02
2.125467602872631812e+00 4.511022664427367772e+02
2.125567624877473083e+00 4.509815199796329921e+02
2.125667646882313910e+00 4.508614763128190361e+02
2.125767668887154738e+00 4.507421554303205653e+02
2.125867690891996009e+00 4.506235770146869299e+02
2.125967712896837281e+00 4.505057604339074260e+02
2.126067734901678108e+00 4.503887247324688019e+02
2.126167756906519379e+00 4.502724886225500427e+02
2.126267778911360651e+00 4.501570704753565906e+02
2.126367800916201478e+00 4.500424883126100326e+02
2.126467822921042305e+00 4.499287597981811473e+02
2.126567844925883577e+00 4.498159022298791569e+02
2.126667866930724404e+00 4.497039325314008238e+02
2.126767888935565676e+00 4.495928672444355243e+02
2.126867910940406947e+00 4.494827225209380117e+02
2.126967932945247775e+00 4.493735141155676729e+02
2.127067954950089046e+00 4.492652573782978038e+02
2.127167976954929873e+00 4.491579672471984850e+02
2.127267998959770701e+00 4.490516582413949891e+02
2.127368020964611972e+00 4.489463444542082584e+02
2.127468042969453244e+00 4.488420395464742114e+02
2.127568064974294071e+00 4.487387567400514854e+02
2.127668086979135342e+00 4.486365088115139770e+02
2.127768108983976614e+00 4.485353080860365935e+02
2.127868130988817441e+00 4.484351664314736468e+02
2.127968152993658268e+00 4.483360952526302299e+02
2.128068174998499540e+00 4.482381054857364120e+02
2.128168197003340367e+00 4.481412075931162917e+02
2.128268219008181639e+00 4.480454115580643020e+02
2.128368241013022910e+00 4.479507268799247868e+02
2.128468263017863737e+00 4.478571625693773512e+02
2.128568285022704565e+00 4.477647271439344649e+02
2.128668307027545836e+00 4.476734286236461458e+02
2.128768329032387108e+00 4.475832745270201940e+02
2.128868351037227935e+00 4.474942718671580906e+02
2.128968373042069206e+00 4.474064271481032620e+02
2.129068395046910034e+00 4.473197463614103526e+02
2.129168417051751305e+00 4.472342349829353907e+02
2.129268439056592133e+00 4.471498979698430389e+02
2.129368461061433404e+00 4.470667397578388886e+02
2.129468483066274231e+00 4.469847642586262282e+02
2.129568505071115503e+00 4.469039748575847852e+02
2.129668527075956774e+00 4.468243744116770699e+02
2.129768549080797602e+00 4.467459652475820917e+02
2.129868571085638873e+00 4.466687491600575868e+02
2.129968593090479700e+00 4.465927274105285960e+02
2.130068615095320972e+00 4.465179007259069408e+02
2.130168637100161799e+00 4.464442692976410285e+02
2.130268659105003071e+00 4.463718327809975790e+02
2.130368681109843898e+00 4.463005902945711796e+02
2.130468703114685169e+00 4.462305404200279213e+02
2.130568725119526441e+00 4.461616812020818088e+02
2.130668747124367268e+00 4.460940101487000788e+02
2.130768769129208096e+00 4.460275242315433388e+02
2.130868791134049367e+00 4.459622198866376266e+02
2.130968813138890638e+00 4.458980930152757765e+02
2.131068835143731466e+00 4.458351389851560498e+02
2.131168857148572737e+00 4.457733526317471160e+02
2.131268879153413565e+00 4.457127282598881948e+02
2.131368901158254392e+00 4.456532596456173678e+02
2.131468923163095663e+00 4.455949400382316981e+02
2.131568945167936935e+00 4.455377621625776783e+02
2.131668967172777762e+00 4.454817182215700768e+02
2.131768989177619034e+00 4.454267998989375315e+02
2.131869011182460305e+00 4.453729983621961992e+02
2.131969033187301132e+00 4.453203042658539061e+02
2.132069055192141960e+00 4.452687077548314960e+02
2.132169077196983231e+00 4.452181984681157587e+02
2.132269099201824059e+00 4.451687655426304673e+02
2.132369121206665330e+00 4.451203976173309798e+02
2.132469143211506601e+00 4.450730828375174042e+02
2.132569165216347429e+00 4.450268088593693392e+02
2.132669187221188700e+00 4.449815628546920721e+02
2.132769209226029528e+00 4.449373315158834430e+02
2.132869231230870355e+00 4.448941010611099500e+02
2.132969253235711626e+00 4.448518572396981199e+02
2.133069275240552898e+00 4.448105853377304015e+02
2.133169297245393725e+00 4.447702701838529720e+02
2.133269319250234997e+00 4.447308961552867004e+02
2.133369341255076268e+00 4.446924471840418391e+02
2.133469363259917095e+00 4.446549067633328605e+02
2.133569385264757923e+00 4.446182579541904261e+02
2.133669407269599194e+00 4.445824833922728203e+02
2.133769429274440022e+00 4.445475652948686616e+02
2.133869451279281293e+00 4.445134854680877083e+02
2.133969473284122564e+00 4.444802253142439667e+02
2.134069495288963392e+00 4.444477658394212654e+02
2.134169517293804219e+00 4.444160876612226048e+02
2.134269539298645491e+00 4.443851710166971998e+02
2.134369561303486762e+00 4.443549957704445887e+02
2.134469583308327589e+00 4.443255414228932523e+02
2.134569605313168861e+00 4.442967871187468631e+02
2.134669627318009688e+00 4.442687116555983380e+02
2.134769649322850960e+00 4.442412934927079959e+02
2.134869671327691787e+00 4.442145107599420157e+02
2.134969693332533058e+00 4.441883412668654501e+02
2.135069715337373886e+00 4.441627625119901950e+02
2.135169737342215157e+00 4.441377516921718325e+02
2.135269759347056429e+00 4.441132857121521056e+02
2.135369781351897256e+00 4.440893411942453213e+02
2.135469803356738527e+00 4.440658944881587331e+02
2.135569825361579355e+00 4.440429216809533841e+02
2.135669847366420626e+00 4.440203986071295503e+02
2.135769869371261453e+00 4.439983008588441180e+02
2.135869891376102725e+00 4.439766037962463088e+02
2.135969913380943552e+00 4.439552825579356750e+02
2.136069935385784824e+00 4.439343120715304281e+02
2.136169957390625651e+00 4.439136670643500793e+02
2.136269979395466923e+00 4.438933220742006256e+02
2.136370001400307750e+00 4.438732514602646688e+02
2.136470023405149021e+00 4.438534294140864631e+02
2.136570045409990293e+00 4.438338299706501857e+02
2.136670067414831120e+00 4.438144270195496119e+02
2.136770089419672392e+00 4.437951943162372004e+02
2.136870111424513219e+00 4.437761054933569653e+02
2.136970133429354046e+00 4.437571340721507909e+02
2.137070155434195318e+00 4.437382534739357425e+02
2.137170177439036589e+00 4.437194370316461800e+02
2.137270199443877416e+00 4.437006580014380575e+02
2.137370221448718688e+00 4.436818895743506914e+02
2.137470243453559959e+00 4.436631048880179264e+02
2.137570265458400343e+00 4.436442770384293226e+02
2.137670287463241614e+00 4.436253790917315882e+02
2.137770309468082885e+00 4.436063840960690072e+02
2.137870331472923713e+00 4.435872650934540502e+02
2.137970353477764984e+00 4.435679951316703864e+02
2.138070375482606256e+00 4.435485472761960750e+02
2.138170397487447083e+00 4.435288946221420474e+02
2.138270419492287910e+00 4.435090103062119056e+02
2.138370441497129182e+00 4.434888675186614364e+02
2.138470463501970009e+00 4.434684395152686420e+02
2.138570485506811281e+00 4.434476996292956983e+02
2.138670507511652552e+00 4.434266212834522776e+02
2.138770529516493379e+00 4.434051780018398858e+02
2.138870551521334651e+00 4.433833434218845468e+02
2.138970573526175478e+00 4.433610913062488521e+02
2.139070595531016750e+00 4.433383955547126334e+02
2.139170617535857577e+00 4.433152302160297609e+02
2.139270639540698848e+00 4.432915694997424225e+02
2.139370661545539676e+00 4.432673877879586826e+02
2.139470683550380947e+00 4.432426596470833147e+02
2.139570705555222219e+00 4.432173598394946339e+02
2.139670727560063046e+00 4.431914633351711927e+02
2.139770749564903873e+00 4.431649453232530504e+02
2.139870771569745145e+00 4.431377812235397755e+02
2.139970793574586416e+00 4.431099466979173371e+02
2.140070815579427244e+00 4.430814176617110434e+02
2.140170837584268515e+00 4.430521702949573637e+02
2.140270859589109342e+00 4.430221810535903160e+02
2.140370881593950614e+00 4.429914266805405418e+02
2.140470903598791441e+00 4.429598842167357589e+02
2.140570925603632713e+00 4.429275310120097515e+02
2.140670947608473540e+00 4.428943447358989829e+02
2.140770969613314811e+00 4.428603033883363764e+02
2.140870991618156083e+00 4.428253853102313542e+02
2.140971013622996910e+00 4.427895691939301059e+02
2.141071035627837738e+00 4.427528340935564302e+02
2.141171057632679009e+00 4.427151594352249617e+02
2.141271079637520280e+00 4.426765250271229206e+02
2.141371101642361108e+00 4.426369110694561186e+02
2.141471123647202379e+00 4.425962981642579166e+02
2.141571145652043207e+00 4.425546673250499339e+02
2.141671167656884478e+00 4.425119999863581484e+02
2.141771189661725305e+00 4.424682780130746664e+02
2.141871211666566577e+00 4.424234837096628326e+02
2.141971233671407404e+00 4.423775998292009035e+02
2.142071255676248676e+00 4.423306095822630368e+02
2.142171277681089947e+00 4.422824966456305447e+02
2.142271299685930774e+00 4.422332451708276153e+02
2.142371321690772046e+00 4.421828397924862202e+02
2.142471343695612873e+00 4.421312656365250291e+02
2.142571365700453700e+00 4.420785083281468246e+02
2.142671387705294972e+00 4.420245539996495836e+02
2.142771409710136243e+00 4.419693892980412784e+02
2.142871431714977071e+00 4.419130013924679474e+02
2.142971453719818342e+00 4.418553779814340601e+02
2.143071475724659614e+00 4.417965072998288747e+02
2.143171497729499997e+00 4.417363781257429878e+02
2.143271519734341268e+00 4.416749797870809289e+02
2.143371541739182540e+00 4.416123021679579779e+02
2.143471563744023367e+00 4.415483357148862069e+02
2.143571585748864639e+00 4.414830714427416751e+02
2.143671607753705910e+00 4.414165009405123214e+02
2.143771629758546737e+00 4.413486163768209281e+02
2.143871651763387565e+00 4.412794105052262807e+02
2.143971673768228836e+00 4.412088766692916693e+02
2.144071695773069663e+00 4.411370088074247633e+02
2.144171717777910935e+00 4.410638014574849421e+02
2.144271739782752206e+00 4.409892497611535873e+02
2.144371761787593034e+00 4.409133494680676790e+02
2.144471783792434305e+00 4.408360969397102167e+02
2.144571805797275132e+00 4.407574891530654781e+02
2.144671827802116404e+00 4.406775237040204161e+02
2.144771849806957231e+00 4.405961988105302680e+02
2.144871871811798503e+00 4.405135133155274616e+02
2.144971893816639330e+00 4.404294666895887644e+02
2.145071915821480601e+00 4.403440590333449336e+02
2.145171937826321873e+00 4.402572910796431529e+02
2.145271959831162700e+00 4.401691641954511738e+02
2.145371981836003528e+00 4.400796803835096966e+02
2.145472003840844799e+00 4.399888422837270809e+02
2.145572025845686071e+00 4.398966531743158157e+02
2.145672047850526898e+00 4.398031169726727398e+02
2.145772069855368169e+00 4.397082382359985786e+02
2.145872091860208997e+00 4.396120221616569097e+02
2.145972113865050268e+00 4.395144745872738099e+02
2.146072135869891095e+00 4.394156019905786934e+02
2.146172157874732367e+00 4.393154114889753714e+02
2.146272179879573194e+00 4.392139108388620912e+02
2.146372201884414466e+00 4.391111084346803182e+02
2.146472223889255737e+00 4.390070133077085757e+02
2.146572245894096564e+00 4.389016351245861642e+02
2.146672267898937392e+00 4.387949841855839281e+02
2.146772289903778663e+00 4.386870714226042764e+02
2.146872311908619935e+00 4.385779083969263183e+02
2.146972333913460762e+00 4.384675072966859943e+02
2.147072355918302033e+00 4.383558809340988205e+02
2.147172377923142861e+00 4.382430427424166055e+02
2.147272399927984132e+00 4.381290067726347388e+02
2.147372421932824960e+00 4.380137876899312914e+02
2.147472443937666231e+00 4.378974007698560058e+02
2.147572465942507058e+00 4.377798618942587154e+02
2.147672487947348330e+00 4.376611875469649249e+02
2.147772509952189601e+00 4.375413948091968450e+02
2.147872531957030429e+00 4.374205013547440331e+02
2.147972553961871700e+00 4.372985254448796013e+02
2.148072575966712527e+00 4.371754859230318289e+02
2.148172597971553355e+00 4.370514022092038999e+02
2.148272619976394626e+00 4.369262942941512051e+02
2.148372641981235898e+00 4.368001827333163192e+02
2.148472663986076725e+00 4.366730886405175625e+02
2.148572685990917996e+00 4.365450336814029129e+02
2.148672707995759268e+00 4.364160400666644932e+02
2.148772730000599651e+00 4.362861305450205691e+02
2.148872752005440923e+00 4.361553283959621012e+02
2.148972774010282194e+00 4.360236574222722084e+02
2.149072796015123021e+00 4.358911419423188249e+02
2.149172818019964293e+00 4.357578067821224295e+02
2.149272840024805564e+00 4.356236772672003781e+02
2.149372862029646392e+00 4.354887792141986438e+02
2.149472884034487219e+00 4.353531389223032875e+02
2.149572906039328490e+00 4.352167831644410398e+02
2.149672928044169318e+00 4.350797391782713248e+02
2.149772950049010589e+00 4.349420346569762614e+02
2.149872972053851861e+00 4.348036977398415956e+02
2.149972994058692688e+00 4.346647570026465246e+02
2.150073016063533959e+00 4.345252414478541141e+02
2.150173038068374787e+00 4.343851804946123139e+02
2.150273060073216058e+00 4.342446039685677306e+02
2.150373082078056886e+00 4.341035420914963652e+02
2.150473104082898157e+00 4.339620254707541562e+02
2.150573126087738984e+00 4.338200850885529007e+02
2.150673148092580256e+00 4.336777522910642801e+02
2.150773170097421527e+00 4.335350587773575626e+02
2.150873192102262355e+00 4.333920365881761541e+02
2.150973214107103182e+00 4.332487180945518617e+02
2.151073236111944453e+00 4.331051359862696017e+02
2.151173258116785725e+00 4.329613232601808477e+02
2.151273280121626552e+00 4.328173132083709902e+02
2.151373302126467824e+00 4.326731394061913534e+02
2.151473324131308651e+00 4.325288357001504096e+02
2.151573346136149922e+00 4.323844361956766988e+02
2.151673368140990750e+00 4.322399752447593642e+02
2.151773390145832021e+00 4.320954874334608462e+02
2.151873412150672848e+00 4.319510075693206659e+02
2.151973434155514120e+00 4.318065706686455201e+02
2.152073456160355391e+00 4.316622119436928529e+02
2.152173478165196219e+00 4.315179667897566560e+02
2.152273500170037046e+00 4.313738707721540777e+02
2.152373522174878318e+00 4.312299596131270505e+02
2.152473544179719589e+00 4.310862691786535947e+02
2.152573566184560416e+00 4.309428354651854534e+02
2.152673588189401688e+00 4.307996945863066003e+02
2.152773610194242515e+00 4.306568827593263791e+02
2.152873632199083787e+00 4.305144362918067031e+02
2.152973654203924614e+00 4.303723915680362779e+02
2.153073676208765885e+00 4.302307850354457628e+02
2.153173698213606713e+00 4.300896531909828582e+02
2.153273720218447984e+00 4.299490325674432825e+02
2.153373742223289256e+00 4.298089597197658236e+02
2.153473764228130083e+00 4.296694712112980596e+02
2.153573786232970910e+00 4.295306036000396261e+02
2.153673808237812182e+00 4.293923934248651335e+02
2.153773830242653009e+00 4.292548771917333852e+02
2.153873852247494280e+00 4.291180913598942084e+02
2.153973874252335552e+00 4.289820723280872699e+02
2.154073896257176379e+00 4.288468564207486224e+02
2.154173918262017651e+00 4.287124798742311214e+02
2.154273940266858478e+00 4.285789788230322301e+02
2.154373962271699305e+00 4.284463892860495662e+02
2.154473984276540577e+00 4.283147471528633901e+02
2.154574006281381848e+00 4.281840881700476871e+02
2.154674028286222676e+00 4.280544479275264393e+02
2.154774050291063947e+00 4.279258618449670166e+02
2.154874072295905219e+00 4.277983651582309221e+02
2.154974094300746046e+00 4.276719929058747880e+02
2.155074116305586873e+00 4.275467799157150921e+02
2.155174138310428145e+00 4.274227607914602913e+02
2.155274160315268972e+00 4.272999698994155438e+02
2.155374182320110243e+00 4.271784413552653064e+02
2.155474204324951515e+00 4.270582090109383557e+02
2.155574226329792342e+00 4.269393064415671688e+02
2.155674248334633170e+00 4.268217669325369457e+02
2.155774270339474441e+00 4.267056234666366095e+02
2.155874292344315712e+00 4.265909087113194573e+02
2.155974314349156540e+00 4.264776550060690852e+02
2.156074336353997811e+00 4.263658943498871849e+02
2.156174358358838639e+00 4.262556583889000876e+02
2.156274380363679910e+00 4.261469784040961031e+02
2.156374402368520737e+00 4.260398852991900185e+02
2.156474424373362009e+00 4.259344095886308992e+02
2.156574446378202836e+00 4.258305813857511453e+02
2.156674468383044108e+00 4.257284303910607832e+02
2.156774490387885379e+00 4.256279858806969969e+02
2.156874512392726206e+00 4.255292766950344117e+02
2.156974534397567478e+00 4.254323312274518685e+02
2.157074556402408305e+00 4.253371774132722294e+02
2.157174578407249577e+00 4.252438427188717469e+02
2.157274600412090404e+00 4.251523541309676943e+02
2.157374622416931675e+00 4.250627381460871561e+02
2.157474644421772503e+00 4.249750207602243108e+02
2.157574666426613774e+00 4.248892274586841609e+02
2.157674688431455046e+00 4.248053832061247590e+02
2.157774710436295873e+00 4.247235124367998083e+02
2.157874732441136700e+00 4.246436390449989631e+02
2.157974754445977972e+00 4.245657863757068071e+02
2.158074776450819243e+00 4.244899772154606126e+02
2.158174798455660071e+00 4.244162337834339951e+02
2.158274820460501342e+00 4.243445777227377107e+02
2.158374842465342169e+00 4.242750300919408346e+02
2.158474864470182997e+00 4.242076113568238611e+02
2.158574886475024268e+00 4.241423413823588930e+02
2.158674908479865540e+00 4.240792394249280051e+02
2.158774930484706367e+00 4.240183241247747219e+02
2.158874952489547638e+00 4.239596134987020264e+02
2.158974974494388910e+00 4.239031249330095079e+02
2.159074996499229737e+00 4.238488751766825544e+02
2.159175018504070565e+00 4.237968803348285292e+02
2.159275040508911836e+00 4.237471558623676628e+02
2.159375062513752663e+00 4.236997165579803095e+02
2.159475084518593935e+00 4.236545765583150569e+02
2.159575106523435206e+00 4.236117493324511543e+02
2.159675128528276034e+00 4.235712476766341297e+02
2.159775150533117305e+00 4.235330837092708975e+02
2.159875172537958132e+00 4.234972688661968050e+02
2.159975194542798960e+00 4.234638138962095013e+02
2.160075216547640231e+00 4.234327288568815675e+02
2.160175238552481503e+00 4.234040231106403098e+02
2.160275260557322330e+00 4.233777053211294401e+02
2.160375282562163601e+00 4.233537834498452526e+02
2.160475304567004873e+00 4.233322647530538347e+02
2.160575326571845700e+00 4.233131557789885164e+02
2.160675348576686527e+00 4.232964623653294893e+02
2.160775370581527799e+00 4.232821896369657679e+02
2.160875392586368626e+00 4.232703420040428455e+02
2.160975414591209898e+00 4.232609231602946807e+02
2.161075436596051169e+00 4.232539360816616067e+02
2.161175458600891996e+00 4.232493830251951294e+02
2.161275480605732824e+00 4.232472655282493861e+02
2.161375502610574095e+00 4.232475844079615968e+02
2.161475524615415367e+00 4.232503397610173579e+02
2.161575546620256194e+00 4.232555309637068035e+02
2.161675568625097466e+00 4.232631566722684511e+02
2.161775590629938293e+00 4.232732148235201066e+02
2.161875612634779564e+00 4.232857026357761470e+02
2.161975634639620392e+00 4.233006166100565224e+02
2.162075656644461663e+00 4.233179525315774754e+02
2.162175678649302490e+00 4.233377054715328427e+02
2.162275700654143762e+00 4.233598697891577558e+02
2.162375722658985033e+00 4.233844391340783204e+02
2.162475744663825861e+00 4.234114064489481848e+02
2.162575766668667132e+00 4.234407639723599459e+02
2.162675788673507959e+00 4.234725032420466277e+02
2.162775810678349231e+00 4.235066150983576563e+02
2.162875832683190058e+00 4.235430896880153568e+02
2.162975854688031330e+00 4.235819164681493589e+02
2.163075876692872157e+00 4.236230842106033379e+02
2.163175898697713428e+00 4.236665810065185269e+02
2.163275920702554700e+00 4.237123942711871223e+02
2.163375942707395527e+00 4.237605107491742160e+02
2.163475964712236355e+00 4.238109165197084280e+02
2.163575986717077626e+00 4.238635970023378832e+02
2.163676008721918897e+00 4.239185369628454509e+02
2.163776030726759725e+00 4.239757205194277958e+02
2.163876052731600996e+00 4.240351311491283468e+02
2.163976074736441824e+00 4.240967516945277112e+02
2.164076096741282651e+00 4.241605643706822093e+02
2.164176118746123922e+00 4.242265507723139990e+02
2.164276140750965194e+00 4.242946918812431250e+02
2.164376162755806021e+00 4.243649680740667804e+02
2.164476184760647293e+00 4.244373591300710586e+02
2.164576206765488564e+00 4.245118442393844589e+02
2.164676228770329391e+00 4.245884020113563793e+02
2.164776250775170219e+00 4.246670104831689514e+02
2.164876272780011490e+00 4.247476471286729520e+02
2.164976294784852318e+00 4.248302888674402880e+02
2.165076316789693589e+00 4.249149120740359535e+02
2.165176338794534860e+00 4.250014925875036056e+02
2.165276360799375688e+00 4.250900057210552632e+02
2.165376382804216959e+00 4.251804262719704184e+02
2.165476404809057787e+00 4.252727285316886991e+02
2.165576426813898614e+00 4.253668862961051218e+02
2.165676448818739885e+00 4.254628728760477543e+02
2.165776470823581157e+00 4.255606611079503523e+02
2.165876492828421984e+00 4.256602233646995046e+02
2.165976514833263256e+00 4.257615315666615174e+02
2.166076536838104527e+00 4.258645571928822164e+02
2.166176558842945354e+00 4.259692712924505713e+02
2.166276580847786182e+00 4.260756444960285876e+02
2.166376602852627453e+00 4.261836470275328566e+02
2.166476624857468281e+00 4.262932487159744710e+02
2.166576646862309552e+00 4.264044190074382641e+02
2.166676668867150823e+00 4.265171269772091591e+02
2.166776690871991651e+00 4.266313413420327834e+02
2.166876712876832478e+00 4.267470304725042638e+02
2.166976734881673750e+00 4.268641624055870807e+02
2.167076756886515021e+00 4.269827048572477111e+02
2.167176778891355848e+00 4.271026252352044708e+02
2.167276800896197120e+00 4.272238906517873147e+02
2.167376822901037947e+00 4.273464679368996144e+02
2.167476844905879219e+00 4.274703236510759439e+02
2.167576866910720046e+00 4.275954240986324635e+02
2.167676888915561317e+00 4.277217353409013185e+02
2.167776910920402145e+00 4.278492232095500185e+02
2.167876932925243416e+00 4.279778533199661865e+02
2.167976954930084688e+00 4.281075910847195019e+02
2.168076976934925515e+00 4.282384017270794061e+02
2.168176998939766786e+00 4.283702502945916422e+02
2.168277020944607614e+00 4.285031016727064639e+02
2.168377042949448885e+00 4.286369205984479436e+02
2.168477064954289713e+00 4.287716716741249456e+02
2.168577086959130984e+00 4.289073193810712041e+02
2.168677108963971811e+00 4.290438280934155273e+02
2.168777130968813083e+00 4.291811620918688845e+02
2.168877152973654354e+00 4.293192855775281487e+02
2.168977174978495182e+00 4.294581626856866023e+02
2.169077196983336009e+00 4.295977574996474004e+02
2.169177218988177280e+00 4.297380340645332808e+02
2.169277240993018552e+00 4.298789564010852473e+02
2.169377262997859379e+00 4.300204885194481221e+02
2.169477285002700651e+00 4.301625944329302911e+02
2.169577307007541478e+00 4.303052381717400294e+02
2.169677329012382305e+00 4.304483837966821511e+02
2.169777351017223577e+00 4.305919954128225982e+02
2.169877373022064848e+00 4.307360371830997110e+02
2.169977395026905675e+00 4.308804733418870683e+02
2.170077417031746947e+00 4.310252682085004494e+02
2.170177439036588218e+00 4.311703862006390864e+02
2.170277461041429046e+00 4.313157918477566000e+02
2.170377483046269873e+00 4.314614498043600292e+02
2.170477505051111144e+00 4.316073248632255854e+02
2.170577527055951972e+00 4.317533819685295953e+02
2.170677549060793243e+00 4.318995862288845728e+02
2.170777571065634515e+00 4.320459029302814429e+02
2.170877593070475342e+00 4.321922975489251826e+02
2.170977615075316169e+00 4.323387357639606989e+02
2.171077637080157441e+00 4.324851834700914424e+02
2.171177659084998268e+00 4.326316067900663143e+02
2.171277681089839540e+00 4.327779720870543088e+02
2.171377703094680811e+00 4.329242459768778417e+02
2.171477725099521638e+00 4.330703953401189210e+02
2.171577747104362910e+00 4.332163873340783766e+02
2.171677769109203737e+00 4.333621894045929821e+02
2.171777791114045009e+00 4.335077692976995536e+02
2.171877813118885836e+00 4.336530950711452874e+02
2.171977835123727107e+00 4.337981351057362644e+02
2.172077857128567935e+00 4.339428581165188916e+02
2.172177879133409206e+00 4.340872331637947923e+02
2.172277901138250478e+00 4.342312296639574924e+02
2.172377923143091305e+00 4.343748174001538587e+02
2.172477945147932132e+00 4.345179665327551106e+02
2.172577967152773404e+00 4.346606476096483220e+02
2.172677989157614675e+00 4.348028315763280034e+02
2.172778011162455503e+00 4.349444897857962360e+02
2.172878033167296774e+00 4.350855940082591360e+02
2.172978055172137601e+00 4.352261164406214107e+02
2.173078077176978873e+00 4.353660297157690025e+02
2.173178099181819700e+00 4.355053069116432880e+02
2.173278121186660972e+00 4.356439215600973398e+02
2.173378143191501799e+00 4.357818476555324878e+02
2.173478165196343070e+00 4.359190596633126233e+02
2.173578187201184342e+00 4.360555325279537442e+02
2.173678209206025169e+00 4.361912416810797595e+02
2.173778231210865997e+00 4.363261630491520009e+02
2.173878253215707268e+00 4.364602730609552736e+02
2.173978275220548539e+00 4.365935486548536915e+02
2.174078297225389367e+00 4.367259672857989585e+02
2.174178319230230638e+00 4.368575069320958164e+02
2.174278341235071466e+00 4.369881461019252242e+02
2.174378363239912737e+00 4.371178638396115730e+02
2.174478385244753564e+00 4.372466397316458142e+02
2.174578407249594836e+00 4.373744539124485868e+02
2.174678429254435663e+00 4.375012870698828920e+02
2.174778451259276935e+00 4.376271204505058563e+02
2.174878473264118206e+00 4.377519358645624834e+02
2.174978495268959033e+00 4.378757156907196304e+02
2.175078517273800305e+00 4.379984428805362882e+02
2.175178539278641132e+00 4.381201009626654468e+02
2.175278561283481960e+00 4.382406740468013595e+02
2.175378583288323231e+00 4.383601468273477622e+02
2.175478605293164502e+00 4.384785045868277962e+02
2.175578627298005330e+00 4.385957331990206285e+02
2.175678649302846601e+00 4.387118191318294294e+02
2.175778671307687873e+00 4.388267494498808219e+02
2.175878693312528256e+00 4.389405118168516537e+02
2.175978715317369527e+00 4.390530944975258762e+02
2.176078737322210799e+00 4.391644863595814741e+02
2.176178759327051626e+00 4.392746768751013065e+02
2.176278781331892898e+00 4.393836561218170118e+02
2.176378803336734169e+00 4.394914147840798364e+02
2.176478825341574996e+00 4.395979441535602064e+02
2.176578847346415824e+00 4.397032361296746217e+02
2.176678869351257095e+00 4.398072832197469779e+02
2.176778891356097922e+00 4.399100785388933446e+02
2.176878913360939194e+00 4.400116158096437857e+02
2.176978935365780465e+00 4.401118893612922989e+02
2.177078957370621293e+00 4.402108941289811810e+02
2.177178979375462564e+00 4.403086256525164117e+02
2.177279001380303391e+00 4.404050800749241716e+02
2.177379023385144663e+00 4.405002541407369563e+02
2.177479045389985490e+00 4.405941451940218485e+02
2.177579067394826762e+00 4.406867511761464584e+02
2.177679089399667589e+00 4.407780706232870784e+02
2.177779111404508861e+00 4.408681026636819524e+02
2.177879133409350132e+00 4.409568470146226673e+02
2.177979155414190959e+00 4.410443039792008904e+02
2.178079177419031787e+00 4.411304744428019831e+02
2.178179199423873058e+00 4.412153598693448089e+02
2.178279221428714330e+00 4.412989622972846746e+02
2.178379243433555157e+00 4.413812843353666153e+02
2.178479265438396428e+00 4.414623291581402782e+02
2.178579287443237256e+00 4.415421005012358933e+02
2.178679309448078527e+00 4.416206026564071863e+02
2.178779331452919354e+00 4.416978404663396418e+02
2.178879353457760626e+00 4.417738193192318477e+02
2.178979375462601453e+00 4.418485451431506590e+02
2.179079397467442725e+00 4.419220244001637070e+02
2.179179419472283996e+00 4.419942640802519236e+02
2.179279441477124823e+00 4.420652716950095851e+02
2.179379463481965651e+00 4.421350552711280670e+02
2.179479485486806922e+00 4.422036233436762132e+02
2.179579507491648194e+00 4.422709849491712362e+02
2.179679529496489021e+00 4.423371496184537932e+02
2.179779551501330292e+00 4.424021273693628586e+02
2.179879573506171120e+00 4.424659286992198304e+02
2.179979595511012391e+00 4.425285645771245413e+02
2.180079617515853219e+00 4.425900464360667002e+02
2.180179639520694490e+00 4.426503861648545808e+02
2.180279661525535317e+00 4.427095960998751707e+02
2.180379683530376589e+00 4.427676890166750923e+02
2.180479705535217860e+00 4.428246781213805434e+02
2.180579727540058688e+00 4.428805770419544388e+02
2.180679749544899959e+00 4.429353998192948438e+02
2.180779771549740786e+00 4.429891608981804438e+02
2.180879793554581614e+00 4.430418751180719710e+02
2.180979815559422885e+00 4.430935577037677149e+02
2.181079837564264157e+00 4.431442242559193119e+02
2.181179859569104984e+00 4.431938907414207165e+02
2.181279881573946255e+00 4.432425734836633637e+02
2.181379903578787527e+00 4.432902891526717326e+02
2.181479925583627910e+00 4.433370547551202208e+02
2.181579947588469182e+00 4.433828876242364458e+02
2.181679969593310453e+00 4.434278054095999551e+02
2.181779991598151280e+00 4.434718260668366838e+02
2.181880013602992552e+00 4.435149678472178039e+02
2.181980035607833823e+00 4.435572492871652912e+02
2.182080057612674651e+00 4.435986891976745596e+02
2.182180079617515478e+00 4.436393066536535343e+02
2.182280101622356749e+00 4.436791209831889091e+02
2.182380123627197577e+00 4.437181517567400988e+02
2.182480145632038848e+00 4.437564187762713459e+02
2.182580167636880120e+00 4.437939420643230051e+02
2.182680189641720947e+00 4.438307418530314408e+02
2.182780211646562218e+00 4.438668385730984483e+02
2.182880233651403046e+00 4.439022528427212819e+02
2.182980255656244317e+00 4.439370054564836892e+02
2.183080277661085145e+00 4.439711173742183519e+02
2.183180299665926416e+00 4.440046097098385758e+02
2.183280321670767243e+00 4.440375037201555983e+02
2.183380343675608515e+00 4.440698207936786730e+02
2.183480365680449786e+00 4.441015824394041260e+02
2.183580387685290614e+00 4.441328102756052090e+02
2.183680409690131441e+00 4.441635260186201322e+02
2.183780431694972712e+00 4.441937514716468058e+02
2.183880453699813984e+00 4.442235085135557711e+02
2.183980475704654811e+00 4.442528190877149541e+02
2.184080497709496083e+00 4.442817051908427857e+02
2.184180519714336910e+00 4.443101888618864450e+02
2.184280541719178181e+00 4.443382921709390985e+02
2.184380563724019009e+00 4.443660372081930632e+02
2.184480585728860280e+00 4.443934460729389002e+02
2.184580607733701108e+00 4.444205408626160647e+02
2.184680629738542379e+00 4.444473436619184668e+02
2.184780651743383650e+00 4.444738765319592630e+02
2.184880673748224478e+00 4.445001614995039176e+02
2.184980695753065305e+00 4.445262205462724410e+02
2.185080717757906577e+00 4.445520755983190497e+02
2.185180739762747848e+00 4.445777485154883948e+02
2.185280761767588675e+00 4.446032610809658081e+02
2.185380783772429947e+00 4.446286349909101432e+02
2.185480805777270774e+00 4.446538918441846704e+02
2.185580827782112046e+00 4.446790531321923368e+02
2.185680849786952873e+00 4.447041402288081144e+02
2.185780871791794144e+00 4.447291743804300950e+02
2.185880893796634972e+00 4.447541766961344933e+02
2.185980915801476243e+00 4.447791681379576403e+02
2.186080937806317515e+00 4.448041695112978573e+02
2.186180959811158342e+00 4.448292014554423304e+02
2.186280981815999613e+00 4.448542844342294416e+02
2.186381003820840441e+00 4.448794387268424089e+02
2.186481025825681268e+00 4.449046844187475358e+02
2.186581047830522539e+00 4.449300413927732052e+02
2.186681069835363811e+00 4.449555293203342217e+02
2.186781091840204638e+00 4.449811676528133830e+02
2.186881113845045910e+00 4.450069756130934024e+02
2.186981135849887181e+00 4.450329721872490722e+02
2.187081157854727564e+00 4.450591761164046147e+02
2.187181179859568836e+00 4.450856058887498534e+02
2.187281201864410107e+00 4.451122797317326558e+02
2.187381223869250935e+00 4.451392156044211674e+02
2.187481245874092206e+00 4.451664311900391908e+02
2.187581267878933478e+00 4.451939438886848848e+02
2.187681289883774305e+00 4.452217708102266442e+02
2.187781311888615132e+00 4.452499287673861090e+02
2.187881333893456404e+00 4.452784342690068797e+02
2.187981355898297231e+00 4.453073035135146824e+02
2.188081377903138502e+00 4.453365523825675609e+02
2.188181399907979774e+00 4.453661964349025766e+02
2.188281421912820601e+00 4.453962509003786181e+02
2.188381443917661429e+00 4.454267306742208348e+02
2.188481465922502700e+00 4.454576503114599291e+02
2.188581487927343971e+00 4.454890240215850099e+02
2.188681509932184799e+00 4.455208656633923283e+02
2.188781531937026070e+00 4.455531887400450159e+02
2.188881553941866898e+00 4.455860063943424052e+02
2.188981575946708169e+00 4.456193314041954636e+02
2.189081597951548996e+00 4.456531761783207344e+02
2.189181619956390268e+00 4.456875527521379468e+02
2.189281641961231095e+00 4.457224727838897707e+02
2.189381663966072367e+00 4.457579475509712665e+02
2.189481685970913638e+00 4.457939879464789783e+02
2.189581707975754465e+00 4.458306044759737006e+02
2.189681729980595737e+00 4.458678072544639122e+02
2.189781751985436564e+00 4.459056060036047029e+02
2.189881773990277836e+00 4.459440100491158319e+02
2.189981795995118663e+00 4.459830283184206792e+02
2.190081817999959934e+00 4.460226693385021690e+02
2.190181840004800762e+00 4.460629412339795863e+02
2.190281862009642033e+00 4.461038517254027056e+02
2.190381884014483305e+00 4.461454081277665864e+02
2.190481906019324132e+00 4.461876173492470912e+02
2.190581928024164959e+00 4.462304858901509306e+02
2.190681950029006231e+00 4.462740198420870001e+02
2.190781972033847502e+00 4.463182248873540630e+02
2.190881994038688330e+00 4.463631062985468247e+02
2.190982016043529601e+00 4.464086689383753992e+02
2.191082038048370428e+00 4.464549172597032225e+02
2.191182060053211256e+00 4.465018553057962549e+02
2.191282082058052527e+00 4.465494867107871073e+02
2.191382104062893799e+00 4.465978147003511367e+02
2.191482126067734626e+00 4.466468420925906457e+02
2.191582148072575897e+00 4.466965712991317332e+02
2.191682170077417169e+00 4.467470043264236210e+02
2.191782192082257996e+00 4.467981427772493817e+02
2.191882214087098824e+00 4.468499878524366977e+02
2.191982236091940095e+00 4.469025403527713252e+02
2.192082258096780922e+00 4.469558006811117821e+02
2.192182280101622194e+00 4.470097688447006021e+02
2.192282302106463465e+00 4.470644444576723231e+02
2.192382324111304293e+00 4.471198267437562208e+02
2.192482346116145564e+00 4.471759145391649213e+02
2.192582368120986391e+00 4.472327062956802024e+02
2.192682390125827219e+00 4.472902000839158063e+02
2.192782412130668490e+00 4.473483935967701655e+02
2.192882434135509762e+00 4.474072841530575033e+02
2.192982456140350589e+00 4.474668687013149793e+02
2.193082478145191860e+00 4.475271438237883785e+02
2.193182500150033132e+00 4.475881057405856609e+02
2.193282522154873959e+00 4.476497503140034269e+02
2.193382544159714787e+00 4.477120730530151604e+02
2.193482566164556058e+00 4.477750691179238629e+02
2.193582588169396885e+00 4.478387333251737914e+02
2.193682610174238157e+00 4.479030601523159021e+02
2.193782632179079428e+00 4.479680437431279643e+02
2.193882654183920256e+00 4.480336779128801368e+02
2.193982676188761083e+00 4.480999561537506111e+02
2.194082698193602354e+00 4.481668716403751773e+02
2.194182720198443626e+00 4.482344172355394676e+02
2.194282742203284453e+00 4.483025854960050083e+02
2.194382764208125725e+00 4.483713686784620904e+02
2.194482786212966552e+00 4.484407587456094006e+02
2.194582808217807823e+00 4.485107473723594467e+02
2.194682830222648651e+00 4.485813259521541454e+02
2.194782852227489922e+00 4.486524856034009190e+02
2.194882874232330749e+00 4.487242171760161682e+02
2.194982896237172021e+00 4.487965112580728260e+02
2.195082918242013292e+00 4.488693581825512524e+02
2.195182940246854120e+00 4.489427480341859109e+02
2.195282962251695391e+00 4.490166706564048127e+02
2.195382984256536218e+00 4.490911156583574098e+02
2.195483006261377490e+00 4.491660724220265593e+02
2.195583028266218317e+00 4.492415301094188180e+02
2.195683050271059589e+00 4.493174776698342043e+02
2.195783072275900416e+00 4.493939038471987146e+02
2.195883094280741687e+00 4.494707971874707368e+02
2.195983116285582959e+00 4.495481460461060124e+02
2.196083138290423786e+00 4.496259385955798962e+02
2.196183160295264614e+00 4.497041628329604350e+02
2.196283182300105885e+00 4.497828065875343668e+02
2.196383204304947157e+00 4.498618575284711483e+02
2.196483226309787984e+00 4.499413031725311498e+02
2.196583248314629255e+00 4.500211308918044324e+02
2.196683270319470083e+00 4.501013279214815839e+02
2.196783292324310910e+00 4.501818813676491118e+02
2.196883314329152181e+00 4.502627782151051861e+02
2.196983336333993453e+00 4.503440053351928327e+02
2.197083358338834280e+00 4.504255494936478499e+02
2.197183380343675552e+00 4.505073973584430291e+02
2.197283402348516823e+00 4.505895355076489750e+02
2.197383424353357650e+00 4.506719504372847496e+02
2.197483446358198478e+00 4.507546285691636285e+02
2.197583468363039749e+00 4.508375562587286822e+02
2.197683490367880577e+00 4.509207198028744301e+02
2.197783512372721848e+00 4.510041054477469515e+02
2.197883534377563119e+00 4.510876993965212023e+02
2.197983556382403947e+00 4.511714878171493979e+02
2.198083578387245218e+00 4.512554568500779624e+02
2.198183600392086046e+00 4.513395926159251985e+02
2.198283622396926873e+00 4.514238812231220663e+02
2.198383644401768144e+00 4.515083087755039060e+02
2.198483666406609416e+00 4.515928613798523656e+02
2.198583688411450243e+00 4.516775251533878190e+02
2.198683710416291515e+00 4.517622862312010170e+02
2.198783732421132786e+00 4.518471307736249400e+02
2.198883754425973613e+00 4.519320449735361649e+02
2.198983776430814441e+00 4.520170150635955792e+02
2.199083798435655712e+00 4.521020273234087767e+02
2.199183820440496540e+00 4.521870680866099974e+02
2.199283842445337811e+00 4.522721237478705802e+02
2.199383864450179082e+00 4.523571807698148177e+02
2.199483886455019910e+00 4.524422256898549222e+02
2.199583908459860737e+00 4.525272451269305520e+02
2.199683930464702009e+00 4.526122257881552855e+02
2.199783952469543280e+00 4.526971544753615149e+02
2.199883974474384107e+00 4.527820180915470019e+02
2.199983996479225379e+00 4.528668036472153062e+02
2.200084018484066206e+00 4.529514982666078708e+02
2.200184040488907478e+00 4.530360891938229884e+02
2.200284062493748305e+00 4.531205637988243780e+02
2.200384084498589576e+00 4.532049095833285719e+02
2.200484106503430404e+00 4.532891141865753752e+02
2.200584128508271675e+00 4.533731653909737247e+02
2.200684150513112947e+00 4.534570511276207299e+02
2.200784172517953774e+00 4.535407594816962842e+02
2.200884194522795045e+00 4.536242786977236392e+02
2.200984216527635873e+00 4.537075971846988978e+02
2.201084238532477144e+00 4.537907035210819231e+02
2.201184260537317972e+00 4.538735864596559964e+02
2.201284282542159243e+00 4.539562349322401360e+02
2.201384304547000070e+00 4.540386380542635720e+02
2.201484326551841342e+00 4.541207851291964062e+02
2.201584348556682613e+00 4.542026656528336730e+02
2.201684370561523441e+00 4.542842693174319493e+02
2.201784392566364268e+00 4.543655860156970334e+02
2.201884414571205539e+00 4.544466058446201941e+02
2.201984436576046811e+00 4.545273191091634999e+02
2.202084458580887638e+00 4.546077163257891698e+02
2.202184480585728910e+00 4.546877882258373802e+02
2.202284502590569737e+00 4.547675257587453643e+02
2.202384524595410564e+00 4.548469200951081461e+02
2.202484546600251836e+00 4.549259626295868202e+02
2.202584568605093107e+00 4.550046449836496549e+02
2.202684590609933935e+00 4.550829590081608558e+02
2.202784612614775206e+00 4.551608967858020378e+02
2.202884634619616477e+00 4.552384506333397667e+02
2.202984656624457305e+00 4.553156131037244450e+02
2.203084678629298132e+00 4.553923769880321970e+02
2.203184700634139404e+00 4.554687353172420785e+02
2.203284722638980231e+00 4.555446813638506569e+02
2.203384744643821502e+00 4.556202086433257818e+02
2.203484766648662774e+00 4.556953109153961350e+02
2.203584788653503601e+00 4.557699821851800266e+02
2.203684810658344873e+00 4.558442167041491757e+02
2.203784832663185700e+00 4.559180089709338404e+02
2.203884854668026527e+00 4.559913537319649208e+02
2.203984876672867799e+00 4.560642459819547412e+02
2.204084898677709070e+00 4.561366809642188400e+02
2.204184920682549897e+00 4.562086541708367236e+02
2.204284942687391169e+00 4.562801613426548784e+02
2.204384964692232440e+00 4.563511984691315888e+02
2.204484986697073268e+00 4.564217617880241278e+02
2.204585008701914095e+00 4.564918477849232659e+02
2.204685030706755366e+00 4.565614531926270274e+02
2.204785052711596194e+00 4.566305749903681317e+02
2.204885074716437465e+00 4.566992104028855124e+02
2.204985096721278737e+00 4.567673568993449180e+02
2.205085118726119564e+00 4.568350121921141636e+02
2.205185140730960391e+00 4.569021742353867239e+02
2.205285162735801663e+00 4.569688412236627073e+02
2.205385184740642934e+00 4.570350115900852757e+02
2.205485206745483762e+00 4.571006840046366619e+02
2.205585228750325033e+00 4.571658573721908851e+02
2.205685250755165860e+00 4.572305308304316327e+02
2.205785272760007132e+00 4.572947037476338892e+02
2.205885294764847959e+00 4.573583757203116420e+02
2.205985316769689231e+00 4.574215465707354156e+02
2.206085338774530058e+00 4.574842163443192931e+02
2.206185360779371329e+00 4.575463853068848721e+02
2.206285382784212601e+00 4.576080539417961859e+02
2.206385404789053428e+00 4.576692229469803124e+02
2.206485426793894256e+00 4.577298932318232119e+02
2.206585448798735527e+00 4.577900659139532991e+02
2.206685470803576798e+00 4.578497423159110440e+02
2.206785492808417626e+00 4.579089239617085241e+02
2.206885514813258897e+00 4.579676125732821674e+02
2.206985536818099725e+00 4.580258100668385737e+02
2.207085558822940996e+00 4.580835185491052357e+02
2.207185580827781823e+00 4.581407403134751348e+02
2.207285602832623095e+00 4.581974778360618075e+02
2.207385624837463922e+00 4.582537337716627803e+02
2.207485646842305194e+00 4.583095109496298392e+02
2.207585668847146465e+00 4.583648123696587504e+02
2.207685690851987292e+00 4.584196411974948546e+02
2.207785712856828564e+00 4.584740007605597043e+02
2.207885734861669391e+00 4.585278945435036348e+02
2.207985756866510219e+00 4.585813261836861443e+02
2.208085778871351490e+00 4.586342994665860715e+02
2.208185800876192761e+00 4.586868183211519181e+02
2.208285822881033589e+00 4.587388868150858343e+02
2.208385844885874860e+00 4.587905091500717276e+02
2.208485866890716132e+00 4.588416896569502796e+02
2.208585888895556515e+00 4.588924327908426903e+02
2.208685910900397786e+00 4.589427431262276968e+02
2.208785932905239058e+00 4.589926253519750503e+02
2.208885954910079885e+00 4.590420842663415328e+02
2.208985976914921157e+00 4.590911247719271273e+02
2.209085998919762428e+00 4.591397518706046981e+02
2.209186020924603255e+00 4.591879706584163046e+02
2.209286042929444083e+00 4.592357863204475166e+02
2.209386064934285354e+00 4.592832041256816069e+02
2.209486086939126182e+00 4.593302294218329962e+02
2.209586108943967453e+00 4.593768676301728533e+02
2.209686130948808724e+00 4.594231242403392343e+02
2.209786152953649552e+00 4.594690048051448912e+02
2.209886174958490823e+00 4.595145149353822944e+02
2.209986196963331651e+00 4.595596602946296798e+02
2.210086218968172922e+00 4.596044465940609598e+02
2.210186240973013749e+00 4.596488795872690503e+02
2.210286262977855021e+00 4.596929650650953363e+02
2.210386284982695848e+00 4.597367088504800563e+02
2.210486306987537120e+00 4.597801167933317856e+02
2.210586328992378391e+00 4.598231947654178384e+02
2.210686350997219218e+00 4.598659486552846829e+02
2.210786373002060046e+00 4.599083843632084836e+02
2.210886395006901317e+00 4.599505077961753727e+02
2.210986417011742589e+00 4.599923248629082764e+02
2.211086439016583416e+00 4.600338414689236970e+02
2.211186461021424687e+00 4.600750635116427247e+02
2.211286483026265515e+00 4.601159968755431464e+02
2.211386505031106786e+00 4.601566474273660106e+02
2.211486527035947613e+00 4.601970210113763642e+02
2.211586549040788885e+00 4.602371234446810035e+02
2.211686571045629712e+00 4.602769605126055694e+02
2.211786593050470984e+00 4.603165379641396839e+02
2.211886615055312255e+00 4.603558615074467184e+02
2.211986637060153083e+00 4.603949368054409774e+02
2.212086659064993910e+00 4.604337694714459985e+02
2.212186681069835181e+00 4.604723650649193019e+02
2.212286703074676453e+00 4.605107290872647354e+02
2.212386725079517280e+00 4.605488669777190580e+02
2.212486747084358552e+00 4.605867841093311199e+02
2.212586769089199379e+00 4.606244857850202834e+02
2.212686791094040650e+00 4.606619772337302834e+02
2.212786813098881478e+00 4.606992636066744922e+02
2.212886835103722749e+00 4.607363499736729295e+02
2.212986857108563576e+00 4.607732413195933532e+02
2.213086879113404848e+00 4.608099425408825596e+02
2.213186901118246119e+00 4.608464584422088137e+02
2.213286923123086947e+00 4.608827937332034708e+02
2.213386945127928218e+00 4.609189530253107137e+02
2.213486967132769045e+00 4.609549408287439860e+02
2.213586989137609873e+00 4.609907615495536106e+02
2.213687011142451144e+00 4.610264194868091181e+02
2.213787033147292416e+00 4.610619188298909989e+02
2.213887055152133243e+00 4.610972636559018270e+02
2.213987077156974514e+00 4.611324579271923199e+02
2.214087099161815786e+00 4.611675054890095566e+02
2.214187121166656169e+00 4.612024100672609848e+02
2.214287143171497441e+00 4.612371752664051883e+02
2.214387165176338712e+00 4.612718045674632208e+02
2.214487187181179539e+00 4.613063013261535161e+02
2.214587209186020811e+00 4.613406687711535028e+02
2.214687231190862082e+00 4.613749100024889458e+02
2.214787253195702910e+00 4.614090279900471501e+02
2.214887275200543737e+00 4.614430255722223251e+02
2.214987297205385008e+00 4.614769054546887332e+02
2.215087319210225836e+00 4.615106702093004856e+02
2.215187341215067107e+00 4.615443222731276478e+02
2.215287363219908379e+00 4.615778639476184253e+02
2.215387385224749206e+00 4.616112973978932814e+02
2.215487407229590477e+00 4.616446246521726948e+02
2.215587429234431305e+00 4.616778476013352019e+02
2.215687451239272576e+00 4.617109679986062361e+02
2.215787473244113404e+00 4.617439874593817422e+02
2.215887495248954675e+00 4.617769074611809401e+02
2.215987517253795502e+00 4.618097293437313056e+02
2.216087539258636774e+00 4.618424543091873602e+02
2.216187561263478045e+00 4.618750834224765072e+02
2.216287583268318873e+00 4.619076176117782211e+02
2.216387605273159700e+00 4.619400576691348306e+02
2.216487627278000971e+00 4.619724042511866742e+02
2.216587649282842243e+00 4.620046578800408383e+02
2.216687671287683070e+00 4.620368189442676794e+02
2.216787693292524342e+00 4.620688877000203547e+02
2.216887715297365169e+00 4.621008642722846389e+02
2.216987737302206440e+00 4.621327486562532840e+02
2.217087759307047268e+00 4.621645407188221952e+02
2.217187781311888539e+00 4.621962402002112071e+02
2.217287803316729367e+00 4.622278467157061641e+02
2.217387825321570638e+00 4.622593597575193485e+02
2.217487847326411909e+00 4.622907786967710422e+02
2.217587869331252737e+00 4.623221027855855709e+02
2.217687891336093564e+00 4.623533311593034227e+02
2.217787913340934836e+00 4.623844628388076785e+02
2.217887935345776107e+00 4.624154967329612305e+02
2.217987957350616934e+00 4.624464316411537652e+02
2.218087979355458206e+00 4.624772662559571472e+02
2.218188001360299033e+00 4.625079991658860763e+02
2.218288023365140305e+00 4.625386288582626548e+02
2.218388045369981132e+00 4.625691537221815679e+02
2.218488067374822403e+00 4.625995720515766152e+02
2.218588089379663231e+00 4.626298820483805230e+02
2.218688111384504502e+00 4.626600818257829246e+02
2.218788133389345774e+00 4.626901694115779264e+02
2.218888155394186601e+00 4.627201427516000649e+02
2.218988177399027872e+00 4.627499997132511567e+02
2.219088199403868700e+00 4.627797380891064449e+02
2.219188221408709527e+00 4.628093556006049312e+02
2.219288243413550799e+00 4.628388499018163884e+02
2.219388265418392070e+00 4.628682185832882965e+02
2.219488287423232897e+00 4.628974591759582040e+02
2.219588309428074169e+00 4.629265691551421469e+02
2.219688331432915440e+00 4.629555459445882093e+02
2.219788353437755823e+00 4.629843869205921010e+02
2.219888375442597095e+00 4.630130894161748643e+02
2.219988397447438366e+00 4.630416507253182772e+02
2.220088419452279194e+00 4.630700681072521547e+02
2.220188441457120465e+00 4.630983387907969018e+02
2.220288463461961737e+00 4.631264599787484144e+02
2.220388485466802564e+00 4.631544288523128898e+02
2.220488507471643391e+00 4.631822425755769359e+02
2.220588529476484663e+00 4.632098983000208818e+02
2.220688551481325490e+00 4.632373931690627273e+02
2.220788573486166761e+00 4.632647243226311957e+02
2.220888595491008033e+00 4.632918889017737456e+02
2.220988617495848860e+00 4.633188840532783956e+02
2.221088639500690132e+00 4.633457069343232888e+02
2.221188661505530959e+00 4.633723547171381369e+02
2.221288683510372231e+00 4.633988245936836847e+02
2.221388705515213058e+00 4.634251137803339020e+02
2.221488727520054329e+00 4.634512195225727851e+02
2.221588749524895157e+00 4.634771390996835976e+02
2.221688771529736428e+00 4.635028698294471496e+02
2.221788793534577700e+00 4.635284090728256388e+02
2.221888815539418527e+00 4.635537542386452401e+02
2.221988837544259354e+00 4.635789027882622690e+02
2.222088859549100626e+00 4.636038522402170088e+02
2.222188881553941897e+00 4.636286001748626404e+02
2.222288903558782724e+00 4.636531442389780864e+02
2.222388925563623996e+00 4.636774821503497606e+02
2.222488947568464823e+00 4.637016117023241577e+02
2.222588969573306095e+00 4.637255307683265073e+02
2.222688991578146922e+00 4.637492373063442983e+02
2.222789013582988193e+00 4.637727293633647037e+02
2.222889035587829021e+00 4.637960050797744884e+02
2.222989057592670292e+00 4.638190626937059164e+02
2.223089079597511564e+00 4.638419005453369550e+02
2.223189101602352391e+00 4.638645170811294065e+02
2.223289123607193218e+00 4.638869108580158809e+02
2.223389145612034490e+00 4.639090805475226489e+02
2.223489167616875761e+00 4.639310249398247379e+02
2.223589189621716589e+00 4.639527429477357146e+02
2.223689211626557860e+00 4.639742336106269249e+02
2.223789233631398687e+00 4.639954960982675516e+02
2.223889255636239515e+00 4.640165297145916270e+02
2.223989277641080786e+00 4.640373339013785881e+02
2.224089299645922058e+00 4.640579082418541930e+02
2.224189321650762885e+00 4.640782524642018529e+02
2.224289343655604156e+00 4.640983664449835828e+02
2.224389365660445428e+00 4.641182502124676716e+02
2.224489387665286255e+00 4.641379039498607426e+02
2.224589409670127083e+00 4.641573279984392002e+02
2.224689431674968354e+00 4.641765228605803486e+02
2.224789453679809181e+00 4.641954892026889752e+02
2.224889475684650453e+00 4.642142278580150219e+02
2.224989497689491724e+00 4.642327398293632541e+02
2.225089519694332552e+00 4.642510262916886177e+02
2.225189541699173823e+00 4.642690885945766581e+02
2.225289563704014650e+00 4.642869282646113902e+02
2.225389585708855478e+00 4.643045470076153833e+02
2.225489607713696749e+00 4.643219467107760465e+02
2.225589629718538021e+00 4.643391294446413440e+02
2.225689651723378848e+00 4.643560974649935815e+02
2.225789673728220119e+00 4.643728532145952954e+02
2.225889695733061391e+00 4.643893993247993990e+02
2.225989717737902218e+00 4.644057386170343307e+02
2.226089739742743046e+00 4.644218741041535736e+02
2.226189761747584317e+00 4.644378089916444878e+02
2.226289783752425144e+00 4.644535466787084488e+02
2.226389805757266416e+00 4.644690907591947280e+02
2.226489827762107687e+00 4.644844450224004504e+02
2.226589849766948515e+00 4.644996134537244075e+02
2.226689871771789342e+00 4.645146002351812626e+02
2.226789893776630613e+00 4.645294097457700104e+02
2.226889915781471885e+00 4.645440465617007249e+02
2.226989937786312712e+00 4.645585154564677737e+02
2.227089959791153984e+00 4.645728214007874612e+02
2.227189981795994811e+00 4.645869695623787266e+02
2.227290003800836082e+00 4.646009653055980948e+02
2.227390025805676910e+00 4.646148141909281435e+02
2.227490047810518181e+00 4.646285219743136281e+02
2.227590069815359008e+00 4.646420946063493034e+02
2.227690091820200280e+00 4.646555382313158589e+02
2.227790113825041551e+00 4.646688591860666975e+02
2.227890135829882379e+00 4.646820639987649884e+02
2.227990157834723650e+00 4.646951593874661626e+02
2.228090179839564478e+00 4.647081522585552875e+02
2.228190201844405749e+00 4.647210497050285767e+02
2.228290223849246576e+00 4.647338590046283571e+02
2.228390245854087848e+00 4.647465876178290500e+02
2.228490267858928675e+00 4.647592431856666622e+02
2.228590289863769947e+00 4.647718335274294645e+02
2.228690311868611218e+00 4.647843666381927505e+02
2.228790333873452045e+00 4.647968506862096092e+02
2.228890355878292873e+00 4.648092940101548720e+02
2.228990377883134144e+00 4.648217051162213238e+02
2.229090399887975416e+00 4.648340926750735775e+02
2.229190421892816243e+00 4.648464655186587606e+02
2.229290443897657514e+00 4.648588326368711705e+02
2.229390465902498342e+00 4.648712031740805628e+02
2.229490487907339169e+00 4.648835864255181605e+02
2.229590509912180440e+00 4.648959918335248176e+02
2.229690531917021712e+00 4.649084289836649191e+02
2.229790553921862539e+00 4.649209076007011845e+02
2.229890575926703811e+00 4.649334375444427678e+02
2.229990597931545082e+00 4.649460288054548300e+02
2.230090619936385909e+00 4.649586915006465233e+02
2.230190641941226737e+00 4.649714358687260756e+02
2.230290663946068008e+00 4.649842722655345710e+02
2.230390685950908836e+00 4.649972111592562101e+02
2.230490707955750107e+00 4.650102631255060714e+02
2.230590729960591379e+00 4.650234388423048131e+02
2.230690751965432206e+00 4.650367490849330352e+02
2.230790773970273477e+00 4.650502047206756515e+02
2.230890795975114305e+00 4.650638167034555295e+02
2.230990817979955132e+00 4.650775960683587300e+02
2.231090839984796403e+00 4.650915539260576566e+02
2.231190861989637675e+00 4.651057014571301806e+02
2.231290883994478502e+00 4.651200499062800873e+02
2.231390905999319774e+00 4.651346105764629328e+02
2.231490928004161045e+00 4.651493948229198168e+02
2.231590950009001872e+00 4.651644140471199194e+02
2.231690972013842700e+00 4.651796796906182294e+02
2.231790994018683971e+00 4.651952032288305077e+02
2.231891016023524799e+00 4.652109961647277032e+02
2.231991038028366070e+00 4.652270700224568145e+02
2.232091060033207341e+00 4.652434363408840454e+02
2.232191082038048169e+00 4.652601066670777641e+02
2.232291104042888996e+00 4.652770925497181338e+02
2.232391126047730268e+00 4.652944055324469446e+02
2.232491148052571539e+00 4.653120571471647509e+02
2.232591170057412366e+00 4.653300589072655953e+02
2.232691192062253638e+00 4.653484223008297249e+02
2.232791214067094465e+00 4.653671587837641823e+02
2.232891236071935737e+00 4.653862797729026397e+02
2.232991258076776564e+00 4.654057966390685692e+02
2.233091280081617835e+00 4.654257207001016354e+02
2.233191302086458663e+00 4.654460632138535630e+02
2.233291324091299934e+00 4.654668353711613804e+02
2.233391346096141206e+00 4.654880482887929247e+02
2.233491368100982033e+00 4.655097130023789305e+02
2.233591390105823304e+00 4.655318404593286346e+02
2.233691412110664132e+00 4.655544415117357744e+02
2.233791434115505403e+00 4.655775269092824260e+02
2.233891456120346231e+00 4.656011072921353957e+02
2.233991478125187502e+00 4.656251931838522182e+02
2.234091500130028329e+00 4.656497949842895423e+02
2.234191522134869601e+00 4.656749229625256135e+02
2.234291544139710872e+00 4.657005872497996961e+02
2.234391566144551700e+00 4.657267978324675823e+02
2.234491588149392527e+00 4.657535645449848971e+02
2.234591610154233798e+00 4.657808970629205874e+02
2.234691632159075070e+00 4.658088048959985485e+02
2.234791654163915897e+00 4.658372973811813154e+02
2.234891676168757169e+00 4.658663836757938270e+02
2.234991698173597996e+00 4.658960727506935200e+02
2.235091720178438823e+00 4.659263733834899313e+02
2.235191742183280095e+00 4.659572941518206335e+02
2.235291764188121366e+00 4.659888434266852641e+02
2.235391786192962194e+00 4.660210293658432761e+02
2.235491808197803465e+00 4.660538599072767738e+02
2.235591830202644736e+00 4.660873427627291790e+02
2.235691852207485564e+00 4.661214854113165984e+02
2.235791874212326391e+00 4.661562950932204217e+02
2.235891896217167663e+00 4.661917788034627392e+02
2.235991918222008490e+00 4.662279432857733923e+02
2.236091940226849761e+00 4.662647950265456984e+02
2.236191962231691033e+00 4.663023402488885836e+02
2.236291984236531860e+00 4.663405849067835902e+02
2.236392006241373132e+00 4.663795346793401677e+02
2.236492028246213959e+00 4.664191949651628306e+02
2.236592050251054786e+00 4.664595708768309805e+02
2.236692072255896058e+00 4.665006672354904822e+02
2.236792094260737329e+00 4.665424885655704088e+02
2.236892116265578156e+00 4.665850390896175668e+02
2.236992138270419428e+00 4.666283227232620447e+02
2.237092160275260699e+00 4.666723430703127633e+02
2.237192182280101527e+00 4.667171034179831963e+02
2.237292204284942354e+00 4.667626067322620429e+02
2.237392226289783626e+00 4.668088556534161739e+02
2.237492248294624453e+00 4.668558524916454076e+02
2.237592270299465724e+00 4.669035992228799614e+02
2.237692292304306996e+00 4.669520974847301886e+02
2.237792314309147823e+00 4.670013485725913256e+02
2.237892336313988650e+00 4.670513534359032519e+02
2.237992358318829922e+00 4.671021126745713445e+02
2.238092380323671193e+00 4.671536265355488808e+02
2.238192402328512021e+00 4.672058949095866751e+02
2.238292424333353292e+00 4.672589173281495505e+02
2.238392446338194119e+00 4.673126929605037958e+02
2.238492468343035391e+00 4.673672206109804392e+02
2.238592490347876218e+00 4.674224987164093932e+02
2.238692512352717490e+00 4.674785253437380561e+02
2.238792534357558317e+00 4.675352981878253331e+02
2.238892556362399588e+00 4.675928145694223872e+02
2.238992578367240860e+00 4.676510714333338683e+02
2.239092600372081687e+00 4.677100653467716711e+02
2.239192622376922959e+00 4.677697924978913875e+02
2.239292644381763786e+00 4.678302486945240162e+02
2.239392666386605057e+00 4.678914293630985526e+02
2.239492688391445885e+00 4.679533295477564252e+02
2.239592710396287156e+00 4.680159439096632354e+02
2.239692732401127984e+00 4.680792667265185401e+02
2.239792754405969255e+00 4.681432918922603221e+02
2.239892776410810526e+00 4.682080129169717111e+02
2.239992798415651354e+00 4.682734229269856314e+02
