2.100004000960230321e+00 5.200087390652296335e+02
2.100104024965991467e+00 5.199024966080107788e+02
2.100204048971753057e+00 5.197957804482657593e+02
2.100304072977514647e+00 5.196886342711345605e+02
2.100404096983275792e+00 5.195811022911904047e+02
2.100504120989037382e+00 5.194732292303533541e+02
2.100604144994798972e+00 5.193650602953978250e+02
2.100704169000560118e+00 5.192566411550677685e+02
2.100804193006321263e+00 5.191480179168049744e+02
2.100904217012082853e+00 5.190392371031141465e+02
2.101004241017844443e+00 5.189303456275628150e+02
2.101104265023605588e+00 5.188213907704434860e+02
2.101204289029366734e+00 5.187124201540972308e+02
2.101304313035128324e+00 5.186034817179205447e+02
2.101404337040889914e+00 5.184946236930674104e+02
2.101504361046651059e+00 5.183858945768612330e+02
2.101604385052412205e+00 5.182773431069206254e+02
2.101704409058173795e+00 5.181690182350320129e+02
2.101804433063935384e+00 5.180609691007632591e+02
2.101904457069696530e+00 5.179532450048475312e+02
2.102004481075457676e+00 5.178458953823442243e+02
2.102104505081219266e+00 5.177389697755955922e+02
2.102204529086980855e+00 5.176325178069895401e+02
2.102304553092742445e+00 5.175265891515524572e+02
2.102404577098503591e+00 5.174212335093753836e+02
2.102504601104265181e+00 5.173165005779027297e+02
2.102604625110026326e+00 5.172124400240852538e+02
2.102704649115787916e+00 5.171091014564266288e+02
2.102804673121549062e+00 5.170065343969273499e+02
2.102904697127310651e+00 5.169047882529520166e+02
2.103004721133071797e+00 5.168039122890286308e+02
2.103104745138833387e+00 5.167039555986011692e+02
2.103204769144594533e+00 5.166049670757523700e+02
2.103304793150356122e+00 5.165069953869037818e+02
2.103404817156117268e+00 5.164100889425250216e+02
2.103504841161878858e+00 5.163142958688540602e+02
2.103604865167640003e+00 5.162196639796566160e+02
2.103704889173401593e+00 5.161262407480317052e+02
2.103804913179162739e+00 5.160340732782891564e+02
2.103904937184924329e+00 5.159432082779051143e+02
2.104004961190685918e+00 5.158536920295889558e+02
2.104104985196447064e+00 5.157655703634527526e+02
2.104205009202208654e+00 5.156788886293311407e+02
2.104305033207969799e+00 5.155936916692410250e+02
2.104405057213731389e+00 5.155100237900132925e+02
2.104505081219492535e+00 5.154279287361082424e+02
2.104605105225254125e+00 5.153474496626336077e+02
2.104705129231015270e+00 5.152686291085763060e+02
2.104805153236776860e+00 5.151915089702717978e+02
2.104905177242538006e+00 5.151161304751237822e+02
2.105005201248299596e+00 5.150425341555865089e+02
2.105105225254060741e+00 5.149707598234341503e+02
2.105205249259822331e+00 5.149008465443279192e+02
2.105305273265583477e+00 5.148328326126963930e+02
2.105405297271345066e+00 5.147667555269493960e+02
2.105505321277106212e+00 5.147026519650348746e+02
2.105605345282867802e+00 5.146405577603602524e+02
2.105705369288628948e+00 5.145805078780912254e+02
2.105805393294390537e+00 5.145225363918397079e+02
2.105905417300152127e+00 5.144666764607638925e+02
2.106005441305913273e+00 5.144129603070869052e+02
2.106105465311674863e+00 5.143614191940545197e+02
2.106205489317436008e+00 5.143120834043439800e+02
2.106305513323197598e+00 5.142649822189380302e+02
2.106405537328958744e+00 5.142201438964776798e+02
2.106505561334720333e+00 5.141775956531109841e+02
2.106605585340481479e+00 5.141373636428455711e+02
2.106705609346243069e+00 5.140994729384253787e+02
2.106805633352004214e+00 5.140639475127343303e+02
2.106905657357765804e+00 5.140308102207536649e+02
2.107005681363526950e+00 5.140000827820701943e+02
2.107105705369288540e+00 5.139717857639608383e+02
2.107205729375049685e+00 5.139459385650555987e+02
2.107305753380811275e+00 5.139225593995965937e+02
2.107405777386572421e+00 5.139016652823017921e+02
2.107505801392334011e+00 5.138832720138450441e+02
2.107605825398095156e+00 5.138673941669616170e+02
2.107705849403856746e+00 5.138540450731909459e+02
2.107805873409618336e+00 5.138432368102712644e+02
2.107905897415379926e+00 5.138349801901805449e+02
2.108005921421141071e+00 5.138292847478551266e+02
2.108105945426902217e+00 5.138261587305728426e+02
2.108205969432663807e+00 5.138256090880254305e+02
2.108305993438425396e+00 5.138276414630804538e+02
2.108406017444186542e+00 5.138322601832417149e+02
2.108506041449947688e+00 5.138394682528178237e+02
2.108606065455709278e+00 5.138492673458021045e+02
2.108706089461470867e+00 5.138616577994731642e+02
2.108806113467232013e+00 5.138766386087233968e+02
2.108906137472993159e+00 5.138942074211165618e+02
2.109006161478754748e+00 5.139143605326854640e+02
2.109106185484516338e+00 5.139370928844704167e+02
2.109206209490277484e+00 5.139623980598041726e+02
2.109306233496038629e+00 5.139902682823487794e+02
2.109406257501800219e+00 5.140206944148894763e+02
2.109506281507561809e+00 5.140536659588797193e+02
2.109606305513323399e+00 5.140891710547547291e+02
2.109706329519084544e+00 5.141271964830032175e+02
2.109806353524846134e+00 5.141677276660060443e+02
2.109906377530607280e+00 5.142107486706422605e+02
2.110006401536368870e+00 5.142562422116604921e+02
2.110106425542130015e+00 5.143041896558218014e+02
2.110206449547891605e+00 5.143545710268076618e+02
2.110306473553652751e+00 5.144073650109002074e+02
2.110406497559414341e+00 5.144625489634260020e+02
2.110506521565175486e+00 5.145200989159695837e+02
2.110606545570937076e+00 5.145799895843501872e+02
2.110706569576698222e+00 5.146421943773611929e+02
2.110806593582459811e+00 5.147066854062704806e+02
2.110906617588220957e+00 5.147734334950778248e+02
2.111006641593982547e+00 5.148424081915255783e+02
2.111106665599743692e+00 5.149135777788611676e+02
2.111206689605505282e+00 5.149869092883432131e+02
2.111306713611266428e+00 5.150623685124911617e+02
2.111406737617028018e+00 5.151399200190660395e+02
2.111506761622789607e+00 5.152195271657884632e+02
2.111606785628550753e+00 5.153011521157736752e+02
2.111706809634312343e+00 5.153847558536892848e+02
2.111806833640073489e+00 5.154702982026209384e+02
2.111906857645835078e+00 5.155577378416429610e+02
2.112006881651596224e+00 5.156470323240804419e+02
2.112106905657357814e+00 5.157381380964651498e+02
2.112206929663118959e+00 5.158310105181656127e+02
2.112306953668880549e+00 5.159256038816843102e+02
2.112406977674641695e+00 5.160218714336226640e+02
2.112507001680403285e+00 5.161197653962886989e+02
2.112607025686164430e+00 5.162192369899464666e+02
2.112707049691926020e+00 5.163202364556981365e+02
2.112807073697687166e+00 5.164227130789774947e+02
2.112907097703448756e+00 5.165266152136566689e+02
2.113007121709209901e+00 5.166318903067425481e+02
2.113107145714971491e+00 5.167384849236576656e+02
2.113207169720732637e+00 5.168463447740915626e+02
2.113307193726494226e+00 5.169554147384059206e+02
2.113407217732255816e+00 5.170656388945860726e+02
2.113507241738016962e+00 5.171769605457214993e+02
2.113607265743778552e+00 5.172893222480000759e+02
2.113707289749539697e+00 5.174026658392068612e+02
2.113807313755301287e+00 5.175169324677062832e+02
2.113907337761062433e+00 5.176320626218985126e+02
2.114007361766824022e+00 5.177479961601299010e+02
2.114107385772585168e+00 5.178646723410448658e+02
2.114207409778346758e+00 5.179820298543641002e+02
2.114307433784107904e+00 5.181000068520677360e+02
2.114407457789869493e+00 5.182185409799728859e+02
2.114507481795630639e+00 5.183375694096856705e+02
2.114607505801392229e+00 5.184570288709129500e+02
2.114707529807153374e+00 5.185768556841100008e+02
2.114807553812914964e+00 5.186969857934570882e+02
2.114907577818676110e+00 5.188173548001391282e+02
2.115007601824437700e+00 5.189378979959124081e+02
2.115107625830199289e+00 5.190585503969406318e+02
2.115207649835960879e+00 5.191792467778838045e+02
2.115307673841722025e+00 5.192999217062169919e+02
2.115407697847483171e+00 5.194205095767634930e+02
2.115507721853244760e+00 5.195409446464243501e+02
2.115607745859006350e+00 5.196611610690803218e+02
2.115707769864767496e+00 5.197810929306519938e+02
2.115807793870528641e+00 5.199006742842963149e+02
2.115907817876290231e+00 5.200198391857221623e+02
2.116007841882051821e+00 5.201385217285992439e+02
2.116107865887812967e+00 5.202566560800494244e+02
2.116207889893574112e+00 5.203741765161931880e+02
2.116307913899335702e+00 5.204910174577373709e+02
2.116407937905097292e+00 5.206071135055766490e+02
2.116507961910858437e+00 5.207223994763986639e+02
2.116607985916619583e+00 5.208368104382610682e+02
2.116708009922381173e+00 5.209502817461311679e+02
2.116808033928142763e+00 5.210627490773615591e+02
2.116908057933903908e+00 5.211741484670835689e+02
2.117008081939665498e+00 5.212844163434972415e+02
2.117108105945427088e+00 5.213934895630386563e+02
2.117208129951188234e+00 5.215013054454067287e+02
2.117308153956949823e+00 5.216078018084231189e+02
2.117408177962710969e+00 5.217129170027108103e+02
2.117508201968472559e+00 5.218165899461707795e+02
2.117608225974233704e+00 5.219187601582327716e+02
2.117708249979995294e+00 5.220193677938648307e+02
2.117808273985756440e+00 5.221183536773204423e+02
2.117908297991518030e+00 5.222156593356019130e+02
2.118008321997279175e+00 5.223112270316224794e+02
2.118108346003040765e+00 5.224049997970470258e+02
2.118208370008801911e+00 5.224969214647912850e+02
2.118308394014563500e+00 5.225869367011626991e+02
2.118408418020324646e+00 5.226749910376209982e+02
2.118508442026086236e+00 5.227610309021415560e+02
2.118608466031847382e+00 5.228450036501634486e+02
2.118708490037608971e+00 5.229268575951006142e+02
2.118808514043370561e+00 5.230065420384021309e+02
2.118908538049131707e+00 5.230840072991417173e+02
2.119008562054893297e+00 5.231592047431165611e+02
2.119108586060654442e+00 5.232320868114413770e+02
2.119208610066416032e+00 5.233026070486189383e+02
2.119308634072177178e+00 5.233707201300690031e+02
2.119408658077938767e+00 5.234363818891017672e+02
2.119508682083699913e+00 5.234995493433166303e+02
2.119608706089461503e+00 5.235601807204094484e+02
2.119708730095222649e+00 5.236182354833771342e+02
2.119808754100984238e+00 5.236736743550975461e+02
2.119908778106745384e+00 5.237264593422755752e+02
2.120008802112506974e+00 5.237765537587363269e+02
2.120108826118268119e+00 5.238239222480511899e+02
2.120208850124029709e+00 5.238685308054861025e+02
2.120308874129790855e+00 5.239103467992529204e+02
2.120408898135552445e+00 5.239493389910543328e+02
2.120508922141313590e+00 5.239854775559085738e+02
2.120608946147075180e+00 5.240187341012384650e+02
2.120708970152836770e+00 5.240490816852161515e+02
2.120808994158597915e+00 5.240764948343496599e+02
2.120909018164359505e+00 5.241009495602992274e+02
2.121009042170120651e+00 5.241224233759131721e+02
2.121109066175882241e+00 5.241408953104735247e+02
2.121209090181643386e+00 5.241563459241378951e+02
2.121309114187404976e+00 5.241687573215705243e+02
2.121409138193166122e+00 5.241781131647560414e+02
2.121509162198927712e+00 5.241843986849759176e+02
2.121609186204688857e+00 5.241876006939528452e+02
2.121709210210450447e+00 5.241877075941472413e+02
2.121809234216211593e+00 5.241847093881968931e+02
2.121909258221973182e+00 5.241785976874983817e+02
2.122009282227734328e+00 5.241693657199213021e+02
2.122109306233495918e+00 5.241570083366450490e+02
2.122209330239257064e+00 5.241415220181172572e+02
2.122309354245018653e+00 5.241229048791313971e+02
2.122409378250779799e+00 5.241011566730065852e+02
2.122509402256541833e+00 5.240762787948835921e+02
2.122609426262302978e+00 5.240482742841143136e+02
2.122709450268064124e+00 5.240171478257578883e+02
2.122809474273825714e+00 5.239829057511665269e+02
2.122909498279587304e+00 5.239455560376726453e+02
2.123009522285348449e+00 5.239051083073649124e+02
2.123109546291109595e+00 5.238615738249550304e+02
2.123209570296871185e+00 5.238149654947386580e+02
2.123309594302632775e+00 5.237652978566463844e+02
2.123409618308393920e+00 5.237125870813822530e+02
2.123509642314155066e+00 5.236568509646608618e+02
2.123609666319916656e+00 5.235981089205308763e+02
2.123709690325678245e+00 5.235363819738017810e+02
2.123809714331439391e+00 5.234716927515601128e+02
2.123909738337200537e+00 5.234040654737933664e+02
2.124009762342962127e+00 5.233335259431147506e+02
2.124109786348723716e+00 5.232601015335974353e+02
2.124209810354484862e+00 5.231838211787206774e+02
2.124309834360246008e+00 5.231047153584346461e+02
2.124409858366008041e+00 5.230228160853492909e+02
2.124509882371769187e+00 5.229381568900497541e+02
2.124609906377530777e+00 5.228507728055517418e+02
2.124709930383291923e+00 5.227607003508948083e+02
2.124809954389053512e+00 5.226679775138918558e+02
2.124909978394814658e+00 5.225726437330320095e+02
2.125010002400576248e+00 5.224747398785530095e+02
2.125110026406337393e+00 5.223743082326896001e+02
2.125210050412098983e+00 5.222713924691075817e+02
2.125310074417860129e+00 5.221660376315294343e+02
2.125410098423621719e+00 5.220582901115726600e+02
2.125510122429382864e+00 5.219481976257995939e+02
2.125610146435144454e+00 5.218358091919949402e+02
2.125710170440905600e+00 5.217211751046875179e+02
2.125810194446667190e+00 5.216043469099208778e+02
2.125910218452428335e+00 5.214853773792882521e+02
2.126010242458189925e+00 5.213643204832477522e+02
2.126110266463951071e+00 5.212412313637281613e+02
2.126210290469712660e+00 5.211161663060390765e+02
2.126310314475474250e+00 5.209891827101026820e+02
2.126410338481235396e+00 5.208603390610179531e+02
2.126510362486996986e+00 5.207296948989791190e+02
2.126610386492758131e+00 5.205973107885538411e+02
2.126710410498519721e+00 5.204632482873483923e+02
2.126810434504280867e+00 5.203275699140656343e+02
2.126910458510042456e+00 5.201903391159810326e+02
2.127010482515803602e+00 5.200516202358503506e+02
2.127110506521565192e+00 5.199114784782639163e+02
2.127210530527326338e+00 5.197699798754700851e+02
2.127310554533087927e+00 5.196271912526815413e+02
2.127410578538849073e+00 5.194831801928884261e+02
2.127510602544610663e+00 5.193380150011877276e+02
2.127610626550371808e+00 5.191917646686596299e+02
2.127710650556133398e+00 5.190444988358005958e+02
2.127810674561894544e+00 5.188962877555375144e+02
2.127910698567656134e+00 5.187472022558415574e+02
2.128010722573417279e+00 5.185973137019614114e+02
2.128110746579178869e+00 5.184466939582976011e+02
2.128210770584940459e+00 5.182954153499360928e+02
2.128310794590701605e+00 5.181435506238644848e+02
2.128410818596463194e+00 5.179911729098913611e+02
2.128510842602224340e+00 5.178383556812858615e+02
2.128610866607985930e+00 5.176851727151687328e+02
2.128710890613747075e+00 5.175316980526622501e+02
2.128810914619508665e+00 5.173780059588348195e+02
2.128910938625269811e+00 5.172241708824523130e+02
2.129010962631031401e+00 5.170702674155634213e+02
2.129110986636792546e+00 5.169163702529369857e+02
2.129211010642554136e+00 5.167625541513785947e+02
2.129311034648315282e+00 5.166088938889440669e+02
2.129411058654076871e+00 5.164554642240761950e+02
2.129511082659838017e+00 5.163023398546822591e+02
2.129611106665599607e+00 5.161495953771810719e+02
2.129711130671360753e+00 5.159973052455362676e+02
2.129811154677122342e+00 5.158455437303043709e+02
2.129911178682883932e+00 5.156943848777124231e+02
2.130011202688645078e+00 5.155439024687979099e+02
2.130111226694406668e+00 5.153941699786242907e+02
2.130211250700168257e+00 5.152452605355986179e+02
2.130311274705929403e+00 5.150972468809181919e+02
2.130411298711690549e+00 5.149502013281605741e+02
2.130511322717452138e+00 5.148041957230429944e+02
2.130611346723213728e+00 5.146593014033788904e+02
2.130711370728974874e+00 5.145155891592439730e+02
2.130811394734736020e+00 5.143731291933816010e+02
2.130911418740497609e+00 5.142319910818687276e+02
2.131011442746259199e+00 5.140922437350598102e+02
2.131111466752020345e+00 5.139539553588374474e+02
2.131211490757781490e+00 5.138171934161841818e+02
2.131311514763543080e+00 5.136820245891050263e+02
2.131411538769304670e+00 5.135485147409137880e+02
2.131511562775065816e+00 5.134167288789114991e+02
2.131611586780826961e+00 5.132867311174746874e+02
2.131711610786588551e+00 5.131585846415750893e+02
2.131811634792350141e+00 5.130323516707488807e+02
2.131911658798111731e+00 5.129080934235406630e+02
2.132011682803872876e+00 5.127858700824403968e+02
2.132111706809634466e+00 5.126657407593295375e+02
2.132211730815395612e+00 5.125477634614619546e+02
2.132311754821157201e+00 5.124319950579958913e+02
2.132411778826918347e+00 5.123184912470945847e+02
2.132511802832679937e+00 5.122073065236179445e+02
2.132611826838441083e+00 5.120984941474221159e+02
2.132711850844202672e+00 5.119921061122824995e+02
2.132811874849963818e+00 5.118881931154632525e+02
2.132911898855725408e+00 5.117868045279464013e+02
2.133011922861486553e+00 5.116879883653396064e+02
2.133111946867248143e+00 5.115917912594798054e+02
2.133211970873009289e+00 5.114982584307455227e+02
2.133311994878770879e+00 5.114074336611009244e+02
2.133412018884532024e+00 5.113193592678777577e+02
2.133512042890293614e+00 5.112340760783223459e+02
2.133612066896055204e+00 5.111516234049065588e+02
2.133712090901816349e+00 5.110720390214355575e+02
2.133812114907577939e+00 5.109953591399505513e+02
2.133912138913339085e+00 5.109216183884482803e+02
2.134012162919100675e+00 5.108508497894306402e+02
2.134112186924861820e+00 5.107830847392915530e+02
2.134212210930623410e+00 5.107183529885576263e+02
2.134312234936384556e+00 5.106566826229953904e+02
2.134412258942146146e+00 5.105981000455914227e+02
2.134512282947907291e+00 5.105426299594201396e+02
2.134612306953668881e+00 5.104902953514090882e+02
2.134712330959430027e+00 5.104411174770079924e+02
2.134812354965191616e+00 5.103951158457766155e+02
2.134912378970952762e+00 5.103523082078963284e+02
2.135012402976714352e+00 5.103127105416123186e+02
2.135112426982475498e+00 5.102763370416182624e+02
2.135212450988237087e+00 5.102432001083893738e+02
2.135312474993998233e+00 5.102133103384664992e+02
2.135412498999759823e+00 5.101866765157050168e+02
2.135512523005521413e+00 5.101633056034863785e+02
2.135612547011282558e+00 5.101432027379022429e+02
2.135712571017044148e+00 5.101263712219150648e+02
2.135812595022805294e+00 5.101128125204975845e+02
2.135912619028566883e+00 5.101025262567556524e+02
2.136012643034328029e+00 5.100955102090376272e+02
2.136112667040089619e+00 5.100917603090325656e+02
2.136212691045850764e+00 5.100912706408580561e+02
2.136312715051612354e+00 5.100940334411389472e+02
2.136412739057373500e+00 5.101000391000824834e+02
2.136512763063135090e+00 5.101092761635408124e+02
2.136612787068896235e+00 5.101217313360676826e+02
2.136712811074657825e+00 5.101373894849691624e+02
2.136812835080418971e+00 5.101562336453393414e+02
2.136912859086180561e+00 5.101782450260863016e+02
2.137012883091941706e+00 5.102034030169442076e+02
2.137112907097703296e+00 5.102316851964638431e+02
2.137212931103464442e+00 5.102630673409855149e+02
2.137312955109226031e+00 5.102975234345811941e+02
2.137412979114987621e+00 5.103350256799716931e+02
2.137513003120749211e+00 5.103755445104014257e+02
2.137613027126510357e+00 5.104190486024765505e+02
2.137713051132271502e+00 5.104655048899500116e+02
2.137813075138033092e+00 5.105148785784554661e+02
2.137913099143794682e+00 5.105671331611729329e+02
2.138013123149555827e+00 5.106222304354307653e+02
2.138113147155316973e+00 5.106801305202212120e+02
2.138213171161078563e+00 5.107407918746311566e+02
2.138313195166840153e+00 5.108041713171730294e+02
2.138413219172601298e+00 5.108702240460110033e+02
2.138513243178362444e+00 5.109389036600632608e+02
2.138613267184124034e+00 5.110101621809777726e+02
2.138713291189885624e+00 5.110839500759678913e+02
2.138813315195646769e+00 5.111602162814906478e+02
2.138913339201407915e+00 5.112389082277615557e+02
2.139013363207169505e+00 5.113199718640925084e+02
2.139113387212931094e+00 5.114033516850308274e+02
2.139213411218692684e+00 5.114889907573003711e+02
2.139313435224453830e+00 5.115768307475169081e+02
2.139413459230215420e+00 5.116668119506671815e+02
2.139513483235976565e+00 5.117588733193421149e+02
2.139613507241738155e+00 5.118529524936978987e+02
2.139713531247499301e+00 5.119489858321421138e+02
2.139813555253260891e+00 5.120469084427121516e+02
2.139913579259022036e+00 5.121466542151457588e+02
2.140013603264783626e+00 5.122481558536142074e+02
2.140113627270544772e+00 5.123513449101067181e+02
2.140213651276306361e+00 5.124561518184467559e+02
2.140313675282067507e+00 5.125625059289183127e+02
2.140413699287829097e+00 5.126703355434930245e+02
2.140513723293590242e+00 5.127795679516225391e+02
2.140613747299351832e+00 5.128901294666006834e+02
2.140713771305112978e+00 5.130019454624483615e+02
2.140813795310874568e+00 5.131149404113251649e+02
2.140913819316635713e+00 5.132290379214291534e+02
2.141013843322397303e+00 5.133441607753803737e+02
2.141113867328158893e+00 5.134602309690523043e+02
2.141213891333920039e+00 5.135771697508403122e+02
2.141313915339681628e+00 5.136948976613431341e+02
2.141413939345442774e+00 5.138133345734324848e+02
2.141513963351204364e+00 5.139323997326961262e+02
2.141613987356965509e+00 5.140520117982217698e+02
2.141714011362727099e+00 5.141720888837148777e+02
2.141814035368488245e+00 5.142925485989093204e+02
2.141914059374249835e+00 5.144133080912654350e+02
2.142014083380010980e+00 5.145342840879229698e+02
2.142114107385772570e+00 5.146553929378889052e+02
2.142214131391533716e+00 5.147765506544362779e+02
2.142314155397295306e+00 5.148976729576925209e+02
2.142414179403056451e+00 5.150186753173933312e+02
2.142514203408818041e+00 5.151394729957786467e+02
2.142614227414579187e+00 5.152599810906059474e+02
2.142714251420340776e+00 5.153801145782626918e+02
2.142814275426101922e+00 5.154997883569451460e+02
2.142914299431863512e+00 5.156189172898931474e+02
2.143014323437625102e+00 5.157374162486408977e+02
2.143114347443386247e+00 5.158552001562767373e+02
2.143214371449147837e+00 5.159721840306760896e+02
2.143314395454908983e+00 5.160882830276933646e+02
2.143414419460670572e+00 5.162034124842773508e+02
2.143514443466431718e+00 5.163174879615014561e+02
2.143614467472193308e+00 5.164304252874738950e+02
2.143714491477954454e+00 5.165421406001084961e+02
2.143814515483716043e+00 5.166525503897350973e+02
2.143914539489477189e+00 5.167615715415212208e+02
2.144014563495238779e+00 5.168691213776874065e+02
2.144114587500999924e+00 5.169751176994884645e+02
2.144214611506761514e+00 5.170794788289417738e+02
2.144314635512522660e+00 5.171821236502785268e+02
2.144414659518284250e+00 5.172829716510932485e+02
2.144514683524045395e+00 5.173819429631715821e+02
2.144614707529806985e+00 5.174789584029770140e+02
2.144714731535568575e+00 5.175739395117661843e+02
2.144814755541330165e+00 5.176668085953216405e+02
2.144914779547091310e+00 5.177574887632691798e+02
2.145014803552852456e+00 5.178459039679704574e+02
2.145114827558614046e+00 5.179319790429597106e+02
2.145214851564375635e+00 5.180156397409102738e+02
2.145314875570136781e+00 5.180968127711049647e+02
2.145414899575897927e+00 5.181754258363971530e+02
2.145514923581659517e+00 5.182514076696348866e+02
2.145614947587421106e+00 5.183246880695357959e+02
2.145714971593182252e+00 5.183951979359853794e+02
2.145814995598943398e+00 5.184628693047492334e+02
2.145915019604704987e+00 5.185276353815700077e+02
2.146015043610466577e+00 5.185894305756411313e+02
2.146115067616227723e+00 5.186481905324316131e+02
2.146215091621988869e+00 5.187038521658465697e+02
2.146315115627750458e+00 5.187563536897105223e+02
2.146415139633512048e+00 5.188056346485473114e+02
2.146515163639273194e+00 5.188516359476524258e+02
2.146615187645034784e+00 5.188942998824287542e+02
2.146715211650796373e+00 5.189335701669830314e+02
2.146815235656557519e+00 5.189693919619547842e+02
2.146915259662319109e+00 5.190017119015747085e+02
2.147015283668080254e+00 5.190304781199298532e+02
2.147115307673841844e+00 5.190556402764283348e+02
2.147215331679602990e+00 5.190771495804417555e+02
2.147315355685364580e+00 5.190949588151228227e+02
2.147415379691125725e+00 5.191090223603763434e+02
2.147515403696887315e+00 5.191192962149777941e+02
2.147615427702648461e+00 5.191257380178251424e+02
2.147715451708410050e+00 5.191283070683115284e+02
2.147815475714171196e+00 5.191269643458141445e+02
2.147915499719932786e+00 5.191216725282815787e+02
2.148015523725693932e+00 5.191123960099160968e+02
2.148115547731455521e+00 5.190991009179394950e+02
2.148215571737216667e+00 5.190817551284330875e+02
2.148315595742978257e+00 5.190603282812442103e+02
2.148415619748739847e+00 5.190347917939567424e+02
2.148515643754500992e+00 5.190051188749100675e+02
2.148615667760262582e+00 5.189712845352659087e+02
2.148715691766023728e+00 5.189332656001165560e+02
2.148815715771785317e+00 5.188910407186292559e+02
2.148915739777546463e+00 5.188445903732184661e+02
2.149015763783308053e+00 5.187938968877464276e+02
2.149115787789069199e+00 5.187389444347476228e+02
2.149215811794830788e+00 5.186797190416695003e+02
2.149315835800591934e+00 5.186162085961344701e+02
2.149415859806353524e+00 5.185484028502123692e+02
2.149515883812114669e+00 5.184762934237123773e+02
2.149615907817876259e+00 5.183998738064805138e+02
2.149715931823637405e+00 5.183191393597146543e+02
2.149815955829398995e+00 5.182340873162927437e+02
2.149915979835160140e+00 5.181447167801086380e+02
2.150016003840921730e+00 5.180510287244279652e+02
2.150116027846682876e+00 5.179530259892590038e+02
2.150216051852444465e+00 5.178507132777411925e+02
2.150316075858206055e+00 5.177440971515551382e+02
2.150416099863967201e+00 5.176331860253607147e+02
2.150516123869728791e+00 5.175179901602613199e+02
2.150616147875489936e+00 5.173985216563047516e+02
2.150716171881251526e+00 5.172747944440189940e+02
2.150816195887012672e+00 5.171468242749979254e+02
2.150916219892774262e+00 5.170146287115342147e+02
2.151016243898535407e+00 5.168782271153100965e+02
2.151116267904296997e+00 5.167376406351537526e+02
2.151216291910058143e+00 5.165928921938675558e+02
2.151316315915819732e+00 5.164440064741376091e+02
2.151416339921580878e+00 5.162910099035316307e+02
2.151516363927342468e+00 5.161339306385967802e+02
2.151616387933103614e+00 5.159727985480651569e+02
2.151716411938865203e+00 5.158076451951785657e+02
2.151816435944626349e+00 5.156385038191409649e+02
2.151916459950387939e+00 5.154654093157150783e+02
2.152016483956149084e+00 5.152883982169664705e+02
2.152116507961911118e+00 5.151075086701771397e+02
2.152216531967672264e+00 5.149227804159319248e+02
2.152316555973433410e+00 5.147342547653973952e+02
2.152416579979194999e+00 5.145419745768040229e+02
2.152516603984956589e+00 5.143459842311439161e+02
2.152616627990717735e+00 5.141463296071033255e+02
2.152716651996478880e+00 5.139430580552397032e+02
2.152816676002240470e+00 5.137362183714202502e+02
2.152916700008002060e+00 5.135258607695384399e+02
2.153016724013763206e+00 5.133120368535247735e+02
2.153116748019524351e+00 5.130947995886632498e+02
2.153216772025285941e+00 5.128742032722407203e+02
2.153316796031047531e+00 5.126503035035308358e+02
2.153416820036808677e+00 5.124231571531470308e+02
2.153516844042569822e+00 5.121928223317663651e+02
2.153616868048331412e+00 5.119593583582577594e+02
2.153716892054093002e+00 5.117228257272165592e+02
2.153816916059854147e+00 5.114832860759389632e+02
2.153916940065615293e+00 5.112408021508468892e+02
2.154016964071377327e+00 5.109954377733827755e+02
2.154116988077138473e+00 5.107472578053985330e+02
2.154217012082900062e+00 5.104963281140534832e+02
2.154317036088661208e+00 5.102427155362466351e+02
2.154417060094422798e+00 5.099864878425922825e+02
2.154517084100183943e+00 5.097277137009794501e+02
2.154617108105945533e+00 5.094664626397134271e+02
2.154717132111706679e+00 5.092028050102769612e+02
2.154817156117468269e+00 5.089368119497232783e+02
2.154917180123229414e+00 5.086685553427253126e+02
2.155017204128991004e+00 5.083981077833054769e+02
2.155117228134752150e+00 5.081255425362587061e+02
2.155217252140513740e+00 5.078509334983008898e+02
2.155317276146274885e+00 5.075743551589596336e+02
2.155417300152036475e+00 5.072958825612258806e+02
2.155517324157797621e+00 5.070155912619970309e+02
2.155617348163559210e+00 5.067335572923253721e+02
2.155717372169320356e+00 5.064498571174992776e+02
2.155817396175081946e+00 5.061645675969767240e+02
2.155917420180843536e+00 5.058777659441979608e+02
2.156017444186604681e+00 5.055895296862897226e+02
2.156117468192366271e+00 5.052999366236966807e+02
2.156217492198127417e+00 5.050090647897530971e+02
2.156317516203889006e+00 5.047169924102196887e+02
2.156417540209650152e+00 5.044237978628086694e+02
2.156517564215411742e+00 5.041295596367183975e+02
2.156617588221172888e+00 5.038343562922038927e+02
2.156717612226934477e+00 5.035382664201972602e+02
2.156817636232695623e+00 5.032413686020087198e+02
2.156917660238457213e+00 5.029437413691263714e+02
2.157017684244218358e+00 5.026454631631358438e+02
2.157117708249979948e+00 5.023466122957856328e+02
2.157217732255741094e+00 5.020472669092142723e+02
2.157317756261502684e+00 5.017475049363681592e+02
2.157417780267263829e+00 5.014474040616241837e+02
2.157517804273025419e+00 5.011470416816447937e+02
2.157617828278786565e+00 5.008464948664829421e+02
2.157717852284548155e+00 5.005458403209577227e+02
2.157817876290309744e+00 5.002451543463271832e+02
2.157917900296070890e+00 4.999445128022682070e+02
2.158017924301832480e+00 4.996439910691993873e+02
2.158117948307593625e+00 4.993436640109485438e+02
2.158217972313355215e+00 4.990436059378010327e+02
2.158317996319116361e+00 4.987438905699391398e+02
2.158418020324877951e+00 4.984445910012983632e+02
2.158518044330639096e+00 4.981457796638521813e+02
2.158618068336400686e+00 4.978475282923501481e+02
2.158718092342161832e+00 4.975499078895292087e+02
2.158818116347923421e+00 4.972529886918083548e+02
2.158918140353684567e+00 4.969568401354941898e+02
2.159018164359446157e+00 4.966615308235102475e+02
2.159118188365207303e+00 4.963671284926660974e+02
2.159218212370968892e+00 4.960736999814885166e+02
2.159318236376730038e+00 4.957813111986232002e+02
2.159418260382491628e+00 4.954900270918361684e+02
2.159518284388253218e+00 4.951999116176152143e+02
2.159618308394014363e+00 4.949110277113985603e+02
2.159718332399775953e+00 4.946234372584423795e+02
2.159818356405537543e+00 4.943372010653415600e+02
2.159918380411298688e+00 4.940523788322160499e+02
2.160018404417059834e+00 4.937690291255823922e+02
2.160118428422821424e+00 4.934872093519192049e+02
2.160218452428583014e+00 4.932069757319404175e+02
2.160318476434344159e+00 4.929283832755920116e+02
2.160418500440105305e+00 4.926514857577794260e+02
2.160518524445866895e+00 4.923763356948435330e+02
2.160618548451628484e+00 4.921029843217922917e+02
2.160718572457389630e+00 4.918314815702989904e+02
2.160818596463150776e+00 4.915618760474804390e+02
2.160918620468912366e+00 4.912942150154634646e+02
2.161018644474673955e+00 4.910285443717478984e+02
2.161118668480435101e+00 4.907649086303775334e+02
2.161218692486196247e+00 4.905033509039273554e+02
2.161318716491957836e+00 4.902439128863121027e+02
2.161418740497719426e+00 4.899866348364290616e+02
2.161518764503481016e+00 4.897315555626368564e+02
2.161618788509242162e+00 4.894787124080791045e+02
2.161718812515003751e+00 4.892281412368622000e+02
2.161818836520764897e+00 4.889798764210869990e+02
2.161918860526526487e+00 4.887339508287412855e+02
2.162018884532287633e+00 4.884903958124651240e+02
2.162118908538049222e+00 4.882492411991775043e+02
2.162218932543810368e+00 4.880105152805851958e+02
2.162318956549571958e+00 4.877742448045648302e+02
2.162418980555333103e+00 4.875404549674249779e+02
2.162519004561094693e+00 4.873091694070537869e+02
2.162619028566855839e+00 4.870804101969434896e+02
2.162719052572617429e+00 4.868541978411071227e+02
2.162819076578378574e+00 4.866305512698748998e+02
2.162919100584140164e+00 4.864094878365764316e+02
2.163019124589901310e+00 4.861910233151112379e+02
2.163119148595662899e+00 4.859751718983993669e+02
2.163219172601424489e+00 4.857619461977134847e+02
2.163319196607185635e+00 4.855513572428958469e+02
2.163419220612947225e+00 4.853434144834464519e+02
2.163519244618708370e+00 4.851381257904931203e+02
2.163619268624469960e+00 4.849354974596266175e+02
2.163719292630231106e+00 4.847355342146046269e+02
2.163819316635992696e+00 4.845382392119223596e+02
2.163919340641753841e+00 4.843436140462339381e+02
2.164019364647515431e+00 4.841516587566321164e+02
2.164119388653276577e+00 4.839623718337706464e+02
2.164219412659038166e+00 4.837757502278296897e+02
2.164319436664799312e+00 4.835917893573090964e+02
2.164419460670560902e+00 4.834104831186550086e+02
2.164519484676322048e+00 4.832318238966958006e+02
2.164619508682083637e+00 4.830558025758965641e+02
2.164719532687844783e+00 4.828824085524052521e+02
2.164819556693606373e+00 4.827116297468974153e+02
2.164919580699367518e+00 4.825434526182019113e+02
2.165019604705129108e+00 4.823778621776964997e+02
2.165119628710890698e+00 4.822148420044665045e+02
2.165219652716651844e+00 4.820543742612152300e+02
2.165319676722413433e+00 4.818964397109130005e+02
2.165419700728174579e+00 4.817410177341745339e+02
2.165519724733936169e+00 4.815880863473502131e+02
2.165619748739697314e+00 4.814376222213272740e+02
2.165719772745458904e+00 4.812896007010111248e+02
2.165819796751220050e+00 4.811439958254961198e+02
2.165919820756981640e+00 4.810007803488906006e+02
2.166019844762742785e+00 4.808599257617971716e+02
2.166119868768504375e+00 4.807214023134274044e+02
2.166219892774265521e+00 4.805851790343373295e+02
2.166319916780027111e+00 4.804512237597713806e+02
2.166419940785788256e+00 4.803195031535940416e+02
2.166519964791549846e+00 4.801899827328014112e+02
2.166619988797310992e+00 4.800626268925874456e+02
2.166720012803072581e+00 4.799373989319600469e+02
2.166820036808833727e+00 4.798142610798794294e+02
2.166920060814595317e+00 4.796931745219103504e+02
2.167020084820356907e+00 4.795740994273671731e+02
2.167120108826118496e+00 4.794569949769353912e+02
2.167220132831879642e+00 4.793418193907535851e+02
2.167320156837640788e+00 4.792285299569366543e+02
2.167420180843402377e+00 4.791170830605234414e+02
2.167520204849163967e+00 4.790074342128299349e+02
2.167620228854925113e+00 4.788995380811925315e+02
2.167720252860686259e+00 4.787933485190756642e+02
2.167820276866447848e+00 4.786888185965393632e+02
2.167920300872209438e+00 4.785859006310294603e+02
2.168020324877970584e+00 4.784845462184889584e+02
2.168120348883731729e+00 4.783847062647596999e+02
2.168220372889493319e+00 4.782863310172616025e+02
2.168320396895254909e+00 4.781893700969290535e+02
2.168420420901016055e+00 4.780937725303829211e+02
2.168520444906777200e+00 4.779994867823199911e+02
2.168620468912538790e+00 4.779064607881036864e+02
2.168720492918300380e+00 4.778146419865311714e+02
2.168820516924061970e+00 4.777239773527613806e+02
2.168920540929823115e+00 4.776344134313819154e+02
2.169020564935584705e+00 4.775458963695974717e+02
2.169120588941345851e+00 4.774583719505180284e+02
2.169220612947107441e+00 4.773717856265278101e+02
2.169320636952868586e+00 4.772860825527181987e+02
2.169420660958630176e+00 4.772012076203591278e+02
2.169520684964391322e+00 4.771171054903961135e+02
2.169620708970152911e+00 4.770337206269479111e+02
2.169720732975914057e+00 4.769509973307885957e+02
2.169820756981675647e+00 4.768688797727944575e+02
2.169920780987436792e+00 4.767873120273344512e+02
2.170020804993198382e+00 4.767062381055866354e+02
2.170120828998959528e+00 4.766256019887621846e+02
2.170220853004721118e+00 4.765453476612161694e+02
2.170320877010482263e+00 4.764654191434257200e+02
2.170420901016243853e+00 4.763857605248209666e+02
2.170520925022004999e+00 4.763063159964457896e+02
2.170620949027766589e+00 4.762270298834316122e+02
2.170720973033528178e+00 4.761478466772651927e+02
2.170820997039289324e+00 4.760687110678343288e+02
2.170921021045050914e+00 4.759895679752338538e+02
2.171021045050812059e+00 4.759103625813064582e+02
2.171121069056573649e+00 4.758310403609171431e+02
2.171221093062334795e+00 4.757515471129222533e+02
2.171321117068096385e+00 4.756718289908399129e+02
2.171421141073857530e+00 4.755918325331809342e+02
2.171521165079619120e+00 4.755115046934475913e+02
2.171621189085380266e+00 4.754307928697622287e+02
2.171721213091141856e+00 4.753496449341244556e+02
2.171821237096903001e+00 4.752680092612756653e+02
2.171921261102664591e+00 4.751858347571571244e+02
2.172021285108425737e+00 4.751030708869412820e+02
2.172121309114187326e+00 4.750196677026294196e+02
2.172221333119948472e+00 4.749355758701970558e+02
2.172321357125710062e+00 4.748507466962693115e+02
2.172421381131471652e+00 4.747651321543212362e+02
2.172521405137232797e+00 4.746786849103800137e+02
2.172621429142994387e+00 4.745913583482206377e+02
2.172721453148755533e+00 4.745031065940448798e+02
2.172821477154517122e+00 4.744138845406231439e+02
2.172921501160278268e+00 4.743236478708950017e+02
2.173021525166039858e+00 4.742323530810113539e+02
2.173121549171801004e+00 4.741399575028091817e+02
2.173221573177562593e+00 4.740464193257060401e+02
2.173321597183323739e+00 4.739516976180086090e+02
2.173421621189085329e+00 4.738557523476146685e+02
2.173521645194846474e+00 4.737585444021108856e+02
2.173621669200608064e+00 4.736600356082507801e+02
2.173721693206369210e+00 4.735601887507984316e+02
2.173821717212130800e+00 4.734589675907413380e+02
2.173921741217891945e+00 4.733563368828555440e+02
2.174021765223653535e+00 4.732522623926160463e+02
2.174121789229414681e+00 4.731467109124487251e+02
2.174221813235176270e+00 4.730396502773104999e+02
2.174321837240937860e+00 4.729310493796023138e+02
2.174421861246699450e+00 4.728208781833919261e+02
2.174521885252460596e+00 4.727091077379583908e+02
2.174621909258221741e+00 4.725957101906427056e+02
2.174721933263983331e+00 4.724806587989972968e+02
2.174821957269744921e+00 4.723639279422432082e+02
2.174921981275506067e+00 4.722454931320133937e+02
2.175022005281267212e+00 4.721253310223958124e+02
2.175122029287028802e+00 4.720034194192591031e+02
2.175222053292790392e+00 4.718797372888653285e+02
2.175322077298551537e+00 4.717542647657688804e+02
2.175422101304312683e+00 4.716269831599935856e+02
2.175522125310074273e+00 4.714978749634940414e+02
2.175622149315835863e+00 4.713669238558934467e+02
2.175722173321597008e+00 4.712341147095011138e+02
2.175822197327358154e+00 4.710994335936114226e+02
2.175922221333119744e+00 4.709628677780783619e+02
2.176022245338881334e+00 4.708244057361749242e+02
2.176122269344642923e+00 4.706840371467303044e+02
2.176222293350404069e+00 4.705417528955538273e+02
2.176322317356165659e+00 4.703975450761398065e+02
2.176422341361926804e+00 4.702514069896664637e+02
2.176522365367688394e+00 4.701033331442822032e+02
2.176622389373449540e+00 4.699533192536854358e+02
2.176722413379211130e+00 4.698013622350073319e+02
2.176822437384972275e+00 4.696474602059922177e+02
2.176922461390733865e+00 4.694916124814894829e+02
2.177022485396495011e+00 4.693338195692542172e+02
2.177122509402256600e+00 4.691740831650683958e+02
2.177222533408017746e+00 4.690124061471847199e+02
2.177322557413779336e+00 4.688487925701006134e+02
2.177422581419540482e+00 4.686832476576682893e+02
2.177522605425302071e+00 4.685157777955493543e+02
2.177622629431063217e+00 4.683463905230208866e+02
2.177722653436824807e+00 4.681750945241363411e+02
2.177822677442585952e+00 4.680018996182612909e+02
2.177922701448347542e+00 4.678268167499747392e+02
2.178022725454109132e+00 4.676498579783644800e+02
2.178122749459870278e+00 4.674710364657079253e+02
2.178222773465631867e+00 4.672903664655596003e+02
2.178322797471393013e+00 4.671078633102529807e+02
2.178422821477154603e+00 4.669235433978206515e+02
2.178522845482915749e+00 4.667374241783533648e+02
2.178622869488677338e+00 4.665495241397982227e+02
2.178722893494438484e+00 4.663598627932165641e+02
2.178822917500200074e+00 4.661684606575045677e+02
2.178922941505961219e+00 4.659753392435968635e+02
2.179022965511722809e+00 4.657805210381561665e+02
2.179122989517483955e+00 4.655840294867670082e+02
2.179223013523245545e+00 4.653858889766474363e+02
2.179323037529006690e+00 4.651861248188822060e+02
2.179423061534768280e+00 4.649847632302040097e+02
2.179523085540529426e+00 4.647818313143218916e+02
2.179623109546291015e+00 4.645773570428214043e+02
2.179723133552052161e+00 4.643713692356449769e+02
2.179823157557813751e+00 4.641638975411646584e+02
2.179923181563575341e+00 4.639549724158677577e+02
2.180023205569336486e+00 4.637446251036610647e+02
2.180123229575098076e+00 4.635328876148166160e+02
2.180223253580859222e+00 4.633197927045661118e+02
2.180323277586620812e+00 4.631053738513638223e+02
2.180423301592381957e+00 4.628896652348309999e+02
2.180523325598143547e+00 4.626727017133948721e+02
2.180623349603904693e+00 4.624545188016449515e+02
2.180723373609666282e+00 4.622351526474062666e+02
2.180823397615427428e+00 4.620146400085656069e+02
2.180923421621189018e+00 4.617930182296489079e+02
2.181023445626950164e+00 4.615703252181734229e+02
2.181123469632711753e+00 4.613465994207875269e+02
2.181223493638472899e+00 4.611218797992196414e+02
2.181323517644234489e+00 4.608962058060405980e+02
2.181423541649995634e+00 4.606696173602675799e+02
2.181523565655757224e+00 4.604421548228167467e+02
2.181623589661518370e+00 4.602138589718237540e+02
2.181723613667280404e+00 4.599847709778496210e+02
2.181823637673041549e+00 4.597549323789835398e+02
2.181923661678802695e+00 4.595243850558632062e+02
2.182023685684564285e+00 4.592931712066222190e+02
2.182123709690325875e+00 4.590613333217903005e+02
2.182223733696087020e+00 4.588289141591476437e+02
2.182323757701848166e+00 4.585959567185678338e+02
2.182423781707609756e+00 4.583625042168458776e+02
2.182523805713371345e+00 4.581286000625393058e+02
2.182623829719132491e+00 4.578942878308341733e+02
2.182723853724893637e+00 4.576596112384530102e+02
2.182823877730655227e+00 4.574246141186135901e+02
2.182923901736416816e+00 4.571893403960661999e+02
2.183023925742177962e+00 4.569538340622087844e+02
2.183123949747939108e+00 4.567181391503108330e+02
2.183223973753700697e+00 4.564822997108477125e+02
2.183323997759462287e+00 4.562463597869686396e+02
2.183424021765223433e+00 4.560103633901088642e+02
2.183524045770985023e+00 4.557743544757617542e+02
2.183624069776746612e+00 4.555383769194274919e+02
2.183724093782507758e+00 4.553024744927433858e+02
2.183824117788269348e+00 4.550666908398229680e+02
2.183924141794030493e+00 4.548310694538065491e+02
2.184024165799792083e+00 4.545956536536436943e+02
2.184124189805553229e+00 4.543604865611147261e+02
2.184224213811314819e+00 4.541256110781119446e+02
2.184324237817075964e+00 4.538910698641840327e+02
2.184424261822837554e+00 4.536569053143675205e+02
2.184524285828598700e+00 4.534231595373050823e+02
2.184624309834360290e+00 4.531898743336746520e+02
2.184724333840121435e+00 4.529570911749325433e+02
2.184824357845883025e+00 4.527248511823860326e+02
2.184924381851644171e+00 4.524931951066084821e+02
2.185024405857405760e+00 4.522621633072002965e+02
2.185124429863166906e+00 4.520317957329198748e+02
2.185224453868928496e+00 4.518021319021789282e+02
2.185324477874689642e+00 4.515732108839268903e+02
2.185424501880451231e+00 4.513450712789231147e+02
2.185524525886212821e+00 4.511177512014147055e+02
2.185624549891973967e+00 4.508912882612263502e+02
2.185724573897735556e+00 4.506657195462653931e+02
2.185824597903496702e+00 4.504410816054635802e+02
2.185924621909258292e+00 4.502174104321502455e+02
2.186024645915019438e+00 4.499947414478745031e+02
2.186124669920781027e+00 4.497731094866784929e+02
2.186224693926542173e+00 4.495525487798328186e+02
2.186324717932303763e+00 4.493330929410401495e+02
2.186424741938064908e+00 4.491147749521088031e+02
2.186524765943826498e+00 4.488976271491133616e+02
2.186624789949587644e+00 4.486816812090372650e+02
2.186724813955349234e+00 4.484669681369064165e+02
2.186824837961110379e+00 4.482535182534272167e+02
2.186924861966871969e+00 4.480413611831183971e+02
2.187024885972633115e+00 4.478305258429546711e+02
2.187124909978394705e+00 4.476210404315228288e+02
2.187224933984156294e+00 4.474129324186875465e+02
2.187324957989917440e+00 4.472062285357802125e+02
2.187424981995679030e+00 4.470009547663070748e+02
2.187525006001440175e+00 4.467971363371833036e+02
2.187625030007201765e+00 4.465947977104925712e+02
2.187725054012962911e+00 4.463939625757745375e+02
2.187825078018724501e+00 4.461946538428462645e+02
2.187925102024485646e+00 4.459968936351514230e+02
2.188025126030247236e+00 4.458007032836433154e+02
2.188125150036008382e+00 4.456061033212045572e+02
2.188225174041769971e+00 4.454131134775936403e+02
2.188325198047531117e+00 4.452217526749305421e+02
2.188425222053292707e+00 4.450320390237149013e+02
2.188525246059053853e+00 4.448439898193706767e+02
2.188625270064815442e+00 4.446576215393291136e+02
2.188725294070576588e+00 4.444729498406348966e+02
2.188825318076338178e+00 4.442899895580836755e+02
2.188925342082099323e+00 4.441087547028824360e+02
2.189025366087860913e+00 4.439292584618323190e+02
2.189125390093622503e+00 4.437515131970339439e+02
2.189225414099383649e+00 4.435755304461040396e+02
2.189325438105145238e+00 4.434013209229094059e+02
2.189425462110906828e+00 4.432288945188072375e+02
2.189525486116667974e+00 4.430582603043902736e+02
2.189625510122429120e+00 4.428894265317326813e+02
2.189725534128190709e+00 4.427224006371286578e+02
2.189825558133952299e+00 4.425571892443243769e+02
2.189925582139713445e+00 4.423937981682303189e+02
2.190025606145474590e+00 4.422322324191155758e+02
2.190125630151236180e+00 4.420724962072720245e+02
2.190225654156997770e+00 4.419145929481450707e+02
2.190325678162758916e+00 4.417585252679234600e+02
2.190425702168520061e+00 4.416042950095821880e+02
2.190525726174281651e+00 4.414519032393689599e+02
2.190625750180043241e+00 4.413013502537295949e+02
2.190725774185804386e+00 4.411526355866609492e+02
2.190825798191565532e+00 4.410057580174872101e+02
2.190925822197327566e+00 4.408607155790495540e+02
2.191025846203088712e+00 4.407175055662985415e+02
2.191125870208850301e+00 4.405761245452848129e+02
2.191225894214611447e+00 4.404365683625348993e+02
2.191325918220373037e+00 4.402988321548061776e+02
2.191425942226134183e+00 4.401629103592084675e+02
2.191525966231895772e+00 4.400287967236859572e+02
2.191625990237656918e+00 4.398964843178474666e+02
2.191726014243418508e+00 4.397659655441335644e+02
2.191826038249179653e+00 4.396372321493148547e+02
2.191926062254941243e+00 4.395102752363065974e+02
2.192026086260702389e+00 4.393850852762918748e+02
2.192126110266463979e+00 4.392616521211409690e+02
2.192226134272225124e+00 4.391399650161156387e+02
2.192326158277986714e+00 4.390200126128505076e+02
2.192426182283747860e+00 4.389017829825966714e+02
2.192526206289509449e+00 4.387852636297175195e+02
2.192626230295270595e+00 4.386704415054272204e+02
2.192726254301032185e+00 4.385573030217549899e+02
2.192826278306793775e+00 4.384458340657325266e+02
2.192926302312554920e+00 4.383360200137836955e+02
2.193026326318316510e+00 4.382278457463078212e+02
2.193126350324077656e+00 4.381212956624499384e+02
2.193226374329839246e+00 4.380163536950366847e+02
2.193326398335600391e+00 4.379130033256743104e+02
2.193426422341361981e+00 4.378112275999903886e+02
2.193526446347123127e+00 4.377110091430121201e+02
2.193626470352884716e+00 4.376123301746656580e+02
2.193726494358645862e+00 4.375151725253850259e+02
2.193826518364407452e+00 4.374195176518205699e+02
2.193926542370168598e+00 4.373253466526318221e+02
2.194026566375930187e+00 4.372326402843560231e+02
2.194126590381691333e+00 4.371413789773341705e+02
2.194226614387452923e+00 4.370515428516902148e+02
2.194326638393214068e+00 4.369631117333461248e+02
2.194426662398975658e+00 4.368760651700616791e+02
2.194526686404736804e+00 4.367903824474886960e+02
2.194626710410498394e+00 4.367060426052237858e+02
2.194726734416259983e+00 4.366230244528547360e+02
2.194826758422021129e+00 4.365413065859796120e+02
2.194926782427782719e+00 4.364608674021955039e+02
2.195026806433543864e+00 4.363816851170383302e+02
2.195126830439305454e+00 4.363037377798680154e+02
2.195226854445066600e+00 4.362270032896822158e+02
2.195326878450828190e+00 4.361514594108513165e+02
2.195426902456589335e+00 4.360770837887616835e+02
2.195526926462350925e+00 4.360038539653556882e+02
2.195626950468112071e+00 4.359317473945586130e+02
2.195726974473873661e+00 4.358607414575824350e+02
2.195826998479634806e+00 4.357908134780917067e+02
2.195927022485396396e+00 4.357219407372280102e+02
2.196027046491157542e+00 4.356541004884742279e+02
2.196127070496919131e+00 4.355872699723553296e+02
2.196227094502680277e+00 4.355214264309640271e+02
2.196327118508441867e+00 4.354565471222982751e+02
2.196427142514203013e+00 4.353926093344043693e+02
2.196527166519964602e+00 4.353295903993165439e+02
2.196627190525726192e+00 4.352674677067809625e+02
2.196727214531487782e+00 4.352062187177572241e+02
2.196827238537248927e+00 4.351458209776881745e+02
2.196927262543010073e+00 4.350862521295302940e+02
2.197027286548771663e+00 4.350274899265323256e+02
2.197127310554533253e+00 4.349695122447657241e+02
2.197227334560294398e+00 4.349122970953765162e+02
2.197327358566055544e+00 4.348558226365794894e+02
2.197427382571817134e+00 4.348000671853639005e+02
2.197527406577578724e+00 4.347450092289160466e+02
2.197627430583339869e+00 4.346906274357476150e+02
2.197727454589101015e+00 4.346369006665255483e+02
2.197827478594862605e+00 4.345838079845927950e+02
2.197927502600624194e+00 4.345313286661800589e+02
2.198027526606385340e+00 4.344794422102980889e+02
2.198127550612146486e+00 4.344281283483062452e+02
2.198227574617908076e+00 4.343773670531523976e+02
2.198327598623669665e+00 4.343271385482805726e+02
2.198427622629431255e+00 4.342774233161999291e+02
2.198527646635192401e+00 4.342282021067096025e+02
2.198627670640953990e+00 4.341794559447786810e+02
2.198727694646715136e+00 4.341311661380772762e+02
2.198827718652476726e+00 4.340833142841512995e+02
2.198927742658237872e+00 4.340358822772406029e+02
2.199027766663999461e+00 4.339888523147396882e+02
2.199127790669760607e+00 4.339422069032949025e+02
2.199227814675522197e+00 4.338959288645361312e+02
2.199327838681283342e+00 4.338500013404454876e+02
2.199427862687044932e+00 4.338044077983525995e+02
2.199527886692806078e+00 4.337591320355668358e+02
2.199627910698567668e+00 4.337141581836368687e+02
2.199727934704328813e+00 4.336694707122347836e+02
2.199827958710090403e+00 4.336250544326774161e+02
2.199927982715851549e+00 4.335808945010676325e+02
2.200028006721613139e+00 4.335369764210727226e+02
2.200128030727374284e+00 4.334932860463237034e+02
2.200228054733135874e+00 4.334498095824508255e+02
2.200328078738897464e+00 4.334065335887468109e+02
2.200428102744658609e+00 4.333634449794668058e+02
2.200528126750420199e+00 4.333205310247562352e+02
2.200628150756181345e+00 4.332777793512218523e+02
2.200728174761942935e+00 4.332351779421362608e+02
2.200828198767704080e+00 4.331927151372871094e+02
2.200928222773465670e+00 4.331503796324679456e+02
2.201028246779226816e+00 4.331081604786185721e+02
2.201128270784988405e+00 4.330660470806136573e+02
2.201228294790749551e+00 4.330240291957091472e+02
2.201328318796511141e+00 4.329820969316441506e+02
2.201428342802272287e+00 4.329402407444057985e+02
2.201528366808033876e+00 4.328984514356650948e+02
2.201628390813795022e+00 4.328567201498791519e+02
2.201728414819556612e+00 4.328150383710761844e+02
2.201828438825317757e+00 4.327733979193184837e+02
2.201928462831079347e+00 4.327317909468577568e+02
2.202028486836840937e+00 4.326902099339807819e+02
2.202128510842602083e+00 4.326486476845558400e+02
2.202228534848363672e+00 4.326070973212887907e+02
2.202328558854124818e+00 4.325655522806873705e+02
2.202428582859886408e+00 4.325240063077465607e+02
2.202528606865647554e+00 4.324824534503636073e+02
2.202628630871409143e+00 4.324408880534825812e+02
2.202728654877170289e+00 4.323993047529820046e+02
2.202828678882931879e+00 4.323576984693106624e+02
2.202928702888693024e+00 4.323160644008829649e+02
2.203028726894454614e+00 4.322743980172324427e+02
2.203128750900215760e+00 4.322326950519467346e+02
2.203228774905977350e+00 4.321909514953744065e+02
2.203328798911738495e+00 4.321491635871283279e+02
2.203428822917500085e+00 4.321073278083850369e+02
2.203528846923261231e+00 4.320654408739897008e+02
2.203628870929022820e+00 4.320234997243794624e+02
2.203728894934783966e+00 4.319815015173312531e+02
2.203828918940545556e+00 4.319394436195420326e+02
2.203928942946307146e+00 4.318973235980582785e+02
2.204028966952068735e+00 4.318551392115517160e+02
2.204128990957829881e+00 4.318128884014636242e+02
2.204229014963591027e+00 4.317705692830193129e+02
2.204329038969352617e+00 4.317281801361249904e+02
2.204429062975114206e+00 4.316857193961583903e+02
2.204529086980875352e+00 4.316431856446604343e+02
2.204629110986636498e+00 4.316005775999404932e+02
2.204729134992398087e+00 4.315578941076020669e+02
2.204829158998159677e+00 4.315151341310029238e+02
2.204929183003920823e+00 4.314722967416590222e+02
2.205029207009681969e+00 4.314293811095991487e+02
2.205129231015443558e+00 4.313863864936832897e+02
2.205229255021205148e+00 4.313433122318974711e+02
2.205329279026966294e+00 4.313001577316289286e+02
2.205429303032727439e+00 4.312569224599376412e+02
2.205529327038489029e+00 4.312136059338338328e+02
2.205629351044250619e+00 4.311702077105681497e+02
2.205729375050012209e+00 4.311267273779462812e+02
2.205829399055773354e+00 4.310831645446818357e+02
2.205929423061534944e+00 4.310395188307967373e+02
2.206029447067296090e+00 4.309957898580706228e+02
2.206129471073057680e+00 4.309519772405634512e+02
2.206229495078818825e+00 4.309080805752099650e+02
2.206329519084580415e+00 4.308640994325032807e+02
2.206429543090341561e+00 4.308200333472734656e+02
2.206529567096103150e+00 4.307758818095693414e+02
2.206629591101864296e+00 4.307316442556620473e+02
2.206729615107625886e+00 4.306873200591693376e+02
2.206829639113387032e+00 4.306429085223169295e+02
2.206929663119148621e+00 4.305984088673415613e+02
2.207029687124909767e+00 4.305538202280539508e+02
2.207129711130671357e+00 4.305091416415573349e+02
2.207229735136432502e+00 4.304643720401429619e+02
2.207329759142194092e+00 4.304195102433641864e+02
2.207429783147955238e+00 4.303745549503037182e+02
2.207529807153716828e+00 4.303295047320332856e+02
2.207629831159478417e+00 4.302843580242852113e+02
2.207729855165239563e+00 4.302391131203368673e+02
2.207829879171001153e+00 4.301937681641192626e+02
2.207929903176762299e+00 4.301483211435540284e+02
2.208029927182523888e+00 4.301027698841340907e+02
2.208129951188285034e+00 4.300571120427431424e+02
2.208229975194046624e+00 4.300113451017375610e+02
2.208329999199807769e+00 4.299654663632813936e+02
2.208430023205569359e+00 4.299194729439523144e+02
2.208530047211330505e+00 4.298733617696218516e+02
2.208630071217092095e+00 4.298271295706136925e+02
2.208730095222853240e+00 4.297807728771537086e+02
2.208830119228614830e+00 4.297342880151049940e+02
2.208930143234375976e+00 4.296876711020111088e+02
2.209030167240137565e+00 4.296409180434328619e+02
2.209130191245898711e+00 4.295940245296019384e+02
2.209230215251660301e+00 4.295469860323848366e+02
2.209330239257421447e+00 4.294997978025662064e+02
2.209430263263183036e+00 4.294524548674572770e+02
2.209530287268944626e+00 4.294049520288261874e+02
2.209630311274705772e+00 4.293572838611662519e+02
2.209730335280467362e+00 4.293094447102942581e+02
2.209830359286228507e+00 4.292614286922868132e+02
2.209930383291990097e+00 4.292132296927625248e+02
2.210030407297751243e+00 4.291648413665010366e+02
2.210130431303512832e+00 4.291162571374131289e+02
2.210230455309273978e+00 4.290674701988590982e+02
2.210330479315035568e+00 4.290184735143134276e+02
2.210430503320796713e+00 4.289692598183854670e+02
2.210530527326558303e+00 4.289198216181920884e+02
2.210630551332319449e+00 4.288701511950830536e+02
2.210730575338081039e+00 4.288202406067218817e+02
2.210830599343842184e+00 4.287700816895213052e+02
2.210930623349603774e+00 4.287196660614361576e+02
2.211030647355364920e+00 4.286689851251073264e+02
2.211130671361126510e+00 4.286180300713621136e+02
2.211230695366887655e+00 4.285667918830681629e+02
2.211330719372649689e+00 4.285152613393387924e+02
2.211430743378410835e+00 4.284634290200895066e+02
2.211530767384171980e+00 4.284112853109431853e+02
2.211630791389933570e+00 4.283588204084820745e+02
2.211730815395695160e+00 4.283060243258449873e+02
2.211830839401456306e+00 4.282528868986645989e+02
2.211930863407217451e+00 4.281993977913463141e+02
2.212030887412979041e+00 4.281455465036779060e+02
2.212130911418740631e+00 4.280913223777767485e+02
2.212230935424501777e+00 4.280367146053597480e+02
2.212330959430262922e+00 4.279817122353418881e+02
2.212430983436024512e+00 4.279263041817476960e+02
2.212531007441786102e+00 4.278704792319446142e+02
2.212631031447547247e+00 4.278142260551793470e+02
2.212731055453308393e+00 4.277575332114222419e+02
2.212831079459069983e+00 4.277003891605079957e+02
2.212931103464831573e+00 4.276427822715693310e+02
2.213031127470592718e+00 4.275847008327586991e+02
2.213131151476354308e+00 4.275261330612456163e+02
2.213231175482115898e+00 4.274670671134911686e+02
2.213331199487877043e+00 4.274074910957875773e+02
2.213431223493638633e+00 4.273473930750557770e+02
2.213531247499399779e+00 4.272867610898940143e+02
2.213631271505161369e+00 4.272255831618718958e+02
2.213731295510922514e+00 4.271638473070584041e+02
2.213831319516684104e+00 4.271015415477784245e+02
2.213931343522445250e+00 4.270386539245881181e+02
2.214031367528206840e+00 4.269751725084574900e+02
2.214131391533967985e+00 4.269110854131623114e+02
2.214231415539729575e+00 4.268463808078572015e+02
2.214331439545490721e+00 4.267810469298412386e+02
2.214431463551252310e+00 4.267150720974935894e+02
2.214531487557013456e+00 4.266484447233686410e+02
2.214631511562775046e+00 4.265811533274533645e+02
2.214731535568536192e+00 4.265131865505600217e+02
2.214831559574297781e+00 4.264445331678585376e+02
2.214931583580058927e+00 4.263751821025264235e+02
2.215031607585820517e+00 4.263051224395187546e+02
2.215131631591582106e+00 4.262343434394284145e+02
2.215231655597343252e+00 4.261628345524495671e+02
2.215331679603104842e+00 4.260905854324114443e+02
2.215431703608865988e+00 4.260175859508842109e+02
2.215531727614627577e+00 4.259438262113429801e+02
2.215631751620388723e+00 4.258692965633763379e+02
2.215731775626150313e+00 4.257939876169284616e+02
2.215831799631911458e+00 4.257178902565657381e+02
2.215931823637673048e+00 4.256409956557534997e+02
2.216031847643434194e+00 4.255632952911317375e+02
2.216131871649195784e+00 4.254847809567778540e+02
2.216231895654956929e+00 4.254054447784474178e+02
2.216331919660718519e+00 4.253252792277732510e+02
2.216431943666479665e+00 4.252442771364231362e+02
2.216531967672241255e+00 4.251624317101895372e+02
2.216631991678002400e+00 4.250797365430117338e+02
2.216732015683763990e+00 4.249961856309122936e+02
2.216832039689525580e+00 4.249117733858332713e+02
2.216932063695286725e+00 4.248264946493682714e+02
2.217032087701048315e+00 4.247403447063693989e+02
2.217132111706809461e+00 4.246533192984240372e+02
2.217232135712571051e+00 4.245654146371832098e+02
2.217332159718332196e+00 4.244766274175350418e+02
2.217432183724093786e+00 4.243869548306067827e+02
2.217532207729854932e+00 4.242963945765881135e+02
2.217632231735616521e+00 4.242049448773582299e+02
2.217732255741377667e+00 4.241126044889088007e+02
2.217832279747139257e+00 4.240193727135513200e+02
2.217932303752900403e+00 4.239252494118948675e+02
2.218032327758661992e+00 4.238302350145834225e+02
2.218132351764423138e+00 4.237343305337823267e+02
2.218232375770184728e+00 4.236375375744012786e+02
2.218332399775945873e+00 4.235398583450433989e+02
2.218432423781707463e+00 4.234412956686699090e+02
2.218532447787468609e+00 4.233418529929663237e+02
2.218632471793230199e+00 4.232415344004044755e+02
2.218732495798991788e+00 4.231403446179842263e+02
2.218832519804752934e+00 4.230382890266483855e+02
2.218932543810514524e+00 4.229353736703592404e+02
2.219032567816276114e+00 4.228316052648261234e+02
2.219132591822037259e+00 4.227269912058723094e+02
2.219232615827798405e+00 4.226215395774386252e+02
2.219332639833559995e+00 4.225152591592028557e+02
2.219432663839321584e+00 4.224081594338173318e+02
2.219532687845082730e+00 4.223002505937466822e+02
2.219632711850843876e+00 4.221915435477000074e+02
2.219732735856605466e+00 4.220820499266532124e+02
2.219832759862367055e+00 4.219717820894443321e+02
2.219932783868128201e+00 4.218607531279405976e+02
2.220032807873889347e+00 4.217489768717671268e+02
2.220132831879650936e+00 4.216364678925880298e+02
2.220232855885412526e+00 4.215232415079361772e+02
2.220332879891173672e+00 4.214093137845806041e+02
2.220432903896934818e+00 4.212947015414282532e+02
2.220532927902696851e+00 4.211794223519490288e+02
2.220632951908457997e+00 4.210634945461249572e+02
2.220732975914219587e+00 4.209469372119093578e+02
2.220832999919980733e+00 4.208297701961944313e+02
2.220933023925742322e+00 4.207120141052868121e+02
2.221033047931503468e+00 4.205936903048745421e+02
2.221133071937265058e+00 4.204748209194917763e+02
2.221233095943026203e+00 4.203554288314701353e+02
2.221333119948787793e+00 4.202355376793769324e+02
2.221433143954548939e+00 4.201151718559322035e+02
2.221533167960310529e+00 4.199943565054075520e+02
2.221633191966071674e+00 4.198731175204942474e+02
2.221733215971833264e+00 4.197514815386508644e+02
2.221833239977594410e+00 4.196294759379120478e+02
2.221933263983355999e+00 4.195071288321736347e+02
2.222033287989117145e+00 4.193844690659399816e+02
2.222133311994878735e+00 4.192615262085378731e+02
2.222233336000639881e+00 4.191383305477908152e+02
2.222333360006401470e+00 4.190149130831646289e+02
2.222433384012163060e+00 4.188913055183701886e+02
2.222533408017924206e+00 4.187675402534332534e+02
2.222633432023685796e+00 4.186436503762270149e+02
2.222733456029446941e+00 4.185196696534734428e+02
2.222833480035208531e+00 4.183956325212060960e+02
2.222933504040969677e+00 4.182715740747072459e+02
2.223033528046731266e+00 4.181475300579110126e+02
2.223133552052492412e+00 4.180235368522832005e+02
2.223233576058254002e+00 4.178996314651748207e+02
2.223333600064015148e+00 4.177758515176549281e+02
2.223433624069776737e+00 4.176522352318282287e+02
2.223533648075537883e+00 4.175288214176361521e+02
2.223633672081299473e+00 4.174056494591523574e+02
2.223733696087060618e+00 4.172827593003714810e+02
2.223833720092822208e+00 4.171601914305009586e+02
2.223933744098583354e+00 4.170379868687558087e+02
2.224033768104344944e+00 4.169161871486695645e+02
2.224133792110106089e+00 4.167948343019211279e+02
2.224233816115867679e+00 4.166739708416859003e+02
2.224333840121629269e+00 4.165536397455203996e+02
2.224433864127390414e+00 4.164338844377852524e+02
2.224533888133152004e+00 4.163147487716138357e+02
2.224633912138913150e+00 4.161962770104360061e+02
2.224733936144674740e+00 4.160785138090642477e+02
2.224833960150435885e+00 4.159615041943544611e+02
2.224933984156197475e+00 4.158452935454412795e+02
2.225034008161958621e+00 4.157299275735664423e+02
2.225134032167720211e+00 4.156154523015086397e+02
2.225234056173481356e+00 4.155019140426184094e+02
2.225334080179242946e+00 4.153893593794749108e+02
2.225434104185004092e+00 4.152778351421725347e+02
2.225534128190765681e+00 4.151673883862495131e+02
2.225634152196526827e+00 4.150580663702662605e+02
2.225734176202288417e+00 4.149499165330503843e+02
2.225834200208049563e+00 4.148429864706153580e+02
2.225934224213811152e+00 4.147373239127675788e+02
2.226034248219572298e+00 4.146329766994132342e+02
2.226134272225333888e+00 4.145299927565773714e+02
2.226234296231095477e+00 4.144284200721490379e+02
2.226334320236857067e+00 4.143283066713655103e+02
2.226434344242618213e+00 4.142297005920445372e+02
2.226534368248379359e+00 4.141326498595891508e+02
2.226634392254140948e+00 4.140372024617649913e+02
2.226734416259902538e+00 4.139434063232762355e+02
2.226834440265663684e+00 4.138513092801441076e+02
2.226934464271424829e+00 4.137609590539145756e+02
2.227034488277186419e+00 4.136724032256935857e+02
2.227134512282948009e+00 4.135856892100450182e+02
2.227234536288709155e+00 4.135008642287467637e+02
2.227334560294470300e+00 4.134179752844308950e+02
2.227434584300231890e+00 4.133370691341256702e+02
2.227534608305993480e+00 4.132581922627057338e+02
2.227634632311754626e+00 4.131813908562722304e+02
2.227734656317515771e+00 4.131067107754777226e+02
2.227834680323277361e+00 4.130341975288127969e+02
2.227934704329038951e+00 4.129638962458685114e+02
2.228034728334800540e+00 4.128958516505878720e+02
2.228134752340561686e+00 4.128301080345345326e+02
2.228234776346323276e+00 4.127667092301783782e+02
2.228334800352084422e+00 4.127056985842270933e+02
2.228434824357846011e+00 4.126471189310177579e+02
2.228534848363607157e+00 4.125910125659767687e+02
2.228634872369368747e+00 4.125374212191783272e+02
2.228734896375129892e+00 4.124863860290072921e+02
2.228834920380891482e+00 4.124379475159460640e+02
2.228934944386652628e+00 4.123921455565054544e+02
2.229034968392414218e+00 4.123490193573109650e+02
2.229134992398175363e+00 4.123086074293652246e+02
2.229235016403936953e+00 4.122709475625016466e+02
2.229335040409698099e+00 4.122360768000440316e+02
2.229435064415459689e+00 4.122040314136942243e+02
2.229535088421220834e+00 4.121748468786565809e+02
2.229635112426982424e+00 4.121485578490226658e+02
2.229735136432743570e+00 4.121251981334284551e+02
2.229835160438505159e+00 4.121048006710024652e+02
2.229935184444266749e+00 4.120873975076183342e+02
2.230035208450027895e+00 4.120730197724723212e+02
2.230135232455789485e+00 4.120616976549957826e+02
2.230235256461550630e+00 4.120534603821248538e+02
2.230335280467312220e+00 4.120483361959376793e+02
2.230435304473073366e+00 4.120463523316789178e+02
2.230535328478834955e+00 4.120475349961824350e+02
2.230635352484596101e+00 4.120519093467125344e+02
2.230735376490357691e+00 4.120594994702363465e+02
2.230835400496118837e+00 4.120703283631370368e+02
2.230935424501880426e+00 4.120844179113965424e+02
2.231035448507641572e+00 4.121017888712436275e+02
2.231135472513403162e+00 4.121224608502981823e+02
2.231235496519164307e+00 4.121464522892155173e+02
2.231335520524925897e+00 4.121737804438486705e+02
2.231435544530687043e+00 4.122044613679398708e+02
2.231535568536448633e+00 4.122385098963584369e+02
2.231635592542210222e+00 4.122759396288917060e+02
2.231735616547971368e+00 4.123167629146080913e+02
2.231835640553732958e+00 4.123609908368028414e+02
2.231935664559494104e+00 4.124086331985326979e+02
2.232035688565255693e+00 4.124596985087630401e+02
2.232135712571016839e+00 4.125141939691271773e+02
2.232235736576778429e+00 4.125721254613162046e+02
2.232335760582539574e+00 4.126334975351082335e+02
2.232435784588301164e+00 4.126983133970480253e+02
2.232535808594062310e+00 4.127665748997845299e+02
2.232635832599823900e+00 4.128382825320795746e+02
2.232735856605585045e+00 4.129134354094969126e+02
2.232835880611346635e+00 4.129920312657784507e+02
2.232935904617107781e+00 4.130740664449160704e+02
2.233035928622869370e+00 4.131595358939333664e+02
2.233135952628630516e+00 4.132484331563757678e+02
2.233235976634392106e+00 4.133407503665251284e+02
2.233336000640153252e+00 4.134364782443414015e+02
2.233436024645914841e+00 4.135356060911370832e+02
2.233536048651676431e+00 4.136381217859978960e+02
2.233636072657438021e+00 4.137440117829448809e+02
2.233736096663199167e+00 4.138532611088524504e+02
2.233836120668960312e+00 4.139658533621241077e+02
2.233936144674721902e+00 4.140817707121283320e+02
2.234036168680483492e+00 4.142009938994040681e+02
2.234136192686244637e+00 4.143235022366328053e+02
2.234236216692005783e+00 4.144492736103879338e+02
2.234336240697767373e+00 4.145782844836583081e+02
2.234436264703528963e+00 4.147105098991490877e+02
2.234536288709290108e+00 4.148459234833686082e+02
2.234636312715051254e+00 4.149844974514923024e+02
2.234736336720812844e+00 4.151262026130112872e+02
2.234836360726574433e+00 4.152710083781672665e+02
2.234936384732335579e+00 4.154188827651666998e+02
2.235036408738096725e+00 4.155697924081846395e+02
2.235136432743858315e+00 4.157237025661453345e+02
2.235236456749619904e+00 4.158805771322881810e+02
2.235336480755381494e+00 4.160403786445113496e+02
2.235436504761142640e+00 4.162030682964939388e+02
2.235536528766904230e+00 4.163686059495923359e+02
2.235636552772665375e+00 4.165369501455089107e+02
2.235736576778426965e+00 4.167080581197247966e+02
2.235836600784188111e+00 4.168818858157038676e+02
2.235936624789949700e+00 4.170583878998471619e+02
2.236036648795710846e+00 4.172375177772075858e+02
2.236136672801472436e+00 4.174192276079500061e+02
2.236236696807233582e+00 4.176034683245558767e+02
2.236336720812995171e+00 4.177901896497610892e+02
2.236436744818756317e+00 4.179793401152255115e+02
2.236536768824517907e+00 4.181708670809215960e+02
2.236636792830279052e+00 4.183647167552417727e+02
2.236736816836040642e+00 4.185608342158035953e+02
2.236836840841801788e+00 4.187591634309598021e+02
2.236936864847563378e+00 4.189596472819895325e+02
2.237036888853324523e+00 4.191622275859719480e+02
2.237136912859086113e+00 4.193668451193248643e+02
2.237236936864847703e+00 4.195734396420016310e+02
2.237336960870608848e+00 4.197819499223363096e+02
2.237436984876370438e+00 4.199923137625206095e+02
2.237537008882131584e+00 4.202044680247069550e+02
2.237637032887893174e+00 4.204183486577211397e+02
2.237737056893654319e+00 4.206338907243746235e+02
2.237837080899415909e+00 4.208510284293614632e+02
2.237937104905177055e+00 4.210696951477285666e+02
2.238037128910938645e+00 4.212898234539036935e+02
2.238137152916699790e+00 4.215113451512677329e+02
2.238237176922461380e+00 4.217341913022574431e+02
2.238337200928222526e+00 4.219582922589825102e+02
2.238437224933984115e+00 4.221835776943439669e+02
2.238537248939745261e+00 4.224099766336349262e+02
2.238637272945506851e+00 4.226374174866091380e+02
2.238737296951267997e+00 4.228658280800057128e+02
2.238837320957029586e+00 4.230951356905051171e+02
2.238937344962790732e+00 4.233252670781044458e+02
2.239037368968552322e+00 4.235561485198975902e+02
2.239137392974313912e+00 4.237877058442348925e+02
2.239237416980075057e+00 4.240198644652529083e+02
2.239337440985836647e+00 4.242525494177493783e+02
2.239437464991597793e+00 4.244856853923915878e+02
2.239537488997359382e+00 4.247191967712334986e+02
2.239637513003120528e+00 4.249530076635252840e+02
2.239737537008882118e+00 4.251870419418002598e+02
2.239837561014643263e+00 4.254212232782127785e+02
2.239937585020404853e+00 4.256554751811122514e+02
2.240037609026165999e+00 4.258897210318327780e+02
2.240137633031927589e+00 4.261238841216780884e+02
2.240237657037688734e+00 4.263578876890820766e+02
2.240337681043450324e+00 4.265916549569265044e+02
2.240437705049211470e+00 4.268251091699902418e+02
2.240537729054973060e+00 4.270581736325156044e+02
2.240637753060734205e+00 4.272907717458691081e+02
2.240737777066495795e+00 4.275228270462730507e+02
2.240837801072256941e+00 4.277542632425932538e+02
2.240937825078018975e+00 4.279850042541543189e+02
2.241037849083780120e+00 4.282149742485689217e+02
2.241137873089541266e+00 4.284440976795529537e+02
2.241237897095302856e+00 4.286722993247135491e+02
2.241337921101064445e+00 4.288995043232810076e+02
2.241437945106825591e+00 4.291256382137671608e+02
2.241537969112586737e+00 4.293506269715289250e+02
2.241637993118348327e+00 4.295743970462163475e+02
2.241738017124109916e+00 4.297968753990811024e+02
2.241838041129871062e+00 4.300179895401266776e+02
2.241938065135632208e+00 4.302376675650806988e+02
2.242038089141393797e+00 4.304558381921614796e+02
2.242138113147155387e+00 4.306724307986274880e+02
2.242238137152916533e+00 4.308873754570781784e+02
2.242338161158677678e+00 4.311006029714966985e+02
2.242438185164439268e+00 4.313120449130003067e+02
2.242538209170200858e+00 4.315216336552932148e+02
2.242638233175962004e+00 4.317293024097843386e+02
2.242738257181723593e+00 4.319349852603662612e+02
2.242838281187485183e+00 4.321386171978201673e+02
2.242938305193246329e+00 4.323401341538397560e+02
2.243038329199007919e+00 4.325394730346415599e+02
2.243138353204769064e+00 4.327365717541529193e+02
2.243238377210530654e+00 4.329313692667494138e+02
2.243338401216291800e+00 4.331238055995304990e+02
2.243438425222053390e+00 4.333138218841056641e+02
2.243538449227814535e+00 4.335013603878776394e+02
2.243638473233576125e+00 4.336863645448007105e+02
2.243738497239337271e+00 4.338687789856033419e+02
2.243838521245098860e+00 4.340485495674427057e+02
2.243938545250860006e+00 4.342256234029870257e+02
2.244038569256621596e+00 4.343999488889024860e+02
2.244138593262382742e+00 4.345714757337217975e+02
2.244238617268144331e+00 4.347401549850923743e+02
2.244338641273905477e+00 4.349059390563667193e+02
2.244438665279667067e+00 4.350687817525422929e+02
2.244538689285428212e+00 4.352286382955101089e+02
2.244638713291189802e+00 4.353854653486176858e+02
2.244738737296951392e+00 4.355392210405190099e+02
2.244838761302712538e+00 4.356898649882979271e+02
2.244938785308474127e+00 4.358373583198552979e+02
2.245038809314235273e+00 4.359816636955399645e+02
2.245138833319996863e+00 4.361227453290126732e+02
2.245238857325758008e+00 4.362605690073306164e+02
2.245338881331519598e+00 4.363951021102375307e+02
2.245438905337280744e+00 4.365263136286455392e+02
2.245538929343042334e+00 4.366541741823023131e+02
2.245638953348803479e+00 4.367786560366248523e+02
2.245738977354565069e+00 4.368997331186938595e+02
2.245839001360326215e+00 4.370173810323962016e+02
2.245939025366087805e+00 4.371315770727040899e+02
2.246039049371848950e+00 4.372423002390841020e+02
2.246139073377610540e+00 4.373495312480217194e+02
2.246239097383371686e+00 4.374532525446592217e+02
2.246339121389133275e+00 4.375534483135334654e+02
2.246439145394894865e+00 4.376501044884071234e+02
2.246539169400656011e+00 4.377432087611874749e+02
2.246639193406417601e+00 4.378327505899235916e+02
2.246739217412178746e+00 4.379187212058761816e+02
2.246839241417940336e+00 4.380011136196575876e+02
2.246939265423701482e+00 4.380799226264317099e+02
2.247039289429463071e+00 4.381551448101721462e+02
2.247139313435224217e+00 4.382267785469741739e+02
2.247239337440985807e+00 4.382948240074140926e+02
2.247339361446746953e+00 4.383592831579574067e+02
2.247439385452508542e+00 4.384201597614136858e+02
2.247539409458269688e+00 4.384774593764237807e+02
2.247639433464031278e+00 4.385311893559990040e+02
2.247739457469792423e+00 4.385813588450915859e+02
2.247839481475554013e+00 4.386279787772088525e+02
2.247939505481315159e+00 4.386710618700632835e+02
2.248039529487076749e+00 4.387106226202660082e+02
2.248139553492837894e+00 4.387466772970577722e+02
2.248239577498599484e+00 4.387792439350863560e+02
2.248339601504361074e+00 4.388083423262273755e+02
2.248439625510122220e+00 4.388339940104561947e+02
2.248539649515883809e+00 4.388562222657654956e+02
2.248639673521645399e+00 4.388750520971466358e+02
2.248739697527406545e+00 4.388905102246264960e+02
2.248839721533167690e+00 4.389026250703710730e+02
2.248939745538929280e+00 4.389114267448608189e+02
2.249039769544690870e+00 4.389169470321437529e+02
2.249139793550452016e+00 4.389192193741702113e+02
2.249239817556213161e+00 4.389182788542244111e+02
2.249339841561974751e+00 4.389141621794501589e+02
2.249439865567736341e+00 4.389069076624867876e+02
2.249539889573497486e+00 4.388965552022223733e+02
2.249639913579258632e+00 4.388831462636727565e+02
2.249739937585020222e+00 4.388667238569931897e+02
2.249839961590781812e+00 4.388473325156427904e+02
2.249939985596542957e+00 4.388250182737009482e+02
2.250040009602304103e+00 4.387998286423552372e+02
2.250140033608066137e+00 4.387718125855703875e+02
2.250240057613827283e+00 4.387410204949487706e+02
2.250340081619588872e+00 4.387075041637978643e+02
2.250440105625350018e+00 4.386713167604198702e+02
2.250540129631111608e+00 4.386325128006300247e+02
2.250640153636872753e+00 4.385911481195271335e+02
2.250740177642634343e+00 4.385472798425237784e+02
2.250840201648395489e+00 4.385009663556563169e+02
2.250940225654157079e+00 4.384522672751884329e+02
2.251040249659918224e+00 4.384012434165207424e+02
2.251140273665679814e+00 4.383479567624337960e+02
2.251240297671440960e+00 4.382924704306651051e+02
2.251340321677202549e+00 4.382348486408545227e+02
2.251440345682963695e+00 4.381751566808636653e+02
2.251540369688725285e+00 4.381134608724917712e+02
2.251640393694486431e+00 4.380498285366078335e+02
2.251740417700248020e+00 4.379843279577156636e+02
2.251840441706009166e+00 4.379170283479708132e+02
2.251940465711770756e+00 4.378479998106714106e+02
2.252040489717532346e+00 4.377773133032399073e+02
2.252140513723293491e+00 4.377050405997191547e+02
2.252240537729055081e+00 4.376312542527969072e+02
2.252340561734816227e+00 4.375560275553908696e+02
2.252440585740577816e+00 4.374794345018019612e+02
2.252540609746338962e+00 4.374015497484674029e+02
2.252640633752100552e+00 4.373224485743302807e+02
2.252740657757861698e+00 4.372422068408495193e+02
2.252840681763623287e+00 4.371609009516703281e+02
2.252940705769384433e+00 4.370786078119784293e+02
2.253040729775146023e+00 4.369954047875618812e+02
2.253140753780907168e+00 4.369113696636034661e+02
2.253240777786668758e+00 4.368265806032192131e+02
2.253340801792429904e+00 4.367411161057801792e+02
2.253440825798191494e+00 4.366550549650252719e+02
2.253540849803952639e+00 4.365684762270018950e+02
2.253640873809714229e+00 4.364814591478457828e+02
2.253740897815475375e+00 4.363940831514350975e+02
2.253840921821236964e+00 4.363064277869330567e+02
2.253940945826998554e+00 4.362185726862489901e+02
2.254040969832759700e+00 4.361305975214400519e+02
2.254140993838521290e+00 4.360425819620739389e+02
2.254241017844282435e+00 4.359546056325826271e+02
2.254341041850044025e+00 4.358667480696273060e+02
2.254441065855805171e+00 4.357790886794992957e+02
2.254541089861566761e+00 4.356917066955818996e+02
2.254641113867327906e+00 4.356046811358935429e+02
2.254741137873089496e+00 4.355180907607427798e+02
2.254841161878850642e+00 4.354320140305140967e+02
2.254941185884612231e+00 4.353465290636069085e+02
2.255041209890373377e+00 4.352617135945605469e+02
2.255141233896134967e+00 4.351776449323746192e+02
2.255241257901896113e+00 4.350943999190648128e+02
2.255341281907657702e+00 4.350120548884644904e+02
2.255441305913418848e+00 4.349306856252990201e+02
2.255541329919180438e+00 4.348503673245639334e+02
2.255641353924941583e+00 4.347711745512192465e+02
2.255741377930703173e+00 4.346931812002244442e+02
2.255841401936464763e+00 4.346164604569484595e+02
2.255941425942226353e+00 4.345410847579600500e+02
2.256041449947987498e+00 4.344671257522329029e+02
2.256141473953748644e+00 4.343946542627875829e+02
2.256241497959510234e+00 4.343237402487811210e+02
2.256341521965271824e+00 4.342544527680819328e+02
2.256441545971032969e+00 4.341868599403367739e+02
2.256541569976794115e+00 4.341210289105623019e+02
2.256641593982555705e+00 4.340570258132735830e+02
2.256741617988317294e+00 4.339949157371758588e+02
2.256841641994078440e+00 4.339347626904374238e+02
2.256941665999839586e+00 4.338766295665633379e+02
2.257041690005601176e+00 4.338205781108891870e+02
2.257141714011362765e+00 4.337666688877179695e+02
2.257241738017123911e+00 4.337149612481128429e+02
2.257341762022885057e+00 4.336655132983701719e+02
2.257441786028646646e+00 4.336183818691861234e+02
2.257541810034408236e+00 4.335736224855382375e+02
2.257641834040169826e+00 4.335312893372988015e+02
2.257741858045930972e+00 4.334914352505935540e+02
2.257841882051692561e+00 4.334541116599257293e+02
2.257941906057453707e+00 4.334193685810816419e+02
2.258041930063215297e+00 4.333872545848330446e+02
2.258141954068976442e+00 4.333578167714472329e+02
2.258241978074738032e+00 4.333311007460262090e+02
2.258342002080499178e+00 4.333071505946859929e+02
2.258442026086260768e+00 4.332860088615893801e+02
2.258542050092021913e+00 4.332677165268451063e+02
2.258642074097783503e+00 4.332523129852885404e+02
2.258742098103544649e+00 4.332398360261541370e+02
2.258842122109306239e+00 4.332303218136535747e+02
2.258942146115067384e+00 4.332238048684666865e+02
2.259042170120828974e+00 4.332203180501592215e+02
2.259142194126590120e+00 4.332198925405400587e+02
2.259242218132351709e+00 4.332225578279596903e+02
2.259342242138112855e+00 4.332283416925677102e+02
2.259442266143874445e+00 4.332372701925310139e+02
2.259542290149636035e+00 4.332493676512260663e+02
2.259642314155397180e+00 4.332646566454081949e+02
2.259742338161158770e+00 4.332831579943680254e+02
2.259842362166919916e+00 4.333048907500796645e+02
2.259942386172681505e+00 4.333298721883484177e+02
2.260042410178442651e+00 4.333581178009554264e+02
2.260142434184204241e+00 4.333896412888200302e+02
2.260242458189965387e+00 4.334244545561646191e+02
2.260342482195726976e+00 4.334625677056974382e+02
2.260442506201488122e+00 4.335039890348165272e+02
2.260542530207249712e+00 4.335487250328259279e+02
2.260642554213010857e+00 4.335967803791821780e+02
2.260742578218772447e+00 4.336481579427542670e+02
2.260842602224533593e+00 4.337028587821147880e+02
2.260942626230295183e+00 4.337608821468472797e+02
2.261042650236056328e+00 4.338222254798779431e+02
2.261142674241817918e+00 4.338868844208284941e+02
2.261242698247579508e+00 4.339548528103857734e+02
2.261342722253340654e+00 4.340261226956872065e+02
2.261442746259102243e+00 4.341006843367201782e+02
2.261542770264863389e+00 4.341785262137296968e+02
2.261642794270624979e+00 4.342596350356272978e+02
2.261742818276386124e+00 4.343439957494045984e+02
2.261842842282147714e+00 4.344315915505376893e+02
2.261942866287908860e+00 4.345224038943778737e+02
2.262042890293670450e+00 4.346164125085267642e+02
2.262142914299431595e+00 4.347135954061827192e+02
2.262242938305193185e+00 4.348139289004512875e+02
2.262342962310954331e+00 4.349173876196183528e+02
2.262442986316715920e+00 4.350239445233654578e+02
2.262543010322477066e+00 4.351335709199288999e+02
2.262643034328238656e+00 4.352462364841819635e+02
2.262743058333999802e+00 4.353619092766400627e+02
2.262843082339761391e+00 4.354805557633689546e+02
2.262943106345522537e+00 4.356021408367911363e+02
2.263043130351284127e+00 4.357266278373699038e+02
2.263143154357045717e+00 4.358539785761684016e+02
2.263243178362807306e+00 4.359841533582610964e+02
2.263343202368568452e+00 4.361171110069903989e+02
2.263443226374329598e+00 4.362528088890497884e+02
2.263543250380091187e+00 4.363912029403808219e+02
2.263643274385852777e+00 4.365322476928693050e+02
2.263743298391613923e+00 4.366758963018210693e+02
2.263843322397375069e+00 4.368221005742075249e+02
2.263943346403136658e+00 4.369708109976572246e+02
2.264043370408898248e+00 4.371219767701817318e+02
2.264143394414659394e+00 4.372755458306146465e+02
2.264243418420420539e+00 4.374314648897477582e+02
2.264343442426182129e+00 4.375896794621470463e+02
2.264443466431943719e+00 4.377501338986253927e+02
2.264543490437704865e+00 4.379127714193560337e+02
2.264643514443466010e+00 4.380775341476089579e+02
2.264743538449227600e+00 4.382443631440845593e+02
2.264843562454989190e+00 4.384131984418297634e+02
2.264943586460750780e+00 4.385839790817138351e+02
2.265043610466511925e+00 4.387566431484401619e+02
2.265143634472273515e+00 4.389311278070798608e+02
2.265243658478034661e+00 4.391073693400962838e+02
2.265343682483796250e+00 4.392853031848478054e+02
2.265443706489557396e+00 4.394648639715375680e+02
2.265543730495318986e+00 4.396459855615962624e+02
2.265643754501080132e+00 4.398286010864690070e+02
2.265743778506841721e+00 4.400126429867856359e+02
2.265843802512602867e+00 4.401980430518948424e+02
2.265943826518364457e+00 4.403847324597282977e+02
2.266043850524125602e+00 4.405726418169844578e+02
2.266143874529887192e+00 4.407617011995981784e+02
2.266243898535648338e+00 4.409518401934759027e+02
2.266343922541409928e+00 4.411429879354760146e+02
2.266443946547171073e+00 4.413350731545996268e+02
2.266543970552932663e+00 4.415280242133795809e+02
2.266643994558693809e+00 4.417217691494362271e+02
2.266744018564455398e+00 4.419162357171740041e+02
2.266844042570216988e+00 4.421113514296015978e+02
2.266944066575978134e+00 4.423070436002423094e+02
2.267044090581739724e+00 4.425032393851142274e+02
2.267144114587500869e+00 4.426998658247590015e+02
2.267244138593262459e+00 4.428968498862826664e+02
2.267344162599023605e+00 4.430941185053977733e+02
2.267444186604785195e+00 4.432915986284323822e+02
2.267544210610546340e+00 4.434892172542857338e+02
2.267644234616307930e+00 4.436869014762996812e+02
2.267744258622069076e+00 4.438845785240310988e+02
2.267844282627830665e+00 4.440821758048926426e+02
2.267944306633591811e+00 4.442796209456354291e+02
2.268044330639353401e+00 4.444768418336628883e+02
2.268144354645114547e+00 4.446737666581300346e+02
2.268244378650876136e+00 4.448703239508241722e+02
2.268344402656637282e+00 4.450664426267900922e+02
2.268444426662398872e+00 4.452620520246811679e+02
2.268544450668160017e+00 4.454570819468112290e+02
2.268644474673921607e+00 4.456514626988807777e+02
2.268744498679683197e+00 4.458451251293628275e+02
2.268844522685444343e+00 4.460380006685118133e+02
2.268944546691205932e+00 4.462300213669850564e+02
2.269044570696967078e+00 4.464211199340473968e+02
2.269144594702728668e+00 4.466112297753374492e+02
2.269244618708489813e+00 4.468002850301709259e+02
2.269344642714251403e+00 4.469882206083694314e+02
2.269444666720012549e+00 4.471749722265769833e+02
2.269544690725774139e+00 4.473604764440541999e+02
2.269644714731535284e+00 4.475446706979306555e+02
2.269744738737296874e+00 4.477274933378804462e+02
2.269844762743058020e+00 4.479088836602202832e+02
2.269944786748819610e+00 4.480887819413941884e+02
2.270044810754580755e+00 4.482671294708332539e+02
2.270144834760342345e+00 4.484438685831665907e+02
2.270244858766103491e+00 4.486189426897719841e+02
2.270344882771865080e+00 4.487922963096358444e+02
2.270444906777626226e+00 4.489638750995172245e+02
2.270544930783388260e+00 4.491336258833905504e+02
2.270644954789149406e+00 4.493014966811508657e+02
2.270744978794910551e+00 4.494674367365648777e+02
2.270845002800672141e+00 4.496313965444552991e+02
2.270945026806433731e+00 4.497933278770975676e+02
2.271045050812194876e+00 4.499531838098172329e+02
2.271145074817956022e+00 4.501109187457682310e+02
2.271245098823717612e+00 4.502664884398864729e+02
2.271345122829479202e+00 4.504198500219947618e+02
2.271445146835240347e+00 4.505709620190535247e+02
2.271545170841001493e+00 4.507197843765401899e+02
2.271645194846763083e+00 4.508662784789474927e+02
2.271745218852524673e+00 4.510104071693853030e+02
2.271845242858285818e+00 4.511521347682802343e+02
2.271945266864046964e+00 4.512914270911578569e+02
2.272045290869808554e+00 4.514282514654993292e+02
2.272145314875570143e+00 4.515625767466617617e+02
2.272245338881331289e+00 4.516943733328563439e+02
2.272345362887092879e+00 4.518236131791703087e+02
2.272445386892854469e+00 4.519502698106326761e+02
2.272545410898615614e+00 4.520743183343084866e+02
2.272645434904377204e+00 4.521957354504199884e+02
2.272745458910138350e+00 4.523144994624888113e+02
2.272845482915899940e+00 4.524305902864907694e+02
2.272945506921661085e+00 4.525439894590189169e+02
2.273045530927422675e+00 4.526546801444551988e+02
2.273145554933183821e+00 4.527626471411417697e+02
2.273245578938945410e+00 4.528678768865483448e+02
2.273345602944706556e+00 4.529703574614421768e+02
2.273445626950468146e+00 4.530700785930448546e+02
2.273545650956229291e+00 4.531670316571889998e+02
2.273645674961990881e+00 4.532612096794636045e+02
2.273745698967752027e+00 4.533526073353510242e+02
2.273845722973513617e+00 4.534412209493642649e+02
2.273945746979274762e+00 4.535270484931714918e+02
2.274045770985036352e+00 4.536100895827199793e+02
2.274145794990797498e+00 4.536903454743617203e+02
2.274245818996559088e+00 4.537678190599770005e+02
2.274345843002320677e+00 4.538425148611086684e+02
2.274445867008081823e+00 4.539144390221020444e+02
2.274545891013843413e+00 4.539835993022655884e+02
2.274645915019604558e+00 4.540500050670472660e+02
2.274745939025366148e+00 4.541136672782412234e+02
2.274845963031127294e+00 4.541745984832297154e+02
2.274945987036888884e+00 4.542328128032621635e+02
2.275046011042650029e+00 4.542883259207866899e+02
2.275146035048411619e+00 4.543411550658379383e+02
2.275246059054172765e+00 4.543913190014923202e+02
2.275346083059934355e+00 4.544388380084002392e+02
2.275446107065695500e+00 4.544837338684026236e+02
2.275546131071457090e+00 4.545260298472489922e+02
2.275646155077218236e+00 4.545657506764214304e+02
2.275746179082979825e+00 4.546029225340770381e+02
2.275846203088740971e+00 4.546375730251303935e+02
2.275946227094502561e+00 4.546697311604771130e+02
2.276046251100264151e+00 4.546994273353761855e+02
2.276146275106025296e+00 4.547266933070098958e+02
2.276246299111786886e+00 4.547515621712275333e+02
2.276346323117548032e+00 4.547740683384956810e+02
2.276446347123309621e+00 4.547942475090651442e+02
2.276546371129070767e+00 4.548121366473715739e+02
2.276646395134832357e+00 4.548277739556895654e+02
2.276746419140593503e+00 4.548411988470535334e+02
2.276846443146355092e+00 4.548524519174583816e+02
2.276946467152116238e+00 4.548615749173748100e+02
2.277046491157877828e+00 4.548686107225734077e+02
2.277146515163638973e+00 4.548736033042950453e+02
2.277246539169400563e+00 4.548765976987784825e+02
2.277346563175161709e+00 4.548776399761663924e+02
2.277446587180923299e+00 4.548767772088077095e+02
2.277546611186684444e+00 4.548740574389789799e+02
2.277646635192446034e+00 4.548695296460450663e+02
2.277746659198207180e+00 4.548632437130767698e+02
2.277846683203968770e+00 4.548552503929520867e+02
2.277946707209730359e+00 4.548456012739553103e+02
2.278046731215491505e+00 4.548343487449035933e+02
2.278146755221253095e+00 4.548215459598185930e+02
2.278246779227014684e+00 4.548072468021622399e+02
2.278346803232775830e+00 4.547915058486717044e+02
2.278446827238536976e+00 4.547743783327967435e+02
2.278546851244298566e+00 4.547559201077867783e+02
2.278646875250060155e+00 4.547361876094247464e+02
2.278746899255821301e+00 4.547152378184544546e+02
2.278846923261582447e+00 4.546931282227121756e+02
2.278946947267344036e+00 4.546699167789862486e+02
2.279046971273105626e+00 4.546456618746378808e+02
2.279146995278866772e+00 4.546204222889952575e+02
2.279247019284627918e+00 4.545942571545569990e+02
2.279347043290389507e+00 4.545672259180184938e+02
2.279447067296151097e+00 4.545393883011555545e+02
2.279547091301912243e+00 4.545108042615844397e+02
2.279647115307673388e+00 4.544815339534206373e+02
2.279747139313435422e+00 4.544516376878681285e+02
2.279847163319196568e+00 4.544211758937605055e+02
2.279947187324958158e+00 4.543902090780748040e+02
2.280047211330719303e+00 4.543587977864519871e+02
2.280147235336480893e+00 4.543270025637394838e+02
2.280247259342242039e+00 4.542948839145842044e+02
2.280347283348003629e+00 4.542625022641084342e+02
2.280447307353764774e+00 4.542299179186736637e+02
2.280547331359526364e+00 4.541971910267824910e+02
2.280647355365287510e+00 4.541643815401225766e+02
2.280747379371049099e+00 4.541315491747860165e+02
2.280847403376810245e+00 4.540987533726876677e+02
2.280947427382571835e+00 4.540660532632084596e+02
2.281047451388332981e+00 4.540335076250822794e+02
2.281147475394094570e+00 4.540011748485526368e+02
2.281247499399855716e+00 4.539691128978296888e+02
2.281347523405617306e+00 4.539373792738603015e+02
2.281447547411378451e+00 4.539060309774390589e+02
2.281547571417140041e+00 4.538751244726879008e+02
2.281647595422901631e+00 4.538447156509203069e+02
2.281747619428662777e+00 4.538148597949162308e+02
2.281847643434424366e+00 4.537856115436290452e+02
2.281947667440185512e+00 4.537570248573490517e+02
2.282047691445947102e+00 4.537291529833413506e+02
2.282147715451708248e+00 4.537020484219829655e+02
2.282247739457469837e+00 4.536757628934184936e+02
2.282347763463230983e+00 4.536503473047576449e+02
2.282447787468992573e+00 4.536258517178300735e+02
2.282547811474753718e+00 4.536023253175263221e+02
2.282647835480515308e+00 4.535798163807335186e+02
2.282747859486276454e+00 4.535583722458956117e+02
2.282847883492038044e+00 4.535380392832129246e+02
2.282947907497799189e+00 4.535188628654946683e+02
2.283047931503560779e+00 4.535008873396956233e+02
2.283147955509321925e+00 4.534841559991392046e+02
2.283247979515083514e+00 4.534687110564561863e+02
2.283348003520844660e+00 4.534545936172503957e+02
2.283448027526606250e+00 4.534418436545084887e+02
2.283548051532367840e+00 4.534304999837746095e+02
2.283648075538128985e+00 4.534206002390933463e+02
2.283748099543890575e+00 4.534121808497519623e+02
2.283848123549651721e+00 4.534052770178232663e+02
2.283948147555413311e+00 4.533999226965322578e+02
2.284048171561174456e+00 4.533961505694508105e+02
2.284148195566936046e+00 4.533939920305444389e+02
2.284248219572697192e+00 4.533934771650742164e+02
2.284348243578458781e+00 4.533946347313699334e+02
2.284448267584219927e+00 4.533974921434857492e+02
2.284548291589981517e+00 4.534020754547480010e+02
2.284648315595742663e+00 4.534084093422083015e+02
2.284748339601504252e+00 4.534165170920038008e+02
2.284848363607265398e+00 4.534264205856458716e+02
2.284948387613026988e+00 4.534381402872342051e+02
2.285048411618788133e+00 4.534516952316110974e+02
2.285148435624549723e+00 4.534671030134609850e+02
2.285248459630311313e+00 4.534843797773611414e+02
2.285348483636072459e+00 4.535035402087911507e+02
2.285448507641834048e+00 4.535245975261086642e+02
2.285548531647595638e+00 4.535475634734879122e+02
2.285648555653356784e+00 4.535724483148385389e+02
2.285748579659117929e+00 4.535992608286929908e+02
2.285848603664879519e+00 4.536280083040828117e+02
2.285948627670641109e+00 4.536586965373889484e+02
2.286048651676402255e+00 4.536913298301792565e+02
2.286148675682163400e+00 4.537259109880333199e+02
2.286248699687924990e+00 4.537624413203471931e+02
2.286348723693686580e+00 4.538009206411316541e+02
2.286448747699447726e+00 4.538413472707869687e+02
2.286548771705208871e+00 4.538837180388680395e+02
2.286648795710970461e+00 4.539280282878275443e+02
2.286748819716732051e+00 4.539742718777384312e+02
2.286848843722493196e+00 4.540224411919954832e+02
2.286948867728254342e+00 4.540725271439844732e+02
2.287048891734015932e+00 4.541245191847227147e+02
2.287148915739777522e+00 4.541784053114608355e+02
2.287248939745539111e+00 4.542341720772408280e+02
2.287348963751300257e+00 4.542918046014075344e+02
2.287448987757061847e+00 4.543512865810609469e+02
2.287549011762822992e+00 4.544126003034485848e+02
2.287649035768584582e+00 4.544757266592818041e+02
2.287749059774345728e+00 4.545406451569776891e+02
2.287849083780107318e+00 4.546073339378052651e+02
2.287949107785868463e+00 4.546757697919377961e+02
2.288049131791630053e+00 4.547459281753933169e+02
2.288149155797391199e+00 4.548177832278548749e+02
2.288249179803152789e+00 4.548913077913566099e+02
2.288349203808913934e+00 4.549664734298312396e+02
2.288449227814675524e+00 4.550432504494954173e+02
2.288549251820436670e+00 4.551216079200665376e+02
2.288649275826198259e+00 4.552015136968003617e+02
2.288749299831959405e+00 4.552829344433229153e+02
2.288849323837720995e+00 4.553658356552575128e+02
2.288949347843482585e+00 4.554501816846203610e+02
2.289049371849243730e+00 4.555359357649730896e+02
2.289149395855005320e+00 4.556230600373166908e+02
2.289249419860766466e+00 4.557115155767074839e+02
2.289349443866528055e+00 4.558012624195834519e+02
2.289449467872289201e+00 4.558922595917748026e+02
2.289549491878050791e+00 4.559844651371881810e+02
2.289649515883811937e+00 4.560778361471444668e+02
2.289749539889573526e+00 4.561723287903462278e+02
2.289849563895334672e+00 4.562678983434648217e+02
2.289949587901096262e+00 4.563644992223174199e+02
2.290049611906857407e+00 4.564620850136212766e+02
2.290149635912618997e+00 4.565606085073012537e+02
2.290249659918380143e+00 4.566600217293305946e+02
2.290349683924141733e+00 4.567602759750844825e+02
2.290449707929902878e+00 4.568613218431812584e+02
2.290549731935664468e+00 4.569631092697986219e+02
2.290649755941425614e+00 4.570655875634306540e+02
2.290749779947187204e+00 4.571687054400696297e+02
2.290849803952948793e+00 4.572724110587934092e+02
2.290949827958709939e+00 4.573766520577290180e+02
2.291049851964471529e+00 4.574813755903684296e+02
2.291149875970232674e+00 4.575865283622237030e+02
2.291249899975994264e+00 4.576920566677819693e+02
2.291349923981755410e+00 4.577979064277528778e+02
2.291449947987517000e+00 4.579040232265691657e+02
2.291549971993278145e+00 4.580103523501290965e+02
2.291649995999039735e+00 4.581168388237464910e+02
2.291750020004800881e+00 4.582234274502904441e+02
2.291850044010562470e+00 4.583300628484877279e+02
2.291950068016323616e+00 4.584366894913591182e+02
2.292050092022085206e+00 4.585432517447743521e+02
2.292150116027846352e+00 4.586496939060896807e+02
2.292250140033607941e+00 4.587559602428511880e+02
2.292350164039369087e+00 4.588619950315349456e+02
2.292450188045130677e+00 4.589677425963004680e+02
2.292550212050891822e+00 4.590731473477301847e+02
2.292650236056653412e+00 4.591781538215317369e+02
2.292750260062415002e+00 4.592827067171778026e+02
2.292850284068176592e+00 4.593867509364592365e+02
2.292950308073937737e+00 4.594902316219199179e+02
2.293050332079698883e+00 4.595930941951623936e+02
2.293150356085460473e+00 4.596952843949811154e+02
2.293250380091222063e+00 4.597967483153125272e+02
2.293350404096983208e+00 4.598974324429756280e+02
2.293450428102744354e+00 4.599972836951682211e+02
2.293550452108505944e+00 4.600962494567049248e+02
2.293650476114267533e+00 4.601942776169728404e+02
2.293750500120028679e+00 4.602913166065686141e+02
2.293850524125789825e+00 4.603873154336102971e+02
2.293950548131551415e+00 4.604822237196841002e+02
2.294050572137313004e+00 4.605759917354163804e+02
2.294150596143074150e+00 4.606685704356319775e+02
2.294250620148835296e+00 4.607599114940946379e+02
2.294350644154596885e+00 4.608499673377887120e+02
2.294450668160358475e+00 4.609386911807312686e+02
2.294550692166120065e+00 4.610260370572897273e+02
2.294650716171881211e+00 4.611119598549780108e+02
2.294750740177642800e+00 4.611964153467160941e+02
2.294850764183403946e+00 4.612793602225299878e+02
2.294950788189165536e+00 4.613607521206668594e+02
2.295050812194926682e+00 4.614405496581127863e+02
2.295150836200688271e+00 4.615187124604828455e+02
2.295250860206449417e+00 4.615952011912734179e+02
2.295350884212211007e+00 4.616699775804491992e+02
2.295450908217972152e+00 4.617430044523532047e+02
2.295550932223733742e+00 4.618142457529143030e+02
2.295650956229494888e+00 4.618836665761385802e+02
2.295750980235256478e+00 4.619512331898654338e+02
2.295851004241017623e+00 4.620169130607694115e+02
2.295951028246779213e+00 4.620806748785950049e+02
2.296051052252540359e+00 4.621424885796044464e+02
2.296151076258301948e+00 4.622023253692234448e+02
2.296251100264063094e+00 4.622601577438689446e+02
2.296351124269824684e+00 4.623159595119492451e+02
2.296451148275586274e+00 4.623697058140103309e+02
2.296551172281347419e+00 4.624213731420308591e+02
2.296651196287109009e+00 4.624709393578367553e+02
2.296751220292870155e+00 4.625183837106336568e+02
2.296851244298631745e+00 4.625636868536378756e+02
2.296951268304392890e+00 4.626068308598036083e+02
2.297051292310154480e+00 4.626477992366202443e+02
2.297151316315915626e+00 4.626865769399868782e+02
2.297251340321677215e+00 4.627231503871398672e+02
2.297351364327438361e+00 4.627575074686325820e+02
2.297451388333199951e+00 4.627896375593554126e+02
2.297551412338961097e+00 4.628195315285888682e+02
2.297651436344722686e+00 4.628471817490802778e+02
2.297751460350483832e+00 4.628725821051405660e+02
2.297851484356245422e+00 4.628957279997533760e+02
2.297951508362006567e+00 4.629166163606902273e+02
2.298051532367768157e+00 4.629352456456257414e+02
2.298151556373529303e+00 4.629516158462528779e+02
2.298251580379290893e+00 4.629657284913897115e+02
2.298351604385052482e+00 4.629775866490787166e+02
2.298451628390813628e+00 4.629871949276694636e+02
2.298551652396575218e+00 4.629945594758955849e+02
2.298651676402336363e+00 4.629996879819267974e+02
2.298751700408097953e+00 4.630025896714138867e+02
2.298851724413859099e+00 4.630032753045158529e+02
2.298951748419620689e+00 4.630017571719091620e+02
2.299051772425381834e+00 4.629980490897887648e+02
2.299151796431143424e+00 4.629921663938548022e+02
2.299251820436904570e+00 4.629841259322944325e+02
2.299351844442666160e+00 4.629739460577538921e+02
2.299451868448427305e+00 4.629616466183146599e+02
2.299551892454188895e+00 4.629472489474710528e+02
2.299651916459950041e+00 4.629307758531158470e+02
2.299751940465711630e+00 4.629122516055430197e+02
2.299851964471472776e+00 4.628917019244728408e+02
2.299951988477234366e+00 4.628691539651005087e+02
2.300052012482995956e+00 4.628446363031890201e+02
2.300152036488757545e+00 4.628181789191999087e+02
2.300252060494518691e+00 4.627898131814839644e+02
2.300352084500279837e+00 4.627595718285301700e+02
2.300452108506041426e+00 4.627274889502940027e+02
2.300552132511803016e+00 4.626935999686055538e+02
2.300652156517564162e+00 4.626579416166804322e+02
2.300752180523325308e+00 4.626205519177291876e+02
2.300852204529086897e+00 4.625814701626987357e+02
2.300952228534848487e+00 4.625407368871404401e+02
2.301052252540609633e+00 4.624983938472290674e+02
2.301152276546370778e+00 4.624544839949436437e+02
2.301252300552132368e+00 4.624090514524249897e+02
2.301352324557893958e+00 4.623621414855259673e+02
2.301452348563655104e+00 4.623138004765693267e+02
2.301552372569416249e+00 4.622640758963354415e+02
2.301652396575177839e+00 4.622130162752801539e+02
2.301752420580939429e+00 4.621606711740282094e+02
2.301852444586700575e+00 4.621070911531284082e+02
2.301952468592462164e+00 4.620523277421154376e+02
2.302052492598223754e+00 4.619964334078794650e+02
2.302152516603984900e+00 4.619394615223754954e+02
2.302252540609746490e+00 4.618814663296786307e+02
2.302352564615507635e+00 4.618225029124214984e+02
2.302452588621269225e+00 4.617626271576212957e+02
2.302552612627030371e+00 4.617018957219229378e+02
2.302652636632791960e+00 4.616403659962813322e+02
2.302752660638553106e+00 4.615780960700990363e+02
2.302852684644314696e+00 4.615151446948491980e+02
2.302952708650075841e+00 4.614515712471976485e+02
2.303052732655837431e+00 4.613874356916552983e+02
2.303152756661598577e+00 4.613227985427781732e+02
2.303252780667360167e+00 4.612577208269400444e+02
2.303352804673121312e+00 4.611922640437030623e+02
2.303452828678882902e+00 4.611264901268108360e+02
2.303552852684644048e+00 4.610604614048238545e+02
2.303652876690405638e+00 4.609942405614276026e+02
2.303752900696167227e+00 4.609278905954337233e+02
2.303852924701928373e+00 4.608614747805025331e+02
2.303952948707689963e+00 4.607950566246105950e+02
2.304052972713451108e+00 4.607286998292889280e+02
2.304152996719212698e+00 4.606624682486560687e+02
2.304253020724973844e+00 4.605964258482766809e+02
2.304353044730735434e+00 4.605306366638657778e+02
2.304453068736496579e+00 4.604651647598664113e+02
2.304553092742258169e+00 4.604000741879321481e+02
2.304653116748019315e+00 4.603354289453315573e+02
2.304753140753780905e+00 4.602712929333067109e+02
2.304853164759542050e+00 4.602077299154150865e+02
2.304953188765303640e+00 4.601448034758710719e+02
2.305053212771064786e+00 4.600825769779263510e+02
2.305153236776826375e+00 4.600211135223050292e+02
2.305253260782587521e+00 4.599604759057241949e+02
2.305353284788349111e+00 4.599007265795313515e+02
2.305453308794110256e+00 4.598419276084736680e+02
2.305553332799871846e+00 4.597841406296356581e+02
2.305653356805633436e+00 4.597274268115700124e+02
2.305753380811394582e+00 4.596718468136394904e+02
2.305853404817156171e+00 4.596174607456097760e+02
2.305953428822917317e+00 4.595643281275055188e+02
2.306053452828678907e+00 4.595125078497677009e+02
2.306153476834440053e+00 4.594620581337261456e+02
2.306253500840201642e+00 4.594130364924217247e+02
2.306353524845962788e+00 4.593654996918029383e+02
2.306453548851724378e+00 4.593195037123149405e+02
2.306553572857485523e+00 4.592751037109143226e+02
2.306653596863247113e+00 4.592323539835284691e+02
2.306753620869008259e+00 4.591913079279872250e+02
2.306853644874769849e+00 4.591520180074519999e+02
2.306953668880530994e+00 4.591145357143601586e+02
2.307053692886292584e+00 4.590789115349153349e+02
2.307153716892053730e+00 4.590451949141450996e+02
2.307253740897815319e+00 4.590134342215450260e+02
2.307353764903576465e+00 4.589836767173353564e+02
2.307453788909338499e+00 4.589559685193556220e+02
2.307553812915099645e+00 4.589303545706112573e+02
2.307653836920860790e+00 4.589068786074983564e+02
2.307753860926622380e+00 4.588855831287302180e+02
2.307853884932383970e+00 4.588665093649816527e+02
2.307953908938145116e+00 4.588496972492727082e+02
2.308053932943906261e+00 4.588351853881137004e+02
2.308153956949667851e+00 4.588230110334284291e+02
2.308253980955429441e+00 4.588132100552762154e+02
2.308354004961190586e+00 4.588058169153889594e+02
2.308454028966951732e+00 4.588008646415477756e+02
2.308554052972713322e+00 4.587983848028051170e+02
2.308654076978474912e+00 4.587984074855816061e+02
2.308754100984236057e+00 4.588009612706440521e+02
2.308854124989997203e+00 4.588060732109901778e+02
2.308954148995758793e+00 4.588137688106461951e+02
2.309054173001520383e+00 4.588240720043966121e+02
2.309154197007281528e+00 4.588370051384644057e+02
2.309254221013042674e+00 4.588525889521425256e+02
2.309354245018804708e+00 4.588708425604093577e+02
2.309454269024565853e+00 4.588917834375196776e+02
2.309554293030327443e+00 4.589154274015998567e+02
2.309654317036088589e+00 4.589417886002478326e+02
2.309754341041850179e+00 4.589708794971539874e+02
2.309854365047611324e+00 4.590027108597519714e+02
2.309954389053372914e+00 4.590372917479085118e+02
2.310054413059134060e+00 4.590746295036602760e+02
2.310154437064895649e+00 4.591147297420074551e+02
2.310254461070656795e+00 4.591575963427694091e+02
2.310354485076418385e+00 4.592032314435141984e+02
2.310454509082179531e+00 4.592516354335602387e+02
2.310554533087941120e+00 4.593028069490652001e+02
2.310654557093702266e+00 4.593567428691977739e+02
2.310754581099463856e+00 4.594134383134016844e+02
2.310854605105225001e+00 4.594728866397587694e+02
2.310954629110986591e+00 4.595350794444430562e+02
2.311054653116747737e+00 4.596000065622808393e+02
2.311154677122509327e+00 4.596676560684084052e+02
2.311254701128270916e+00 4.597380142810335428e+02
2.311354725134032062e+00 4.598110657653016915e+02
2.311454749139793652e+00 4.598867933382591104e+02
2.311554773145554798e+00 4.599651780749210275e+02
2.311654797151316387e+00 4.600461993154379456e+02
2.311754821157077533e+00 4.601298346733553899e+02
2.311854845162839123e+00 4.602160600449713002e+02
2.311954869168600268e+00 4.603048496197777695e+02
2.312054893174361858e+00 4.603961758919907084e+02
2.312154917180123004e+00 4.604900096731555550e+02
2.312254941185884594e+00 4.605863201058289178e+02
2.312354965191645739e+00 4.606850746783239856e+02
2.312454989197407329e+00 4.607862392405174319e+02
2.312555013203168475e+00 4.608897780207047390e+02
2.312655037208930064e+00 4.609956536434997929e+02
2.312755061214691210e+00 4.611038271487665838e+02
2.312855085220452800e+00 4.612142580115739747e+02
2.312955109226213946e+00 4.613269041631623395e+02
2.313055133231975535e+00 4.614417220129132602e+02
2.313155157237737125e+00 4.615586664713056280e+02
2.313255181243498271e+00 4.616776909738497920e+02
2.313355205249259861e+00 4.617987475059853182e+02
2.313455229255021006e+00 4.619217866289287713e+02
2.313555253260782596e+00 4.620467575064533321e+02
2.313655277266543742e+00 4.621736079325958713e+02
2.313755301272305331e+00 4.623022843602597050e+02
2.313855325278066477e+00 4.624327319307124640e+02
2.313955349283828067e+00 4.625648945039553155e+02
2.314055373289589213e+00 4.626987146899415961e+02
2.314155397295350802e+00 4.628341338806386602e+02
2.314255421301111948e+00 4.629710922829031006e+02
2.314355445306873538e+00 4.631095289521579161e+02
2.314455469312634683e+00 4.632493818268491736e+02
2.314555493318396273e+00 4.633905877636616992e+02
2.314655517324157419e+00 4.635330825734752693e+02
2.314755541329919009e+00 4.636768010580373129e+02
2.314855565335680598e+00 4.638216770473388806e+02
2.314955589341441744e+00 4.639676434376551697e+02
2.315055613347203334e+00 4.641146322302518001e+02
2.315155637352964924e+00 4.642625745707103988e+02
2.315255661358726069e+00 4.644114007888692299e+02
2.315355685364487215e+00 4.645610404393395356e+02
2.315455709370248805e+00 4.647114223425913906e+02
2.315555733376010394e+00 4.648624746265651311e+02
2.315655757381771540e+00 4.650141247688000021e+02
2.315755781387532686e+00 4.651662996390430749e+02
2.315855805393294276e+00 4.653189255423239956e+02
2.315955829399055865e+00 4.654719282624589027e+02
2.316055853404817011e+00 4.656252331059658331e+02
2.316155877410578157e+00 4.657787649463603543e+02
2.316255901416339746e+00 4.659324482688077751e+02
2.316355925422101336e+00 4.660862072151048778e+02
2.316455949427862482e+00 4.662399656289601353e+02
2.316555973433623627e+00 4.663936471015529719e+02
2.316655997439385217e+00 4.665471750173354621e+02
2.316756021445146807e+00 4.667004726000536721e+02
2.316856045450908397e+00 4.668534629589648262e+02
2.316956069456669542e+00 4.670060691352126696e+02
2.317056093462431132e+00 4.671582141483399937e+02
2.317156117468192278e+00 4.673098210429069468e+02
2.317256141473953868e+00 4.674608129351906314e+02
2.317356165479715013e+00 4.676111130599321086e+02
2.317456189485476603e+00 4.677606448171055149e+02
2.317556213491237749e+00 4.679093318186802435e+02
2.317656237496999339e+00 4.680570979353482244e+02
2.317756261502760484e+00 4.682038673431853795e+02
2.317856285508522074e+00 4.683495645702206502e+02
2.317956309514283220e+00 4.684941145428851996e+02
2.318056333520044809e+00 4.686374426323081934e+02
2.318156357525805955e+00 4.687794747004367082e+02
2.318256381531567545e+00 4.689201371459477059e+02
2.318356405537328691e+00 4.690593569499233126e+02
2.318456429543090280e+00 4.691970617212627985e+02
2.318556453548851870e+00 4.693331797418052815e+02
2.318656477554613016e+00 4.694676400111277417e+02
2.318756501560374605e+00 4.696003722909998146e+02
2.318856525566135751e+00 4.697313071494600081e+02
2.318956549571897341e+00 4.698603760044899786e+02
2.319056573577658487e+00 4.699875111672599814e+02
2.319156597583420076e+00 4.701126458849145138e+02
2.319256621589181222e+00 4.702357143828763810e+02
2.319356645594942812e+00 4.703566519066383762e+02
2.319456669600703957e+00 4.704753947630205175e+02
2.319556693606465547e+00 4.705918803608606140e+02
2.319656717612226693e+00 4.707060472511208218e+02
2.319756741617988283e+00 4.708178351663763692e+02
2.319856765623749428e+00 4.709271850596690001e+02
2.319956789629511018e+00 4.710340391426943825e+02
2.320056813635272164e+00 4.711383409233042130e+02
2.320156837641033754e+00 4.712400352422952210e+02
2.320256861646794899e+00 4.713390683094610267e+02
2.320356885652556489e+00 4.714353877388913361e+02
2.320456909658318079e+00 4.715289425834864687e+02
2.320556933664079224e+00 4.716196833686683476e+02
2.320656957669840814e+00 4.717075621252715791e+02
2.320756981675601960e+00 4.717925324215818819e+02
2.320857005681363550e+00 4.718745493945148723e+02
2.320957029687124695e+00 4.719535697799014429e+02
2.321057053692886285e+00 4.720295519418735921e+02
2.321157077698647431e+00 4.721024559013162616e+02
2.321257101704409020e+00 4.721722433633825062e+02
2.321357125710170166e+00 4.722388777440407921e+02
2.321457149715931756e+00 4.723023241956441325e+02
2.321557173721692902e+00 4.723625496315007126e+02
2.321657197727454491e+00 4.724195227494345772e+02
2.321757221733215637e+00 4.724732140543107448e+02
2.321857245738977227e+00 4.725235958795212809e+02
2.321957269744738372e+00 4.725706424074089114e+02
2.322057293750499962e+00 4.726143296886200460e+02
2.322157317756261108e+00 4.726546356603676031e+02
2.322257341762022698e+00 4.726915401635984608e+02
2.322357365767784287e+00 4.727250249590474027e+02
2.322457389773545877e+00 4.727550737421684062e+02
2.322557413779307023e+00 4.727816721569338370e+02
2.322657437785068169e+00 4.728048078084902954e+02
2.322757461790829758e+00 4.728244702746590065e+02
2.322857485796591348e+00 4.728406511162781953e+02
2.322957509802352494e+00 4.728533438863756828e+02
2.323057533808113639e+00 4.728625441381627752e+02
2.323157557813875229e+00 4.728682494318445606e+02
2.323257581819636819e+00 4.728704593402465548e+02
2.323357605825397965e+00 4.728691754532387108e+02
2.323457629831159110e+00 4.728644013809694684e+02
2.323557653836920700e+00 4.728561427558908008e+02
2.323657677842682290e+00 4.728444072335801707e+02
2.323757701848443435e+00 4.728292044923578601e+02
2.323857725854204581e+00 4.728105462316891021e+02
2.323957749859966171e+00 4.727884461693822686e+02
2.324057773865727761e+00 4.727629200375739060e+02
2.324157797871489350e+00 4.727339855775038018e+02
2.324257821877250496e+00 4.727016625330863917e+02
2.324357845883012086e+00 4.726659726432691286e+02
2.324457869888773232e+00 4.726269396331975940e+02
2.324557893894534821e+00 4.725845892041707543e+02
2.324657917900295967e+00 4.725389490224120550e+02
2.324757941906057557e+00 4.724900487066392998e+02
2.324857965911818702e+00 4.724379198144624752e+02
2.324957989917580292e+00 4.723825958275915013e+02
2.325058013923341438e+00 4.723241121358845476e+02
2.325158037929103028e+00 4.722625060202279315e+02
2.325258061934864173e+00 4.721978166342623808e+02
2.325358085940625763e+00 4.721300849849673682e+02
2.325458109946386909e+00 4.720593539121097137e+02
2.325558133952148498e+00 4.719856680665682234e+02
2.325658157957909644e+00 4.719090738875467537e+02
2.325758181963671234e+00 4.718296195786876979e+02
2.325858205969432380e+00 4.717473550830978866e+02
2.325958229975193969e+00 4.716623320573007732e+02
2.326058253980955559e+00 4.715746038441280916e+02
2.326158277986716705e+00 4.714842254445712797e+02
2.326258301992478295e+00 4.713912534885951118e+02
2.326358325998239440e+00 4.712957462049495803e+02
2.326458350004001030e+00 4.711977633899737725e+02
2.326558374009762176e+00 4.710973663754294876e+02
2.326658398015523765e+00 4.709946179953710157e+02
2.326758422021284911e+00 4.708895825520688732e+02
2.326858446027046501e+00 4.707823257810164819e+02
2.326958470032807647e+00 4.706729148150278093e+02
2.327058494038569236e+00 4.705614181474554698e+02
2.327158518044330382e+00 4.704479055945449204e+02
2.327258542050091972e+00 4.703324482569455540e+02
2.327358566055853117e+00 4.702151184804067157e+02
2.327458590061614707e+00 4.700959898156744998e+02
2.327558614067375853e+00 4.699751369776155343e+02
2.327658638073137443e+00 4.698526358035894077e+02
2.327758662078898588e+00 4.697285632110972529e+02
2.327858686084660178e+00 4.696029971547246760e+02
2.327958710090421768e+00 4.694760165824126261e+02
2.328058734096182913e+00 4.693477013910713822e+02
2.328158758101944503e+00 4.692181323815711949e+02
2.328258782107705649e+00 4.690873912131326620e+02
2.328358806113467239e+00 4.689555603571432130e+02
2.328458830119228384e+00 4.688227230504273848e+02
2.328558854124989974e+00 4.686889632479959573e+02
2.328658878130751120e+00 4.685543655753066332e+02
2.328758902136512710e+00 4.684190152800567262e+02
2.328858926142273855e+00 4.682829981835436683e+02
2.328958950148035445e+00 4.681464006316161885e+02
2.329058974153796591e+00 4.680093094452462879e+02
2.329158998159558180e+00 4.678718118707555504e+02
2.329259022165319326e+00 4.677339955297157417e+02
2.329359046171080916e+00 4.675959483685653595e+02
2.329459070176842062e+00 4.674577586079580556e+02
2.329559094182603651e+00 4.673195146918849900e+02
2.329659118188365241e+00 4.671813052365951080e+02
2.329759142194126831e+00 4.670432189793449425e+02
2.329859166199887976e+00 4.669053447270038077e+02
2.329959190205649122e+00 4.667677713045571295e+02
2.330059214211410712e+00 4.666305875035222925e+02
2.330159238217172302e+00 4.664938820303217426e+02
2.330259262222933447e+00 4.663577434546318727e+02
2.330359286228694593e+00 4.662222601577526007e+02
2.330459310234456183e+00 4.660875202810127576e+02
2.330559334240217773e+00 4.659536116742546596e+02
2.330659358245978918e+00 4.658206218444212254e+02
2.330759382251740064e+00 4.656886379042801423e+02
2.330859406257501654e+00 4.655577465213139021e+02
2.330959430263263243e+00 4.654280338668073682e+02
2.331059454269024389e+00 4.652995855651620332e+02
2.331159478274785535e+00 4.651724866434688010e+02
2.331259502280547125e+00 4.650468214813704435e+02
2.331359526286308714e+00 4.649226737612393663e+02
2.331459550292069860e+00 4.648001264187082029e+02
2.331559574297831450e+00 4.646792615935734716e+02
2.331659598303593040e+00 4.645601605811125410e+02
2.331759622309354185e+00 4.644429037838339696e+02
2.331859646315115775e+00 4.643275706636961786e+02
2.331959670320876921e+00 4.642142396948211172e+02
2.332059694326638510e+00 4.641029883167329331e+02
2.332159718332399656e+00 4.639938928881456945e+02
2.332259742338161246e+00 4.638870286413383610e+02
2.332359766343922391e+00 4.637824696371302480e+02
2.332459790349683981e+00 4.636802887204969466e+02
2.332559814355445127e+00 4.635805574768492079e+02
2.332659838361206717e+00 4.634833461889982686e+02
2.332759862366967862e+00 4.633887237948396773e+02
2.332859886372729452e+00 4.632967578457770514e+02
2.332959910378490598e+00 4.632075144659138459e+02
2.333059934384252188e+00 4.631210583120361548e+02
2.333159958390013333e+00 4.630374525344151380e+02
2.333259982395774923e+00 4.629567587384453304e+02
2.333360006401536513e+00 4.628790369471535087e+02
2.333460030407297658e+00 4.628043455645894255e+02
2.333560054413059248e+00 4.627327413401307012e+02
2.333660078418820394e+00 4.626642793337181274e+02
2.333760102424581984e+00 4.625990128820466225e+02
2.333860126430343129e+00 4.625369935657290057e+02
2.333960150436104719e+00 4.624782711774588506e+02
2.334060174441865865e+00 4.624228936911824803e+02
2.334160198447627454e+00 4.623709072323129590e+02
2.334260222453388600e+00 4.623223560489923898e+02
2.334360246459150190e+00 4.622772824844263937e+02
2.334460270464911336e+00 4.622357269503103225e+02
2.334560294470672925e+00 4.621977279013573252e+02
2.334660318476434071e+00 4.621633218109501513e+02
2.334760342482195661e+00 4.621325431479313579e+02
2.334860366487956806e+00 4.621054243545439704e+02
2.334960390493718396e+00 4.620819958255389110e+02
2.335060414499479542e+00 4.620622858884639186e+02
2.335160438505241132e+00 4.620463207851427114e+02
2.335260462511002721e+00 4.620341246543617899e+02
2.335360486516763867e+00 4.620257195157700494e+02
2.335460510522525457e+00 4.620211252550084851e+02
2.335560534528286603e+00 4.620203596100772074e+02
2.335660558534048192e+00 4.620234381589420423e+02
2.335760582539809338e+00 4.620303743084059533e+02
2.335860606545570928e+00 4.620411792842330669e+02
2.335960630551332073e+00 4.620558621225487741e+02
2.336060654557093663e+00 4.620744296625111360e+02
2.336160678562854809e+00 4.620968865402662686e+02
2.336260702568616399e+00 4.621232351841881609e+02
2.336360726574377544e+00 4.621534758114065085e+02
2.336460750580139134e+00 4.621876064256309746e+02
2.336560774585900280e+00 4.622256228162683556e+02
2.336660798591661869e+00 4.622675185588371392e+02
2.336760822597423015e+00 4.623132850166808225e+02
2.336860846603184605e+00 4.623629113439770890e+02
2.336960870608945751e+00 4.624163844900481877e+02
2.337060894614707784e+00 4.624736892049622270e+02
2.337160918620468930e+00 4.625348080464319196e+02
2.337260942626230076e+00 4.625997213880025356e+02
2.337360966631991666e+00 4.626684074285270185e+02
2.337460990637753255e+00 4.627408422029238295e+02
2.337561014643514401e+00 4.628169995942100741e+02
2.337661038649275547e+00 4.628968513468094557e+02
2.337761062655037136e+00 4.629803670811181178e+02
2.337861086660798726e+00 4.630675143093366160e+02
2.337961110666559872e+00 4.631582584525375523e+02
2.338061134672321018e+00 4.632525628589868347e+02
2.338161158678082607e+00 4.633503888236801913e+02
2.338261182683844197e+00 4.634516956091099473e+02
2.338361206689605343e+00 4.635564404672305159e+02
2.338461230695366488e+00 4.636645786626259564e+02
2.338561254701128078e+00 4.637760634968552722e+02
2.338661278706889668e+00 4.638908463339693071e+02
2.338761302712650814e+00 4.640088766271844634e+02
2.338861326718411959e+00 4.641301019466897628e+02
2.338961350724173993e+00 4.642544680085871960e+02
2.339061374729935139e+00 4.643819187049335255e+02
2.339161398735696729e+00 4.645123961348755870e+02
2.339261422741457874e+00 4.646458406368619194e+02
2.339361446747219464e+00 4.647821908219046350e+02
2.339461470752980610e+00 4.649213836078837403e+02
2.339561494758742199e+00 4.650633542548630430e+02
2.339661518764503345e+00 4.652080364014074121e+02
2.339761542770264935e+00 4.653553621018734248e+02
2.339861566776026081e+00 4.655052618646558926e+02
2.339961590781787670e+00 4.656576646913686091e+02
