0.000000000000000000e+00 5.093450475820167185e+02
1.000260067617580583e-04 5.093453437510584081e+02
2.000520135235161166e-04 5.093456902450512871e+02
3.000780202852741749e-04 5.093460869821440724e+02
4.001040270470322333e-04 5.093465338794579225e+02
5.001300338087902916e-04 5.093470308530924626e+02
6.001560405705483499e-04 5.093475778181293094e+02
7.001820473323062998e-04 5.093481746886382666e+02
8.002080540940644665e-04 5.093488213776810767e+02
9.002340608558225248e-04 5.093495177973184127e+02
1.000260067617580583e-03 5.093502638586123226e+02
1.100286074379338425e-03 5.093510594716335049e+02
1.200312081141096700e-03 5.093519045454652883e+02
1.300338087902854758e-03 5.093527989882082920e+02
1.400364094664612600e-03 5.093537427069869068e+02
1.500390101426370875e-03 5.093547356079532733e+02
1.600416108188128933e-03 5.093557775962937058e+02
1.700442114949886774e-03 5.093568685762314772e+02
1.800468121711645050e-03 5.093580084510346637e+02
1.900494128473402891e-03 5.093591971230209765e+02
2.000520135235161166e-03 5.093604344935602626e+02
2.100546141996919008e-03 5.093617204630832589e+02
2.200572148758676849e-03 5.093630549310855713e+02
2.300598155520435124e-03 5.093644377961321084e+02
2.400624162282193400e-03 5.093658689558633910e+02
2.500650169043951675e-03 5.093673483070003840e+02
2.600676175805709516e-03 5.093688757453504081e+02
2.700702182567467358e-03 5.093704511658128240e+02
2.800728189329225199e-03 5.093720744623824999e+02
2.900754196090983041e-03 5.093737455281574285e+02
3.000780202852741749e-03 5.093754642553429903e+02
3.100806209614499591e-03 5.093772305352579224e+02
3.200832216376257866e-03 5.093790442583388085e+02
3.300858223138015708e-03 5.093809053141469576e+02
3.400884229899773549e-03 5.093828135913732922e+02
3.500910236661531824e-03 5.093847689778440895e+02
3.600936243423290099e-03 5.093867713605249037e+02
3.700962250185047941e-03 5.093888206255285809e+02
3.800988256946805782e-03 5.093909166581196928e+02
3.901014263708564057e-03 5.093930593427203348e+02
4.001040270470322333e-03 5.093952485629141052e+02
4.101066277232080608e-03 5.093974842014549154e+02
4.201092283993838015e-03 5.093997661402697190e+02
4.301118290755596291e-03 5.094020942604655033e+02
4.401144297517353698e-03 5.094044684423346325e+02
4.501170304279111974e-03 5.094068885653613279e+02
4.601196311040870249e-03 5.094093545082257037e+02
4.701222317802628524e-03 5.094118661488101907e+02
4.801248324564386799e-03 5.094144233642067547e+02
4.901274331326144207e-03 5.094170260307204217e+02
5.001300338087903349e-03 5.094196740238751318e+02
5.101326344849660757e-03 5.094223672184222664e+02
5.201352351611419032e-03 5.094251054883429788e+02
5.301378358373176440e-03 5.094278887068554127e+02
5.401404365134934715e-03 5.094307167464207282e+02
5.501430371896692990e-03 5.094335894787486723e+02
5.601456378658450398e-03 5.094365067748042293e+02
5.701482385420208673e-03 5.094394685048104066e+02
5.801508392181966081e-03 5.094424745382583524e+02
5.901534398943725224e-03 5.094455247439101413e+02
6.001560405705483499e-03 5.094486189898057091e+02
6.101586412467240907e-03 5.094517571432688783e+02
6.201612419228999182e-03 5.094549390709123600e+02
6.301638425990756590e-03 5.094581646386447460e+02
6.401664432752515732e-03 5.094614337116759089e+02
6.501690439514274007e-03 5.094647461545220040e+02
6.601716446276031415e-03 5.094681018310141667e+02
6.701742453037789690e-03 5.094715006042999335e+02
6.801768459799547098e-03 5.094749423368541557e+02
6.901794466561305373e-03 5.094784268904809323e+02
7.001820473323063648e-03 5.094819541263222504e+02
7.101846480084821056e-03 5.094855239048621343e+02
7.201872486846580199e-03 5.094891360859336373e+02
7.301898493608337606e-03 5.094927905287245267e+02
7.401924500370095882e-03 5.094964870917835924e+02
7.501950507131854157e-03 5.095002256330254227e+02
7.601976513893611564e-03 5.095040060097376227e+02
7.702002520655370707e-03 5.095078280785878064e+02
7.802028527417128115e-03 5.095116916956253021e+02
7.902054534178885523e-03 5.095155967162930892e+02
8.002080540940644665e-03 5.095195429954291058e+02
8.102106547702402073e-03 5.095235303872748887e+02
8.202132554464161215e-03 5.095275587454799506e+02
8.302158561225918623e-03 5.095316279231086583e+02
8.402184567987676031e-03 5.095357377726469394e+02
8.502210574749433439e-03 5.095398881460072289e+02
8.602236581511192581e-03 5.095440788945338682e+02
8.702262588272949989e-03 5.095483098690119732e+02
8.802288595034707397e-03 5.095525809196695946e+02
8.902314601796466539e-03 5.095568918961875511e+02
9.002340608558223947e-03 5.095612426477026133e+02
9.102366615319983090e-03 5.095656330228154616e+02
9.202392622081740498e-03 5.095700628695957448e+02
9.302418628843497905e-03 5.095745320355871399e+02
9.402444635605257048e-03 5.095790403678181519e+02
9.502470642367014456e-03 5.095835877128001812e+02
9.602496649128773598e-03 5.095881739165416775e+02
9.702522655890531006e-03 5.095927988245491065e+02
9.802548662652288414e-03 5.095974622818342255e+02
9.902574669414045822e-03 5.096021641329225531e+02
1.000260067617580670e-02 5.096069042218545633e+02
1.010262668293756411e-02 5.096116823921964283e+02
1.020265268969932151e-02 5.096164984870446801e+02
1.030267869646108066e-02 5.096213523490299622e+02
1.040270470322283806e-02 5.096262438203268061e+02
1.050273070998459547e-02 5.096311727426574976e+02
1.060275671674635288e-02 5.096361389572982148e+02
1.070278272350811202e-02 5.096411423050853386e+02
1.080280873026986943e-02 5.096461826264221600e+02
1.090283473703162684e-02 5.096512597612846776e+02
1.100286074379338598e-02 5.096563735492271690e+02
1.110288675055514339e-02 5.096615238293879884e+02
1.120291275731690080e-02 5.096667104404967858e+02
1.130293876407865994e-02 5.096719332208799074e+02
1.140296477084041735e-02 5.096771920084668750e+02
1.150299077760217475e-02 5.096824866407957302e+02
1.160301678436393216e-02 5.096878169550194571e+02
1.170304279112569304e-02 5.096931827879114962e+02
1.180306879788745045e-02 5.096985839758734755e+02
1.190309480464920786e-02 5.097040203549396438e+02
1.200312081141096700e-02 5.097094917607834077e+02
1.210314681817272441e-02 5.097149980287235849e+02
1.220317282493448181e-02 5.097205389937291784e+02
1.230319883169624096e-02 5.097261144904271646e+02
1.240322483845799836e-02 5.097317243531091435e+02
1.250325084521975577e-02 5.097373684157333287e+02
1.260327685198151318e-02 5.097430465119359724e+02
1.270330285874327406e-02 5.097487584750323322e+02
1.280332886550503146e-02 5.097545041380264479e+02
1.290335487226678887e-02 5.097602833336155754e+02
1.300338087902854801e-02 5.097660958941954163e+02
1.310340688579030542e-02 5.097719416518673370e+02
1.320343289255206283e-02 5.097778204384448486e+02
1.330345889931382024e-02 5.097837320854579275e+02
1.340348490607557938e-02 5.097896764241602341e+02
1.350351091283733679e-02 5.097956532855332625e+02
1.360353691959909420e-02 5.098016625002959472e+02
1.370356292636085334e-02 5.098077038989060839e+02
1.380358893312261075e-02 5.098137773115703339e+02
1.390361493988436815e-02 5.098198825682460438e+02
1.400364094664612730e-02 5.098260194986517035e+02
1.410366695340788470e-02 5.098321879322696759e+02
1.420369296016964211e-02 5.098383876983521645e+02
1.430371896693139952e-02 5.098446186259291153e+02
1.440374497369316040e-02 5.098508805438123090e+02
1.450377098045491780e-02 5.098571732806024102e+02
1.460379698721667521e-02 5.098634966646937983e+02
1.470382299397843436e-02 5.098698505242798547e+02
1.480384900074019176e-02 5.098762346873620004e+02
1.490387500750194917e-02 5.098826489817514016e+02
1.500390101426370831e-02 5.098890932350784055e+02
1.510392702102546572e-02 5.098955672747946437e+02
1.520395302778722313e-02 5.099020709281833206e+02
1.530397903454898054e-02 5.099086040223598388e+02
1.540400504131074141e-02 5.099151663842827702e+02
1.550403104807249882e-02 5.099217578407561859e+02
1.560405705483425623e-02 5.099283782184353981e+02
1.570408306159601364e-02 5.099350273438350314e+02
1.580410906835777105e-02 5.099417050433326608e+02
1.590413507511952845e-02 5.099484111431759175e+02
1.600416108188128933e-02 5.099551454694866948e+02
1.610418708864304674e-02 5.099619078482683108e+02
1.620421309540480415e-02 5.099686981054099988e+02
1.630423910216656155e-02 5.099755160666934444e+02
1.640426510892832243e-02 5.099823615577983560e+02
1.650429111569007984e-02 5.099892344043072967e+02
1.660431712245183725e-02 5.099961344317130738e+02
1.670434312921359465e-02 5.100030614654205579e+02
1.680436913597535206e-02 5.100100153307581081e+02
1.690439514273710947e-02 5.100169958529775158e+02
1.700442114949886688e-02 5.100240028572634401e+02
1.710444715626062775e-02 5.100310361687360796e+02
1.720447316302238516e-02 5.100380956124591876e+02
1.730449916978414257e-02 5.100451810134443349e+02
1.740452517654589998e-02 5.100522921966565946e+02
1.750455118330766086e-02 5.100594289870198850e+02
1.760457719006941479e-02 5.100665912094223131e+02
1.770460319683117567e-02 5.100737786887227116e+02
1.780462920359293308e-02 5.100809912497543337e+02
1.790465521035469049e-02 5.100882287173321856e+02
1.800468121711644789e-02 5.100954909162569493e+02
1.810470722387820877e-02 5.101027776713204958e+02
1.820473323063996618e-02 5.101100888073127066e+02
1.830475923740172359e-02 5.101174241490247141e+02
1.840478524416348100e-02 5.101247835212569157e+02
1.850481125092523840e-02 5.101321667488199409e+02
1.860483725768699581e-02 5.101395736565459060e+02
1.870486326444875669e-02 5.101470040692880730e+02
1.880488927121051410e-02 5.101544578119305697e+02
1.890491527797227150e-02 5.101619347093896408e+02
1.900494128473402891e-02 5.101694345866224012e+02
1.910496729149578979e-02 5.101769572686297352e+02
1.920499329825754720e-02 5.101845025804626630e+02
1.930501930501930460e-02 5.101920703472262062e+02
1.940504531178106201e-02 5.101996603940878003e+02
1.950507131854281942e-02 5.102072725462772382e+02
1.960509732530457683e-02 5.102149066290968449e+02
1.970512333206633424e-02 5.102225624679234670e+02
1.980514933882809164e-02 5.102302398882144416e+02
1.990517534558985252e-02 5.102379387155123709e+02
2.000520135235161340e-02 5.102456587754514885e+02
2.010522735911336734e-02 5.102533998937611841e+02
2.020525336587512821e-02 5.102611618962716307e+02
2.030527937263688215e-02 5.102689446089183889e+02
2.040530537939864303e-02 5.102767478577476936e+02
2.050533138616039697e-02 5.102845714689212286e+02
2.060535739292216131e-02 5.102924152687215837e+02
2.070538339968391872e-02 5.103002790835559495e+02
2.080540940644567613e-02 5.103081627399628815e+02
2.090543541320743354e-02 5.103160660646148017e+02
2.100546141996919094e-02 5.103239888843244216e+02
2.110548742673094835e-02 5.103319310260492330e+02
2.120551343349270576e-02 5.103398923168966235e+02
2.130553944025446664e-02 5.103478725841275150e+02
2.140556544701622405e-02 5.103558716551630710e+02
2.150559145377798145e-02 5.103638893575867996e+02
2.160561746053973886e-02 5.103719255191506363e+02
2.170564346730149627e-02 5.103799799677810825e+02
2.180566947406325368e-02 5.103880525315809678e+02
2.190569548082501455e-02 5.103961430388360441e+02
2.200572148758677196e-02 5.104042513180198739e+02
2.210574749434852937e-02 5.104123771977957063e+02
2.220577350111028678e-02 5.104205205070247189e+02
2.230579950787204419e-02 5.104286810747676668e+02
2.240582551463380159e-02 5.104368587302911919e+02
2.250585152139555900e-02 5.104450533030714610e+02
2.260587752815731988e-02 5.104532646227979740e+02
2.270590353491908076e-02 5.104614925193808403e+02
2.280592954168083469e-02 5.104697368229507788e+02
2.290595554844259557e-02 5.104779973638668480e+02
2.300598155520434951e-02 5.104862739727211647e+02
2.310600756196611039e-02 5.104945664803394720e+02
2.320603356872786432e-02 5.105028747177902915e+02
2.330605957548962867e-02 5.105111985163853774e+02
2.340608558225138608e-02 5.105195377076862542e+02
2.350611158901314349e-02 5.105278921235070015e+02
2.360613759577490089e-02 5.105362615959202230e+02
2.370616360253665830e-02 5.105446459572589220e+02
2.380618960929841571e-02 5.105530450401227540e+02
2.390621561606017312e-02 5.105614586773817791e+02
2.400624162282193400e-02 5.105698867021786214e+02
2.410626762958369140e-02 5.105783289479348355e+02
2.420629363634544881e-02 5.105867852483548290e+02
2.430631964310720622e-02 5.105952554374289321e+02
2.440634564986896363e-02 5.106037393494378307e+02
2.450637165663072103e-02 5.106122368189554663e+02
2.460639766339248191e-02 5.106207476808555157e+02
2.470642367015423932e-02 5.106292717703133803e+02
2.480644967691599673e-02 5.106378089228101089e+02
2.490647568367775413e-02 5.106463589741371152e+02
2.500650169043951154e-02 5.106549217603993043e+02
2.510652769720126895e-02 5.106634971180195635e+02
2.520655370396302636e-02 5.106720848837424569e+02
2.530657971072478724e-02 5.106806848946373520e+02
2.540660571748654811e-02 5.106892969881026261e+02
2.550663172424830205e-02 5.106979210018695312e+02
2.560665773101006293e-02 5.107065567740053780e+02
2.570668373777181687e-02 5.107152041429180827e+02
2.580670974453357774e-02 5.107238629473592937e+02
2.590673575129533168e-02 5.107325330264268928e+02
2.600676175805709603e-02 5.107412142195711908e+02
2.610678776481885344e-02 5.107499063665961216e+02
2.620681377158061084e-02 5.107586093076631641e+02
2.630683977834236825e-02 5.107673228832958330e+02
2.640686578510412566e-02 5.107760469343830323e+02
2.650689179186588307e-02 5.107847813021809884e+02
2.660691779862764048e-02 5.107935258283190478e+02
2.670694380538940135e-02 5.108022803548003594e+02
2.680696981215115876e-02 5.108110447240074450e+02
2.690699581891291617e-02 5.108198187787043594e+02
2.700702182567467358e-02 5.108286023620404990e+02
2.710704783243643098e-02 5.108373953175544671e+02
2.720707383919818839e-02 5.108461974891744148e+02
2.730709984595994927e-02 5.108550087212260564e+02
2.740712585272170668e-02 5.108638288584313614e+02
2.750715185948346408e-02 5.108726577459140117e+02
2.760717786624522149e-02 5.108814952292030398e+02
2.770720387300697890e-02 5.108903411542337381e+02
2.780722987976873631e-02 5.108991953673519788e+02
2.790725588653049372e-02 5.109080577153179092e+02
2.800728189329225459e-02 5.109169280453080546e+02
2.810730790005401547e-02 5.109258062049187856e+02
2.820733390681576941e-02 5.109346920421684786e+02
2.830735991357753029e-02 5.109435854055012669e+02
2.840738592033928422e-02 5.109524861437891445e+02
2.850741192710104510e-02 5.109613941063371385e+02
2.860743793386279904e-02 5.109703091428818311e+02
2.870746394062456339e-02 5.109792311035988632e+02
2.880748994738632079e-02 5.109881598391018542e+02
2.890751595414807820e-02 5.109970952004481433e+02
2.900754196090983561e-02 5.110060370391391871e+02
2.910756796767159302e-02 5.110149852071251075e+02
2.920759397443335043e-02 5.110239395568061127e+02
2.930761998119510783e-02 5.110328999410356801e+02
2.940764598795686871e-02 5.110418662131222618e+02
2.950767199471862612e-02 5.110508382268336618e+02
2.960769800148038353e-02 5.110598158363976040e+02
2.970772400824214093e-02 5.110687988965062232e+02
2.980775001500389834e-02 5.110777872623165194e+02
2.990777602176565575e-02 5.110867807894541670e+02
3.000780202852741663e-02 5.110957793340147077e+02
3.010782803528917403e-02 5.111047827525679281e+02
3.020785404205093144e-02 5.111137909021584278e+02
3.030788004881268885e-02 5.111228036403085184e+02
3.040790605557444626e-02 5.111318208250207249e+02
3.050793206233620367e-02 5.111408423147807412e+02
3.060795806909796107e-02 5.111498679685568050e+02
3.070798407585972195e-02 5.111588976458055527e+02
3.080801008262148283e-02 5.111679312064724172e+02
3.090803608938323677e-02 5.111769685109929355e+02
3.100806209614499764e-02 5.111860094202968980e+02
3.110808810290675158e-02 5.111950537958087466e+02
3.120811410966851246e-02 5.112041014994508146e+02
3.130814011643026640e-02 5.112131523936446342e+02
3.140816612319202727e-02 5.112222063413125852e+02
3.150819212995378815e-02 5.112312632058811914e+02
3.160821813671554209e-02 5.112403228512816327e+02
3.170824414347730297e-02 5.112493851419530415e+02
3.180827015023905691e-02 5.112584499428430718e+02
3.190829615700081778e-02 5.112675171194090353e+02
3.200832216376257866e-02 5.112765865376238708e+02
3.210834817052433954e-02 5.112856580639726189e+02
3.220837417728609348e-02 5.112947315654573117e+02
3.230840018404784741e-02 5.113038069095982223e+02
3.240842619080960829e-02 5.113128839644346044e+02
3.250845219757136917e-02 5.113219625985277048e+02
3.260847820433312311e-02 5.113310426809616729e+02
3.270850421109488398e-02 5.113401240813452659e+02
3.280853021785664486e-02 5.113492066698120766e+02
3.290855622461839880e-02 5.113582903170253076e+02
3.300858223138015968e-02 5.113673748941764643e+02
3.310860823814191362e-02 5.113764602729873445e+02
3.320863424490367449e-02 5.113855463257121414e+02
3.330866025166542843e-02 5.113946329251389216e+02
3.340868625842718931e-02 5.114037199445904207e+02
3.350871226518895019e-02 5.114128072579254081e+02
3.360873827195070412e-02 5.114218947395405621e+02
3.370876427871246500e-02 5.114309822643706411e+02
3.380879028547421894e-02 5.114400697078924622e+02
3.390881629223597982e-02 5.114491569461218887e+02
3.400884229899773376e-02 5.114582438556193438e+02
3.410886830575949463e-02 5.114673303134877642e+02
3.420889431252125551e-02 5.114764161973753858e+02
3.430892031928300945e-02 5.114855013854764820e+02
3.440894632604477033e-02 5.114945857565328424e+02
3.450897233280652426e-02 5.115036691898341132e+02
3.460899833956828514e-02 5.115127515652184798e+02
3.470902434633004602e-02 5.115218327630753379e+02
3.480905035309179996e-02 5.115309126643452942e+02
3.490907635985356083e-02 5.115399911505198247e+02
3.500910236661532171e-02 5.115490681036451406e+02
3.510912837337707565e-02 5.115581434063199140e+02
3.520915438013882959e-02 5.115672169416985753e+02
3.530918038690059046e-02 5.115762885934889823e+02
3.540920639366235134e-02 5.115853582459589575e+02
3.550923240042411222e-02 5.115944257839298643e+02
3.560925840718586616e-02 5.116034910927835426e+02
3.570928441394762703e-02 5.116125540584582723e+02
3.580931042070938097e-02 5.116216145674526388e+02
3.590933642747114185e-02 5.116306725068253627e+02
3.600936243423289579e-02 5.116397277641944470e+02
3.610938844099465667e-02 5.116487802277396213e+02
3.620941444775641754e-02 5.116578297862023987e+02
3.630944045451817148e-02 5.116668763288849959e+02
3.640946646127993236e-02 5.116759197456544825e+02
3.650949246804168630e-02 5.116849599269388591e+02
3.660951847480344717e-02 5.116939967637308655e+02
3.670954448156520111e-02 5.117030301475861052e+02
3.680957048832696199e-02 5.117120599706254893e+02
3.690959649508872287e-02 5.117210861255341570e+02
3.700962250185047681e-02 5.117301085055609065e+02
3.710964850861223768e-02 5.117391270045221177e+02
3.720967451537399162e-02 5.117481415167977730e+02
3.730970052213575250e-02 5.117571519373335036e+02
3.740972652889751338e-02 5.117661581616418971e+02
3.750975253565927425e-02 5.117751600858013035e+02
3.760977854242102819e-02 5.117841576064552100e+02
3.770980454918278213e-02 5.117931506208154246e+02
3.780983055594454301e-02 5.118021390266577555e+02
3.790985656270630388e-02 5.118111227223261039e+02
3.800988256946805782e-02 5.118201016067306455e+02
3.810990857622981870e-02 5.118290755793483982e+02
3.820993458299157958e-02 5.118380445402211762e+02
3.830996058975333352e-02 5.118470083899585461e+02
3.840998659651509439e-02 5.118559670297373714e+02
3.851001260327684833e-02 5.118649203612981182e+02
3.861003861003860921e-02 5.118738682869495165e+02
3.871006461680036315e-02 5.118828107095654900e+02
3.881009062356212402e-02 5.118917475325853843e+02
3.891011663032388490e-02 5.119006786600151599e+02
3.901014263708563884e-02 5.119096039964242095e+02
3.911016864384739972e-02 5.119185234469491093e+02
3.921019465060915365e-02 5.119274369172892420e+02
3.931022065737091453e-02 5.119363443137093554e+02
3.941024666413266847e-02 5.119452455430384248e+02
3.951027267089442935e-02 5.119541405126678342e+02
3.961029867765618329e-02 5.119630291305540482e+02
3.971032468441794416e-02 5.119719113052145758e+02
3.981035069117970504e-02 5.119807869457295055e+02
3.991037669794146592e-02 5.119896559617418461e+02
4.001040270470322679e-02 5.119985182634553667e+02
4.011042871146498073e-02 5.120073737616341987e+02
4.021045471822673467e-02 5.120162223676031772e+02
4.031048072498849555e-02 5.120250639932464765e+02
4.041050673175025643e-02 5.120338985510073826e+02
4.051053273851201036e-02 5.120427259538874978e+02
4.061055874527376430e-02 5.120515461154461718e+02
4.071058475203552518e-02 5.120603589497998200e+02
4.081061075879728606e-02 5.120691643716204453e+02
4.091063676555904000e-02 5.120779622961371160e+02
4.101066277232079393e-02 5.120867526391321007e+02
4.111068877908256175e-02 5.120955353169414366e+02
4.121071478584432263e-02 5.121043102464557251e+02
4.131074079260607657e-02 5.121130773451169489e+02
4.141076679936783744e-02 5.121218365309183582e+02
4.151079280612959138e-02 5.121305877224042433e+02
4.161081881289135226e-02 5.121393308386673198e+02
4.171084481965310620e-02 5.121480657993506611e+02
4.181087082641486707e-02 5.121567925246437198e+02
4.191089683317662101e-02 5.121655109352821000e+02
4.201092283993838189e-02 5.121742209525490352e+02
4.211094884670013583e-02 5.121829224982703863e+02
4.221097485346189671e-02 5.121916154948164603e+02
4.231100086022365064e-02 5.122002998650993959e+02
4.241102686698541152e-02 5.122089755325729357e+02
4.251105287374717934e-02 5.122176424212314032e+02
4.261107888050893328e-02 5.122263004556077703e+02
4.271110488727068721e-02 5.122349495607719518e+02
4.281113089403244809e-02 5.122435896623313738e+02
4.291115690079420897e-02 5.122522206864296095e+02
4.301118290755596291e-02 5.122608425597418318e+02
4.311120891431771684e-02 5.122694552094783376e+02
4.321123492107947772e-02 5.122780585633800001e+02
4.331126092784123860e-02 5.122866525497174734e+02
4.341128693460299254e-02 5.122952370972910785e+02
4.351131294136474648e-02 5.123038121354283021e+02
4.361133894812650735e-02 5.123123775939823190e+02
4.371136495488826823e-02 5.123209334033314235e+02
4.381139096165002911e-02 5.123294794943766419e+02
4.391141696841178999e-02 5.123380157985409369e+02
4.401144297517354392e-02 5.123465422477680704e+02
4.411146898193530480e-02 5.123550587745197618e+02
4.421149498869705874e-02 5.123635653117750053e+02
4.431152099545881962e-02 5.123720617930291610e+02
4.441154700222057355e-02 5.123805481522907712e+02
4.451157300898233443e-02 5.123890243240817881e+02
4.461159901574408837e-02 5.123974902434349588e+02
4.471162502250584925e-02 5.124059458458914378e+02
4.481165102926760319e-02 5.124143910675015832e+02
4.491167703602936406e-02 5.124228258448196129e+02
4.501170304279111800e-02 5.124312501149059926e+02
4.511172904955287888e-02 5.124396638153232288e+02
4.521175505631463976e-02 5.124480668841335955e+02
4.531178106307640063e-02 5.124564592599000434e+02
4.541180706983816151e-02 5.124648408816821075e+02
4.551183307659991545e-02 5.124732116890338602e+02
4.561185908336166939e-02 5.124815716220050490e+02
4.571188509012343026e-02 5.124899206211362070e+02
4.581191109688519114e-02 5.124982586274570622e+02
4.591193710364694508e-02 5.125065855824881282e+02
4.601196311040869902e-02 5.125149014282336566e+02
4.611198911717045990e-02 5.125232061071833414e+02
4.621201512393222077e-02 5.125314995623087952e+02
4.631204113069397471e-02 5.125397817370633220e+02
4.641206713745572865e-02 5.125480525753777101e+02
4.651209314421749647e-02 5.125563120216593234e+02
4.661211915097925734e-02 5.125645600207915322e+02
4.671214515774101128e-02 5.125727965181280297e+02
4.681217116450277216e-02 5.125810214594953322e+02
4.691219717126452610e-02 5.125892347911862998e+02
4.701222317802628697e-02 5.125974364599621822e+02
4.711224918478804091e-02 5.126056264130479576e+02
4.721227519154980179e-02 5.126138045981305140e+02
4.731230119831155573e-02 5.126219709633563753e+02
4.741232720507331660e-02 5.126301254573313599e+02
4.751235321183507054e-02 5.126382680291166025e+02
4.761237921859683142e-02 5.126463986282269616e+02
4.771240522535858536e-02 5.126545172046286325e+02
4.781243123212034624e-02 5.126626237087374420e+02
4.791245723888211405e-02 5.126707180914160062e+02
4.801248324564386799e-02 5.126788003039725936e+02
4.811250925240562193e-02 5.126868702981569186e+02
4.821253525916738281e-02 5.126949280261604827e+02
4.831256126592914368e-02 5.127029734406106627e+02
4.841258727269089762e-02 5.127110064945744625e+02
4.851261327945265156e-02 5.127190271415480538e+02
4.861263928621441244e-02 5.127270353354624604e+02
4.871266529297617331e-02 5.127350310306752590e+02
4.881269129973792725e-02 5.127430141819719438e+02
4.891271730649968119e-02 5.127509847445606965e+02
4.901274331326144207e-02 5.127589426740735234e+02
4.911276932002320295e-02 5.127668879265604573e+02
4.921279532678496382e-02 5.127748204584887617e+02
4.931282133354672470e-02 5.127827402267400885e+02
4.941284734030847864e-02 5.127906471886092277e+02
4.951287334707023952e-02 5.127985413018000145e+02
4.961289935383199345e-02 5.128064225244233967e+02
4.971292536059375433e-02 5.128142908149953882e+02
4.981295136735550827e-02 5.128221461324349093e+02
4.991297737411726915e-02 5.128299884360599208e+02
5.001300338087902309e-02 5.128378176855858328e+02
5.011302938764078396e-02 5.128456338411235720e+02
5.021305539440253790e-02 5.128534368631757161e+02
5.031308140116429878e-02 5.128612267126351298e+02
5.041310740792605272e-02 5.128690033507809858e+02
5.051313341468781359e-02 5.128767667392784233e+02
5.061315942144957447e-02 5.128845168401735464e+02
5.071318542821133535e-02 5.128922536158926277e+02
5.081321143497309623e-02 5.128999770292391531e+02
5.091323744173485016e-02 5.129076870433899558e+02
5.101326344849660410e-02 5.129153836218944207e+02
5.111328945525836498e-02 5.129230667286708467e+02
5.121331546202012586e-02 5.129307363280039453e+02
5.131334146878187980e-02 5.129383923845413165e+02
5.141336747554363373e-02 5.129460348632932210e+02
5.151339348230539461e-02 5.129536637296280333e+02
5.161341948906715549e-02 5.129612789492699676e+02
5.171344549582890943e-02 5.129688804882944169e+02
5.181347150259066336e-02 5.129764683131317042e+02
5.191349750935243118e-02 5.129840423905543503e+02
5.201352351611419206e-02 5.129916026876841215e+02
5.211354952287594600e-02 5.129991491719833903e+02
5.221357552963770687e-02 5.130066818112553619e+02
5.231360153639946081e-02 5.130142005736380497e+02
5.241362754316122169e-02 5.130217054276054114e+02
5.251365354992297563e-02 5.130291963419620060e+02
5.261367955668473650e-02 5.130366732858412888e+02
5.271370556344649044e-02 5.130441362287027687e+02
5.281373157020825132e-02 5.130515851403283705e+02
5.291375757697000526e-02 5.130590199908216391e+02
5.301378358373176614e-02 5.130664407506017142e+02
5.311380959049352007e-02 5.130738473904046941e+02
5.321383559725528095e-02 5.130812398812772699e+02
5.331386160401704877e-02 5.130886181945755879e+02
5.341388761077880271e-02 5.130959823019620671e+02
5.351391361754055664e-02 5.131033321754031249e+02
5.361393962430231752e-02 5.131106677871657666e+02
5.371396563106407840e-02 5.131179891098148573e+02
5.381399163782583234e-02 5.131252961162091424e+02
5.391401764458758628e-02 5.131325887795028393e+02
5.401404365134934715e-02 5.131398670731350649e+02
5.411406965811110803e-02 5.131471309708359740e+02
5.421409566487286197e-02 5.131543804466161873e+02
5.431412167163461591e-02 5.131616154747690643e+02
5.441414767839637678e-02 5.131688360298645648e+02
5.451417368515813766e-02 5.131760420867495895e+02
5.461419969191989854e-02 5.131832336205413867e+02
5.471422569868165942e-02 5.131904106066281201e+02
5.481425170544341335e-02 5.131975730206634125e+02
5.491427771220517423e-02 5.132047208385658905e+02
5.501430371896692817e-02 5.132118540365131594e+02
5.511432972572868905e-02 5.132189725909420304e+02
5.521435573249044299e-02 5.132260764785440870e+02
5.531438173925220386e-02 5.132331656762638659e+02
5.541440774601395780e-02 5.132402401612930589e+02
5.551443375277571868e-02 5.132472999110718774e+02
5.561445975953747262e-02 5.132543449032825720e+02
5.571448576629923349e-02 5.132613751158486366e+02
5.581451177306098743e-02 5.132683905269317393e+02
5.591453777982274831e-02 5.132753911149270607e+02
5.601456378658450919e-02 5.132823768584626123e+02
5.611458979334627006e-02 5.132893477363953707e+02
5.621461580010803094e-02 5.132963037278085494e+02
5.631464180686978488e-02 5.133032448120075060e+02
5.641466781363153882e-02 5.133101709685191736e+02
5.651469382039329969e-02 5.133170821770867178e+02
5.661471982715506057e-02 5.133239784176695366e+02
5.671474583391681451e-02 5.133308596704367801e+02
5.681477184067856845e-02 5.133377259157672370e+02
5.691479784744032933e-02 5.133445771342453554e+02
5.701482385420209020e-02 5.133514133066584009e+02
5.711484986096384414e-02 5.133582344139939551e+02
5.721487586772559808e-02 5.133650404374361642e+02
5.731490187448736590e-02 5.133718313583635791e+02
5.741492788124912677e-02 5.133786071583461990e+02
5.751495388801088071e-02 5.133853678191430845e+02
5.761497989477264159e-02 5.133921133226970142e+02
5.771500590153439553e-02 5.133988436511356213e+02
5.781503190829615640e-02 5.134055587867642316e+02
5.791505791505791034e-02 5.134122587120667731e+02
5.801508392181967122e-02 5.134189434097004323e+02
5.811510992858142516e-02 5.134256128624930398e+02
5.821513593534318604e-02 5.134322670534413646e+02
5.831516194210493997e-02 5.134389059657069083e+02
5.841518794886670085e-02 5.134455295826147676e+02
5.851521395562845479e-02 5.134521378876474955e+02
5.861523996239021567e-02 5.134587308644480572e+02
5.871526596915198348e-02 5.134653084968090297e+02
5.881529197591373742e-02 5.134718707686766948e+02
5.891531798267549136e-02 5.134784176641450131e+02
5.901534398943725224e-02 5.134849491674531237e+02
5.911536999619901311e-02 5.134914652629825014e+02
5.921539600296076705e-02 5.134979659352545696e+02
5.931542200972252099e-02 5.135044511689274032e+02
5.941544801648428187e-02 5.135109209487930002e+02
5.951547402324604275e-02 5.135173752597744397e+02
5.961550003000779668e-02 5.135238140869233803e+02
5.971552603676955062e-02 5.135302374154169911e+02
5.981555204353131150e-02 5.135366452305554503e+02
5.991557805029307238e-02 5.135430375177578526e+02
6.001560405705483325e-02 5.135494142625610721e+02
6.011563006381659413e-02 5.135557754506166930e+02
6.021565607057834807e-02 5.135621210676875990e+02
6.031568207734010895e-02 5.135684510996443350e+02
6.041570808410186288e-02 5.135747655324645393e+02
6.051573409086362376e-02 5.135810643522294185e+02
6.061576009762537770e-02 5.135873475451199965e+02
6.071578610438713858e-02 5.135936150974146130e+02
6.081581211114889252e-02 5.135998669954875595e+02
6.091583811791065339e-02 5.136061032258049863e+02
6.101586412467240733e-02 5.136123237749214923e+02
6.111589013143416821e-02 5.136185286294809202e+02
6.121591613819592215e-02 5.136247177762083993e+02
6.131594214495768302e-02 5.136308912019117088e+02
6.141596815171944390e-02 5.136370488934784362e+02
6.151599415848120478e-02 5.136431908378704065e+02
6.161602016524296566e-02 5.136493170221228866e+02
6.171604617200471959e-02 5.136554274333426520e+02
6.181607217876647353e-02 5.136615220587041222e+02
6.191609818552823441e-02 5.136676008854465181e+02
6.201612419228999529e-02 5.136736639008726115e+02
6.211615019905174923e-02 5.136797110923447462e+02
6.221617620581350316e-02 5.136857424472821094e+02
6.231620221257526404e-02 5.136917579531602769e+02
6.241622821933702492e-02 5.136977575975053014e+02
6.251625422609877192e-02 5.137037413678938265e+02
6.261628023286053280e-02 5.137097092519489934e+02
6.271630623962230755e-02 5.137156612373389635e+02
6.281633224638405455e-02 5.137215973117732801e+02
6.291635825314581543e-02 5.137275174630005949e+02
6.301638425990757630e-02 5.137334216788077583e+02
6.311641026666933718e-02 5.137393099470136804e+02
6.321643627343108418e-02 5.137451822554709224e+02
6.331646228019284506e-02 5.137510385920602403e+02
6.341648828695460594e-02 5.137568789446893334e+02
6.351651429371636681e-02 5.137627033012902302e+02
6.361654030047811381e-02 5.137685116498167872e+02
6.371656630723987469e-02 5.137743039782416190e+02
6.381659231400163557e-02 5.137800802745554165e+02
6.391661832076339644e-02 5.137858405267619446e+02
6.401664432752515732e-02 5.137915847228771327e+02
6.411667033428691820e-02 5.137973128509275966e+02
6.421669634104867908e-02 5.138030248989454094e+02
6.431672234781042607e-02 5.138087208549690104e+02
6.441674835457218695e-02 5.138144007070385442e+02
6.451677436133394783e-02 5.138200644431940418e+02
6.461680036809569483e-02 5.138257120514733742e+02
6.471682637485745571e-02 5.138313435199106607e+02
6.481685238161921658e-02 5.138369588365308118e+02
6.491687838838097746e-02 5.138425579893518034e+02
6.501690439514273834e-02 5.138481409663785371e+02
6.511693040190448534e-02 5.138537077556031818e+02
6.521695640866624621e-02 5.138592583450009670e+02
6.531698241542800709e-02 5.138647927225288186e+02
6.541700842218976797e-02 5.138703108761231988e+02
6.551703442895152885e-02 5.138758127936980600e+02
6.561706043571328972e-02 5.138812984631415475e+02
6.571708644247503672e-02 5.138867678723153176e+02
6.581711244923679760e-02 5.138922210090511271e+02
6.591713845599855848e-02 5.138976578611491277e+02
6.601716446276031935e-02 5.139030784163765020e+02
6.611719046952206635e-02 5.139084826624631432e+02
6.621721647628382723e-02 5.139138705871018828e+02
6.631724248304558811e-02 5.139192421779454207e+02
6.641726848980734899e-02 5.139245974226041653e+02
6.651729449656909599e-02 5.139299363086438461e+02
6.661732050333085686e-02 5.139352588235847179e+02
6.671734651009261774e-02 5.139405649548975816e+02
6.681737251685437862e-02 5.139458546900037845e+02
6.691739852361613949e-02 5.139511280162713547e+02
6.701742453037790037e-02 5.139563849210147737e+02
6.711745053713966125e-02 5.139616253914920208e+02
6.721747654390140825e-02 5.139668494149021853e+02
6.731750255066316913e-02 5.139720569783842166e+02
6.741752855742493000e-02 5.139772480690149905e+02
6.751755456418667700e-02 5.139824226738078323e+02
6.761758057094843788e-02 5.139875807797083098e+02
6.771760657771019876e-02 5.139927223735962798e+02
6.781763258447195963e-02 5.139978474422807722e+02
6.791765859123372051e-02 5.140029559724981709e+02
6.801768459799546751e-02 5.140080479509134648e+02
6.811771060475724227e-02 5.140131233641150175e+02
6.821773661151898926e-02 5.140181821986143405e+02
6.831776261828075014e-02 5.140232244408455244e+02
6.841778862504251102e-02 5.140282500771592140e+02
6.851781463180427190e-02 5.140332590938265866e+02
6.861784063856601890e-02 5.140382514770330999e+02
6.871786664532777977e-02 5.140432272128796285e+02
6.881789265208954065e-02 5.140481862873793943e+02
6.891791865885130153e-02 5.140531286864550111e+02
6.901794466561304853e-02 5.140580543959413262e+02
6.911797067237480940e-02 5.140629634015775764e+02
6.921799667913657028e-02 5.140678556890121627e+02
6.931802268589833116e-02 5.140727312437953742e+02
6.941804869266009204e-02 5.140775900513816623e+02
6.951807469942185291e-02 5.140824320971270254e+02
6.961810070618359991e-02 5.140872573662866216e+02
6.971812671294536079e-02 5.140920658440146553e+02
6.981815271970712167e-02 5.140968575153611937e+02
6.991817872646888254e-02 5.141016323652720530e+02
7.001820473323064342e-02 5.141063903785873208e+02
7.011823073999239042e-02 5.141111315400391959e+02
7.021825674675415130e-02 5.141158558342509650e+02
7.031828275351591218e-02 5.141205632457351840e+02
7.041830876027765918e-02 5.141252537588927680e+02
7.051833476703942005e-02 5.141299273580127647e+02
7.061836077380118093e-02 5.141345840272674650e+02
7.071838678056294181e-02 5.141392237507158143e+02
7.081841278732470268e-02 5.141438465122976140e+02
7.091843879408646356e-02 5.141484522958357957e+02
7.101846480084822444e-02 5.141530410850330099e+02
7.111849080760997144e-02 5.141576128634708311e+02
7.121851681437173232e-02 5.141621676146100981e+02
7.131854282113349319e-02 5.141667053217863668e+02
7.141856882789525407e-02 5.141712259682126387e+02
7.151859483465700107e-02 5.141757295369757230e+02
7.161862084141876195e-02 5.141802160110348723e+02
7.171864684818052282e-02 5.141846853732232603e+02
7.181867285494228370e-02 5.141891376062429799e+02
7.191869886170403070e-02 5.141935726926682264e+02
7.201872486846579158e-02 5.141979906149399540e+02
7.211875087522756633e-02 5.142023913553699686e+02
7.221877688198931333e-02 5.142067748961345615e+02
7.231880288875107421e-02 5.142111412192763282e+02
7.241882889551283509e-02 5.142154903067037139e+02
7.251885490227458209e-02 5.142198221401883984e+02
7.261888090903634296e-02 5.142241367013658646e+02
7.271890691579810384e-02 5.142284339717336934e+02
7.281893292255986472e-02 5.142327139326491761e+02
7.291895892932162559e-02 5.142369765653328386e+02
7.301898493608337259e-02 5.142412218508623027e+02
7.311901094284513347e-02 5.142454497701753553e+02
7.321903694960689435e-02 5.142496603040680156e+02
7.331906295636864135e-02 5.142538534331923756e+02
7.341908896313040223e-02 5.142580291380575090e+02
7.351911496989217698e-02 5.142621873990293579e+02
7.361914097665392398e-02 5.142663281963264126e+02
7.371916698341568486e-02 5.142704515100242588e+02
7.381919299017744573e-02 5.142745573200505760e+02
7.391921899693920661e-02 5.142786456061862737e+02
7.401924500370095361e-02 5.142827163480646959e+02
7.411927101046271449e-02 5.142867695251716214e+02
7.421929701722447537e-02 5.142908051168435577e+02
7.431932302398623624e-02 5.142948231022676282e+02
7.441934903074798324e-02 5.142988234604810032e+02
7.451937503750974412e-02 5.143028061703713547e+02
7.461940104427150500e-02 5.143067712106748104e+02
7.471942705103326587e-02 5.143107185599770901e+02
7.481945305779502675e-02 5.143146481967099817e+02
7.491947906455678763e-02 5.143185600991556612e+02
7.501950507131854851e-02 5.143224542454421453e+02
7.511953107808029551e-02 5.143263306135453377e+02
7.521955708484205638e-02 5.143301891812878921e+02
7.531958309160381726e-02 5.143340299263379620e+02
7.541960909836556426e-02 5.143378528262103373e+02
7.551963510512732514e-02 5.143416578582663305e+02
7.561966111188908601e-02 5.143454449997113898e+02
7.571968711865084689e-02 5.143492142275970309e+02
7.581971312541260777e-02 5.143529655188201559e+02
7.591973913217435477e-02 5.143566988501215747e+02
7.601976513893611564e-02 5.143604141980878239e+02
7.611979114569787652e-02 5.143641115391490075e+02
7.621981715245963740e-02 5.143677908495806150e+02
7.631984315922139828e-02 5.143714521055015894e+02
7.641986916598315915e-02 5.143750952828759182e+02
7.651989517274490615e-02 5.143787203575113836e+02
7.661992117950666703e-02 5.143823273050591069e+02
7.671994718626842791e-02 5.143859161010160506e+02
7.681997319303018879e-02 5.143894867207214929e+02
7.691999919979193578e-02 5.143930391393604395e+02
7.702002520655369666e-02 5.143965733319613491e+02
7.712005121331545754e-02 5.144000892733964747e+02
7.722007722007721842e-02 5.144035869383831141e+02
7.732010322683896542e-02 5.144070663014837237e+02
7.742012923360072629e-02 5.144105273371037583e+02
7.752015524036248717e-02 5.144139700194951956e+02
7.762018124712424805e-02 5.144173943227535801e+02
7.772020725388600892e-02 5.144208002208206381e+02
7.782023326064776980e-02 5.144241876874833679e+02
7.792025926740953068e-02 5.144275566963734718e+02
7.802028527417127768e-02 5.144309072209713349e+02
7.812031128093303856e-02 5.144342392346004544e+02
7.822033728769479943e-02 5.144375527104330104e+02
7.832036329445654643e-02 5.144408476214869097e+02
7.842038930121830731e-02 5.144441239406286286e+02
7.852041530798006819e-02 5.144473816405708249e+02
7.862044131474182906e-02 5.144506206938765445e+02
7.872046732150358994e-02 5.144538410729555835e+02
7.882049332826533694e-02 5.144570427500673304e+02
7.892051933502709782e-02 5.144602256973211070e+02
7.902054534178885870e-02 5.144633898866749178e+02
7.912057134855060569e-02 5.144665352899394293e+02
7.922059735531236657e-02 5.144696618787751277e+02
7.932062336207412745e-02 5.144727696246941377e+02
7.942064936883588833e-02 5.144758584990615873e+02
7.952067537559766308e-02 5.144789284730950385e+02
7.962070138235941008e-02 5.144819795178661934e+02
7.972072738912117096e-02 5.144850116042994159e+02
7.982075339588293184e-02 5.144880247031760518e+02
7.992077940264469271e-02 5.144910187851314731e+02
8.002080540940645359e-02 5.144939938206589432e+02
8.012083141616820059e-02 5.144969497801067746e+02
8.022085742292996147e-02 5.144998866336836727e+02
8.032088342969172234e-02 5.145028043514548699e+02
8.042090943645346934e-02 5.145057029033459912e+02
8.052093544321523022e-02 5.145085822591428268e+02
8.062096144997699110e-02 5.145114423884933785e+02
8.072098745673875198e-02 5.145142832609053585e+02
8.082101346350051285e-02 5.145171048457523284e+02
8.092103947026225985e-02 5.145199071122697205e+02
8.102106547702402073e-02 5.145226900295593850e+02
8.112109148378578161e-02 5.145254535665873163e+02
8.122111749054752861e-02 5.145281976921875184e+02
8.132114349730928948e-02 5.145309223750625733e+02
8.142116950407105036e-02 5.145336275837812536e+02
8.152119551083281124e-02 5.145363132867851164e+02
8.162122151759457211e-02 5.145389794523863429e+02
8.172124752435631911e-02 5.145416260487672844e+02
8.182127353111807999e-02 5.145442530439863731e+02
8.192129953787984087e-02 5.145468604059741438e+02
8.202132554464158787e-02 5.145494481025383493e+02
8.212135155140334875e-02 5.145520161013621419e+02
8.222137755816512350e-02 5.145545643700079381e+02
8.232140356492688438e-02 5.145570928759167373e+02
8.242142957168864525e-02 5.145596015864097126e+02
8.252145557845039225e-02 5.145620904686907124e+02
8.262148158521215313e-02 5.145645594898462605e+02
8.272150759197391401e-02 5.145670086168466923e+02
8.282153359873567489e-02 5.145694378165482021e+02
8.292155960549743576e-02 5.145718470556956845e+02
8.302158561225918276e-02 5.145742363009204610e+02
8.312161161902094364e-02 5.145766055187435768e+02
8.322163762578270452e-02 5.145789546755794390e+02
8.332166363254445152e-02 5.145812837377335427e+02
8.342168963930621239e-02 5.145835926714055404e+02
8.352171564606797327e-02 5.145858814426918570e+02
8.362174165282973415e-02 5.145881500175844394e+02
8.372176765959149503e-02 5.145903983619755309e+02
8.382179366635324202e-02 5.145926264416565346e+02
8.392181967311500290e-02 5.145948342223211966e+02
8.402184567987676378e-02 5.145970216695665158e+02
8.412187168663851078e-02 5.145991887488942211e+02
8.422189769340027166e-02 5.146013354257124774e+02
8.432192370016203253e-02 5.146034616653389548e+02
8.442194970692379341e-02 5.146055674329993508e+02
8.452197571368555429e-02 5.146076526938322786e+02
8.462200172044730129e-02 5.146097174128894949e+02
8.472202772720906216e-02 5.146117615551370363e+02
8.482205373397082304e-02 5.146137850854581757e+02
8.492207974073259780e-02 5.146157879686546721e+02
8.502210574749435867e-02 5.146177701694490452e+02
8.512213175425610567e-02 5.146197316524849157e+02
8.522215776101786655e-02 5.146216723823299617e+02
8.532218376777962743e-02 5.146235923234793290e+02
8.542220977454137443e-02 5.146254914403527891e+02
8.552223578130313530e-02 5.146273696973019014e+02
8.562226178806489618e-02 5.146292270586089899e+02
8.572228779482665706e-02 5.146310634884891897e+02
8.582231380158841794e-02 5.146328789510924935e+02
8.592233980835016494e-02 5.146346734105080714e+02
8.602236581511192581e-02 5.146364468307615425e+02
8.612239182187368669e-02 5.146381991758214554e+02
8.622241782863543369e-02 5.146399304095984917e+02
8.632244383539719457e-02 5.146416404959493320e+02
8.642246984215895544e-02 5.146433293986767694e+02
8.652249584892071632e-02 5.146449970815335746e+02
8.662252185568247720e-02 5.146466435082234057e+02
8.672254786244422420e-02 5.146482686424030817e+02
8.682257386920598508e-02 5.146498724476862208e+02
8.692259987596774595e-02 5.146514548876417621e+02
8.702262588272949295e-02 5.146530159258007870e+02
8.712265188949125383e-02 5.146545555256544731e+02
8.722267789625301471e-02 5.146560736506587546e+02
8.732270390301477558e-02 5.146575702642360284e+02
8.742272990977653646e-02 5.146590453297769727e+02
8.752275591653828346e-02 5.146604988106428209e+02
8.762278192330005822e-02 5.146619306701683172e+02
8.772280793006181909e-02 5.146633408716621716e+02
8.782283393682357997e-02 5.146647293784120620e+02
8.792285994358534085e-02 5.146660961536844070e+02
8.802288595034708785e-02 5.146674411607285720e+02
8.812291195710884872e-02 5.146687643627773241e+02
8.822293796387060960e-02 5.146700657230506977e+02
8.832296397063235660e-02 5.146713452047580404e+02
8.842298997739411748e-02 5.146726027710997187e+02
8.852301598415587836e-02 5.146738383852696188e+02
8.862304199091763923e-02 5.146750520104600355e+02
8.872306799767940011e-02 5.146762436098583748e+02
8.882309400444114711e-02 5.146774131466561357e+02
8.892312001120290799e-02 5.146785605840469771e+02
8.902314601796466886e-02 5.146796858852308105e+02
8.912317202472641586e-02 5.146807890134164154e+02
8.922319803148817674e-02 5.146818699318231438e+02
8.932322403824993762e-02 5.146829286036837630e+02
8.942325004501169849e-02 5.146839649922470699e+02
8.952327605177345937e-02 5.146849790607802788e+02
8.962330205853520637e-02 5.146859707725724320e+02
8.972332806529696725e-02 5.146869400909356500e+02
8.982335407205872813e-02 5.146878869792075193e+02
8.992338007882047513e-02 5.146888114007558670e+02
9.002340608558223600e-02 5.146897133189786473e+02
9.012343209234399688e-02 5.146905926973084888e+02
9.022345809910575776e-02 5.146914494992153095e+02
9.032348410586753251e-02 5.146922836882060892e+02
9.042351011262927951e-02 5.146930952278327140e+02
9.052353611939104039e-02 5.146938840816887932e+02
9.062356212615280127e-02 5.146946502134173898e+02
9.072358813291456214e-02 5.146953935867098835e+02
9.082361413967632302e-02 5.146961141653119967e+02
9.092364014643807002e-02 5.146968119130233390e+02
9.102366615319983090e-02 5.146974867937024101e+02
9.112369215996159177e-02 5.146981387712679634e+02
9.122371816672333877e-02 5.146987678097030994e+02
9.132374417348509965e-02 5.146993738730571977e+02
9.142377018024686053e-02 5.146999569254477365e+02
9.152379618700862141e-02 5.147005169310655219e+02
9.162382219377038228e-02 5.147010538541751430e+02
9.172384820053212928e-02 5.147015676591186093e+02
9.182387420729389016e-02 5.147020583103196714e+02
9.192390021405565104e-02 5.147025257722824563e+02
9.202392622081739804e-02 5.147029700096006763e+02
9.212395222757915891e-02 5.147033909869542185e+02
9.222397823434091979e-02 5.147037886691150561e+02
9.232400424110268067e-02 5.147041630209511140e+02
9.242403024786444155e-02 5.147045140074262690e+02
9.252405625462618854e-02 5.147048415936052379e+02
9.262408226138794942e-02 5.147051457446559652e+02
9.272410826814971030e-02 5.147054264258537160e+02
9.282413427491145730e-02 5.147056836025803932e+02
9.292416028167321818e-02 5.147059172403322691e+02
9.302418628843499293e-02 5.147061273047189616e+02
9.312421229519675381e-02 5.147063137614690049e+02
9.322423830195851469e-02 5.147064765764305321e+02
9.332426430872026168e-02 5.147066157155772999e+02
9.342429031548202256e-02 5.147067311450081206e+02
9.352431632224378344e-02 5.147068228309522055e+02
9.362434232900554432e-02 5.147068907397710973e+02
9.372436833576730519e-02 5.147069348379632174e+02
9.382439434252905219e-02 5.147069550921638665e+02
9.392442034929081307e-02 5.147069514691520453e+02
9.402444635605257395e-02 5.147069239358499999e+02
9.412447236281432095e-02 5.147068724593285651e+02
9.422449836957608182e-02 5.147067970068086424e+02
9.432452437633784270e-02 5.147066975456656337e+02
9.442455038309960358e-02 5.147065740434316012e+02
9.452457638986136446e-02 5.147064264677984511e+02
9.462460239662311146e-02 5.147062547866210025e+02
9.472462840338487233e-02 5.147060589679194891e+02
9.482465441014663321e-02 5.147058389798851294e+02
9.492468041690838021e-02 5.147055947908800135e+02
9.502470642367014109e-02 5.147053263694403995e+02
9.512473243043190196e-02 5.147050336842828528e+02
9.522475843719366284e-02 5.147047167043048148e+02
9.532478444395542372e-02 5.147043753985880130e+02
9.542481045071717072e-02 5.147040097364011899e+02
9.552483645747893160e-02 5.147036196872047640e+02
9.562486246424069247e-02 5.147032052206525350e+02
9.572488847100246723e-02 5.147027663065953220e+02
9.582491447776422810e-02 5.147023029150843740e+02
9.592494048452597510e-02 5.147018150163735299e+02
9.602496649128773598e-02 5.147013025809234250e+02
9.612499249804949686e-02 5.147007655794034235e+02
9.622501850481124386e-02 5.147002039826962800e+02
9.632504451157300474e-02 5.146996177619002992e+02
9.642507051833476561e-02 5.146990068883325193e+02
9.652509652509652649e-02 5.146983713335314405e+02
9.662512253185828737e-02 5.146977110692615724e+02
9.672514853862003437e-02 5.146970260675150257e+02
9.682517454538179524e-02 5.146963163005166280e+02
9.692520055214355612e-02 5.146955817407231280e+02
9.702522655890530312e-02 5.146948223608321769e+02
9.712525256566706400e-02 5.146940381337805093e+02
9.722527857242882487e-02 5.146932290327487181e+02
9.732530457919058575e-02 5.146923950311656881e+02
9.742533058595234663e-02 5.146915361027101881e+02
9.752535659271409363e-02 5.146906522213140533e+02
9.762538259947585451e-02 5.146897433611670749e+02
9.772540860623761538e-02 5.146888094967175675e+02
9.782543461299936238e-02 5.146878506026773721e+02
9.792546061976112326e-02 5.146868666540250388e+02
9.802548662652288414e-02 5.146858576260078735e+02
9.812551263328464501e-02 5.146848234941460305e+02
9.822553864004640589e-02 5.146837642342350136e+02
9.832556464680815289e-02 5.146826798223494279e+02
9.842559065356992765e-02 5.146815702348465038e+02
9.852561666033168852e-02 5.146804354483671204e+02
9.862564266709344940e-02 5.146792754398422858e+02
9.872566867385521028e-02 5.146780901864938187e+02
9.882569468061695728e-02 5.146768796658375322e+02
9.892572068737871815e-02 5.146756438556885769e+02
9.902574669414047903e-02 5.146743827341620090e+02
9.912577270090222603e-02 5.146730962796766562e+02
9.922579870766398691e-02 5.146717844709601195e+02
9.932582471442574779e-02 5.146704472870492282e+02
9.942585072118750866e-02 5.146690847072957240e+02
9.952587672794926954e-02 5.146676967113664887e+02
9.962590273471101654e-02 5.146662832792492281e+02
9.972592874147277742e-02 5.146648443912553148e+02
9.982595474823453829e-02 5.146633800280216064e+02
9.992598075499628529e-02 5.146618901705138569e+02
1.000260067617580462e-01 5.146603748000316045e+02
1.001260327685198070e-01 5.146588338982086270e+02
1.002260587752815679e-01 5.146572674470189668e+02
1.003260847820433288e-01 5.146556754287774993e+02
1.004261107888050758e-01 5.146540578261433438e+02
1.005261367955668367e-01 5.146524146221256615e+02
1.006261628023285976e-01 5.146507458000839961e+02
1.007261888090903446e-01 5.146490513437320260e+02
1.008262148158521054e-01 5.146473312371405200e+02
1.009262408226138663e-01 5.146455854647410888e+02
1.010262668293756272e-01 5.146438140113295958e+02
1.011262928361374019e-01 5.146420168620679760e+02
1.012263188428991489e-01 5.146401940024883288e+02
1.013263448496609098e-01 5.146383454184942821e+02
1.014263708564226707e-01 5.146364710963688367e+02
1.015263968631844316e-01 5.146345710227689096e+02
1.016264228699461925e-01 5.146326451847382941e+02
1.017264488767079395e-01 5.146306935697025438e+02
1.018264748834697003e-01 5.146287161654777265e+02
1.019265008902314612e-01 5.146267129602689465e+02
1.020265268969932082e-01 5.146246839426778479e+02
1.021265529037549691e-01 5.146226291017013637e+02
1.022265789105167300e-01 5.146205484267374004e+02
1.023266049172784908e-01 5.146184419075869982e+02
1.024266309240402517e-01 5.146163095344588783e+02
1.025266569308019987e-01 5.146141512979683057e+02
1.026266829375637596e-01 5.146119671891449343e+02
1.027267089443255205e-01 5.146097571994334885e+02
1.028267349510872675e-01 5.146075213206958097e+02
1.029267609578490283e-01 5.146052595452157448e+02
1.030267869646107892e-01 5.146029718657008516e+02
1.031268129713725501e-01 5.146006582752866052e+02
1.032268389781343110e-01 5.145983187675370800e+02
1.033268649848960580e-01 5.145959533364505205e+02
1.034268909916578189e-01 5.145935619764599096e+02
1.035269169984195797e-01 5.145911446824380846e+02
1.036269430051813267e-01 5.145887014496985330e+02
1.037269690119430876e-01 5.145862322740006221e+02
1.038269950187048624e-01 5.145837371515483483e+02
1.039270210254666232e-01 5.145812160790002281e+02
1.040270470322283841e-01 5.145786690534632726e+02
1.041270730389901311e-01 5.145760960725037876e+02
1.042270990457518920e-01 5.145734971341460096e+02
1.043271250525136529e-01 5.145708722368746066e+02
1.044271510592754137e-01 5.145682213796401356e+02
1.045271770660371746e-01 5.145655445618601789e+02
1.046272030727989216e-01 5.145628417834207085e+02
1.047272290795606825e-01 5.145601130446827938e+02
1.048272550863224434e-01 5.145573583464818057e+02
1.049272810930841904e-01 5.145545776901318504e+02
1.050273070998459513e-01 5.145517710774274747e+02
1.051273331066077121e-01 5.145489385106475311e+02
1.052273591133694730e-01 5.145460799925568836e+02
1.053273851201312339e-01 5.145431955264100452e+02
1.054274111268929809e-01 5.145402851159540205e+02
1.055274371336547418e-01 5.145373487654279643e+02
1.056274631404165026e-01 5.145343864795714808e+02
1.057274891471782496e-01 5.145313982636214405e+02
1.058275151539400105e-01 5.145283841233191424e+02
1.059275411607017714e-01 5.145253440649087224e+02
1.060275671674635323e-01 5.145222780951444292e+02
1.061275931742252931e-01 5.145191862212891465e+02
1.062276191809870401e-01 5.145160684511197360e+02
1.063276451877488010e-01 5.145129247929285157e+02
1.064276711945105619e-01 5.145097552555241691e+02
1.065276972012723367e-01 5.145065598482377709e+02
1.066277232080340975e-01 5.145033385809233550e+02
1.067277492147958445e-01 5.145000914639589382e+02
1.068277752215576054e-01 5.144968185082528862e+02
1.069278012283193663e-01 5.144935197252417538e+02
1.070278272350811133e-01 5.144901951268967650e+02
1.071278532418428742e-01 5.144868447257238131e+02
1.072278792486046350e-01 5.144834685347669847e+02
1.073279052553663959e-01 5.144800665676104927e+02
1.074279312621281568e-01 5.144766388383816320e+02
1.075279572688899038e-01 5.144731853617521438e+02
1.076279832756516647e-01 5.144697061529407165e+02
1.077280092824134256e-01 5.144662012277175336e+02
1.078280352891751726e-01 5.144626706024030227e+02
1.079280612959369334e-01 5.144591142938728581e+02
1.080280873026986943e-01 5.144555323195603478e+02
1.081281133094604552e-01 5.144519246974552971e+02
1.082281393162222161e-01 5.144482914461111704e+02
1.083281653229839631e-01 5.144446325846431591e+02
1.084281913297457239e-01 5.144409481327328422e+02
1.085282173365074848e-01 5.144372381106304601e+02
1.086282433432692318e-01 5.144335025391551426e+02
1.087282693500309927e-01 5.144297414396979775e+02
1.088282953567927536e-01 5.144259548342258768e+02
1.089283213635545144e-01 5.144221427452816897e+02
1.090283473703162753e-01 5.144183051959862496e+02
1.091283733770780223e-01 5.144144422100417842e+02
1.092283993838397971e-01 5.144105538117323704e+02
1.093284253906015580e-01 5.144066400259290504e+02
1.094284513973633188e-01 5.144027008780873302e+02
1.095284774041250797e-01 5.143987363942528646e+02
1.096285034108868267e-01 5.143947466010619110e+02
1.097285294176485876e-01 5.143907315257443997e+02
1.098285554244103485e-01 5.143866911961232518e+02
1.099285814311720955e-01 5.143826256406202901e+02
1.100286074379338563e-01 5.143785348882543076e+02
1.101286334446956172e-01 5.143744189686456139e+02
1.102286594514573781e-01 5.143702779120170590e+02
1.103286854582191390e-01 5.143661117491944879e+02
1.104287114649808860e-01 5.143619205116112880e+02
1.105287374717426468e-01 5.143577042313092988e+02
1.106287634785044077e-01 5.143534629409377885e+02
1.107287894852661547e-01 5.143491966737598204e+02
1.108288154920279156e-01 5.143449054636503206e+02
1.109288414987896765e-01 5.143405893450996018e+02
1.110288675055514374e-01 5.143362483532151828e+02
1.111288935123131982e-01 5.143318825237219016e+02
1.112289195190749452e-01 5.143274918929657815e+02
1.113289455258367061e-01 5.143230764979136893e+02
1.114289715325984670e-01 5.143186363761560642e+02
1.115289975393602140e-01 5.143141715659085094e+02
1.116290235461219749e-01 5.143096821060123602e+02
1.117290495528837357e-01 5.143051680359371858e+02
1.118290755596454966e-01 5.143006293957836306e+02
1.119291015664072714e-01 5.142960662262805727e+02
1.120291275731690184e-01 5.142914785687912627e+02
1.121291535799307792e-01 5.142868664653134374e+02
1.122291795866925401e-01 5.142822299584779557e+02
1.123292055934543010e-01 5.142775690915549376e+02
1.124292316002160619e-01 5.142728839084513766e+02
1.125292576069778089e-01 5.142681744537139821e+02
1.126292836137395698e-01 5.142634407725305437e+02
1.127293096205013306e-01 5.142586829107314088e+02
1.128293356272630776e-01 5.142539009147895968e+02
1.129293616340248385e-01 5.142490948318237542e+02
1.130293876407865994e-01 5.142442647095984967e+02
1.131294136475483603e-01 5.142394105965247491e+02
1.132294396543101211e-01 5.142345325416630430e+02
1.133294656610718681e-01 5.142296305947230621e+02
1.134294916678336290e-01 5.142247048060656880e+02
1.135295176745953899e-01 5.142197552267020910e+02
1.136295436813571369e-01 5.142147819082990736e+02
1.137295696881188978e-01 5.142097849031749774e+02
1.138295956948806587e-01 5.142047642643047993e+02
1.139296217016424195e-01 5.141997200453192818e+02
1.140296477084041804e-01 5.141946523005057088e+02
1.141296737151659274e-01 5.141895610848105207e+02
1.142296997219276883e-01 5.141844464538384045e+02
1.143297257286894492e-01 5.141793084638542268e+02
1.144297517354511962e-01 5.141741471717833747e+02
1.145297777422129570e-01 5.141689626352144842e+02
1.146298037489747318e-01 5.141637549123962572e+02
1.147298297557364927e-01 5.141585240622426909e+02
1.148298557624982535e-01 5.141532701443314863e+02
1.149298817692600005e-01 5.141479932189051851e+02
1.150299077760217614e-01 5.141426933468716243e+02
1.151299337827835223e-01 5.141373705898056414e+02
1.152299597895452832e-01 5.141320250099485065e+02
1.153299857963070441e-01 5.141266566702103091e+02
1.154300118030687911e-01 5.141212656341683669e+02
1.155300378098305519e-01 5.141158519660692718e+02
1.156300638165923128e-01 5.141104157308300273e+02
1.157300898233540598e-01 5.141049569940357742e+02
1.158301158301158207e-01 5.140994758219442247e+02
1.159301418368775816e-01 5.140939722814836159e+02
1.160301678436393424e-01 5.140884464402528238e+02
1.161301938504011033e-01 5.140828983665242049e+02
1.162302198571628503e-01 5.140773281292414367e+02
1.163302458639246112e-01 5.140717357980216775e+02
1.164302718706863721e-01 5.140661214431551116e+02
1.165302978774481191e-01 5.140604851356049494e+02
1.166303238842098799e-01 5.140548269470090190e+02
1.167303498909716408e-01 5.140491469496795389e+02
1.168303758977334017e-01 5.140434452166007304e+02
1.169304019044951626e-01 5.140377218214341610e+02
1.170304279112569096e-01 5.140319768385151065e+02
1.171304539180186705e-01 5.140262103428530054e+02
1.172304799247804313e-01 5.140204224101335058e+02
1.173305059315422061e-01 5.140146131167165322e+02
1.174305319383039670e-01 5.140087825396384460e+02
1.175305579450657140e-01 5.140029307566096577e+02
1.176305839518274748e-01 5.139970578460162187e+02
1.177306099585892357e-01 5.139911638869200488e+02
1.178306359653509827e-01 5.139852489590574578e+02
1.179306619721127436e-01 5.139793131428408515e+02
1.180306879788745045e-01 5.139733565193570257e+02
1.181307139856362654e-01 5.139673791703686447e+02
1.182307399923980262e-01 5.139613811783121946e+02
1.183307659991597732e-01 5.139553626262990065e+02
1.184307920059215341e-01 5.139493235981163934e+02
1.185308180126832950e-01 5.139432641782235578e+02
1.186308440194450420e-01 5.139371844517554564e+02
1.187308700262068029e-01 5.139310845045199585e+02
1.188308960329685637e-01 5.139249644229985279e+02
1.189309220397303246e-01 5.139188242943451996e+02
1.190309480464920855e-01 5.139126642063874897e+02
1.191309740532538325e-01 5.139064842476245758e+02
1.192310000600155934e-01 5.139002845072263881e+02
1.193310260667773542e-01 5.138940650750361101e+02
1.194310520735391012e-01 5.138878260415667683e+02
1.195310780803008621e-01 5.138815674980011181e+02
1.196311040870626230e-01 5.138752895361931223e+02
1.197311300938243839e-01 5.138689922486640853e+02
1.198311561005861448e-01 5.138626757286053817e+02
1.199311821073478918e-01 5.138563400698749319e+02
1.200312081141096665e-01 5.138499853669985669e+02
1.201312341208714274e-01 5.138436117151683220e+02
1.202312601276331883e-01 5.138372192102427789e+02
1.203312861343949491e-01 5.138308079487442228e+02
1.204313121411566961e-01 5.138243780278602344e+02
1.205313381479184570e-01 5.138179295454407338e+02
1.206313641546802179e-01 5.138114625999994587e+02
1.207313901614419649e-01 5.138049772907102124e+02
1.208314161682037258e-01 5.137984737174086831e+02
1.209314421749654866e-01 5.137919519805896016e+02
1.210314681817272475e-01 5.137854121814074233e+02
1.211314941884890084e-01 5.137788544216734863e+02
1.212315201952507554e-01 5.137722788038557837e+02
1.213315462020125163e-01 5.137656854310787367e+02
1.214315722087742772e-01 5.137590744071206927e+02
1.215315982155360242e-01 5.137524458364138127e+02
1.216316242222977850e-01 5.137457998240431607e+02
1.217316502290595459e-01 5.137391364757434076e+02
1.218316762358213068e-01 5.137324558978998539e+02
1.219317022425830677e-01 5.137257581975479752e+02
1.220317282493448147e-01 5.137190434823681926e+02
1.221317542561065755e-01 5.137123118606879189e+02
1.222317802628683364e-01 5.137055634414805354e+02
1.223318062696300834e-01 5.136987983343606174e+02
1.224318322763918443e-01 5.136920166495862077e+02
1.225318582831536052e-01 5.136852184980560878e+02
1.226318842899153660e-01 5.136784039913075048e+02
1.227319102966771408e-01 5.136715732415152615e+02
1.228319363034388878e-01 5.136647263614903522e+02
1.229319623102006487e-01 5.136578634646790533e+02
1.230319883169624096e-01 5.136509846651600810e+02
1.231320143237241704e-01 5.136440900776425451e+02
1.232320403304859313e-01 5.136371798174673131e+02
1.233320663372476783e-01 5.136302540006018944e+02
1.234320923440094392e-01 5.136233127436405539e+02
1.235321183507712001e-01 5.136163561638021520e+02
1.236321443575329471e-01 5.136093843789290077e+02
1.237321703642947079e-01 5.136023975074837153e+02
1.238321963710564688e-01 5.135953956685488038e+02
1.239322223778182297e-01 5.135883789818234391e+02
1.240322483845799906e-01 5.135813475676241069e+02
1.241322743913417376e-01 5.135743015468784733e+02
1.242323003981034985e-01 5.135672410411284545e+02
1.243323264048652593e-01 5.135601661725232816e+02
1.244323524116270063e-01 5.135530770638226841e+02
1.245323784183887672e-01 5.135459738383895001e+02
1.246324044251505281e-01 5.135388566201919502e+02
1.247324304319122890e-01 5.135317255337992037e+02
1.248324564386740498e-01 5.135245807043804689e+02
1.249324824454357968e-01 5.135174222577012415e+02
1.250325084521975438e-01 5.135102503201233048e+02
1.251325344589593047e-01 5.135030650186008643e+02
1.252325604657210656e-01 5.134958664806790694e+02
1.253325864724828265e-01 5.134886548344911716e+02
1.254326124792446151e-01 5.134814302087572742e+02
1.255326384860063760e-01 5.134741927327803523e+02
1.256326644927681091e-01 5.134669425364457993e+02
1.257326904995298700e-01 5.134596797502180152e+02
1.258327165062916309e-01 5.134524045051373378e+02
1.259327425130533917e-01 5.134451169328193600e+02
1.260327685198151526e-01 5.134378171654498146e+02
1.261327945265769135e-01 5.134305053357867337e+02
1.262328205333386744e-01 5.134231815771521497e+02
1.263328465401004075e-01 5.134158460234330050e+02
1.264328725468621684e-01 5.134084988090783099e+02
1.265328985536239292e-01 5.134011400690957316e+02
1.266329245603856901e-01 5.133937699390503440e+02
1.267329505671474510e-01 5.133863885550595114e+02
1.268329765739092119e-01 5.133789960537917523e+02
1.269330025806709727e-01 5.133715925724643512e+02
1.270330285874327336e-01 5.133641782488396075e+02
1.271330545941944945e-01 5.133567532212235847e+02
1.272330806009562276e-01 5.133493176284604260e+02
1.273331066077179885e-01 5.133418716099334915e+02
1.274331326144797494e-01 5.133344153055581955e+02
1.275331586212415103e-01 5.133269488557828026e+02
1.276331846280032711e-01 5.133194724015831980e+02
1.277332106347650320e-01 5.133119860844601590e+02
1.278332366415267929e-01 5.133044900464376497e+02
1.279332626482885260e-01 5.132969844300586146e+02
1.280332886550503146e-01 5.132894693783828188e+02
1.281333146618120755e-01 5.132819450349825274e+02
1.282333406685738364e-01 5.132744115439401185e+02
1.283333666753355973e-01 5.132668690498463775e+02
1.284333926820973582e-01 5.132593176977937901e+02
1.285334186888590913e-01 5.132517576333768829e+02
1.286334446956208521e-01 5.132441890026873352e+02
1.287334707023826130e-01 5.132366119523113639e+02
1.288334967091443739e-01 5.132290266293252898e+02
1.289335227159061348e-01 5.132214331812941737e+02
1.290335487226678957e-01 5.132138317562662451e+02
1.291335747294296565e-01 5.132062225027711975e+02
1.292336007361913897e-01 5.131986055698170048e+02
1.293336267429531505e-01 5.131909811068846921e+02
1.294336527497149114e-01 5.131833492639267433e+02
1.295336787564766723e-01 5.131757101913628958e+02
1.296337047632384332e-01 5.131680640400759330e+02
1.297337307700001940e-01 5.131604109614102072e+02
1.298337567767619549e-01 5.131527511071659546e+02
1.299337827835237158e-01 5.131450846295971360e+02
1.300338087902854767e-01 5.131374116814064337e+02
1.301338347970472098e-01 5.131297324157434332e+02
1.302338608038089707e-01 5.131220469861997344e+02
1.303338868105707316e-01 5.131143555468058821e+02
1.304339128173324924e-01 5.131066582520260226e+02
1.305339388240942533e-01 5.130989552567582450e+02
1.306339648308560142e-01 5.130912467163253723e+02
1.307339908376177751e-01 5.130835327864758710e+02
1.308340168443795359e-01 5.130758136233771438e+02
1.309340428511412968e-01 5.130680893836124596e+02
1.310340688579030577e-01 5.130603602241787939e+02
1.311340948646648186e-01 5.130526263024796663e+02
1.312341208714265794e-01 5.130448877763242308e+02
1.313341468781883403e-01 5.130371448039223878e+02
1.314341728849500734e-01 5.130293975438796679e+02
1.315341988917118343e-01 5.130216461551941620e+02
1.316342248984735952e-01 5.130138907972547031e+02
1.317342509052353561e-01 5.130061316298321117e+02
1.318342769119971170e-01 5.129983688130791961e+02
1.319343029187588778e-01 5.129906025075248408e+02
1.320343289255206387e-01 5.129828328740699135e+02
1.321343549322823718e-01 5.129750600739846504e+02
1.322343809390441327e-01 5.129672842689019490e+02
1.323344069458058936e-01 5.129595056208160031e+02
1.324344329525676545e-01 5.129517242920758235e+02
1.325344589593294153e-01 5.129439404453826228e+02
1.326344849660911762e-01 5.129361542437845856e+02
1.327345109728529371e-01 5.129283658506724350e+02
1.328345369796146980e-01 5.129205754297763633e+02
1.329345629863764588e-01 5.129127831451609154e+02
1.330345889931381920e-01 5.129049891612201009e+02
1.331346149998999528e-01 5.128971936426748925e+02
1.332346410066617137e-01 5.128893967545657233e+02
1.333346670134234746e-01 5.128815986622518039e+02
1.334346930201852355e-01 5.128737995314045293e+02
1.335347190269469964e-01 5.128659995280022486e+02
1.336347450337087572e-01 5.128581988183282192e+02
1.337347710404705181e-01 5.128503975689638992e+02
1.338347970472322790e-01 5.128425959467863322e+02
1.339348230539940399e-01 5.128347941189615540e+02
1.340348490607558007e-01 5.128269922529420910e+02
1.341348750675175616e-01 5.128191905164604805e+02
1.342349010742793225e-01 5.128113890775271102e+02
1.343349270810410556e-01 5.128035881044224880e+02
1.344349530878028165e-01 5.127957877656942856e+02
1.345349790945645774e-01 5.127879882301547241e+02
1.346350051013263383e-01 5.127801896668713653e+02
1.347350311080880991e-01 5.127723922451655199e+02
1.348350571148498600e-01 5.127645961346075865e+02
1.349350831216116209e-01 5.127568015050107988e+02
1.350351091283733540e-01 5.127490085264275876e+02
1.351351351351351149e-01 5.127412173691443513e+02
1.352351611418968758e-01 5.127334282036762261e+02
1.353351871486586366e-01 5.127256412007636754e+02
1.354352131554203975e-01 5.127178565313663512e+02
1.355352391621821584e-01 5.127100743666585458e+02
1.356352651689439193e-01 5.127022948780247589e+02
1.357352911757056801e-01 5.126945182370535576e+02
1.358353171824674410e-01 5.126867446155345078e+02
1.359353431892291741e-01 5.126789741854519207e+02
1.360353691959909350e-01 5.126712071189804192e+02
1.361353952027527237e-01 5.126634435884795948e+02
1.362354212095144845e-01 5.126556837664888917e+02
1.363354472162762177e-01 5.126479278257240821e+02
1.364354732230379785e-01 5.126401759390704456e+02
1.365354992297997394e-01 5.126324282795776526e+02
1.366355252365615003e-01 5.126246850204564680e+02
1.367355512433232612e-01 5.126169463350727256e+02
1.368355772500850220e-01 5.126092123969405066e+02
1.369356032568467829e-01 5.126014833797211168e+02
1.370356292636085438e-01 5.125937594572139915e+02
1.371356552703703047e-01 5.125860408033536260e+02
1.372356812771320378e-01 5.125783275922033226e+02
1.373357072838937987e-01 5.125706199979508710e+02
1.374357332906555595e-01 5.125629181949029771e+02
1.375357592974173204e-01 5.125552223574807158e+02
1.376357853041790813e-01 5.125475326602129371e+02
1.377358113109408422e-01 5.125398492777325146e+02
1.378358373177026031e-01 5.125321723847692965e+02
1.379358633244643362e-01 5.125245021561470367e+02
1.380358893312260971e-01 5.125168387667771412e+02
1.381359153379878579e-01 5.125091823916519616e+02
1.382359413447496188e-01 5.125015332058424065e+02
1.383359673515113797e-01 5.124938913844889612e+02
1.384359933582731406e-01 5.124862571028007778e+02
1.385360193650349014e-01 5.124786305360453298e+02
1.386360453717966623e-01 5.124710118595475024e+02
1.387360713785584232e-01 5.124634012486825441e+02
1.388360973853201841e-01 5.124557988788682223e+02
1.389361233920819449e-01 5.124482049255642551e+02
1.390361493988437058e-01 5.124406195642620787e+02
1.391361754056054667e-01 5.124330429704835979e+02
1.392362014123671998e-01 5.124254753197724312e+02
1.393362274191289607e-01 5.124179167876899328e+02
1.394362534258907216e-01 5.124103675498103030e+02
1.395362794326524825e-01 5.124028277817137678e+02
1.396363054394142433e-01 5.123952976589816899e+02
1.397363314461760042e-01 5.123877773571909984e+02
1.398363574529377651e-01 5.123802670519096409e+02
1.399363834596995260e-01 5.123727669186885123e+02
1.400364094664612868e-01 5.123652771330590667e+02
1.401364354732230200e-01 5.123577978705259284e+02
1.402364614799847808e-01 5.123503293065615480e+02
1.403364874867465417e-01 5.123428716166006325e+02
1.404365134935083026e-01 5.123354249760338917e+02
1.405365395002700635e-01 5.123279895602050829e+02
1.406365655070318244e-01 5.123205655444023705e+02
1.407365915137935852e-01 5.123131531038540061e+02
1.408366175205553184e-01 5.123057524137229848e+02
1.409366435273170792e-01 5.122983636491004518e+02
1.410366695340788401e-01 5.122909869850014957e+02
1.411366955408406010e-01 5.122836225963579864e+02
1.412367215476023619e-01 5.122762706580140275e+02
1.413367475543641227e-01 5.122689313447195900e+02
1.414367735611258836e-01 5.122616048311261920e+02
1.415367995678876445e-01 5.122542912917776903e+02
1.416368255746494054e-01 5.122469909011100526e+02
1.417368515814111662e-01 5.122397038334406716e+02
1.418368775881729271e-01 5.122324302629658632e+02
1.419369035949346880e-01 5.122251703637525679e+02
1.420369296016964489e-01 5.122179243097358494e+02
1.421369556084581820e-01 5.122106922747101407e+02
1.422369816152199429e-01 5.122034744323245832e+02
1.423370076219817038e-01 5.121962709560788198e+02
1.424370336287434646e-01 5.121890820193149239e+02
1.425370596355052255e-01 5.121819077952117141e+02
1.426370856422669864e-01 5.121747484567827087e+02
1.427371116490287473e-01 5.121676041768643017e+02
1.428371376557905081e-01 5.121604751281158769e+02
1.429371636625522690e-01 5.121533614830105989e+02
1.430371896693140021e-01 5.121462634138298426e+02
1.431372156760757630e-01 5.121391810926585322e+02
1.432372416828375239e-01 5.121321146913800249e+02
1.433372676895992848e-01 5.121250643816670163e+02
1.434372936963610456e-01 5.121180303349796077e+02
1.435373197031228065e-01 5.121110127225580300e+02
1.436373457098845674e-01 5.121040117154155951e+02
1.437373717166463005e-01 5.120970274843351717e+02
1.438373977234080614e-01 5.120900601998610000e+02
1.439374237301698223e-01 5.120831100322955081e+02
1.440374497369315832e-01 5.120761771516905583e+02
1.441374757436933440e-01 5.120692617278446050e+02
1.442375017504551327e-01 5.120623639302942820e+02
1.443375277572168658e-01 5.120554839283120145e+02
1.444375537639786267e-01 5.120486218908949922e+02
1.445375797707403875e-01 5.120417779867643731e+02
1.446376057775021484e-01 5.120349523843570978e+02
1.447376317842639093e-01 5.120281452518207743e+02
1.448376577910256702e-01 5.120213567570060604e+02
1.449376837977874311e-01 5.120145870674643902e+02
1.450377098045491642e-01 5.120078363504386516e+02
1.451377358113109250e-01 5.120011047728596623e+02
1.452377618180726859e-01 5.119943925013394619e+02
1.453377878248344468e-01 5.119876997021648322e+02
1.454378138315962077e-01 5.119810265412928061e+02
1.455378398383579686e-01 5.119743731843447563e+02
1.456378658451197294e-01 5.119677397965988916e+02
1.457378918518814903e-01 5.119611265429872446e+02
1.458379178586432512e-01 5.119545335880867469e+02
1.459379438654049843e-01 5.119479610961157050e+02
1.460379698721667452e-01 5.119414092309281159e+02
1.461379958789285061e-01 5.119348781560055386e+02
1.462380218856902669e-01 5.119283680344536833e+02
1.463380478924520278e-01 5.119218790289954768e+02
1.464380738992137887e-01 5.119154113019656052e+02
1.465380999059755496e-01 5.119089650153045454e+02
1.466381259127372827e-01 5.119025403305534496e+02
1.467381519194990436e-01 5.118961374088470393e+02
1.468381779262608045e-01 5.118897564109089444e+02
1.469382039330225931e-01 5.118833974970457348e+02
1.470382299397843540e-01 5.118770608271408946e+02
1.471382559465461148e-01 5.118707465606489109e+02
1.472382819533078480e-01 5.118644548565906121e+02
1.473383079600696088e-01 5.118581858735455512e+02
1.474383339668313697e-01 5.118519397696478563e+02
1.475383599735931306e-01 5.118457167025803756e+02
1.476383859803548915e-01 5.118395168295684243e+02
1.477384119871166523e-01 5.118333403073727368e+02
1.478384379938784132e-01 5.118271872922867374e+02
1.479384640006401463e-01 5.118210579401289806e+02
1.480384900074019072e-01 5.118149524062374667e+02
1.481385160141636681e-01 5.118088708454647531e+02
1.482385420209254290e-01 5.118028134121701669e+02
1.483385680276871899e-01 5.117967802602177585e+02
1.484385940344489507e-01 5.117907715429670930e+02
1.485386200412107116e-01 5.117847874132692141e+02
1.486386460479724725e-01 5.117788280234611875e+02
1.487386720547342334e-01 5.117728935253603026e+02
1.488386980614959665e-01 5.117669840702574220e+02
1.489387240682577274e-01 5.117610998089127747e+02
1.490387500750194882e-01 5.117552408915492492e+02
1.491387760817812491e-01 5.117494074678472771e+02
1.492388020885430100e-01 5.117435996869388646e+02
1.493388280953047709e-01 5.117378176974027610e+02
1.494388541020665317e-01 5.117320616472586039e+02
1.495388801088282649e-01 5.117263316839611207e+02
1.496389061155900535e-01 5.117206279543929668e+02
1.497389321223518144e-01 5.117149506048631338e+02
1.498389581291135753e-01 5.117092997810979114e+02
1.499389841358753361e-01 5.117036756282361694e+02
1.500390101426370970e-01 5.116980782908245828e+02
1.501390361493988301e-01 5.116925079128124025e+02
1.502390621561605910e-01 5.116869646375439515e+02
1.503390881629223519e-01 5.116814486077553283e+02
1.504391141696841128e-01 5.116759599655673583e+02
1.505391401764458736e-01 5.116704988524827513e+02
1.506391661832076345e-01 5.116650654093757566e+02
1.507391921899693954e-01 5.116596597764923899e+02
1.508392181967311285e-01 5.116542820934403721e+02
1.509392442034928894e-01 5.116489324991875378e+02
1.510392702102546503e-01 5.116436111320527971e+02
1.511392962170164112e-01 5.116383181297044871e+02
1.512393222237781720e-01 5.116330536291509929e+02
1.513393482305399329e-01 5.116278177667390423e+02
1.514393742373016938e-01 5.116226106781465433e+02
1.515394002440634547e-01 5.116174324983767860e+02
1.516394262508252155e-01 5.116122833617548622e+02
1.517394522575869487e-01 5.116071634019208432e+02
1.518394782643487095e-01 5.116020727518260856e+02
1.519395042711104704e-01 5.115970115437245340e+02
1.520395302778722313e-01 5.115919799091726645e+02
1.521395562846339922e-01 5.115869779790202756e+02
1.522395822913957530e-01 5.115820058834063957e+02
1.523396082981575139e-01 5.115770637517543378e+02
1.524396343049192748e-01 5.115721517127661286e+02
1.525396603116810357e-01 5.115672698944183026e+02
1.526396863184427966e-01 5.115624184239558190e+02
1.527397123252045574e-01 5.115575974278870603e+02
1.528397383319663183e-01 5.115528070319788299e+02
1.529397643387280792e-01 5.115480473612517471e+02
1.530397903454898123e-01 5.115433185399735976e+02
1.531398163522515732e-01 5.115386206916562060e+02
1.532398423590133341e-01 5.115339539390503205e+02
1.533398683657750949e-01 5.115293184041388486e+02
1.534398943725368558e-01 5.115247142081331049e+02
1.535399203792986167e-01 5.115201414714677526e+02
1.536399463860603776e-01 5.115156003137952894e+02
1.537399723928221107e-01 5.115110908539828642e+02
1.538399983995838716e-01 5.115066132101047742e+02
1.539400244063456324e-01 5.115021674994397927e+02
1.540400504131073933e-01 5.114977538384639502e+02
1.541400764198691542e-01 5.114933723428486587e+02
1.542401024266309151e-01 5.114890231274537769e+02
1.543401284333926760e-01 5.114847063063224368e+02
1.544401544401544368e-01 5.114804219926789983e+02
1.545401804469161977e-01 5.114761702989204650e+02
1.546402064536779308e-01 5.114719513366155752e+02
1.547402324604396917e-01 5.114677652164961614e+02
1.548402584672014526e-01 5.114636120484565254e+02
1.549402844739632135e-01 5.114594919415458776e+02
1.550403104807249743e-01 5.114554050039636763e+02
1.551403364874867352e-01 5.114513513430569560e+02
1.552403624942484961e-01 5.114473310653143017e+02
1.553403885010102570e-01 5.114433442763618132e+02
1.554404145077720178e-01 5.114393910809575914e+02
1.555404405145337787e-01 5.114354715829890665e+02
1.556404665212955396e-01 5.114315858854662338e+02
1.557404925280573005e-01 5.114277340905181291e+02
1.558405185348190614e-01 5.114239162993897594e+02
1.559405445415807945e-01 5.114201326124353955e+02
1.560405705483425554e-01 5.114163831291145357e+02
1.561405965551043162e-01 5.114126679479898598e+02
1.562406225618660771e-01 5.114089871667196689e+02
1.563406485686278380e-01 5.114053408820553841e+02
1.564406745753895989e-01 5.114017291898371127e+02
1.565407005821513597e-01 5.113981521849881915e+02
1.566407265889130929e-01 5.113946099615131970e+02
1.567407525956748815e-01 5.113911026124912382e+02
1.568407786024366146e-01 5.113876302300720909e+02
1.569408046091984033e-01 5.113841929054747766e+02
1.570408306159601364e-01 5.113807907289802870e+02
1.571408566227219250e-01 5.113774237899274340e+02
1.572408826294836581e-01 5.113740921767114855e+02
1.573409086362454190e-01 5.113707959767774014e+02
1.574409346430071799e-01 5.113675352766172750e+02
1.575409606497689408e-01 5.113643101617653315e+02
1.576409866565306739e-01 5.113611207167945167e+02
1.577410126632924625e-01 5.113579670253133713e+02
1.578410386700541956e-01 5.113548491699588112e+02
1.579410646768159565e-01 5.113517672323975489e+02
1.580410906835777174e-01 5.113487212933168848e+02
1.581411166903394783e-01 5.113457114324239114e+02
1.582411426971012114e-01 5.113427377284412501e+02
1.583411687038630000e-01 5.113398002591019349e+02
1.584411947106247331e-01 5.113368991011486742e+02
1.585412207173865218e-01 5.113340343303247550e+02
1.586412467241482549e-01 5.113312060213774544e+02
1.587412727309100435e-01 5.113284142480470109e+02
1.588412987376717767e-01 5.113256590830698087e+02
1.589413247444335375e-01 5.113229405981682589e+02
1.590413507511953262e-01 5.113202588640530735e+02
1.591413767579570593e-01 5.113176139504155344e+02
1.592414027647188202e-01 5.113150059259257318e+02
1.593414287714805810e-01 5.113124348582287553e+02
1.594414547782423419e-01 5.113099008139415105e+02
1.595414807850040750e-01 5.113074038586491383e+02
1.596415067917658637e-01 5.113049440569014905e+02
1.597415327985275968e-01 5.113025214722090368e+02
1.598415588052893854e-01 5.113001361670411598e+02
1.599415848120511185e-01 5.112977882028211525e+02
1.600416108188129072e-01 5.112954776399243997e+02
1.601416368255746403e-01 5.112932045376741144e+02
1.602416628323364012e-01 5.112909689543388936e+02
1.603416888390981621e-01 5.112887709471285120e+02
1.604417148458599229e-01 5.112866105721908525e+02
1.605417408526216561e-01 5.112844878846115080e+02
1.606417668593834447e-01 5.112824029384060509e+02
1.607417928661451778e-01 5.112803557865203743e+02
1.608418188729069387e-01 5.112783464808273379e+02
1.609418448796686996e-01 5.112763750721220504e+02
1.610418708864304604e-01 5.112744416101209595e+02
1.611418968931921936e-01 5.112725461434574754e+02
1.612419228999539822e-01 5.112706887196795833e+02
1.613419489067157153e-01 5.112688693852473989e+02
1.614419749134775040e-01 5.112670881855300991e+02
1.615420009202392371e-01 5.112653451648023974e+02
1.616420269270010257e-01 5.112636403662426687e+02
1.617420529337627866e-01 5.112619738319306180e+02
1.618420789405245197e-01 5.112603456028426763e+02
1.619421049472863083e-01 5.112587557188526262e+02
1.620421309540480415e-01 5.112572042187247234e+02
1.621421569608098023e-01 5.112556911401153457e+02
1.622421829675715632e-01 5.112542165195679900e+02
1.623422089743333241e-01 5.112527803925100329e+02
1.624422349810950572e-01 5.112513827932543791e+02
1.625422609878568458e-01 5.112500237549913891e+02
1.626422869946185790e-01 5.112487033097905851e+02
1.627423130013803676e-01 5.112474214885971833e+02
1.628423390081421007e-01 5.112461783212291380e+02
1.629423650149038894e-01 5.112449738363756069e+02
1.630423910216656225e-01 5.112438080615943932e+02
1.631424170284273834e-01 5.112426810233095011e+02
1.632424430351891442e-01 5.112415927468100563e+02
1.633424690419509051e-01 5.112405432562462124e+02
1.634424950487126382e-01 5.112395325746285835e+02
1.635425210554744269e-01 5.112385607238264242e+02
1.636425470622361600e-01 5.112376277245641063e+02
1.637425730689979209e-01 5.112367335964204358e+02
1.638425990757596817e-01 5.112358783578258681e+02
1.639426250825214426e-01 5.112350620260612573e+02
1.640426510892831757e-01 5.112342846172556392e+02
1.641426770960449644e-01 5.112335461463848105e+02
1.642427031028066975e-01 5.112328466272676906e+02
1.643427291095684861e-01 5.112321860725680267e+02
1.644427551163302470e-01 5.112315644937891079e+02
1.645427811230920079e-01 5.112309819012746743e+02
1.646428071298537688e-01 5.112304383042058475e+02
1.647428331366155019e-01 5.112299337105991981e+02
1.648428591433772905e-01 5.112294681273068591e+02
1.649428851501390236e-01 5.112290415600136839e+02
1.650429111569007845e-01 5.112286540132358255e+02
1.651429371636625454e-01 5.112283054903197694e+02
1.652429631704243063e-01 5.112279959934407430e+02
1.653429891771860394e-01 5.112277255236007250e+02
1.654430151839478280e-01 5.112274940806282757e+02
1.655430411907095611e-01 5.112273016631768883e+02
1.656430671974713498e-01 5.112271482687219191e+02
1.657430932042330829e-01 5.112270338935628047e+02
1.658431192109948715e-01 5.112269585328185144e+02
1.659431452177566046e-01 5.112269221804286303e+02
1.660431712245183655e-01 5.112269248291513577e+02
1.661431972312801264e-01 5.112269664705619334e+02
1.662432232380418873e-01 5.112270470950534786e+02
1.663432492448036204e-01 5.112271666918336450e+02
1.664432752515654090e-01 5.112273252489252400e+02
1.665433012583271422e-01 5.112275227531656583e+02
1.666433272650889030e-01 5.112277591902036420e+02
1.667433532718506639e-01 5.112280345445012131e+02
1.668433792786124248e-01 5.112283487993315703e+02
1.669434052853741579e-01 5.112287019367778953e+02
1.670434312921359465e-01 5.112290939377352288e+02
1.671434572988977352e-01 5.112295247819049564e+02
1.672434833056594683e-01 5.112299944477996405e+02
1.673435093124212292e-01 5.112305029127382454e+02
1.674435353191829901e-01 5.112310501528479563e+02
1.675435613259447509e-01 5.112316361430632696e+02
1.676435873327064840e-01 5.112322608571239471e+02
1.677436133394682727e-01 5.112329242675778573e+02
1.678436393462300058e-01 5.112336263457770542e+02
1.679436653529917667e-01 5.112343670618794249e+02
1.680436913597535276e-01 5.112351463848484627e+02
1.681437173665152884e-01 5.112359642824516754e+02
1.682437433732770216e-01 5.112368207212624043e+02
1.683437693800388102e-01 5.112377156666574365e+02
1.684437953868005433e-01 5.112386490828185401e+02
1.685438213935623319e-01 5.112396209327314978e+02
1.686438474003240651e-01 5.112406311781863906e+02
1.687438734070858537e-01 5.112416797797778827e+02
1.688438994138475868e-01 5.112427666969040843e+02
1.689439254206093477e-01 5.112438918877684273e+02
1.690439514273711086e-01 5.112450553093783583e+02
1.691439774341328695e-01 5.112462569175461908e+02
1.692440034408946026e-01 5.112474966668885941e+02
1.693440294476563912e-01 5.112487745108276158e+02
1.694440554544181243e-01 5.112500904015903984e+02
1.695440814611798852e-01 5.112514442902111682e+02
1.696441074679416461e-01 5.112528361265281660e+02
1.697441334747034070e-01 5.112542658591876261e+02
1.698441594814651956e-01 5.112557334356421848e+02
1.699441854882269287e-01 5.112572388021522443e+02
1.700442114949887173e-01 5.112587819037850636e+02
1.701442375017504505e-01 5.112603626844185101e+02
1.702442635085122113e-01 5.112619810867382171e+02
1.703442895152739722e-01 5.112636370522391189e+02
1.704443155220357331e-01 5.112653305212283499e+02
1.705443415287974662e-01 5.112670614328233114e+02
1.706443675355592549e-01 5.112688297249541165e+02
1.707443935423209880e-01 5.112706353343626233e+02
1.708444195490827489e-01 5.112724781966066416e+02
1.709444455558445097e-01 5.112743582460560106e+02
1.710444715626062706e-01 5.112762754158990219e+02
1.711444975693680037e-01 5.112782296381381570e+02
1.712445235761297924e-01 5.112802208435953162e+02
1.713445495828915255e-01 5.112822489619106250e+02
1.714445755896533141e-01 5.112843139215445945e+02
1.715446015964150472e-01 5.112864156497786325e+02
1.716446276031768359e-01 5.112885540727156695e+02
1.717446536099385690e-01 5.112907291152833977e+02
1.718446796167003299e-01 5.112929407012339311e+02
1.719447056234620907e-01 5.112951887531455668e+02
1.720447316302238516e-01 5.112974731924244338e+02
1.721447576369855847e-01 5.112997939393056868e+02
1.722447836437473734e-01 5.113021509128542448e+02
1.723448096505091065e-01 5.113045440309680885e+02
1.724448356572708674e-01 5.113069732103785441e+02
1.725448616640326560e-01 5.113094383666518752e+02
1.726448876707943891e-01 5.113119394141909311e+02
1.727449136775561778e-01 5.113144762662369089e+02
1.728449396843179109e-01 5.113170488348720255e+02
1.729449656910796995e-01 5.113196570310201423e+02
1.730449916978414326e-01 5.113223007644484142e+02
1.731450177046031935e-01 5.113249799437697902e+02
1.732450437113649544e-01 5.113276944764451173e+02
1.733450697181267153e-01 5.113304442687840492e+02
1.734450957248884484e-01 5.113332292259477754e+02
1.735451217316502370e-01 5.113360492519517493e+02
1.736451477384119702e-01 5.113389042496651200e+02
1.737451737451737310e-01 5.113417941208164166e+02
1.738451997519354919e-01 5.113447187659925248e+02
1.739452257586972528e-01 5.113476780846430643e+02
1.740452517654589859e-01 5.113506719750814682e+02
1.741452777722207745e-01 5.113537003344868026e+02
1.742453037789825077e-01 5.113567630589088253e+02
1.743453297857442963e-01 5.113598600432657122e+02
1.744453557925060294e-01 5.113629911813500826e+02
1.745453817992678180e-01 5.113661563658318983e+02
1.746454078060295512e-01 5.113693554882567014e+02
1.747454338127913120e-01 5.113725884390531178e+02
1.748454598195530729e-01 5.113758551075317200e+02
1.749454858263148338e-01 5.113791553818892908e+02
1.750455118330765669e-01 5.113824891492128017e+02
1.751455378398383556e-01 5.113858562954773106e+02
1.752455638466001164e-01 5.113892567055549421e+02
1.753455898533618496e-01 5.113926902632130123e+02
1.754456158601236382e-01 5.113961568511188602e+02
1.755456418668853713e-01 5.113996563508421787e+02
1.756456678736471599e-01 5.114031886428574580e+02
1.757456938804088931e-01 5.114067536065479089e+02
1.758457198871706817e-01 5.114103511202080199e+02
1.759457458939324148e-01 5.114139810610454333e+02
1.760457719006941757e-01 5.114176433051869708e+02
1.761457979074559366e-01 5.114213377276782921e+02
1.762458239142176974e-01 5.114250642024881586e+02
1.763458499209794306e-01 5.114288226025130371e+02
1.764458759277412192e-01 5.114326127995788625e+02
1.765459019345029523e-01 5.114364346644440502e+02
1.766459279412647132e-01 5.114402880668042144e+02
1.767459539480264741e-01 5.114441728752937024e+02
1.768459799547882350e-01 5.114480889574911089e+02
1.769460059615499681e-01 5.114520361799205830e+02
1.770460319683117567e-01 5.114560144080564896e+02
1.771460579750734898e-01 5.114600235063260811e+02
1.772460839818352785e-01 5.114640633381140447e+02
1.773461099885970116e-01 5.114681337657656286e+02
1.774461359953588002e-01 5.114722346505906216e+02
1.775461620021205333e-01 5.114763658528647738e+02
1.776461880088822942e-01 5.114805272318366178e+02
1.777462140156440551e-01 5.114847186457304815e+02
1.778462400224058160e-01 5.114889399517479660e+02
1.779462660291675768e-01 5.114931910060740847e+02
1.780462920359293377e-01 5.114974716638815835e+02
1.781463180426910986e-01 5.115017817793312247e+02
1.782463440494528317e-01 5.115061212055804276e+02
1.783463700562146204e-01 5.115104897947827567e+02
1.784463960629763535e-01 5.115148873980965618e+02
1.785464220697381421e-01 5.115193138656847509e+02
1.786464480764998752e-01 5.115237690467212701e+02
1.787464740832616639e-01 5.115282527893941733e+02
1.788465000900233970e-01 5.115327649409105106e+02
1.789465260967851579e-01 5.115373053475008760e+02
1.790465521035469187e-01 5.115418738544213966e+02
1.791465781103086796e-01 5.115464703059609519e+02
1.792466041170704127e-01 5.115510945454429930e+02
1.793466301238322014e-01 5.115557464152320222e+02
1.794466561305939345e-01 5.115604257567363220e+02
1.795466821373556954e-01 5.115651324104128435e+02
1.796467081441174563e-01 5.115698662157724925e+02
1.797467341508792171e-01 5.115746270113825744e+02
1.798467601576409503e-01 5.115794146348737286e+02
1.799467861644027389e-01 5.115842289229426569e+02
1.800468121711644720e-01 5.115890697113587748e+02
1.801468381779262606e-01 5.115939368349654615e+02
1.802468641846879938e-01 5.115988301276890979e+02
1.803468901914497824e-01 5.116037494225392948e+02
1.804469161982115155e-01 5.116086945516168498e+02
1.805469422049732764e-01 5.116136653461182959e+02
1.806469682117350650e-01 5.116186616363385156e+02
1.807469942184967981e-01 5.116236832516768800e+02
1.808470202252585590e-01 5.116287300206431610e+02
1.809470462320203199e-01 5.116338017708618509e+02
1.810470722387820808e-01 5.116388983290748911e+02
1.811470982455438139e-01 5.116440195211503692e+02
1.812471242523056025e-01 5.116491651720849632e+02
1.813471502590673357e-01 5.116543351060098530e+02
1.814471762658291243e-01 5.116595291461956663e+02
1.815472022725908574e-01 5.116647471150572528e+02
1.816472282793526460e-01 5.116699888341601081e+02
1.817472542861143792e-01 5.116752541242242955e+02
1.818472802928761400e-01 5.116805428051297895e+02
1.819473062996379009e-01 5.116858546959225009e+02
1.820473323063996618e-01 5.116911896148187111e+02
1.821473583131613949e-01 5.116965473792108128e+02
1.822473843199231835e-01 5.117019278056731082e+02
1.823474103266849167e-01 5.117073307099665271e+02
1.824474363334466775e-01 5.117127559070437997e+02
1.825474623402084384e-01 5.117182032110562204e+02
1.826474883469701993e-01 5.117236724353576278e+02
1.827475143537319324e-01 5.117291633925110546e+02
1.828475403604937211e-01 5.117346758942937299e+02
1.829475663672554542e-01 5.117402097517024231e+02
1.830475923740172428e-01 5.117457647749603211e+02
1.831476183807789759e-01 5.117513407735210080e+02
1.832476443875407646e-01 5.117569375560753997e+02
1.833476703943025254e-01 5.117625549305565755e+02
1.834476964010642586e-01 5.117681927041454628e+02
1.835477224078260472e-01 5.117738506832793064e+02
1.836477484145877803e-01 5.117795286736532034e+02
1.837477744213495412e-01 5.117852264802284026e+02
1.838478004281113021e-01 5.117909439072384430e+02
1.839478264348730630e-01 5.117966807581934177e+02
1.840478524416347961e-01 5.118024368358881588e+02
1.841478784483965847e-01 5.118082119424062171e+02
1.842479044551583178e-01 5.118140058791258866e+02
1.843479304619201065e-01 5.118198184467286751e+02
1.844479564686818396e-01 5.118256494452018615e+02
1.845479824754436282e-01 5.118314986738473635e+02
1.846480084822053613e-01 5.118373659312866266e+02
1.847480344889671222e-01 5.118432510154660235e+02
1.848480604957288831e-01 5.118491537236654381e+02
1.849480865024906440e-01 5.118550738525016186e+02
1.850481125092523771e-01 5.118610111979363637e+02
1.851481385160141657e-01 5.118669655552819222e+02
1.852481645227758988e-01 5.118729367192078712e+02
1.853481905295376597e-01 5.118789244837468004e+02
1.854482165362994206e-01 5.118849286422999398e+02
1.855482425430611815e-01 5.118909489876467092e+02
1.856482685498229146e-01 5.118969853119454569e+02
1.857482945565847032e-01 5.119030374067469893e+02
1.858483205633464364e-01 5.119091050629946267e+02
1.859483465701082250e-01 5.119151880710342652e+02
1.860483725768699859e-01 5.119212862206202885e+02
1.861483985836317467e-01 5.119273993009209107e+02
1.862484245903935076e-01 5.119335271005256232e+02
1.863484505971552407e-01 5.119396694074520155e+02
1.864484766039170294e-01 5.119458260091523698e+02
1.865485026106787625e-01 5.119519966925192307e+02
1.866485286174405234e-01 5.119581812438929660e+02
1.867485546242022842e-01 5.119643794490681898e+02
1.868485806309640451e-01 5.119705910933007544e+02
1.869486066377257782e-01 5.119768159613131502e+02
1.870486326444875669e-01 5.119830538373037712e+02
1.871486586512493000e-01 5.119893045049516331e+02
1.872486846580110886e-01 5.119955677474231379e+02
1.873487106647728218e-01 5.120018433473799178e+02
1.874487366715346104e-01 5.120081310869849176e+02
1.875487626782963435e-01 5.120144307479102963e+02
1.876487886850581044e-01 5.120207421113425426e+02
1.877488146918198653e-01 5.120270649579911151e+02
1.878488406985816261e-01 5.120333990680945817e+02
1.879488667053433593e-01 5.120397442214265311e+02
1.880488927121051479e-01 5.120461001973054636e+02
1.881489187188668810e-01 5.120524667745980878e+02
1.882489447256286419e-01 5.120588437317292119e+02
1.883489707323904028e-01 5.120652308466877685e+02
1.884489967391521636e-01 5.120716278970327267e+02
1.885490227459138968e-01 5.120780346599027553e+02
1.886490487526756854e-01 5.120844509120215662e+02
1.887490747594374740e-01 5.120908764297037123e+02
1.888491007661992072e-01 5.120973109888650470e+02
1.889491267729609680e-01 5.121037543650265889e+02
1.890491527797227289e-01 5.121102063333248680e+02
1.891491787864844898e-01 5.121166666685160180e+02
1.892492047932462229e-01 5.121231351449849853e+02
1.893492308000080115e-01 5.121296115367522361e+02
1.894492568067697447e-01 5.121360956174805779e+02
1.895492828135315055e-01 5.121425871604828899e+02
1.896493088202932664e-01 5.121490859387293995e+02
1.897493348270550273e-01 5.121555917248547303e+02
1.898493608338167604e-01 5.121621042911650648e+02
1.899493868405785491e-01 5.121686234096465569e+02
1.900494128473402822e-01 5.121751488519705617e+02
1.901494388541020708e-01 5.121816803895035264e+02
1.902494648608638039e-01 5.121882177933127878e+02
1.903494908676255926e-01 5.121947608341730529e+02
1.904495168743873257e-01 5.122013092825769718e+02
1.905495428811490866e-01 5.122078629087399122e+02
1.906495688879108474e-01 5.122144214826072357e+02
1.907495948946726083e-01 5.122209847738637336e+02
1.908496209014343414e-01 5.122275525519399935e+02
1.909496469081961301e-01 5.122341245860188792e+02
1.910496729149578632e-01 5.122407006450451945e+02
1.911496989217196241e-01 5.122472804977309124e+02
1.912497249284813849e-01 5.122538639125648388e+02
1.913497509352431458e-01 5.122604506578184100e+02
1.914497769420049345e-01 5.122670405015547885e+02
1.915498029487666676e-01 5.122736332116345466e+02
1.916498289555284562e-01 5.122802285557246478e+02
1.917498549622901893e-01 5.122868263013062915e+02
1.918498809690519502e-01 5.122934262156812792e+02
1.919499069758137111e-01 5.123000280659798591e+02
1.920499329825754720e-01 5.123066316191697069e+02
1.921499589893372051e-01 5.123132366420621793e+02
1.922499849960989937e-01 5.123198429013198165e+02
1.923500110028607268e-01 5.123264501634654380e+02
1.924500370096224877e-01 5.123330581948875988e+02
1.925500630163842486e-01 5.123396667618512765e+02
1.926500890231460095e-01 5.123462756305026460e+02
1.927501150299077426e-01 5.123528845668777194e+02
1.928501410366695312e-01 5.123594933369128057e+02
1.929501670434312643e-01 5.123661017064454199e+02
1.930501930501930530e-01 5.123727094412296310e+02
1.931502190569547861e-01 5.123793163069395860e+02
1.932502450637165747e-01 5.123859220691783776e+02
1.933502710704783079e-01 5.123925264934841834e+02
1.934502970772400687e-01 5.123991293453409526e+02
1.935503230840018296e-01 5.124057303901844307e+02
1.936503490907635905e-01 5.124123293934089816e+02
1.937503750975253236e-01 5.124189261203772503e+02
1.938504011042871122e-01 5.124255203364261888e+02
1.939504271110488454e-01 5.124321118068780834e+02
1.940504531178106062e-01 5.124387002970439653e+02
1.941504791245723949e-01 5.124452855722337290e+02
1.942505051313341280e-01 5.124518673977647722e+02
1.943505311380959166e-01 5.124584455389669984e+02
1.944505571448576497e-01 5.124650197611941849e+02
1.945505831516194384e-01 5.124715898298294405e+02
1.946506091583811715e-01 5.124781555102933908e+02
1.947506351651429324e-01 5.124847165680514536e+02
1.948506611719046933e-01 5.124912727686236167e+02
1.949506871786664541e-01 5.124978238775905766e+02
1.950507131854281873e-01 5.125043696606021513e+02
1.951507391921899759e-01 5.125109098833844428e+02
1.952507651989517090e-01 5.125174443117487044e+02
1.953507912057134699e-01 5.125239727115994128e+02
1.954508172124752308e-01 5.125304948489404069e+02
1.955508432192369916e-01 5.125370104898839827e+02
1.956508692259987248e-01 5.125435194006590791e+02
1.957508952327605134e-01 5.125500213476175304e+02
1.958509212395222465e-01 5.125565160972441845e+02
1.959509472462840352e-01 5.125630034161625872e+02
1.960509732530457683e-01 5.125694830711446457e+02
1.961509992598075569e-01 5.125759548291159717e+02
1.962510252665692900e-01 5.125824184571680462e+02
1.963510512733310509e-01 5.125888737225604928e+02
1.964510772800928118e-01 5.125953203927334698e+02
1.965511032868545727e-01 5.126017582353140369e+02
1.966511292936163058e-01 5.126081870181232034e+02
1.967511553003780944e-01 5.126146065091845685e+02
1.968511813071398553e-01 5.126210164767315973e+02
1.969512073139015884e-01 5.126274166892162611e+02
1.970512333206633770e-01 5.126338069153173365e+02
1.971512593274251102e-01 5.126401869239463167e+02
1.972512853341868988e-01 5.126465564842562799e+02
1.973513113409486319e-01 5.126529153656499602e+02
1.974513373477104206e-01 5.126592633377879338e+02
1.975513633544721537e-01 5.126656001705949848e+02
1.976513893612339146e-01 5.126719256342694280e+02
1.977514153679956754e-01 5.126782394992903846e+02
1.978514413747574363e-01 5.126845415364247174e+02
1.979514673815191694e-01 5.126908315167361252e+02
1.980514933882809581e-01 5.126971092115934425e+02
1.981515193950426912e-01 5.127033743926751868e+02
1.982515454018044521e-01 5.127096268319817227e+02
1.983515714085662129e-01 5.127158663018400375e+02
1.984515974153279738e-01 5.127220925749122671e+02
1.985516234220897069e-01 5.127283054242030857e+02
1.986516494288514956e-01 5.127345046230692560e+02
1.987516754356132287e-01 5.127406899452258813e+02
1.988517014423750173e-01 5.127468611647529997e+02
1.989517274491367504e-01 5.127530180561060433e+02
1.990517534558985391e-01 5.127591603941211815e+02
1.991517794626602722e-01 5.127652879540249842e+02
1.992518054694220331e-01 5.127714005114412430e+02
1.993518314761837940e-01 5.127774978423973380e+02
1.994518574829455548e-01 5.127835797233341282e+02
1.995518834897073157e-01 5.127896459311130002e+02
1.996519094964690766e-01 5.127956962430229169e+02
1.997519355032308375e-01 5.128017304367884890e+02
1.998519615099925706e-01 5.128077482905771376e+02
1.999519875167543592e-01 5.128137495830076205e+02
2.000520135235160923e-01 5.128197340931571944e+02
2.001520395302778810e-01 5.128257016005690048e+02
2.002520655370396141e-01 5.128316518852600439e+02
2.003520915438014027e-01 5.128375847277285402e+02
2.004521175505631359e-01 5.128434999089618032e+02
2.005521435573248967e-01 5.128493972104439536e+02
2.006521695640866576e-01 5.128552764141614944e+02
2.007521955708484185e-01 5.128611373026146794e+02
2.008522215776101516e-01 5.128669796588217196e+02
2.009522475843719402e-01 5.128728032663274234e+02
2.010522735911336734e-01 5.128786079092107002e+02
2.011522995978954342e-01 5.128843933720921768e+02
2.012523256046571951e-01 5.128901594401426109e+02
2.013523516114189560e-01 5.128959058990872109e+02
2.014523776181806891e-01 5.129016325352164358e+02
2.015524036249424777e-01 5.129073391353923626e+02
2.016524296317042109e-01 5.129130254870550516e+02
2.017524556384659995e-01 5.129186913782313013e+02
2.018524816452277326e-01 5.129243365975411280e+02
2.019525076519895213e-01 5.129299609342065196e+02
2.020525336587512544e-01 5.129355641780562109e+02
2.021525596655130153e-01 5.129411461195362563e+02
2.022525856722748039e-01 5.129467065497141220e+02
2.023526116790365370e-01 5.129522452602881231e+02
2.024526376857982979e-01 5.129577620435942436e+02
2.025526636925600588e-01 5.129632566926134132e+02
2.026526896993218196e-01 5.129687290009785556e+02
2.027527157060835528e-01 5.129741787629807277e+02
2.028527417128453414e-01 5.129796057735787826e+02
2.029527677196070745e-01 5.129850098284041451e+02
2.030527937263688631e-01 5.129903907237705880e+02
2.031528197331305963e-01 5.129957482566783256e+02
2.032528457398923849e-01 5.130010822248229942e+02
2.033528717466541180e-01 5.130063924266025879e+02
2.034528977534158789e-01 5.130116786611241650e+02
2.035529237601776398e-01 5.130169407282114662e+02
2.036529497669394007e-01 5.130221784284112800e+02
2.037529757737011338e-01 5.130273915630006059e+02
2.038530017804629224e-01 5.130325799339942705e+02
2.039530277872246555e-01 5.130377433441509538e+02
2.040530537939864164e-01 5.130428815969812604e+02
2.041530798007481773e-01 5.130479944967534038e+02
2.042531058075099382e-01 5.130530818485008240e+02
2.043531318142716713e-01 5.130581434580291216e+02
2.044531578210334599e-01 5.130631791319229933e+02
2.045531838277951930e-01 5.130681886775531666e+02
2.046532098345569817e-01 5.130731719030820841e+02
2.047532358413187148e-01 5.130781286174708384e+02
2.048532618480805034e-01 5.130830586304892904e+02
2.049532878548422643e-01 5.130879617527178880e+02
2.050533138616039974e-01 5.130928377955572159e+02
2.051533398683657861e-01 5.130976865712340214e+02
2.052533658751275192e-01 5.131025078928093990e+02
2.053533918818892801e-01 5.131073015741803829e+02
2.054534178886510409e-01 5.131120674300947258e+02
2.055534438954128018e-01 5.131168052761505578e+02
2.056534699021745349e-01 5.131215149288050270e+02
2.057534959089363236e-01 5.131261962053819161e+02
2.058535219156980567e-01 5.131308489240774406e+02
2.059535479224598453e-01 5.131354729039661606e+02
2.060535739292215784e-01 5.131400679650087113e+02
2.061535999359833671e-01 5.131446339280566917e+02
2.062536259427451002e-01 5.131491706148606227e+02
2.063536519495068611e-01 5.131536778480754037e+02
2.064536779562686220e-01 5.131581554512661114e+02
2.065537039630303828e-01 5.131626032489155023e+02
2.066537299697921160e-01 5.131670210664300384e+02
2.067537559765539046e-01 5.131714087301459131e+02
2.068537819833156377e-01 5.131757660673346209e+02
2.069538079900773986e-01 5.131800929062103478e+02
2.070538339968391595e-01 5.131843890759361102e+02
2.071538600036009203e-01 5.131886544066284159e+02
2.072538860103626535e-01 5.131928887293643129e+02
2.073539120171244421e-01 5.131970918761891198e+02
2.074539380238861752e-01 5.132012636801188137e+02
2.075539640306479638e-01 5.132054039751494656e+02
2.076539900374097247e-01 5.132095125962613338e+02
2.077540160441714856e-01 5.132135893794255708e+02
2.078540420509332465e-01 5.132176341616088848e+02
2.079540680576949796e-01 5.132216467807825211e+02
2.080540940644567682e-01 5.132256270759243080e+02
2.081541200712185014e-01 5.132295748870265015e+02
2.082541460779802622e-01 5.132334900551027204e+02
2.083541720847420231e-01 5.132373724221899920e+02
2.084541980915037840e-01 5.132412218313589847e+02
2.085542240982655171e-01 5.132450381267155990e+02
2.086542501050273057e-01 5.132488211534105176e+02
2.087542761117890389e-01 5.132525707576403420e+02
2.088543021185508275e-01 5.132562867866583929e+02
2.089543281253125606e-01 5.132599690887760744e+02
2.090543541320743492e-01 5.132636175133700362e+02
2.091543801388360824e-01 5.132672319108871761e+02
2.092544061455978432e-01 5.132708121328512334e+02
2.093544321523596041e-01 5.132743580318672230e+02
2.094544581591213650e-01 5.132778694616263238e+02
2.095544841658830981e-01 5.132813462769129274e+02
2.096545101726448868e-01 5.132847883336085033e+02
2.097545361794066199e-01 5.132881954886967151e+02
2.098545621861683808e-01 5.132915676002694454e+02
2.099545881929301416e-01 5.132949045275333901e+02
2.100546141996919025e-01 5.132982061308109678e+02
2.101546402064536356e-01 5.133014722715506650e+02
2.102546662132154243e-01 5.133047028123277187e+02
2.103546922199772129e-01 5.133078976168521876e+02
2.104547182267389460e-01 5.133110565499721361e+02
2.105547442335007069e-01 5.133141794776798861e+02
2.106547702402624678e-01 5.133172662671159969e+02
2.107547962470242287e-01 5.133203167865747218e+02
2.108548222537859618e-01 5.133233309055082145e+02
2.109548482605477504e-01 5.133263084945332366e+02
2.110548742673094835e-01 5.133292494254327494e+02
2.111549002740712444e-01 5.133321535711638717e+02
2.112549262808330053e-01 5.133350208058606086e+02
2.113549522875947662e-01 5.133378510048394219e+02
2.114549782943564993e-01 5.133406440446030956e+02
2.115550043011182879e-01 5.133433998028466476e+02
2.116550303078800210e-01 5.133461181584598307e+02
2.117550563146418097e-01 5.133487989915333856e+02
2.118550823214035428e-01 5.133514421833642700e+02
2.119551083281653314e-01 5.133540476164566826e+02
2.120551343349270645e-01 5.133566151745300203e+02
2.121551603416888254e-01 5.133591447425211527e+02
2.122551863484505863e-01 5.133616362065902194e+02
2.123552123552123472e-01 5.133640894541226771e+02
2.124552383619740803e-01 5.133665043737361202e+02
2.125552643687358689e-01 5.133688808552828959e+02
2.126552903754976021e-01 5.133712187898545380e+02
2.127553163822593629e-01 5.133735180697860869e+02
2.128553423890211238e-01 5.133757785886596139e+02
2.129553683957828847e-01 5.133780002413104739e+02
2.130553944025446733e-01 5.133801829238263963e+02
2.131554204093064064e-01 5.133823265335569204e+02
2.132554464160681951e-01 5.133844309691139642e+02
2.133554724228299282e-01 5.133864961303767132e+02
2.134554984295916891e-01 5.133885219184959396e+02
2.135555244363534499e-01 5.133905082358951404e+02
2.136555504431152108e-01 5.133924549862792901e+02
2.137555764498769439e-01 5.133943620746330225e+02
2.138556024566387326e-01 5.133962294072281338e+02
2.139556284634004657e-01 5.133980568916241509e+02
2.140556544701622266e-01 5.133998444366756075e+02
2.141556804769239875e-01 5.134015919525321578e+02
2.142557064836857483e-01 5.134032993506433513e+02
2.143557324904474815e-01 5.134049665437624981e+02
2.144557584972092701e-01 5.134065934459492837e+02
2.145557845039710032e-01 5.134081799725737483e+02
2.146558105107327918e-01 5.134097260403184464e+02
2.147558365174945250e-01 5.134112315671832221e+02
2.148558625242563136e-01 5.134126964724872551e+02
2.149558885310180467e-01 5.134141206768730399e+02
2.150559145377798076e-01 5.134155041023080912e+02
2.151559405445415685e-01 5.134168466720900597e+02
2.152559665513033293e-01 5.134181483108479824e+02
2.153559925580650625e-01 5.134194089445461486e+02
2.154560185648268511e-01 5.134206285004861456e+02
2.155560445715885842e-01 5.134218069073114066e+02
2.156560705783503451e-01 5.134229440950080061e+02
2.157560965851121337e-01 5.134240399949093216e+02
2.158561225918738669e-01 5.134250945396976249e+02
2.159561485986356555e-01 5.134261076634059009e+02
2.160561746053973886e-01 5.134270793014241008e+02
2.161562006121591772e-01 5.134280093904968680e+02
2.162562266189209104e-01 5.134288978687292229e+02
2.163562526256826712e-01 5.134297446755890633e+02
2.164562786324444321e-01 5.134305497519079609e+02
2.165563046392061930e-01 5.134313130398843441e+02
2.166563306459679261e-01 5.134320344830878184e+02
2.167563566527297148e-01 5.134327140264578020e+02
2.168563826594914479e-01 5.134333516163079594e+02
2.169564086662532088e-01 5.134339472003284754e+02
2.170564346730149696e-01 5.134345007275881017e+02
2.171564606797767305e-01 5.134350121485357477e+02
2.172564866865384636e-01 5.134354814150028687e+02
2.173565126933002523e-01 5.134359084802056259e+02
2.174565387000619854e-01 5.134362932987467047e+02
2.175565647068237740e-01 5.134366358266172483e+02
2.176565907135855071e-01 5.134369360211992444e+02
2.177566167203472958e-01 5.134371938412658665e+02
2.178566427271090289e-01 5.134374092469851121e+02
2.179566687338707898e-01 5.134375821999211666e+02
2.180566947406325506e-01 5.134377126630342900e+02
2.181567207473943115e-01 5.134378006006847954e+02
2.182567467541560446e-01 5.134378459786337316e+02
2.183567727609178333e-01 5.134378487640436788e+02
2.184567987676795942e-01 5.134378089254817041e+02
2.185568247744413273e-01 5.134377264329197033e+02
2.186568507812031159e-01 5.134376012577358779e+02
2.187568767879648490e-01 5.134374333727170097e+02
2.188569027947266377e-01 5.134372227520584602e+02
2.189569288014883708e-01 5.134369693713664446e+02
2.190569548082501594e-01 5.134366732076586004e+02
2.191569808150118925e-01 5.134363342393660332e+02
2.192570068217736534e-01 5.134359524463321804e+02
2.193570328285354143e-01 5.134355278098173585e+02
2.194570588352971752e-01 5.134350603124976260e+02
2.195570848420589083e-01 5.134345499384643290e+02
2.196571108488206969e-01 5.134339966732279663e+02
2.197571368555824300e-01 5.134334005037179622e+02
2.198571628623441909e-01 5.134327614182824391e+02
2.199571888691059518e-01 5.134320794066903773e+02
2.200572148758677127e-01 5.134313544601311605e+02
2.201572408826294458e-01 5.134305865712165087e+02
2.202572668893912344e-01 5.134297757339794543e+02
2.203572928961529676e-01 5.134289219438772989e+02
2.204573189029147562e-01 5.134280251977886564e+02
2.205573449096764893e-01 5.134270854940172057e+02
2.206573709164382779e-01 5.134261028322912352e+02
2.207573969232000111e-01 5.134250772137613694e+02
2.208574229299617719e-01 5.134240086410056847e+02
2.209574489367235328e-01 5.134228971180252756e+02
2.210574749434852937e-01 5.134217426502477792e+02
2.211575009502470546e-01 5.134205452445253286e+02
2.212575269570088154e-01 5.134193049091363719e+02
2.213575529637705763e-01 5.134180216537841943e+02
2.214575789705323094e-01 5.134166954895987374e+02
2.215576049772940981e-01 5.134153264291335290e+02
2.216576309840558312e-01 5.134139144863703450e+02
2.217576569908176198e-01 5.134124596767135245e+02
2.218576829975793530e-01 5.134109620169937216e+02
2.219577090043411416e-01 5.134094215254660867e+02
2.220577350111028747e-01 5.134078382218114029e+02
2.221577610178646356e-01 5.134062121271333581e+02
2.222577870246263965e-01 5.134045432639592264e+02
2.223578130313881573e-01 5.134028316562408918e+02
2.224578390381498905e-01 5.134010773293517786e+02
2.225578650449116791e-01 5.133992803100886704e+02
2.226578910516734122e-01 5.133974406266695496e+02
2.227579170584351731e-01 5.133955583087328023e+02
2.228579430651969340e-01 5.133936333873383546e+02
2.229579690719586949e-01 5.133916658949639213e+02
2.230579950787204280e-01 5.133896558655083027e+02
2.231580210854822166e-01 5.133876033342859273e+02
2.232580470922439497e-01 5.133855083380294673e+02
2.233580730990057384e-01 5.133833709148875641e+02
2.234580991057674715e-01 5.133811911044234648e+02
2.235581251125292601e-01 5.133789689476144531e+02
2.236581511192909932e-01 5.133767044868509402e+02
2.237581771260527541e-01 5.133743977659346456e+02
2.238582031328145427e-01 5.133720488300782563e+02
2.239582291395762759e-01 5.133696577259029254e+02
2.240582551463380367e-01 5.133672245014384998e+02
2.241582811530997976e-01 5.133647492061206776e+02
2.242583071598615585e-01 5.133622318907903264e+02
2.243583331666232916e-01 5.133596726076931418e+02
2.244583591733850803e-01 5.133570714104757826e+02
2.245583851801468134e-01 5.133544283541856430e+02
2.246584111869086020e-01 5.133517434952688063e+02
2.247584371936703351e-01 5.133490168915697041e+02
2.248584632004321238e-01 5.133462486023275915e+02
2.249584892071938569e-01 5.133434386881759792e+02
2.250585152139556178e-01 5.133405872111401322e+02
2.251585412207173786e-01 5.133376942346351370e+02
2.252585672274791395e-01 5.133347598234654470e+02
2.253585932342408726e-01 5.133317840438203348e+02
2.254586192410026613e-01 5.133287669632742336e+02
2.255586452477643944e-01 5.133257086507840086e+02
2.256586712545261553e-01 5.133226091766857735e+02
2.257586972612879161e-01 5.133194686126945498e+02
2.258587232680496770e-01 5.133162870319005151e+02
2.259587492748114101e-01 5.133130645087669564e+02
2.260587752815731988e-01 5.133098011191289061e+02
2.261588012883349319e-01 5.133064969401900726e+02
2.262588272950967205e-01 5.133031520505210210e+02
2.263588533018584537e-01 5.132997665300546259e+02
2.264588793086202423e-01 5.132963404600872082e+02
2.265589053153820032e-01 5.132928739232721682e+02
2.266589313221437363e-01 5.132893670036207823e+02
2.267589573289055249e-01 5.132858197864959493e+02
2.268589833356672580e-01 5.132822323586144648e+02
2.269590093424290189e-01 5.132786048080376986e+02
2.270590353491907798e-01 5.132749372241745505e+02
2.271590613559525407e-01 5.132712296977765618e+02
2.272590873627142738e-01 5.132674823209333681e+02
2.273591133694760624e-01 5.132636951870722442e+02
2.274591393762377955e-01 5.132598683909540114e+02
2.275591653829995842e-01 5.132560020286705367e+02
2.276591913897613173e-01 5.132520961976399576e+02
2.277592173965231059e-01 5.132481509966052045e+02
2.278592434032848391e-01 5.132441665256316128e+02
2.279592694100465999e-01 5.132401428861008981e+02
2.280592954168083608e-01 5.132360801807100188e+02
2.281593214235701217e-01 5.132319785134669701e+02
2.282593474303318548e-01 5.132278379896877141e+02
2.283593734370936434e-01 5.132236587159944747e+02
2.284593994438553766e-01 5.132194408003070976e+02
2.285594254506171374e-01 5.132151843518452097e+02
2.286594514573788983e-01 5.132108894811228765e+02
2.287594774641406592e-01 5.132065562999421218e+02
2.288595034709023923e-01 5.132021849213940641e+02
2.289595294776641810e-01 5.131977754598514139e+02
2.290595554844259141e-01 5.131933280309658585e+02
2.291595814911877027e-01 5.131888427516655611e+02
2.292596074979494636e-01 5.131843197401493626e+02
2.293596335047112245e-01 5.131797591158839396e+02
2.294596595114729853e-01 5.131751609996000525e+02
2.295596855182347185e-01 5.131705255132868615e+02
2.296597115249965071e-01 5.131658527801904484e+02
2.297597375317582402e-01 5.131611429248088143e+02
2.298597635385200011e-01 5.131563960728857410e+02
2.299597895452817620e-01 5.131516123514096535e+02
2.300598155520435228e-01 5.131467918886071402e+02
2.301598415588052560e-01 5.131419348139405656e+02
2.302598675655670446e-01 5.131370412581015898e+02
2.303598935723287777e-01 5.131321113530090088e+02
2.304599195790905664e-01 5.131271452318026149e+02
2.305599455858522995e-01 5.131221430288401280e+02
2.306599715926140881e-01 5.131171048796909417e+02
2.307599975993758212e-01 5.131120309211339645e+02
2.308600236061375821e-01 5.131069212911512523e+02
2.309600496128993430e-01 5.131017761289234613e+02
2.310600756196611039e-01 5.130965955748262104e+02
2.311601016264228370e-01 5.130913797704246235e+02
2.312601276331846256e-01 5.130861288584686690e+02
2.313601536399463587e-01 5.130808429828880435e+02
2.314601796467081196e-01 5.130755222887886475e+02
2.315602056534698805e-01 5.130701669224458783e+02
2.316602316602316414e-01 5.130647770313005367e+02
2.317602576669933745e-01 5.130593527639550757e+02
2.318602836737551631e-01 5.130538942701660972e+02
2.319603096805169518e-01 5.130484017008413957e+02
2.320603356872786849e-01 5.130428752080331378e+02
2.321603616940404458e-01 5.130373149449349057e+02
2.322603877008022066e-01 5.130317210658741942e+02
2.323604137075639675e-01 5.130260937263090000e+02
2.324604397143257006e-01 5.130204330828215689e+02
2.325604657210874893e-01 5.130147392931130526e+02
2.326604917278492224e-01 5.130090125159980516e+02
2.327605177346109833e-01 5.130032529114012050e+02
2.328605437413727441e-01 5.129974606403485495e+02
2.329605697481345050e-01 5.129916358649641097e+02
2.330605957548962381e-01 5.129857787484644405e+02
2.331606217616580268e-01 5.129798894551512376e+02
2.332606477684197599e-01 5.129739681504087230e+02
2.333606737751815485e-01 5.129680150006952317e+02
2.334606997819432816e-01 5.129620301735386647e+02
2.335607257887050703e-01 5.129560138375317138e+02
2.336607517954668034e-01 5.129499661623235625e+02
2.337607778022285643e-01 5.129438873186173851e+02
2.338608038089903252e-01 5.129377774781613653e+02
2.339608298157520860e-01 5.129316368137455129e+02
2.340608558225138192e-01 5.129254654991929101e+02
2.341608818292756078e-01 5.129192637093563008e+02
2.342609078360373409e-01 5.129130316201122923e+02
2.343609338427991018e-01 5.129067694083519200e+02
2.344609598495608627e-01 5.129004772519781454e+02
2.345609858563226235e-01 5.128941553298984672e+02
2.346610118630844122e-01 5.128878038220184408e+02
2.347610378698461453e-01 5.128814229092358801e+02
2.348610638766079339e-01 5.128750127734344915e+02
2.349610898833696671e-01 5.128685735974780755e+02
2.350611158901314279e-01 5.128621055652032510e+02
2.351611418968931888e-01 5.128556088614149076e+02
2.352611679036549497e-01 5.128490836718771106e+02
2.353611939104166828e-01 5.128425301833093499e+02
2.354612199171784714e-01 5.128359485833794906e+02
2.355612459239402046e-01 5.128293390606953608e+02
2.356612719307019654e-01 5.128227018048009995e+02
2.357612979374637263e-01 5.128160370061686990e+02
2.358613239442254872e-01 5.128093448561917285e+02
2.359613499509872203e-01 5.128026255471796730e+02
2.360613759577490089e-01 5.127958792723502484e+02
2.361614019645107421e-01 5.127891062258227066e+02
2.362614279712725307e-01 5.127823066026128345e+02
2.363614539780342638e-01 5.127754805986232896e+02
2.364614799847960525e-01 5.127686284106389394e+02
2.365615059915577856e-01 5.127617502363201538e+02
2.366615319983195465e-01 5.127548462741940511e+02
2.367615580050813073e-01 5.127479167236508601e+02
2.368615840118430682e-01 5.127409617849326651e+02
2.369616100186048013e-01 5.127339816591305635e+02
2.370616360253665900e-01 5.127269765481760260e+02
2.371616620321283231e-01 5.127199466548320288e+02
2.372616880388900840e-01 5.127128921826905525e+02
2.373617140456518726e-01 5.127058133361598493e+02
2.374617400524136057e-01 5.126987103204626237e+02
2.375617660591753943e-01 5.126915833416251189e+02
2.376617920659371275e-01 5.126844326064722281e+02
2.377618180726989161e-01 5.126772583226191955e+02
2.378618440794606492e-01 5.126700606984643400e+02
2.379618700862224101e-01 5.126628399431823482e+02
2.380618960929841710e-01 5.126555962667165431e+02
2.381619220997459319e-01 5.126483298797732004e+02
2.382619481065076650e-01 5.126410409938105204e+02
2.383619741132694536e-01 5.126337298210344215e+02
2.384620001200311867e-01 5.126263965743920608e+02
2.385620261267929476e-01 5.126190414675594411e+02
2.386620521335547085e-01 5.126116647149389109e+02
2.387620781403164694e-01 5.126042665316507509e+02
2.388621041470782025e-01 5.125968471335228287e+02
2.389621301538399911e-01 5.125894067370860512e+02
2.390621561606017242e-01 5.125819455595659520e+02
2.391621821673635129e-01 5.125744638188743920e+02
2.392622081741252460e-01 5.125669617336027386e+02
2.393622341808870346e-01 5.125594395230141345e+02
2.394622601876487678e-01 5.125518974070361082e+02
2.395622861944105286e-01 5.125443356062505700e+02
2.396623122011722895e-01 5.125367543418901732e+02
2.397623382079340504e-01 5.125291538358270600e+02
2.398623642146957835e-01 5.125215343105668353e+02
2.399623902214575721e-01 5.125138959892398134e+02
