0.000000000000000000e+00 5.120510821861158774e+02
1.000220048410650341e-04 5.120591278547400407e+02
2.000440096821300682e-04 5.120671319918667450e+02
3.000660145231950752e-04 5.120750943054159734e+02
4.000880193642601364e-04 5.120830145044242272e+02
5.001100242053251434e-04 5.120908922990564633e+02
6.001320290463901504e-04 5.120987274006164398e+02
7.001540338874551574e-04 5.121065195215566064e+02
8.001760387285202728e-04 5.121142683754885638e+02
9.001980435695852798e-04 5.121219736771951148e+02
1.000220048410650287e-03 5.121296351426379942e+02
1.100242053251715294e-03 5.121372524889712849e+02
1.200264058092780301e-03 5.121448254345494888e+02
1.300286062933845308e-03 5.121523536989385548e+02
1.400308067774910315e-03 5.121598370029269063e+02
1.500330072615975322e-03 5.121672750685344226e+02
1.600352077457040546e-03 5.121746676190248309e+02
1.700374082298105553e-03 5.121820143789126405e+02
1.800396087139170560e-03 5.121893150739759903e+02
1.900418091980235567e-03 5.121965694312668802e+02
2.000440096821300574e-03 5.122037771791189016e+02
2.100462101662365581e-03 5.122109380471590612e+02
2.200484106503430588e-03 5.122180517663188084e+02
2.300506111344495595e-03 5.122251180688415388e+02
2.400528116185560602e-03 5.122321366882940765e+02
2.500550121026625609e-03 5.122391073595764510e+02
2.600572125867690616e-03 5.122460298189312198e+02
2.700594130708756056e-03 5.122529038039550642e+02
2.800616135549820630e-03 5.122597290536061791e+02
2.900638140390886070e-03 5.122665053082154145e+02
3.000660145231950644e-03 5.122732323094959384e+02
3.100682150073016084e-03 5.122799098005531278e+02
3.200704154914081091e-03 5.122865375258927543e+02
3.300726159755145665e-03 5.122931152314334895e+02
3.400748164596211105e-03 5.122996426645134989e+02
3.500770169437275679e-03 5.123061195739020377e+02
3.600792174278341119e-03 5.123125457098076367e+02
3.700814179119406126e-03 5.123189208238882202e+02
3.800836183960471133e-03 5.123252446692612239e+02
3.900858188801536140e-03 5.123315170005113259e+02
4.000880193642601147e-03 5.123377375737002239e+02
4.100902198483666154e-03 5.123439061463783446e+02
4.200924203324731161e-03 5.123500224775898459e+02
4.300946208165796168e-03 5.123560863278856914e+02
4.400968213006861175e-03 5.123620974593303572e+02
4.500990217847926182e-03 5.123680556355127464e+02
4.601012222688991189e-03 5.123739606215532376e+02
4.701034227530056196e-03 5.123798121841144848e+02
4.801056232371121203e-03 5.123856100914103990e+02
4.901078237212187078e-03 5.123913541132131968e+02
5.001100242053251217e-03 5.123970440208644277e+02
5.101122246894316224e-03 5.124026795872836146e+02
5.201144251735381231e-03 5.124082605869750751e+02
5.301166256576447106e-03 5.124137867960383801e+02
5.401188261417512113e-03 5.124192579921776769e+02
5.501210266258576252e-03 5.124246739547090783e+02
5.601232271099641259e-03 5.124300344645687346e+02
5.701254275940706266e-03 5.124353393043232927e+02
5.801276280781772141e-03 5.124405882581781952e+02
5.901298285622837148e-03 5.124457811119826829e+02
6.001320290463901287e-03 5.124509176532445736e+02
6.101342295304966294e-03 5.124559976711325362e+02
6.201364300146032169e-03 5.124610209564873458e+02
6.301386304987097176e-03 5.124659873018308645e+02
6.401408309828162183e-03 5.124708965013724082e+02
6.501430314669226322e-03 5.124757483510170459e+02
6.601452319510291329e-03 5.124805426483758310e+02
6.701474324351357204e-03 5.124852791927711451e+02
6.801496329192422211e-03 5.124899577852470429e+02
6.901518334033487218e-03 5.124945782285752784e+02
7.001540338874551357e-03 5.124991403272653088e+02
7.101562343715617232e-03 5.125036438875702061e+02
7.201584348556682239e-03 5.125080887174954114e+02
7.301606353397747246e-03 5.125124746268057834e+02
7.401628358238812253e-03 5.125168014270360572e+02
7.501650363079876392e-03 5.125210689314939145e+02
7.601672367920942266e-03 5.125252769552711243e+02
7.701694372762007273e-03 5.125294253152512738e+02
7.801716377603072280e-03 5.125335138301135203e+02
7.901738382444137287e-03 5.125375423203445280e+02
8.001760387285202294e-03 5.125415106082425609e+02
8.101782392126267301e-03 5.125454185179276010e+02
8.201804396967332308e-03 5.125492658753458954e+02
8.301826401808397315e-03 5.125530525082792792e+02
8.401848406649462322e-03 5.125567782463508593e+02
8.501870411490527329e-03 5.125604429210338822e+02
8.601892416331592336e-03 5.125640463656557131e+02
8.701914421172657343e-03 5.125675884154093183e+02
8.801936426013722350e-03 5.125710689073556523e+02
8.901958430854787357e-03 5.125744876804337764e+02
9.001980435695852364e-03 5.125778445754665427e+02
9.102002440536917371e-03 5.125811394351669605e+02
9.202024445377982378e-03 5.125843721041445633e+02
9.302046450219047385e-03 5.125875424289141620e+02
9.402068455060112392e-03 5.125906502579006201e+02
9.502090459901177399e-03 5.125936954414452202e+02
9.602112464742242406e-03 5.125966778318131674e+02
9.702134469583307413e-03 5.125995972832005236e+02
9.802156474424374155e-03 5.126024536517377328e+02
9.902178479265437427e-03 5.126052467954991698e+02
1.000220048410650243e-02 5.126079765745075747e+02
1.010222248894756918e-02 5.126106428507404189e+02
1.020224449378863245e-02 5.126132454881374088e+02
1.030226649862969746e-02 5.126157843526035549e+02
1.040228850347076246e-02 5.126182593120183810e+02
1.050231050831182747e-02 5.126206702362406986e+02
1.060233251315289421e-02 5.126230169971129271e+02
1.070235451799395748e-02 5.126252994684691657e+02
1.080237652283502423e-02 5.126275175261395134e+02
1.090239852767608750e-02 5.126296710479571175e+02
1.100242053251715250e-02 5.126317599137615844e+02
1.110244253735821925e-02 5.126337840054070512e+02
1.120246454219928252e-02 5.126357432067654827e+02
1.130248654704034753e-02 5.126376374037338337e+02
1.140250855188141253e-02 5.126394664842381417e+02
1.150253055672247754e-02 5.126412303382397795e+02
1.160255256156354428e-02 5.126429288577401167e+02
1.170257456640460755e-02 5.126445619367852942e+02
1.180259657124567430e-02 5.126461294714730457e+02
1.190261857608673930e-02 5.126476313599555397e+02
1.200264058092780257e-02 5.126490675024451775e+02
1.210266258576886932e-02 5.126504378012210736e+02
1.220268459060993259e-02 5.126517421606312155e+02
1.230270659545099760e-02 5.126529804870984890e+02
1.240272860029206434e-02 5.126541526891271587e+02
1.250275060513312761e-02 5.126552586773029816e+02
1.260277260997419435e-02 5.126562983643034386e+02
1.270279461481525762e-02 5.126572716648984169e+02
1.280281661965632437e-02 5.126581784959543029e+02
1.290283862449738937e-02 5.126590187764418260e+02
1.300286062933845264e-02 5.126597924274366278e+02
1.310288263417951939e-02 5.126604993721263099e+02
1.320290463902058266e-02 5.126611395358128220e+02
1.330292664386164767e-02 5.126617128459172363e+02
1.340294864870271441e-02 5.126622192319841815e+02
1.350297065354377768e-02 5.126626586256842302e+02
1.360299265838484442e-02 5.126630309608202651e+02
1.370301466322590769e-02 5.126633361733297534e+02
1.380303666806697444e-02 5.126635742012883838e+02
1.390305867290803944e-02 5.126637449849134782e+02
1.400308067774910271e-02 5.126638484665704709e+02
1.410310268259016946e-02 5.126638845907716586e+02
1.420312468743123446e-02 5.126638533041839310e+02
1.430314669227229774e-02 5.126637545556305895e+02
1.440316869711336448e-02 5.126635882960939625e+02
1.450319070195442775e-02 5.126633544787198389e+02
1.460321270679549449e-02 5.126630530588207648e+02
1.470323471163655950e-02 5.126626839938769535e+02
1.480325671647762451e-02 5.126622472435432201e+02
1.490327872131868951e-02 5.126617427696485265e+02
1.500330072615975278e-02 5.126611705362012117e+02
1.510332273100081953e-02 5.126605305093892184e+02
1.520334473584188453e-02 5.126598226575866875e+02
1.530336674068294781e-02 5.126590469513527069e+02
1.540338874552401455e-02 5.126582033634367690e+02
1.550341075036507782e-02 5.126572918687804759e+02
1.560343275520614456e-02 5.126563124445190169e+02
1.570345476004721130e-02 5.126552650699853757e+02
1.580347676488827457e-02 5.126541497267114664e+02
1.590349876972933785e-02 5.126529663984315448e+02
1.600352077457040459e-02 5.126517150710816395e+02
1.610354277941146786e-02 5.126503957328066008e+02
1.620356478425253460e-02 5.126490083739570309e+02
1.630358678909359788e-02 5.126475529870940591e+02
1.640360879393466462e-02 5.126460295669921834e+02
1.650363079877573136e-02 5.126444381106376795e+02
1.660365280361679463e-02 5.126427786172340575e+02
1.670367480845786137e-02 5.126410510882005838e+02
1.680369681329892464e-02 5.126392555271773972e+02
1.690371881813999139e-02 5.126373919400233490e+02
1.700374082298105466e-02 5.126354603348207775e+02
1.710376282782211793e-02 5.126334607218735755e+02
1.720378483266318467e-02 5.126313931137132158e+02
1.730380683750424795e-02 5.126292575250943173e+02
1.740382884234531469e-02 5.126270539730011251e+02
1.750385084718638143e-02 5.126247824766446683e+02
1.760387285202744470e-02 5.126224430574659436e+02
1.770389485686851144e-02 5.126200357391369380e+02
1.780391686170957471e-02 5.126175605475596058e+02
1.790393886655063799e-02 5.126150175108696203e+02
1.800396087139170473e-02 5.126124066594350097e+02
1.810398287623276800e-02 5.126097280258567253e+02
1.820400488107383474e-02 5.126069816449705741e+02
1.830402688591490148e-02 5.126041675538476738e+02
1.840404889075596476e-02 5.126012857917934298e+02
1.850407089559703150e-02 5.125983364003487850e+02
1.860409290043809477e-02 5.125953194232920396e+02
1.870411490527916151e-02 5.125922349066357810e+02
1.880413691012022478e-02 5.125890828986299539e+02
1.890415891496129153e-02 5.125858634497608364e+02
1.900418091980235480e-02 5.125825766127516090e+02
1.910420292464341807e-02 5.125792224425608765e+02
1.920422492948448481e-02 5.125758009963843733e+02
1.930424693432555155e-02 5.125723123336528033e+02
1.940426893916661483e-02 5.125687565160347958e+02
1.950429094400768157e-02 5.125651336074313349e+02
1.960431294884874831e-02 5.125614436739816711e+02
1.970433495368981158e-02 5.125576867840570685e+02
1.980435695853087485e-02 5.125538630082639884e+02
1.990437896337193813e-02 5.125499724194413602e+02
2.000440096821300487e-02 5.125460150926613778e+02
2.010442297305407161e-02 5.125419911052276802e+02
2.020444497789513835e-02 5.125379005366751244e+02
2.030446698273619816e-02 5.125337434687680798e+02
2.040448898757726490e-02 5.125295199854995190e+02
2.050451099241833164e-02 5.125252301730912450e+02
2.060453299725939491e-02 5.125208741199907081e+02
2.070455500210046165e-02 5.125164519168710058e+02
2.080457700694152492e-02 5.125119636566295185e+02
2.090459901178259167e-02 5.125074094343865454e+02
2.100462101662365494e-02 5.125027893474825760e+02
2.110464302146472168e-02 5.124981034954780625e+02
2.120466502630578842e-02 5.124933519801525108e+02
2.130468703114684823e-02 5.124885349055007282e+02
2.140470903598791497e-02 5.124836523777322554e+02
2.150473104082898171e-02 5.124787045052690928e+02
2.160475304567004845e-02 5.124736913987449043e+02
2.170477505051111172e-02 5.124686131710010386e+02
2.180479705535217499e-02 5.124634699370859607e+02
2.190481906019323827e-02 5.124582618142533192e+02
2.200484106503430501e-02 5.124529889219587631e+02
2.210486306987537175e-02 5.124476513818567582e+02
2.220488507471643849e-02 5.124422493178017248e+02
2.230490707955749830e-02 5.124367828558412157e+02
2.240492908439856504e-02 5.124312521242176217e+02
2.250495108923963178e-02 5.124256572533614644e+02
2.260497309408069505e-02 5.124199983758917369e+02
2.270499509892176179e-02 5.124142756266126071e+02
2.280501710376282506e-02 5.124084891425087562e+02
2.290503910860389181e-02 5.124026390627448109e+02
2.300506111344495508e-02 5.123967255286628415e+02
2.310508311828602182e-02 5.123907486837752003e+02
2.320510512312708856e-02 5.123847086737657719e+02
2.330512712796814837e-02 5.123786056464859939e+02
2.340514913280921511e-02 5.123724397519484910e+02
2.350517113765028185e-02 5.123662111423282113e+02
2.360519314249134859e-02 5.123599199719561739e+02
2.370521514733241186e-02 5.123535663973157170e+02
2.380523715217347860e-02 5.123471505770417025e+02
2.390525915701453841e-02 5.123406726719144899e+02
2.400528116185560515e-02 5.123341328448556169e+02
2.410530316669667189e-02 5.123275312609270031e+02
2.420532517153773863e-02 5.123208680873243566e+02
2.430534717637880537e-02 5.123141434933750133e+02
2.440536918121986518e-02 5.123073576505323672e+02
2.450539118606093192e-02 5.123005107323739367e+02
2.460541319090199519e-02 5.122936029145946577e+02
2.470543519574306193e-02 5.122866343750043825e+02
2.480545720058412867e-02 5.122796052935239004e+02
2.490547920542519195e-02 5.122725158521793674e+02
2.500550121026625522e-02 5.122653662350975310e+02
2.510552321510732196e-02 5.122581566285037979e+02
2.520554521994838870e-02 5.122508872207152990e+02
2.530556722478945197e-02 5.122435582021364553e+02
2.540558922963051525e-02 5.122361697652554540e+02
2.550561123447158199e-02 5.122287221046385639e+02
2.560563323931264873e-02 5.122212154169249061e+02
2.570565524415371200e-02 5.122136499008233841e+02
2.580567724899477874e-02 5.122060257571049533e+02
2.590569925383583855e-02 5.121983431885997788e+02
2.600572125867690529e-02 5.121906024001917785e+02
2.610574326351797203e-02 5.121828035988123702e+02
2.620576526835903877e-02 5.121749469934361514e+02
2.630578727320010551e-02 5.121670327950741921e+02
2.640580927804116532e-02 5.121590612167708514e+02
2.650583128288223206e-02 5.121510324735967288e+02
2.660585328772329533e-02 5.121429467826436621e+02
2.670587529256436207e-02 5.121348043630181337e+02
2.680589729740542881e-02 5.121266054358366091e+02
2.690591930224649209e-02 5.121183502242198529e+02
2.700594130708755536e-02 5.121100389532862209e+02
2.710596331192862210e-02 5.121016718501469995e+02
2.720598531676968884e-02 5.120932491438986744e+02
2.730600732161075211e-02 5.120847710656187246e+02
2.740602932645181539e-02 5.120762378483577777e+02
2.750605133129288213e-02 5.120676497271351764e+02
2.760607333613394887e-02 5.120590069389323844e+02
2.770609534097501214e-02 5.120503097226843465e+02
2.780611734581607888e-02 5.120415583192758504e+02
2.790613935065714563e-02 5.120327529715349328e+02
2.800616135549820543e-02 5.120238939242242395e+02
2.810618336033927217e-02 5.120149814240367050e+02
2.820620536518033891e-02 5.120060157195873671e+02
2.830622737002140565e-02 5.119969970614076828e+02
2.840624937486246893e-02 5.119879257019374563e+02
2.850627137970353220e-02 5.119788018955204052e+02
2.860629338454459547e-02 5.119696258983938151e+02
2.870631538938566221e-02 5.119603979686849016e+02
2.880633739422672895e-02 5.119511183664006921e+02
2.890635939906779570e-02 5.119417873534239334e+02
2.900638140390885550e-02 5.119324051935035413e+02
2.910640340874992224e-02 5.119229721522488035e+02
2.920642541359098898e-02 5.119134884971202837e+02
2.930644741843205225e-02 5.119039544974253886e+02
2.940646942327311900e-02 5.118943704243077946e+02
2.950649142811418227e-02 5.118847365507421046e+02
2.960651343295524901e-02 5.118750531515252646e+02
2.970653543779631228e-02 5.118653205032679239e+02
2.980655744263737902e-02 5.118555388843903984e+02
2.990657944747844577e-02 5.118457085751107343e+02
3.000660145231950557e-02 5.118358298574386254e+02
3.010662345716057231e-02 5.118259030151680236e+02
3.020664546200163905e-02 5.118159283338690670e+02
3.030666746684270579e-02 5.118059061008779054e+02
3.040668947168376907e-02 5.117958366052922656e+02
3.050671147652483234e-02 5.117857201379610501e+02
3.060673348136589561e-02 5.117755569914755824e+02
3.070675548620696235e-02 5.117653474601628432e+02
3.080677749104802909e-02 5.117550918400766591e+02
3.090679949588909584e-02 5.117447904289891767e+02
3.100682150073015564e-02 5.117344435263814262e+02
3.110684350557122238e-02 5.117240514334373529e+02
3.120686551041228912e-02 5.117136144530331308e+02
3.130688751525335239e-02 5.117031328897292610e+02
3.140690952009442261e-02 5.116926070497602268e+02
3.150693152493547894e-02 5.116820372410301729e+02
3.160695352977654915e-02 5.116714237730988089e+02
3.170697553461761242e-02 5.116607669571756105e+02
3.180699753945867569e-02 5.116500671061109529e+02
3.190701954429974591e-02 5.116393245343844001e+02
3.200704154914080918e-02 5.116285395581001580e+02
3.210706355398187245e-02 5.116177124949737731e+02
3.220708555882293572e-02 5.116068436643250266e+02
3.230710756366400593e-02 5.115959333870683281e+02
3.240712956850506921e-02 5.115849819857040188e+02
3.250715157334613248e-02 5.115739897843070594e+02
3.260717357818719575e-02 5.115629571085216867e+02
3.270719558302826596e-02 5.115518842855465209e+02
3.280721758786932923e-02 5.115407716441289381e+02
3.290723959271039251e-02 5.115296195145550655e+02
3.300726159755146272e-02 5.115184282286393227e+02
3.310728360239252599e-02 5.115071981197145305e+02
3.320730560723358926e-02 5.114959295226234985e+02
3.330732761207465253e-02 5.114846227737073718e+02
3.340734961691572275e-02 5.114732782107980142e+02
3.350737162175678602e-02 5.114618961732066396e+02
3.360739362659784929e-02 5.114504770017137503e+02
3.370741563143891256e-02 5.114390210385595879e+02
3.380743763627998277e-02 5.114275286274353789e+02
3.390745964112104605e-02 5.114160001134708864e+02
3.400748164596210932e-02 5.114044358432258264e+02
3.410750365080317259e-02 5.113928361646789540e+02
3.420752565564423586e-02 5.113812014272183433e+02
3.430754766048530607e-02 5.113695319816308142e+02
3.440756966532636935e-02 5.113578281800917011e+02
3.450759167016743956e-02 5.113460903761543364e+02
3.460761367500849589e-02 5.113343189247391933e+02
3.470763567984956610e-02 5.113225141821246780e+02
3.480765768469062937e-02 5.113106765059355325e+02
3.490767968953169265e-02 5.112988062551317512e+02
3.500770169437276286e-02 5.112869037899999967e+02
3.510772369921381919e-02 5.112749694721399010e+02
3.520774570405488940e-02 5.112630036644566189e+02
3.530776770889595267e-02 5.112510067311466173e+02
3.540778971373702289e-02 5.112389790376907399e+02
3.550781171857808616e-02 5.112269209508390304e+02
3.560783372341914943e-02 5.112148328386041385e+02
3.570785572826021270e-02 5.112027150702462563e+02
3.580787773310127597e-02 5.111905680162652743e+02
3.590789973794234619e-02 5.111783920483883321e+02
3.600792174278340946e-02 5.111661875395577681e+02
3.610794374762447273e-02 5.111539548639227633e+02
3.620796575246553600e-02 5.111416943968246187e+02
3.630798775730660621e-02 5.111294065147889114e+02
3.640800976214766949e-02 5.111170915955115674e+02
3.650803176698873276e-02 5.111047500178493124e+02
3.660805377182980297e-02 5.110923821618069951e+02
3.670807577667086624e-02 5.110799884085262761e+02
3.680809778151192951e-02 5.110675691402759639e+02
3.690811978635299279e-02 5.110551247404387141e+02
3.700814179119406300e-02 5.110426555934982957e+02
3.710816379603512627e-02 5.110301620850321456e+02
3.720818580087618954e-02 5.110176446016960199e+02
3.730820780571725281e-02 5.110051035312131944e+02
3.740822981055832303e-02 5.109925392623635503e+02
3.750825181539938630e-02 5.109799521849720918e+02
3.760827382024044957e-02 5.109673426898946218e+02
3.770829582508151284e-02 5.109547111690104657e+02
3.780831782992258305e-02 5.109420580152047933e+02
3.790833983476364633e-02 5.109293836223623657e+02
3.800836183960470960e-02 5.109166883853523018e+02
3.810838384444577981e-02 5.109039727000158564e+02
3.820840584928683614e-02 5.108912369631567572e+02
3.830842785412790635e-02 5.108784815725271073e+02
3.840844985896896963e-02 5.108657069268166993e+02
3.850847186381003984e-02 5.108529134256388602e+02
3.860849386865110311e-02 5.108401014695211870e+02
3.870851587349216638e-02 5.108272714598906532e+02
3.880853787833322965e-02 5.108144237990632064e+02
3.890855988317429293e-02 5.108015588902309219e+02
3.900858188801536314e-02 5.107886771374488148e+02
3.910860389285641947e-02 5.107757789456245519e+02
3.920862589769749662e-02 5.107628647205037282e+02
3.930864790253855295e-02 5.107499348686590110e+02
3.940866990737962317e-02 5.107369897974782020e+02
3.950869191222068644e-02 5.107240299151492877e+02
3.960871391706174971e-02 5.107110556306510034e+02
3.970873592190281992e-02 5.106980673537375992e+02
3.980875792674387625e-02 5.106850654949286650e+02
3.990877993158495340e-02 5.106720504654954880e+02
4.000880193642600974e-02 5.106590226774474104e+02
4.010882394126707301e-02 5.106459825435213133e+02
4.020884594610814322e-02 5.106329304771668376e+02
4.030886795094920649e-02 5.106198668925355264e+02
4.040888995579027670e-02 5.106067922044668421e+02
4.050891196063133304e-02 5.105937068284760016e+02
4.060893396547239631e-02 5.105806111807412435e+02
4.070895597031346652e-02 5.105675056780904129e+02
4.080897797515452979e-02 5.105543907379887969e+02
4.090899997999560000e-02 5.105412667785258236e+02
4.100902198483666328e-02 5.105281342184031814e+02
4.110904398967772655e-02 5.105149934769193578e+02
4.120906599451878982e-02 5.105018449739603170e+02
4.130908799935985309e-02 5.104886891299838680e+02
4.140911000420092331e-02 5.104755263660078981e+02
4.150913200904198658e-02 5.104623571035964460e+02
4.160915401388304985e-02 5.104491817648474807e+02
4.170917601872412006e-02 5.104360007723793728e+02
4.180919802356518333e-02 5.104228145493191846e+02
4.190922002840624661e-02 5.104096235192860149e+02
4.200924203324730988e-02 5.103964281063836097e+02
4.210926403808837315e-02 5.103832287351815467e+02
4.220928604292944336e-02 5.103700258307046056e+02
4.230930804777050663e-02 5.103568198184209450e+02
4.240933005261157684e-02 5.103436111242256175e+02
4.250935205745264012e-02 5.103304001744308493e+02
4.260937406229369645e-02 5.103171873957502953e+02
4.270939606713476666e-02 5.103039732152862484e+02
4.280941807197582993e-02 5.102907580605178168e+02
4.290944007681690014e-02 5.102775423592862580e+02
4.300946208165796342e-02 5.102643265397808250e+02
4.310948408649901975e-02 5.102511110305287048e+02
4.320950609134009690e-02 5.102378962603791024e+02
4.330952809618115323e-02 5.102246826584881205e+02
4.340955010102222345e-02 5.102114706543111424e+02
4.350957210586328672e-02 5.101982606775845284e+02
4.360959411070434999e-02 5.101850531583127690e+02
4.370961611554542020e-02 5.101718485267572873e+02
4.380963812038647653e-02 5.101586472134217729e+02
4.390966012522755368e-02 5.101454496490383690e+02
4.400968213006861002e-02 5.101322562645549965e+02
4.410970413490967329e-02 5.101190674911211431e+02
4.420972613975074350e-02 5.101058837600745619e+02
4.430974814459180677e-02 5.100927055029288795e+02
4.440977014943287698e-02 5.100795331513588167e+02
4.450979215427393332e-02 5.100663671371873988e+02
4.460981415911499659e-02 5.100532078923720292e+02
4.470983616395606680e-02 5.100400558489905052e+02
4.480985816879713007e-02 5.100269114392299912e+02
4.490988017363820028e-02 5.100137750953693967e+02
4.500990217847926356e-02 5.100006472497698269e+02
4.510992418332032683e-02 5.099875283348584958e+02
4.520994618816139010e-02 5.099744187831161071e+02
4.530996819300245337e-02 5.099613190270636096e+02
4.540999019784352358e-02 5.099482294992479865e+02
4.551001220268458686e-02 5.099351506322279306e+02
4.561003420752565013e-02 5.099220828585632148e+02
4.571005621236672034e-02 5.099090266107978096e+02
4.581007821720778361e-02 5.098959823214471498e+02
4.591010022204884689e-02 5.098829504229869372e+02
4.601012222688991016e-02 5.098699313478363138e+02
4.611014423173097343e-02 5.098569255283459825e+02
4.621016623657204364e-02 5.098439333967834841e+02
4.631018824141310691e-02 5.098309553853225680e+02
4.641021024625417712e-02 5.098179919260247743e+02
4.651023225109524040e-02 5.098050434508301123e+02
4.661025425593629673e-02 5.097921103915417120e+02
4.671027626077736694e-02 5.097791931798115570e+02
4.681029826561843021e-02 5.097662922471286038e+02
4.691032027045950042e-02 5.097534080248035480e+02
4.701034227530056370e-02 5.097405409439565460e+02
4.711036428014163391e-02 5.097276914355028907e+02
4.721038628498269718e-02 5.097148599301394825e+02
4.731040828982375351e-02 5.097020468583310731e+02
4.741043029466482372e-02 5.096892526502971918e+02
4.751045229950588700e-02 5.096764777359982759e+02
4.761047430434695721e-02 5.096637225451227664e+02
4.771049630918802048e-02 5.096509875070719318e+02
4.781051831402907681e-02 5.096382730509478733e+02
4.791054031887015396e-02 5.096255796055390306e+02
4.801056232371121030e-02 5.096129075993074480e+02
4.811058432855228051e-02 5.096002574603745643e+02
4.821060633339334378e-02 5.095876296165077406e+02
4.831062833823440705e-02 5.095750244951062768e+02
4.841065034307547726e-02 5.095624425231903274e+02
4.851067234791653360e-02 5.095498841273837343e+02
4.861069435275761075e-02 5.095373497339028290e+02
4.871071635759866708e-02 5.095248397685431314e+02
4.881073836243973035e-02 5.095123546566647974e+02
4.891076036728080056e-02 5.094998948231783515e+02
4.901078237212186384e-02 5.094874606925342846e+02
4.911080437696293405e-02 5.094750526887065689e+02
4.921082638180399038e-02 5.094626712351804372e+02
4.931084838664505365e-02 5.094503167549389673e+02
4.941087039148612386e-02 5.094379896704499515e+02
4.951089239632718714e-02 5.094256904036518563e+02
4.961091440116825735e-02 5.094134193759399523e+02
4.971093640600932062e-02 5.094011770081546615e+02
4.981095841085038389e-02 5.093889637205673466e+02
4.991098041569144717e-02 5.093767799328655315e+02
5.001100242053251044e-02 5.093646260641418166e+02
5.011102442537358065e-02 5.093525025328798961e+02
5.021104643021464392e-02 5.093404097569400051e+02
5.031106843505570719e-02 5.093283481535472674e+02
5.041109043989677740e-02 5.093163181392774845e+02
5.051111244473784068e-02 5.093043201300439478e+02
5.061113444957890395e-02 5.092923545410849897e+02
5.071115645441996722e-02 5.092804217869496597e+02
5.081117845926103049e-02 5.092685222814853887e+02
5.091120046410210070e-02 5.092566564378242333e+02
5.101122246894316398e-02 5.092448246683706543e+02
5.111124447378423419e-02 5.092330273847861122e+02
5.121126647862529746e-02 5.092212649979794605e+02
5.131128848346635379e-02 5.092095379180900636e+02
5.141131048830742400e-02 5.091978465544788151e+02
5.151133249314848728e-02 5.091861913157104027e+02
5.161135449798955749e-02 5.091745726095454074e+02
5.171137650283062076e-02 5.091629908429211469e+02
5.181139850767167709e-02 5.091514464219462752e+02
5.191142051251275424e-02 5.091399397518800356e+02
5.201144251735381058e-02 5.091284712371257228e+02
5.211146452219488079e-02 5.091170412812133463e+02
5.221148652703594406e-02 5.091056502867893983e+02
5.231150853187700733e-02 5.090942986556029268e+02
5.241153053671807754e-02 5.090829867884925761e+02
5.251155254155913388e-02 5.090717150853737962e+02
5.261157454640021103e-02 5.090604839452278156e+02
5.271159655124126736e-02 5.090492937660851567e+02
5.281161855608233063e-02 5.090381449450167679e+02
5.291164056092340084e-02 5.090270378781196428e+02
5.301166256576446412e-02 5.090159729605027223e+02
5.311168457060553433e-02 5.090049505862780279e+02
5.321170657544659066e-02 5.089939711485439489e+02
5.331172858028765393e-02 5.089830350393751814e+02
5.341175058512872414e-02 5.089721426498096548e+02
5.351177258996978742e-02 5.089612943698352865e+02
5.361179459481085763e-02 5.089504905883784431e+02
5.371181659965192090e-02 5.089397316932918329e+02
5.381183860449298417e-02 5.089290180713396126e+02
5.391186060933404744e-02 5.089183501081887471e+02
5.401188261417511072e-02 5.089077281883925252e+02
5.411190461901618093e-02 5.088971526953822035e+02
5.421192662385724420e-02 5.088866240114514312e+02
5.431194862869830747e-02 5.088761425177467572e+02
5.441197063353937768e-02 5.088657085942524532e+02
5.451199263838044096e-02 5.088553226197824415e+02
5.461201464322150423e-02 5.088449849719626172e+02
5.471203664806256750e-02 5.088346960272242541e+02
5.481205865290363077e-02 5.088244561607878609e+02
5.491208065774470098e-02 5.088142657466534047e+02
5.501210266258576426e-02 5.088041251575879187e+02
5.511212466742683447e-02 5.087940347651120874e+02
5.521214667226789774e-02 5.087839949394904124e+02
5.531216867710895407e-02 5.087740060497184800e+02
5.541219068195002428e-02 5.087640684635102843e+02
5.551221268679108756e-02 5.087541825472877122e+02
5.561223469163215777e-02 5.087443486661674683e+02
5.571225669647322104e-02 5.087345671839509009e+02
5.581227870131429125e-02 5.087248384631109275e+02
5.591230070615535452e-02 5.087151628647812913e+02
5.601232271099641086e-02 5.087055407487437719e+02
5.611234471583748107e-02 5.086959724734181805e+02
5.621236672067854434e-02 5.086864583958498542e+02
5.631238872551961455e-02 5.086769988716979469e+02
5.641241073036067782e-02 5.086675942552257652e+02
5.651243273520173416e-02 5.086582448992851937e+02
5.661245474004281131e-02 5.086489511553115221e+02
5.671247674488386764e-02 5.086397133733071314e+02
5.681249874972493785e-02 5.086305319018306363e+02
5.691252075456600112e-02 5.086214070879892688e+02
5.701254275940706440e-02 5.086123392774237573e+02
5.711256476424813461e-02 5.086033288142984929e+02
5.721258676908919094e-02 5.085943760412928896e+02
5.731260877393026809e-02 5.085854812995849557e+02
5.741263077877132442e-02 5.085766449288454396e+02
5.751265278361238770e-02 5.085678672672248695e+02
5.761267478845345791e-02 5.085591486513418999e+02
5.771269679329452118e-02 5.085504894162741039e+02
5.781271879813559139e-02 5.085418898955453528e+02
5.791274080297664772e-02 5.085333504211167224e+02
5.801276280781771100e-02 5.085248713233753506e+02
5.811278481265878121e-02 5.085164529311220463e+02
5.821280681749984448e-02 5.085080955715641267e+02
5.831282882234091469e-02 5.084997995703009792e+02
5.841285082718197796e-02 5.084915652513167288e+02
5.851287283202304124e-02 5.084833929369673342e+02
5.861289483686410451e-02 5.084752829479733691e+02
5.871291684170516778e-02 5.084672356034046743e+02
5.881293884654623799e-02 5.084592512206754122e+02
5.891296085138730126e-02 5.084513301155303111e+02
5.901298285622836454e-02 5.084434726020357971e+02
5.911300486106943475e-02 5.084356789925695352e+02
5.921302686591049802e-02 5.084279495978100840e+02
5.931304887075156129e-02 5.084202847267278571e+02
5.941307087559262456e-02 5.084126846865739253e+02
5.951309288043368784e-02 5.084051497828702395e+02
5.961311488527475805e-02 5.083976803194008198e+02
5.971313689011582132e-02 5.083902765982008987e+02
5.981315889495689153e-02 5.083829389195475983e+02
5.991318089979795480e-02 5.083756675819495854e+02
6.001320290463901114e-02 5.083684628821378624e+02
6.011322490948008135e-02 5.083613251150574115e+02
6.021324691432114462e-02 5.083542545738550871e+02
6.031326891916221483e-02 5.083472515498722828e+02
6.041329092400327810e-02 5.083403163326329945e+02
6.051331292884433444e-02 5.083334492098389319e+02
6.061333493368541159e-02 5.083266504673553641e+02
6.071335693852646792e-02 5.083199203892045261e+02
6.081337894336753813e-02 5.083132592575556714e+02
6.091340094820860140e-02 5.083066673527156922e+02
6.101342295304966468e-02 5.083001449531211620e+02
6.111344495789073489e-02 5.082936923353282168e+02
6.121346696273179122e-02 5.082873097740030630e+02
6.131348896757286837e-02 5.082809975419149850e+02
6.141351097241392470e-02 5.082747559099266255e+02
6.151353297725498798e-02 5.082685851469839236e+02
6.161355498209605819e-02 5.082624855201086689e+02
6.171357698693712146e-02 5.082564572943905432e+02
6.181359899177819167e-02 5.082505007329763771e+02
6.191362099661924800e-02 5.082446160970640676e+02
6.201364300146031128e-02 5.082388036458916076e+02
6.211366500630138149e-02 5.082330636367312309e+02
6.221368701114244476e-02 5.082273963248786686e+02
6.231370901598351497e-02 5.082218019636463282e+02
6.241373102082457824e-02 5.082162808043552786e+02
6.251375302566564152e-02 5.082108330963257004e+02
6.261377503050670479e-02 5.082054590868697233e+02
6.271379703534776806e-02 5.082001590212834685e+02
6.281381904018884521e-02 5.081949331428388064e+02
6.291384104502989461e-02 5.081897816927751705e+02
6.301386304987095788e-02 5.081847049102934193e+02
6.311388505471203503e-02 5.081797030325440687e+02
6.321390705955309830e-02 5.081747762946248486e+02
6.331392906439416157e-02 5.081699249295688787e+02
6.341395106923522484e-02 5.081651491683394966e+02
6.351397307407628812e-02 5.081604492398210482e+02
6.361399507891735139e-02 5.081558253708122379e+02
6.371401708375841466e-02 5.081512777860197616e+02
6.381403908859949181e-02 5.081468067080488709e+02
6.391406109344055508e-02 5.081424123573987117e+02
6.401408309828161836e-02 5.081380949524514108e+02
6.411410510312268163e-02 5.081338547094699152e+02
6.421412710796374490e-02 5.081296918425855438e+02
6.431414911280480817e-02 5.081256065637962251e+02
6.441417111764587144e-02 5.081215990829549014e+02
6.451419312248694860e-02 5.081176696077671977e+02
6.461421512732801187e-02 5.081138183437800535e+02
6.471423713216907514e-02 5.081100454943796194e+02
6.481425913701013841e-02 5.081063512607797747e+02
6.491428114185120168e-02 5.081027358420200812e+02
6.501430314669226496e-02 5.080991994349564038e+02
6.511432515153332823e-02 5.080957422342560790e+02
6.521434715637439150e-02 5.080923644323896724e+02
6.531436916121546865e-02 5.080890662196275116e+02
6.541439116605653192e-02 5.080858477840309320e+02
6.551441317089759520e-02 5.080827093114475019e+02
6.561443517573865847e-02 5.080796509855030081e+02
6.571445718057972174e-02 5.080766729875999772e+02
6.581447918542078501e-02 5.080737754969054549e+02
6.591450119026184828e-02 5.080709586903510626e+02
6.601452319510292543e-02 5.080682227426234476e+02
6.611454519994398871e-02 5.080655678261598496e+02
6.621456720478505198e-02 5.080629941111419612e+02
6.631458920962611525e-02 5.080605017654911535e+02
6.641461121446717852e-02 5.080580909548634168e+02
6.651463321930824180e-02 5.080557618426416298e+02
6.661465522414930507e-02 5.080535145899323197e+02
6.671467722899036834e-02 5.080513493555598075e+02
6.681469923383144549e-02 5.080492662960609778e+02
6.691472123867250876e-02 5.080472655656794814e+02
6.701474324351357204e-02 5.080453473163627223e+02
6.711476524835463531e-02 5.080435116977542407e+02
6.721478725319569858e-02 5.080417588571909278e+02
6.731480925803676185e-02 5.080400889396965454e+02
6.741483126287782512e-02 5.080385020879774629e+02
6.751485326771890227e-02 5.080369984424203267e+02
6.761487527255996555e-02 5.080355781410821692e+02
6.771489727740101494e-02 5.080342413196922280e+02
6.781491928224209209e-02 5.080329881116425668e+02
6.791494128708315536e-02 5.080318186479859150e+02
6.801496329192421864e-02 5.080307330574304387e+02
6.811498529676528191e-02 5.080297314663371253e+02
6.821500730160634518e-02 5.080288139987133604e+02
6.831502930644742233e-02 5.080279807762111659e+02
6.841505131128847172e-02 5.080272319181204921e+02
6.851507331612954887e-02 5.080265675413684221e+02
6.861509532097061215e-02 5.080259877605122938e+02
6.871511732581167542e-02 5.080254926877383923e+02
6.881513933065273869e-02 5.080250824328572889e+02
6.891516133549380196e-02 5.080247571032993505e+02
6.901518334033487911e-02 5.080245168041119541e+02
6.911520534517592851e-02 5.080243616379570426e+02
6.921522735001699178e-02 5.080242917051058384e+02
6.931524935485806893e-02 5.080243071034370246e+02
6.941527135969913220e-02 5.080244079284323107e+02
6.951529336454019548e-02 5.080245942731744435e+02
6.961531536938125875e-02 5.080248662283431713e+02
6.971533737422232202e-02 5.080252238822133677e+02
6.981535937906338529e-02 5.080256673206503137e+02
6.991538138390444856e-02 5.080261966271083907e+02
7.001540338874552571e-02 5.080268118826282944e+02
7.011542539358658899e-02 5.080275131658329428e+02
7.021544739842763838e-02 5.080283005529267371e+02
7.031546940326871553e-02 5.080291741176915252e+02
7.041549140810977880e-02 5.080301339314844995e+02
7.051551341295084208e-02 5.080311800632367181e+02
7.061553541779190535e-02 5.080323125794492967e+02
7.071555742263296862e-02 5.080335315441931812e+02
7.081557942747404577e-02 5.080348370191043159e+02
7.091560143231509517e-02 5.080362290633840985e+02
7.101562343715617232e-02 5.080377077337961396e+02
7.111564544199723559e-02 5.080392730846637050e+02
7.121566744683829886e-02 5.080409251678706823e+02
7.131568945167936213e-02 5.080426640328565213e+02
7.141571145652042540e-02 5.080444897266153816e+02
7.151573346136150255e-02 5.080464022936973834e+02
7.161575546620255195e-02 5.080484017762020130e+02
7.171577747104361522e-02 5.080504882137818186e+02
7.181579947588469237e-02 5.080526616436371228e+02
7.191582148072575564e-02 5.080549221005171603e+02
7.201584348556681892e-02 5.080572696167178606e+02
7.211586549040788219e-02 5.080597042220812796e+02
7.221588749524894546e-02 5.080622259439937807e+02
7.231590950009000873e-02 5.080648348073851253e+02
7.241593150493107200e-02 5.080675308347288706e+02
7.251595350977214915e-02 5.080703140460405507e+02
7.261597551461321243e-02 5.080731844588765966e+02
7.271599751945427570e-02 5.080761420883339952e+02
7.281601952429533897e-02 5.080791869470508004e+02
7.291604152913640224e-02 5.080823190452039171e+02
7.301606353397746552e-02 5.080855383905102372e+02
7.311608553881852879e-02 5.080888449882248210e+02
7.321610754365960594e-02 5.080922388411422617e+02
7.331612954850066921e-02 5.080957199495946952e+02
7.341615155334173248e-02 5.080992883114535630e+02
7.351617355818279576e-02 5.081029439221294410e+02
7.361619556302385903e-02 5.081066867745691411e+02
7.371621756786492230e-02 5.081105168592599171e+02
7.381623957270598557e-02 5.081144341642279301e+02
7.391626157754704884e-02 5.081184386750383055e+02
7.401628358238812599e-02 5.081225303747944508e+02
7.411630558722918927e-02 5.081267092441420345e+02
7.421632759207025254e-02 5.081309752612664283e+02
7.431634959691131581e-02 5.081353284018935597e+02
7.441637160175237908e-02 5.081397686392920150e+02
7.451639360659344236e-02 5.081442959442734946e+02
7.461641561143450563e-02 5.081489102851925850e+02
7.471643761627558278e-02 5.081536116279491466e+02
7.481645962111664605e-02 5.081583999359875179e+02
7.491648162595770932e-02 5.081632751703000963e+02
7.501650363079877259e-02 5.081682372894255764e+02
7.511652563563983587e-02 5.081732862494534402e+02
7.521654764048089914e-02 5.081784220040232753e+02
7.531656964532196241e-02 5.081836445043252297e+02
7.541659165016302568e-02 5.081889536991043315e+02
7.551661365500410283e-02 5.081943495346600344e+02
7.561663565984516611e-02 5.081998319548487189e+02
7.571665766468622938e-02 5.082054009010845448e+02
7.581667966952729265e-02 5.082110563123420661e+02
7.591670167436835592e-02 5.082167981251586752e+02
7.601672367920941920e-02 5.082226262736350577e+02
7.611674568405048247e-02 5.082285406894375797e+02
7.621676768889155962e-02 5.082345413018018689e+02
7.631678969373262289e-02 5.082406280375337246e+02
7.641681169857367228e-02 5.082468008210114476e+02
7.651683370341474943e-02 5.082530595741881143e+02
7.661685570825581271e-02 5.082594042165948167e+02
7.671687771309687598e-02 5.082658346653431636e+02
7.681689971793793925e-02 5.082723508351263604e+02
7.691692172277900252e-02 5.082789526382230179e+02
7.701694372762007967e-02 5.082856399845014153e+02
7.711696573246112907e-02 5.082924127814189319e+02
7.721698773730220622e-02 5.082992709340267083e+02
7.731700974214326949e-02 5.083062143449748191e+02
7.741703174698433276e-02 5.083132429145106244e+02
7.751705375182539604e-02 5.083203565404866140e+02
7.761707575666645931e-02 5.083275551183601237e+02
7.771709776150753646e-02 5.083348385411982235e+02
7.781711976634858585e-02 5.083422066996822650e+02
7.791714177118964912e-02 5.083496594821070289e+02
7.801716377603072627e-02 5.083571967743910136e+02
7.811718578087178955e-02 5.083648184600726267e+02
7.821720778571283894e-02 5.083725244203200191e+02
7.831722979055391609e-02 5.083803145339302887e+02
7.841725179539499324e-02 5.083881886773374390e+02
7.851727380023604264e-02 5.083961467246120378e+02
7.861729580507710591e-02 5.084041885474683227e+02
7.871731780991818306e-02 5.084123140152672136e+02
7.881733981475924633e-02 5.084205229950208604e+02
7.891736181960029572e-02 5.084288153513953148e+02
7.901738382444137287e-02 5.084371909467168393e+02
7.911740582928245002e-02 5.084456496409748070e+02
7.921742783412349942e-02 5.084541912918272146e+02
7.931744983896456269e-02 5.084628157546048328e+02
7.941747184380563984e-02 5.084715228823156963e+02
7.951749384864668924e-02 5.084803125256489125e+02
7.961751585348775251e-02 5.084891845329806870e+02
7.971753785832882966e-02 5.084981387503781889e+02
7.981755986316990681e-02 5.085071750216064856e+02
7.991758186801095620e-02 5.085162931881302484e+02
8.001760387285201948e-02 5.085254930891209142e+02
8.011762587769309663e-02 5.085347745614613473e+02
8.021764788253414602e-02 5.085441374397515801e+02
8.031766988737520929e-02 5.085535815563126789e+02
8.041769189221628644e-02 5.085631067411928825e+02
8.051771389705733584e-02 5.085727128221734574e+02
8.061773590189841299e-02 5.085823996247737568e+02
8.071775790673947626e-02 5.085921669722555407e+02
8.081777991158055341e-02 5.086020146856315023e+02
8.091780191642160280e-02 5.086119425836680534e+02
8.101782392126266608e-02 5.086219504828923164e+02
8.111784592610374323e-02 5.086320381975979785e+02
8.121786793094479262e-02 5.086422055398512612e+02
8.131788993578586977e-02 5.086524523194968879e+02
8.141791194062693304e-02 5.086627783441624047e+02
8.151793394546799632e-02 5.086731834192677297e+02
8.161795595030905959e-02 5.086836673480290756e+02
8.171797795515012286e-02 5.086942299314644060e+02
8.181799995999120001e-02 5.087048709684022469e+02
8.191802196483224940e-02 5.087155902554861768e+02
8.201804396967332655e-02 5.087263875871825007e+02
8.211806597451438983e-02 5.087372627557840019e+02
8.221808797935545310e-02 5.087482155514209694e+02
8.231810998419651637e-02 5.087592457620654045e+02
8.241813198903757964e-02 5.087703531735365914e+02
8.251815399387864292e-02 5.087815375695101352e+02
8.261817599871970619e-02 5.087927987315243286e+02
8.271819800356078334e-02 5.088041364389863475e+02
8.281822000840184661e-02 5.088155504691785609e+02
8.291824201324290988e-02 5.088270405972688764e+02
8.301826401808397315e-02 5.088386065963146052e+02
8.311828602292503643e-02 5.088502482372692839e+02
8.321830802776609970e-02 5.088619652889945542e+02
8.331833003260716297e-02 5.088737575182616979e+02
8.341835203744824012e-02 5.088856246897634037e+02
8.351837404228928952e-02 5.088975665661191101e+02
8.361839604713036667e-02 5.089095829078820543e+02
8.371841805197142994e-02 5.089216734735497312e+02
8.381844005681249321e-02 5.089338380195680998e+02
8.391846206165355648e-02 5.089460763003422699e+02
8.401848406649461976e-02 5.089583880682417885e+02
8.411850607133569691e-02 5.089707730736103599e+02
8.421852807617674630e-02 5.089832310647733493e+02
8.431855008101782345e-02 5.089957617880452290e+02
8.441857208585888672e-02 5.090083649877372522e+02
8.451859409069993612e-02 5.090210404061680265e+02
8.461861609554101327e-02 5.090337877836688563e+02
8.471863810038207654e-02 5.090466068585919288e+02
8.481866010522315369e-02 5.090594973673228196e+02
8.491868211006420308e-02 5.090724590442831641e+02
8.501870411490528023e-02 5.090854916219432198e+02
8.511872611974634351e-02 5.090985948308282900e+02
8.521874812458739290e-02 5.091117683995281027e+02
8.531877012942847005e-02 5.091250120547060760e+02
8.541879213426953332e-02 5.091383255211056280e+02
8.551881413911061047e-02 5.091517085215614316e+02
8.561883614395165987e-02 5.091651607770074861e+02
8.571885814879273702e-02 5.091786820064858148e+02
8.581888015363380029e-02 5.091922719271539108e+02
8.591890215847484968e-02 5.092059302542970727e+02
8.601892416331592683e-02 5.092196567013344861e+02
8.611894616815699011e-02 5.092334509798291720e+02
8.621896817299803950e-02 5.092473127994982747e+02
8.631899017783911665e-02 5.092612418682210773e+02
8.641901218268019380e-02 5.092752378920472438e+02
8.651903418752125707e-02 5.092893005752091540e+02
8.661905619236230647e-02 5.093034296201287816e+02
8.671907819720338362e-02 5.093176247274276420e+02
8.681910020204444689e-02 5.093318855959378766e+02
8.691912220688549628e-02 5.093462119227082781e+02
8.701914421172657343e-02 5.093606034030187288e+02
8.711916621656765058e-02 5.093750597303859422e+02
8.721918822140869998e-02 5.093895805965735235e+02
8.731921022624976325e-02 5.094041656916051011e+02
8.741923223109084040e-02 5.094188147037700105e+02
8.751925423593190367e-02 5.094335273196355161e+02
8.761927624077295307e-02 5.094483032240565308e+02
8.771929824561403022e-02 5.094631421001843137e+02
8.781932025045510737e-02 5.094780436294794299e+02
8.791934225529615676e-02 5.094930074917174352e+02
8.801936426013722004e-02 5.095080333650035413e+02
8.811938626497829719e-02 5.095231209257798923e+02
8.821940826981934658e-02 5.095382698488358528e+02
8.831943027466040985e-02 5.095534798073210823e+02
8.841945227950148700e-02 5.095687504727528108e+02
8.851947428434256415e-02 5.095840815150273215e+02
8.861949628918361355e-02 5.095994726024310921e+02
8.871951829402467682e-02 5.096149234016493779e+02
8.881954029886575397e-02 5.096304335777807069e+02
8.891956230370680336e-02 5.096460027943418822e+02
8.901958430854786664e-02 5.096616307132834436e+02
8.911960631338894379e-02 5.096773169949980229e+02
8.921962831822999318e-02 5.096930612983313722e+02
8.931965032307107033e-02 5.097088632805936186e+02
8.941967232791213360e-02 5.097247225975707465e+02
8.951969433275321075e-02 5.097406389035330676e+02
8.961971633759426015e-02 5.097566118512486355e+02
8.971973834243532342e-02 5.097726410919935347e+02
8.981976034727640057e-02 5.097887262755613733e+02
8.991978235211744996e-02 5.098048670502777213e+02
9.001980435695852711e-02 5.098210630630067044e+02
9.011982636179959039e-02 5.098373139591670906e+02
9.021984836664065366e-02 5.098536193827400211e+02
9.031987037148171693e-02 5.098699789762801515e+02
9.041989237632278020e-02 5.098863923809296921e+02
9.051991438116385735e-02 5.099028592364282417e+02
9.061993638600490675e-02 5.099193791811221672e+02
9.071995839084598390e-02 5.099359518519795529e+02
9.081998039568704717e-02 5.099525768845996367e+02
9.092000240052811044e-02 5.099692539132249181e+02
9.102002440536917371e-02 5.099859825707522418e+02
9.112004641021023699e-02 5.100027624887435991e+02
9.122006841505130026e-02 5.100195932974405650e+02
9.132009041989236353e-02 5.100364746257737920e+02
9.142011242473344068e-02 5.100534061013739233e+02
9.152013442957450395e-02 5.100703873505852357e+02
9.162015643441556723e-02 5.100874179984775765e+02
9.172017843925663050e-02 5.101044976688556858e+02
9.182020044409769377e-02 5.101216259842743739e+02
9.192022244893875704e-02 5.101388025660464223e+02
9.202024445377982032e-02 5.101560270342599210e+02
9.212026645862089747e-02 5.101732990077846921e+02
9.222028846346194686e-02 5.101906181042867274e+02
9.232031046830302401e-02 5.102079839402421726e+02
9.242033247314408728e-02 5.102253961309456827e+02
9.252035447798515055e-02 5.102428542905249174e+02
9.262037648282621383e-02 5.102603580319522507e+02
9.272039848766727710e-02 5.102779069670567083e+02
9.282042049250835425e-02 5.102955007065358473e+02
9.292044249734940364e-02 5.103131388599691718e+02
9.302046450219048079e-02 5.103308210358285351e+02
9.312048650703154407e-02 5.103485468414932598e+02
9.322050851187259346e-02 5.103663158832587214e+02
9.332053051671367061e-02 5.103841277663528899e+02
9.342055252155473388e-02 5.104019820949449127e+02
9.352057452639581103e-02 5.104198784721601214e+02
9.362059653123686043e-02 5.104378165000904914e+02
9.372061853607793758e-02 5.104557957798112966e+02
9.382064054091900085e-02 5.104738159113869074e+02
9.392066254576005024e-02 5.104918764938894356e+02
9.402068455060112739e-02 5.105099771254082270e+02
9.412070655544219067e-02 5.105281174030631064e+02
9.422072856028326782e-02 5.105462969230174508e+02
9.432075056512431721e-02 5.105645152804897862e+02
9.442077256996539436e-02 5.105827720697682821e+02
9.452079457480645763e-02 5.106010668842216091e+02
9.462081657964750703e-02 5.106193993163130358e+02
9.472083858448858418e-02 5.106377689576108878e+02
9.482086058932964745e-02 5.106561753988059991e+02
9.492088259417069684e-02 5.106746182297193855e+02
9.502090459901177399e-02 5.106930970393180473e+02
9.512092660385285114e-02 5.107116114157265088e+02
9.522094860869391442e-02 5.107301609462415399e+02
9.532097061353496381e-02 5.107487452173430142e+02
9.542099261837604096e-02 5.107673638147074939e+02
9.552101462321710423e-02 5.107860163232215882e+02
9.562103662805815363e-02 5.108047023269940610e+02
9.572105863289923078e-02 5.108234214093712353e+02
9.582108063774030793e-02 5.108421731529464296e+02
9.592110264258135732e-02 5.108609571395754188e+02
9.602112464742242059e-02 5.108797729503893379e+02
9.612114665226349774e-02 5.108986201658063351e+02
9.622116865710456102e-02 5.109174983655463507e+02
9.632119066194561041e-02 5.109364071286432818e+02
9.642121266678668756e-02 5.109553460334586816e+02
9.652123467162776471e-02 5.109743146576942081e+02
9.662125667646881411e-02 5.109933125784049821e+02
9.672127868130987738e-02 5.110123393720133436e+02
9.682130068615095453e-02 5.110313946143223234e+02
9.692132269099200392e-02 5.110504778805258184e+02
9.702134469583306720e-02 5.110695887452271791e+02
9.712136670067414435e-02 5.110887267824473383e+02
9.722138870551522150e-02 5.111078915656410686e+02
9.732141071035627089e-02 5.111270826677099421e+02
9.742143271519733416e-02 5.111462996610132450e+02
9.752145472003841131e-02 5.111655421173852005e+02
9.762147672487946071e-02 5.111848096081446329e+02
9.772149872972052398e-02 5.112041017041111672e+02
9.782152073456160113e-02 5.112234179756154049e+02
9.792154273940265052e-02 5.112427579925164309e+02
9.802156474424372767e-02 5.112621213242110798e+02
9.812158674908479095e-02 5.112815075396494535e+02
9.822160875392586810e-02 5.113009162073480525e+02
9.832163075876691749e-02 5.113203468954034179e+02
9.842165276360798076e-02 5.113397991715050921e+02
9.852167476844905791e-02 5.113592726029472146e+02
9.862169677329010731e-02 5.113787667566469963e+02
9.872171877813118446e-02 5.113982811991522794e+02
9.882174078297224773e-02 5.114178154966590455e+02
9.892176278781331100e-02 5.114373692150223292e+02
9.902178479265437427e-02 5.114569419197718503e+02
9.912180679749543755e-02 5.114765331761231550e+02
9.922182880233651470e-02 5.114961425489935891e+02
9.932185080717756409e-02 5.115157696030133252e+02
9.942187281201864124e-02 5.115354139025402560e+02
9.952189481685970451e-02 5.115550750116732388e+02
9.962191682170076779e-02 5.115747524942651694e+02
9.972193882654183106e-02 5.115944459139374203e+02
9.982196083138289433e-02 5.116141548340914937e+02
9.992198283622395760e-02 5.116338788179240282e+02
1.000220048410650209e-01 5.116536174284408389e+02
1.001220268459060980e-01 5.116733702284673200e+02
1.002220488507471613e-01 5.116931367806661228e+02
1.003220708555882246e-01 5.117129166475475017e+02
1.004220928604292878e-01 5.117327093914831835e+02
1.005221148652703511e-01 5.117525145747214879e+02
1.006221368701114144e-01 5.117723317593994921e+02
1.007221588749524777e-01 5.117921605075570142e+02
1.008221808797935548e-01 5.118120003811490051e+02
1.009222028846346042e-01 5.118318509420598730e+02
1.010222248894756814e-01 5.118517117521179216e+02
1.011222468943167446e-01 5.118715823731072874e+02
1.012222688991578079e-01 5.118914623667824912e+02
1.013222909039988712e-01 5.119113512948789548e+02
1.014223129088399344e-01 5.119312487191324408e+02
1.015223349136810116e-01 5.119511542012855330e+02
1.016223569185220610e-01 5.119710673031059969e+02
1.017223789233631381e-01 5.119909875863989441e+02
1.018224009282042014e-01 5.120109146130190538e+02
1.019224229330452508e-01 5.120308479448849539e+02
1.020224449378863280e-01 5.120507871439931478e+02
1.021224669427273912e-01 5.120707317724300083e+02
1.022224889475684684e-01 5.120906813923865002e+02
1.023225109524095178e-01 5.121106355661701173e+02
1.024225329572505949e-01 5.121305938562209121e+02
1.025225549620916582e-01 5.121505558251205912e+02
1.026225769669327076e-01 5.121705210356102498e+02
1.027225989717737847e-01 5.121904890506017409e+02
1.028226209766148480e-01 5.122104594331904082e+02
1.029226429814559252e-01 5.122304317466689554e+02
1.030226649862969746e-01 5.122504055545410893e+02
1.031226869911380517e-01 5.122703804205348206e+02
1.032227089959791150e-01 5.122903559086154246e+02
1.033227310008201644e-01 5.123103315829986286e+02
1.034227530056612415e-01 5.123303070081645956e+02
1.035227750105023048e-01 5.123502817488697474e+02
1.036227970153433542e-01 5.123702553701609759e+02
1.037228190201844313e-01 5.123902274373897399e+02
1.038228410250255085e-01 5.124101975162218423e+02
1.039228630298665718e-01 5.124301651726567570e+02
1.040228850347076212e-01 5.124501299730327446e+02
1.041229070395486983e-01 5.124700914840478845e+02
1.042229290443897616e-01 5.124900492727671235e+02
1.043229510492308110e-01 5.125100029066391016e+02
1.044229730540718881e-01 5.125299519535076342e+02
1.045229950589129653e-01 5.125498959816259230e+02
1.046230170637540147e-01 5.125698345596661056e+02
1.047230390685950779e-01 5.125897672567381278e+02
1.048230610734361551e-01 5.126096936423981560e+02
1.049230830782772184e-01 5.126296132866635844e+02
1.050231050831182678e-01 5.126495257600244031e+02
1.051231270879593449e-01 5.126694306334580915e+02
1.052231490928004221e-01 5.126893274784411005e+02
1.053231710976414714e-01 5.127092158669634046e+02
1.054231931024825347e-01 5.127290953715382784e+02
1.055232151073236119e-01 5.127489655652186684e+02
1.056232371121646613e-01 5.127688260216085609e+02
1.057232591170057245e-01 5.127886763148745786e+02
1.058232811218468017e-01 5.128085160197611003e+02
1.059233031266878788e-01 5.128283447116004936e+02
1.060233251315289282e-01 5.128481619663284619e+02
1.061233471363699915e-01 5.128679673604950722e+02
1.062233691412110687e-01 5.128877604712772609e+02
1.063233911460521181e-01 5.129075408764930444e+02
1.064234131508931813e-01 5.129273081546120920e+02
1.065234351557342585e-01 5.129470618847702781e+02
1.066234571605753079e-01 5.129668016467810503e+02
1.067234791654163850e-01 5.129865270211480492e+02
1.068235011702574483e-01 5.130062375890784097e+02
1.069235231750985254e-01 5.130259329324936743e+02
1.070235451799395748e-01 5.130456126340444598e+02
1.071235671847806381e-01 5.130652762771221660e+02
1.072235891896217153e-01 5.130849234458680712e+02
1.073236111944627647e-01 5.131045537251923179e+02
1.074236331993038418e-01 5.131241667007798242e+02
1.075236552041449051e-01 5.131437619591058592e+02
1.076236772089859683e-01 5.131633390874478664e+02
1.077236992138270316e-01 5.131828976738983101e+02
1.078237212186680949e-01 5.132024373073742254e+02
1.079237432235091720e-01 5.132219575776333613e+02
1.080237652283502214e-01 5.132414580752831625e+02
1.081237872331912986e-01 5.132609383917931609e+02
1.082238092380323619e-01 5.132803981195095275e+02
1.083238312428734251e-01 5.132998368516639403e+02
1.084238532477144884e-01 5.133192541823879083e+02
1.085238752525555517e-01 5.133386497067237997e+02
1.086238972573966149e-01 5.133580230206367787e+02
1.087239192622376782e-01 5.133773737210261743e+02
1.088239412670787554e-01 5.133967014057380993e+02
1.089239632719198186e-01 5.134160056735786384e+02
1.090239852767608819e-01 5.134352861243220332e+02
1.091240072816019452e-01 5.134545423587258028e+02
1.092240292864430085e-01 5.134737739785397252e+02
1.093240512912840717e-01 5.134929805865210710e+02
1.094240732961251350e-01 5.135121617864418795e+02
1.095240953009662122e-01 5.135313171831043064e+02
1.096241173058072615e-01 5.135504463823494916e+02
1.097241393106483387e-01 5.135695489910713150e+02
1.098241613154894020e-01 5.135886246172251504e+02
1.099241833203304652e-01 5.136076728698425313e+02
1.100242053251715285e-01 5.136266933590402459e+02
1.101242273300125918e-01 5.136456856960318191e+02
1.102242493348536689e-01 5.136646494931403595e+02
1.103242713396947183e-01 5.136835843638068582e+02
1.104242933445357955e-01 5.137024899226053094e+02
1.105243153493768588e-01 5.137213657852513506e+02
1.106243373542179081e-01 5.137402115686131765e+02
1.107243593590589853e-01 5.137590268907243853e+02
1.108243813639000486e-01 5.137778113707930743e+02
1.109244033687411257e-01 5.137965646292144584e+02
1.110244253735821751e-01 5.138152862875809888e+02
1.111244473784232523e-01 5.138339759686925845e+02
1.112244693832643155e-01 5.138526332965698202e+02
1.113244913881053649e-01 5.138712578964618842e+02
1.114245133929464421e-01 5.138898493948595387e+02
1.115245353977875054e-01 5.139084074195046696e+02
1.116245574026285825e-01 5.139269315994008593e+02
1.117245794074696319e-01 5.139454215648245281e+02
1.118246014123107090e-01 5.139638769473378943e+02
1.119246234171517723e-01 5.139822973797926124e+02
1.120246454219928217e-01 5.140006824963476220e+02
1.121246674268338989e-01 5.140190319324764232e+02
1.122246894316749621e-01 5.140373453249762861e+02
1.123247114365160115e-01 5.140556223119818924e+02
1.124247334413570887e-01 5.140738625329722709e+02
1.125247554461981658e-01 5.140920656287826205e+02
1.126247774510392291e-01 5.141102312416154518e+02
1.127247994558802785e-01 5.141283590150479768e+02
1.128248214607213556e-01 5.141464485940443865e+02
1.129248434655624189e-01 5.141644996249666519e+02
1.130248654704034683e-01 5.141825117555807765e+02
1.131248874752445455e-01 5.142004846350713478e+02
1.132249094800856226e-01 5.142184179140476772e+02
1.133249314849266720e-01 5.142363112445557363e+02
1.134249534897677353e-01 5.142541642800873660e+02
1.135249754946088124e-01 5.142719766755893716e+02
1.136249974994498757e-01 5.142897480874748908e+02
1.137250195042909251e-01 5.143074781736302157e+02
1.138250415091320022e-01 5.143251665934276389e+02
1.139250635139730794e-01 5.143428130077321612e+02
1.140250855188141288e-01 5.143604170789126329e+02
1.141251075236551921e-01 5.143779784708505076e+02
1.142251295284962692e-01 5.143954968489490511e+02
1.143251515333373186e-01 5.144129718801428908e+02
1.144251735381783819e-01 5.144304032329071106e+02
1.145251955430194590e-01 5.144477905772671420e+02
1.146252175478605362e-01 5.144651335848062672e+02
1.147252395527015856e-01 5.144824319286758509e+02
1.148252615575426488e-01 5.144996852836050039e+02
1.149252835623837260e-01 5.145168933259069490e+02
1.150253055672247754e-01 5.145340557334911864e+02
1.151253275720658387e-01 5.145511721858691772e+02
1.152253495769069158e-01 5.145682423641660534e+02
1.153253715817479652e-01 5.145852659511274396e+02
1.154253935865890424e-01 5.146022426311279787e+02
1.155254155914301056e-01 5.146191720901802000e+02
1.156254375962711828e-01 5.146360540159458878e+02
1.157254596011122322e-01 5.146528880977380140e+02
1.158254816059532954e-01 5.146696740265366543e+02
1.159255036107943726e-01 5.146864114949920577e+02
1.160255256156354220e-01 5.147031001974353330e+02
1.161255476204764991e-01 5.147197398298849293e+02
1.162255696253175624e-01 5.147363300900569811e+02
1.163255916301586257e-01 5.147528706773722433e+02
1.164256136349996890e-01 5.147693612929639357e+02
1.165256356398407522e-01 5.147858016396861558e+02
1.166256576446818294e-01 5.148021914221214956e+02
1.167256796495228788e-01 5.148185303465893412e+02
1.168257016543639559e-01 5.148348181211528072e+02
1.169257236592050192e-01 5.148510544556279456e+02
1.170257456640460825e-01 5.148672390615897712e+02
1.171257676688871457e-01 5.148833716523802195e+02
1.172257896737282090e-01 5.148994519431178105e+02
1.173258116785692723e-01 5.149154796507016272e+02
1.174258336834103356e-01 5.149314544938209792e+02
1.175258556882514127e-01 5.149473761929630200e+02
1.176258776930924760e-01 5.149632444704182035e+02
1.177258996979335393e-01 5.149790590502892655e+02
1.178259217027746025e-01 5.149948196584974767e+02
1.179259437076156658e-01 5.150105260227903727e+02
1.180259657124567291e-01 5.150261778727474393e+02
1.181259877172977923e-01 5.150417749397892067e+02
1.182260097221388695e-01 5.150573169571817971e+02
1.183260317269799189e-01 5.150728036600455653e+02
1.184260537318209960e-01 5.150882347853614647e+02
1.185260757366620593e-01 5.151036100719767319e+02
1.186260977415031226e-01 5.151189292606131858e+02
1.187261197463441859e-01 5.151341920938712065e+02
1.188261417511852491e-01 5.151493983162401946e+02
1.189261637560263263e-01 5.151645476741010725e+02
1.190261857608673757e-01 5.151796399157348105e+02
1.191262077657084528e-01 5.151946747913287936e+02
1.192262297705495161e-01 5.152096520529808004e+02
1.193262517753905655e-01 5.152245714547083253e+02
1.194262737802316426e-01 5.152394327524534674e+02
1.195262957850727059e-01 5.152542357040870229e+02
1.196263177899137831e-01 5.152689800694176938e+02
1.197263397947548325e-01 5.152836656101956123e+02
1.198263617995959096e-01 5.152982920901187072e+02
1.199263838044369729e-01 5.153128592748397523e+02
1.200264058092780223e-01 5.153273669319693226e+02
1.201264278141190994e-01 5.153418148310847755e+02
1.202264498189601627e-01 5.153562027437330926e+02
1.203264718238012398e-01 5.153705304434369054e+02
1.204264938286422892e-01 5.153847977057024536e+02
1.205265158334833664e-01 5.153990043080200394e+02
1.206265378383244297e-01 5.154131500298742594e+02
1.207265598431654791e-01 5.154272346527457103e+02
1.208265818480065562e-01 5.154412579601181505e+02
1.209266038528476195e-01 5.154552197374823663e+02
1.210266258576886689e-01 5.154691197723424239e+02
1.211266478625297460e-01 5.154829578542187392e+02
1.212266698673708232e-01 5.154967337746544445e+02
1.213266918722118864e-01 5.155104473272200494e+02
1.214267138770529358e-01 5.155240983075168515e+02
1.215267358818940130e-01 5.155376865131835302e+02
1.216267578867350763e-01 5.155512117438997848e+02
1.217267798915761257e-01 5.155646738013895174e+02
1.218268018964172028e-01 5.155780724894268587e+02
1.219268239012582800e-01 5.155914076138410564e+02
1.220268459060993294e-01 5.156046789825195447e+02
1.221268679109403926e-01 5.156178864054112410e+02
1.222268899157814698e-01 5.156310296945337086e+02
1.223269119206225330e-01 5.156441086639736113e+02
1.224269339254635824e-01 5.156571231298936482e+02
1.225269559303046596e-01 5.156700729105344863e+02
1.226269779351457367e-01 5.156829578262202176e+02
1.227269999399867861e-01 5.156957776993613152e+02
1.228270219448278494e-01 5.157085323544571338e+02
1.229270439496689266e-01 5.157212216181023905e+02
1.230270659545099760e-01 5.157338453189881875e+02
1.231270879593510392e-01 5.157464032879058777e+02
1.232271099641921164e-01 5.157588953577526354e+02
1.233271319690331935e-01 5.157713213635313423e+02
1.234271539738742429e-01 5.157836811423569543e+02
1.235271759787153062e-01 5.157959745334574109e+02
1.236271979835563833e-01 5.158082013781790920e+02
1.237272199883974327e-01 5.158203615199868182e+02
1.238272419932384960e-01 5.158324548044701032e+02
1.239272639980795732e-01 5.158444810793433817e+02
1.240272860029206226e-01 5.158564401944506699e+02
1.241273080077616997e-01 5.158683320017664755e+02
1.242273300126027630e-01 5.158801563554012546e+02
1.243273520174438401e-01 5.158919131116008430e+02
1.244273740222848895e-01 5.159036021287515723e+02
1.245273960271259528e-01 5.159152232673809522e+02
1.246274180319670299e-01 5.159267763901606259e+02
1.247274400368080793e-01 5.159382613619093263e+02
1.248274620416491565e-01 5.159496780495948087e+02
1.249274840464902198e-01 5.159610263223352149e+02
1.250275060513312830e-01 5.159723060514015742e+02
1.251275280561723324e-01 5.159835171102211007e+02
1.252275500610134096e-01 5.159946593743770791e+02
1.253275720658544867e-01 5.160057327216117073e+02
1.254275940706955361e-01 5.160167370318290523e+02
1.255276160755366133e-01 5.160276721870935717e+02
1.256276380803776904e-01 5.160385380716356849e+02
1.257276600852187398e-01 5.160493345718507499e+02
1.258276820900597892e-01 5.160600615763006545e+02
1.259277040949008664e-01 5.160707189757171136e+02
1.260277260997419158e-01 5.160813066630003050e+02
1.261277481045829929e-01 5.160918245332237575e+02
1.262277701094240701e-01 5.161022724836309408e+02
1.263277921142651472e-01 5.161126504136406083e+02
1.264278141191061966e-01 5.161229582248452061e+02
1.265278361239472460e-01 5.161331958210131461e+02
1.266278581287883231e-01 5.161433631080901705e+02
1.267278801336293725e-01 5.161534599941975330e+02
1.268279021384704497e-01 5.161634863896360912e+02
1.269279241433115268e-01 5.161734422068850563e+02
1.270279461481525762e-01 5.161833273606019930e+02
1.271279681529936534e-01 5.161931417676270257e+02
1.272279901578347028e-01 5.162028853469774958e+02
1.273280121626757799e-01 5.162125580198544412e+02
1.274280341675168293e-01 5.162221597096378218e+02
1.275280561723579065e-01 5.162316903418907259e+02
1.276280781771989836e-01 5.162411498443560731e+02
1.277281001820400330e-01 5.162505381469599115e+02
1.278281221868811102e-01 5.162598551818090300e+02
1.279281441917221596e-01 5.162691008831923227e+02
1.280281661965632367e-01 5.162782751875803342e+02
1.281281882014042861e-01 5.162873780336244636e+02
1.282282102062453633e-01 5.162964093621569646e+02
1.283282322110864404e-01 5.163053691161920824e+02
1.284282542159274898e-01 5.163142572409224158e+02
1.285282762207685670e-01 5.163230736837223276e+02
1.286282982256096163e-01 5.163318183941438519e+02
1.287283202304506935e-01 5.163404913239181724e+02
1.288283422352917429e-01 5.163490924269552806e+02
1.289283642401328200e-01 5.163576216593410209e+02
1.290283862449738972e-01 5.163660789793377717e+02
1.291284082498149466e-01 5.163744643473841052e+02
1.292284302546560237e-01 5.163827777260917173e+02
1.293284522594970731e-01 5.163910190802463376e+02
1.294284742643381503e-01 5.163991883768056823e+02
1.295284962691791997e-01 5.164072855848986592e+02
1.296285182740202768e-01 5.164153106758229796e+02
1.297285402788613262e-01 5.164232636230456137e+02
1.298285622837024034e-01 5.164311444021998341e+02
1.299285842885434805e-01 5.164389529910841929e+02
1.300286062933845299e-01 5.164466893696610441e+02
1.301286282982256071e-01 5.164543535200552924e+02
1.302286503030666565e-01 5.164619454265516652e+02
1.303286723079077336e-01 5.164694650755940302e+02
1.304286943127487830e-01 5.164769124557818714e+02
1.305287163175898602e-01 5.164842875578715393e+02
1.306287383224309373e-01 5.164915903747696575e+02
1.307287603272719867e-01 5.164988209015355096e+02
1.308287823321130638e-01 5.165059791353760374e+02
1.309288043369541132e-01 5.165130650756450450e+02
1.310288263417951904e-01 5.165200787238397879e+02
1.311288483466362398e-01 5.165270200835993819e+02
1.312288703514773169e-01 5.165338891607028700e+02
1.313288923563183941e-01 5.165406859630651297e+02
1.314289143611594435e-01 5.165474105007353955e+02
1.315289363660005206e-01 5.165540627858950984e+02
1.316289583708415700e-01 5.165606428328542279e+02
1.317289803756826472e-01 5.165671506580482628e+02
1.318290023805236966e-01 5.165735862800365794e+02
1.319290243853647737e-01 5.165799497194989272e+02
1.320290463902058509e-01 5.165862409992312223e+02
1.321290683950469003e-01 5.165924601441446384e+02
1.322290903998879774e-01 5.165986071812607179e+02
1.323291124047290268e-01 5.166046821397100075e+02
1.324291344095701040e-01 5.166106850507267154e+02
1.325291564144111534e-01 5.166166159476466646e+02
1.326291784192522305e-01 5.166224748659037687e+02
1.327292004240932799e-01 5.166282618430254843e+02
1.328292224289343570e-01 5.166339769186312196e+02
1.329292444337754342e-01 5.166396201344267638e+02
1.330292664386164836e-01 5.166451915342020129e+02
1.331292884434575607e-01 5.166506911638266502e+02
1.332293104482986101e-01 5.166561190712463940e+02
1.333293324531396873e-01 5.166614753064784509e+02
1.334293544579807367e-01 5.166667599216092412e+02
1.335293764628218138e-01 5.166719729707886017e+02
1.336293984676628910e-01 5.166771145102268292e+02
1.337294204725039404e-01 5.166821845981899060e+02
1.338294424773450175e-01 5.166871832949955206e+02
1.339294644821860669e-01 5.166921106630092027e+02
1.340294864870271441e-01 5.166969667666394344e+02
1.341295084918681935e-01 5.167017516723326480e+02
1.342295304967092706e-01 5.167064654485707251e+02
1.343295525015503478e-01 5.167111081658639478e+02
1.344295745063913972e-01 5.167156798967483837e+02
1.345295965112324743e-01 5.167201807157813391e+02
1.346296185160735237e-01 5.167246106995336277e+02
1.347296405209145731e-01 5.167289699265880927e+02
1.348296625257556502e-01 5.167332584775340365e+02
1.349296845305967274e-01 5.167374764349606266e+02
1.350297065354378045e-01 5.167416238834539399e+02
1.351297285402788539e-01 5.167457009095904823e+02
1.352297505451199311e-01 5.167497076019333235e+02
1.353297725499609805e-01 5.167536440510250486e+02
1.354297945548020299e-01 5.167575103493846882e+02
1.355298165596431070e-01 5.167613065915012385e+02
1.356298385644841842e-01 5.167650328738270673e+02
1.357298605693252336e-01 5.167686892947764363e+02
1.358298825741663107e-01 5.167722759547141322e+02
1.359299045790073879e-01 5.167757929559560353e+02
1.360299265838484373e-01 5.167792404027588873e+02
1.361299485886894867e-01 5.167826184013172224e+02
1.362299705935305638e-01 5.167859270597556360e+02
1.363299925983716410e-01 5.167891664881254883e+02
1.364300146032126904e-01 5.167923367983967182e+02
1.365300366080537675e-01 5.167954381044523871e+02
1.366300586128948447e-01 5.167984705220842443e+02
1.367300806177358941e-01 5.168014341689854518e+02
1.368301026225769434e-01 5.168043291647431943e+02
1.369301246274180206e-01 5.168071556308348136e+02
1.370301466322590977e-01 5.168099136906209878e+02
1.371301686371001471e-01 5.168126034693390238e+02
1.372301906419412243e-01 5.168152250940954673e+02
1.373302126467823014e-01 5.168177786938621239e+02
1.374302346516233508e-01 5.168202643994676464e+02
1.375302566564644002e-01 5.168226823435918504e+02
1.376302786613054774e-01 5.168250326607585521e+02
1.377303006661465545e-01 5.168273154873304520e+02
1.378303226709876039e-01 5.168295309614993585e+02
1.379303446758286811e-01 5.168316792232830039e+02
1.380303666806697582e-01 5.168337604145172008e+02
1.381303886855108076e-01 5.168357746788456097e+02
1.382304106903518570e-01 5.168377221617184887e+02
1.383304326951929342e-01 5.168396030103816656e+02
1.384304547000339836e-01 5.168414173738703994e+02
1.385304767048750607e-01 5.168431654030028994e+02
1.386304987097161379e-01 5.168448472503725952e+02
1.387305207145572150e-01 5.168464630703424518e+02
1.388305427193982644e-01 5.168480130190343971e+02
1.389305647242393138e-01 5.168494972543262520e+02
1.390305867290803910e-01 5.168509159358405896e+02
1.391306087339214403e-01 5.168522692249396187e+02
1.392306307387625175e-01 5.168535572847174535e+02
1.393306527436035946e-01 5.168547802799911324e+02
1.394306747484446440e-01 5.168559383772958427e+02
1.395306967532857212e-01 5.168570317448736660e+02
1.396307187581267706e-01 5.168580605526688032e+02
1.397307407629678477e-01 5.168590249723193892e+02
1.398307627678088971e-01 5.168599251771479430e+02
1.399307847726499743e-01 5.168607613421554561e+02
1.400308067774910514e-01 5.168615336440129795e+02
1.401308287823321008e-01 5.168622422610535523e+02
1.402308507871731780e-01 5.168628873732642433e+02
1.403308727920142274e-01 5.168634691622789887e+02
1.404308947968552768e-01 5.168639878113668829e+02
1.405309168016963539e-01 5.168644435054293353e+02
1.406309388065374311e-01 5.168648364309896124e+02
1.407309608113785082e-01 5.168651667761829458e+02
1.408309828162195576e-01 5.168654347307502803e+02
1.409310048210606348e-01 5.168656404860296334e+02
1.410310268259016842e-01 5.168657842349471139e+02
1.411310488307427335e-01 5.168658661720091914e+02
1.412310708355838107e-01 5.168658864932941697e+02
1.413310928404248878e-01 5.168658453964424098e+02
1.414311148452659372e-01 5.168657430806506454e+02
1.415311368501070144e-01 5.168655797466592503e+02
1.416311588549480915e-01 5.168653555967475768e+02
1.417311808597891409e-01 5.168650708347238378e+02
1.418312028646301903e-01 5.168647256659144205e+02
1.419312248694712675e-01 5.168643202971578603e+02
1.420312468743123446e-01 5.168638549367956330e+02
1.421312688791533940e-01 5.168633297946621497e+02
1.422312908839944712e-01 5.168627450820752074e+02
1.423313128888355483e-01 5.168621010118300774e+02
1.424313348936765977e-01 5.168613977981872267e+02
1.425313568985176471e-01 5.168606356568650426e+02
1.426313789033587243e-01 5.168598148050311920e+02
1.427314009081998014e-01 5.168589354612906845e+02
1.428314229130408508e-01 5.168579978456820072e+02
1.429314449178819280e-01 5.168570021796613219e+02
1.430314669227230051e-01 5.168559486860980314e+02
1.431314889275640545e-01 5.168548375892637523e+02
1.432315109324051039e-01 5.168536691148242426e+02
1.433315329372461810e-01 5.168524434898276922e+02
1.434315549420872304e-01 5.168511609426972200e+02
1.435315769469283076e-01 5.168498217032208686e+02
1.436315989517693847e-01 5.168484260025422827e+02
1.437316209566104619e-01 5.168469740731513866e+02
1.438316429614515113e-01 5.168454661488733564e+02
1.439316649662925607e-01 5.168439024648620261e+02
1.440316869711336378e-01 5.168422832575865868e+02
1.441317089759746872e-01 5.168406087648247649e+02
1.442317309808157644e-01 5.168388792256519082e+02
1.443317529856568415e-01 5.168370948804324598e+02
1.444317749904978909e-01 5.168352559708071112e+02
1.445317969953389681e-01 5.168333627396874590e+02
1.446318190001800175e-01 5.168314154312411119e+02
1.447318410050210946e-01 5.168294142908878257e+02
1.448318630098621440e-01 5.168273595652830181e+02
1.449318850147032212e-01 5.168252515023135629e+02
1.450319070195442983e-01 5.168230903510833514e+02
1.451319290243853477e-01 5.168208763619074944e+02
1.452319510292264249e-01 5.168186097862983388e+02
1.453319730340674742e-01 5.168162908769577371e+02
1.454319950389085514e-01 5.168139198877660192e+02
1.455320170437496008e-01 5.168114970737732392e+02
1.456320390485906779e-01 5.168090226911858736e+02
1.457320610534317551e-01 5.168064969973617053e+02
1.458320830582728045e-01 5.168039202507934533e+02
1.459321050631138816e-01 5.168012927111035424e+02
1.460321270679549310e-01 5.167986146390321665e+02
1.461321490727960082e-01 5.167958862964253512e+02
1.462321710776370576e-01 5.167931079462275648e+02
1.463321930824781347e-01 5.167902798524686432e+02
1.464322150873192119e-01 5.167874022802545824e+02
1.465322370921602613e-01 5.167844754957582154e+02
1.466322590970013384e-01 5.167814997662065934e+02
1.467322811018423878e-01 5.167784753598721181e+02
1.468323031066834650e-01 5.167754025460615139e+02
1.469323251115245144e-01 5.167722815951040047e+02
1.470323471163655915e-01 5.167691127783442653e+02
1.471323691212066409e-01 5.167658963681274145e+02
1.472323911260477181e-01 5.167626326377919668e+02
1.473324131308887952e-01 5.167593218616576678e+02
1.474324351357298446e-01 5.167559643150143529e+02
1.475324571405709217e-01 5.167525602741128523e+02
1.476324791454119711e-01 5.167491100161528266e+02
1.477325011502530483e-01 5.167456138192721937e+02
1.478325231550940977e-01 5.167420719625375796e+02
1.479325451599351748e-01 5.167384847259327216e+02
1.480325671647762520e-01 5.167348523903474415e+02
1.481325891696173014e-01 5.167311752375671858e+02
1.482326111744583785e-01 5.167274535502618846e+02
1.483326331792994279e-01 5.167236876119758335e+02
1.484326551841405051e-01 5.167198777071164386e+02
1.485326771889815545e-01 5.167160241209427340e+02
1.486326991938226316e-01 5.167121271395551503e+02
1.487327211986637088e-01 5.167081870498850549e+02
1.488327432035047582e-01 5.167042041396823606e+02
1.489327652083458353e-01 5.167001786975062032e+02
1.490327872131868847e-01 5.166961110127125494e+02
1.491328092180279619e-01 5.166920013754441925e+02
1.492328312228690113e-01 5.166878500766187017e+02
1.493328532277100884e-01 5.166836574079190996e+02
1.494328752325511656e-01 5.166794236617818115e+02
1.495328972373922150e-01 5.166751491313845008e+02
1.496329192422332921e-01 5.166708341106370881e+02
1.497329412470743415e-01 5.166664788941693587e+02
1.498329632519154186e-01 5.166620837773201629e+02
1.499329852567564680e-01 5.166576490561265018e+02
1.500330072615975452e-01 5.166531750273118178e+02
1.501330292664385946e-01 5.166486619882762170e+02
1.502330512712796717e-01 5.166441102370835097e+02
1.503330732761207489e-01 5.166395200724512051e+02
1.504330952809617983e-01 5.166348917937383476e+02
1.505331172858028754e-01 5.166302257009374443e+02
1.506331392906439248e-01 5.166255220946572990e+02
1.507331612954850020e-01 5.166207812761190326e+02
1.508331833003260514e-01 5.166160035471373249e+02
1.509332053051671285e-01 5.166111892101179137e+02
1.510332273100082057e-01 5.166063385680365627e+02
1.511332493148492551e-01 5.166014519244363328e+02
1.512332713196903322e-01 5.165965295834107565e+02
1.513332933245313816e-01 5.165915718495958799e+02
1.514333153293724588e-01 5.165865790281571890e+02
1.515333373342135082e-01 5.165815514247794908e+02
1.516333593390545853e-01 5.165764893456534992e+02
1.517333813438956625e-01 5.165713930974675350e+02
1.518334033487367118e-01 5.165662629873946798e+02
1.519334253535777890e-01 5.165610993230809527e+02
1.520334473584188384e-01 5.165559024126348504e+02
1.521334693632598878e-01 5.165506725646159794e+02
1.522334913681009649e-01 5.165454100880240276e+02
1.523335133729420421e-01 5.165401152922862593e+02
1.524335353777831192e-01 5.165347884872470559e+02
1.525335573826241686e-01 5.165294299831565468e+02
1.526335793874652458e-01 5.165240400906602645e+02
1.527336013923062952e-01 5.165186191207859565e+02
1.528336233971473446e-01 5.165131673849325580e+02
1.529336454019884217e-01 5.165076851948607555e+02
1.530336674068294989e-01 5.165021728626791173e+02
1.531336894116705483e-01 5.164966307008344302e+02
1.532337114165116254e-01 5.164910590221007851e+02
1.533337334213527026e-01 5.164854581395665036e+02
1.534337554261937520e-01 5.164798283666234511e+02
1.535337774310348014e-01 5.164741700169561227e+02
1.536337994358758785e-01 5.164684834045311845e+02
1.537338214407169557e-01 5.164627688435840582e+02
1.538338434455580050e-01 5.164570266486086894e+02
1.539338654503990822e-01 5.164512571343475429e+02
1.540338874552401593e-01 5.164454606157770513e+02
1.541339094600812087e-01 5.164396374080990881e+02
1.542339314649222581e-01 5.164337878267301676e+02
1.543339534697633353e-01 5.164279121872865517e+02
1.544339754746044124e-01 5.164220108055764058e+02
1.545339974794454618e-01 5.164160839975870658e+02
1.546340194842865390e-01 5.164101320794745789e+02
1.547340414891276161e-01 5.164041553675504019e+02
1.548340634939686655e-01 5.163981541782734439e+02
1.549340854988097149e-01 5.163921288282357409e+02
1.550341075036507921e-01 5.163860796341524519e+02
1.551341295084918692e-01 5.163800069128506038e+02
1.552341515133329186e-01 5.163739109812581773e+02
1.553341735181739958e-01 5.163677921563926247e+02
1.554341955230150729e-01 5.163616507553487054e+02
1.555342175278561223e-01 5.163554870952891633e+02
1.556342395326971717e-01 5.163493014934318808e+02
1.557342615375382489e-01 5.163430942670385093e+02
1.558342835423792982e-01 5.163368657334059435e+02
1.559343055472203754e-01 5.163306162098517689e+02
1.560343275520614525e-01 5.163243460137042575e+02
1.561343495569025297e-01 5.163180554622933869e+02
1.562343715617435791e-01 5.163117448729364014e+02
1.563343935665846285e-01 5.163054145629288314e+02
1.564344155714256779e-01 5.162990648495318737e+02
1.565344375762667550e-01 5.162926960499628422e+02
1.566344595811078322e-01 5.162863084813837986e+02
1.567344815859489093e-01 5.162799024608893887e+02
1.568345035907899865e-01 5.162734783054959280e+02
1.569345255956310359e-01 5.162670363321324203e+02
1.570345476004720853e-01 5.162605768576269156e+02
1.571345696053131347e-01 5.162541001986968467e+02
1.572345916101542118e-01 5.162476066719381151e+02
1.573346136149952890e-01 5.162410965938134950e+02
1.574346356198363661e-01 5.162345702806417194e+02
1.575346576246774433e-01 5.162280280485878166e+02
1.576346796295184927e-01 5.162214702136496953e+02
1.577347016343595421e-01 5.162148970916503004e+02
1.578347236392005914e-01 5.162083089982230604e+02
1.579347456440416686e-01 5.162017062488059764e+02
1.580347676488827457e-01 5.161950891586263879e+02
1.581347896537238229e-01 5.161884580426902858e+02
1.582348116585649000e-01 5.161818132157754917e+02
1.583348336634059217e-01 5.161751549924159690e+02
1.584348556682469988e-01 5.161684836868960247e+02
1.585348776730880482e-01 5.161617996132333701e+02
1.586348996779291254e-01 5.161551030851753694e+02
1.587349216827702025e-01 5.161483944161819863e+02
1.588349436876112797e-01 5.161416739194203274e+02
1.589349656924523568e-01 5.161349419077503171e+02
1.590349876972933785e-01 5.161281986937159445e+02
1.591350097021344556e-01 5.161214445895338940e+02
1.592350317069755050e-01 5.161146799070829729e+02
1.593350537118165822e-01 5.161079049578935383e+02
1.594350757166576593e-01 5.161011200531386294e+02
1.595350977214987365e-01 5.160943255036204391e+02
1.596351197263398136e-01 5.160875216197620148e+02
1.597351417311808353e-01 5.160807087115956620e+02
1.598351637360219124e-01 5.160738870887538496e+02
1.599351857408629618e-01 5.160670570604568184e+02
1.600352077457040390e-01 5.160602189355047358e+02
1.601352297505451161e-01 5.160533730222646227e+02
1.602352517553861933e-01 5.160465196286622813e+02
1.603352737602272149e-01 5.160396590621704718e+02
1.604352957650682920e-01 5.160327916297984530e+02
1.605353177699093692e-01 5.160259176380847066e+02
1.606353397747504186e-01 5.160190373930826127e+02
1.607353617795914957e-01 5.160121512003526050e+02
1.608353837844325729e-01 5.160052593649518258e+02
1.609354057892736500e-01 5.159983621914230980e+02
1.610354277941146717e-01 5.159914599837865126e+02
1.611354497989557488e-01 5.159845530455272637e+02
1.612354718037968260e-01 5.159776416795866680e+02
1.613354938086378754e-01 5.159707261883531828e+02
1.614355158134789525e-01 5.159638068736508103e+02
1.615355378183200297e-01 5.159568840367287521e+02
1.616355598231611068e-01 5.159499579782536784e+02
1.617355818280021285e-01 5.159430289982987006e+02
1.618356038328432056e-01 5.159360973963320021e+02
1.619356258376842828e-01 5.159291634712103587e+02
1.620356478425253322e-01 5.159222275211664055e+02
1.621356698473664093e-01 5.159152898437999966e+02
1.622356918522074865e-01 5.159083507360689964e+02
1.623357138570485636e-01 5.159014104942780250e+02
1.624357358618895852e-01 5.158944694140714091e+02
1.625357578667306624e-01 5.158875277904205632e+02
1.626357798715717395e-01 5.158805859176169406e+02
1.627358018764127889e-01 5.158736440892604378e+02
1.628358238812538661e-01 5.158667025982517771e+02
1.629358458860949432e-01 5.158597617367814792e+02
1.630358678909359926e-01 5.158528217963219049e+02
1.631358898957770420e-01 5.158458830676158868e+02
1.632359119006181192e-01 5.158389458406704762e+02
1.633359339054591963e-01 5.158320104047431869e+02
1.634359559103002457e-01 5.158250770483371070e+02
1.635359779151413229e-01 5.158181460591898713e+02
1.636359999199824000e-01 5.158112177242630878e+02
1.637360219248234494e-01 5.158042923297354037e+02
1.638360439296644988e-01 5.157973701609925001e+02
1.639360659345055760e-01 5.157904515026172021e+02
1.640360879393466531e-01 5.157835366383820883e+02
1.641361099441877025e-01 5.157766258512398281e+02
1.642361319490287797e-01 5.157697194233120399e+02
1.643361539538698568e-01 5.157628176358848577e+02
1.644361759587109062e-01 5.157559207693956296e+02
1.645361979635519556e-01 5.157490291034272332e+02
1.646362199683930327e-01 5.157421429166976168e+02
1.647362419732341099e-01 5.157352624870503632e+02
1.648362639780751593e-01 5.157283880914490055e+02
1.649362859829162364e-01 5.157215200059652034e+02
1.650363079877572858e-01 5.157146585057712400e+02
1.651363299925983630e-01 5.157078038651319503e+02
1.652363519974394124e-01 5.157009563573955120e+02
1.653363740022804895e-01 5.156941162549854880e+02
1.654363960071215667e-01 5.156872838293919585e+02
1.655364180119626161e-01 5.156804593511631083e+02
1.656364400168036932e-01 5.156736430898960180e+02
1.657364620216447426e-01 5.156668353142318892e+02
1.658364840264858198e-01 5.156600362918424025e+02
1.659365060313268692e-01 5.156532462894255104e+02
1.660365280361679463e-01 5.156464655726961155e+02
1.661365500410090235e-01 5.156396944063773162e+02
1.662365720458500729e-01 5.156329330541933587e+02
1.663365940506911500e-01 5.156261817788605413e+02
1.664366160555321994e-01 5.156194408420802802e+02
1.665366380603732765e-01 5.156127105045303551e+02
1.666366600652143259e-01 5.156059910258570653e+02
1.667366820700554031e-01 5.155992826646670437e+02
1.668367040748964802e-01 5.155925856785210044e+02
1.669367260797375296e-01 5.155859003239240792e+02
1.670367480845785790e-01 5.155792268563202470e+02
1.671367700894196562e-01 5.155725655300811923e+02
1.672367920942607333e-01 5.155659165985034633e+02
1.673368140991017827e-01 5.155592803137958526e+02
1.674368361039428599e-01 5.155526569270755317e+02
1.675368581087839370e-01 5.155460466883596382e+02
1.676368801136249864e-01 5.155394498465564084e+02
1.677369021184660358e-01 5.155328666494604022e+02
1.678369241233071130e-01 5.155262973437427263e+02
1.679369461281481901e-01 5.155197421749451223e+02
1.680369681329892395e-01 5.155132013874726908e+02
1.681369901378303167e-01 5.155066752245855923e+02
1.682370121426713938e-01 5.155001639283937038e+02
1.683370341475124432e-01 5.154936677398482061e+02
1.684370561523534926e-01 5.154871868987347625e+02
1.685370781571945697e-01 5.154807216436671524e+02
1.686371001620356469e-01 5.154742722120798817e+02
1.687371221668766963e-01 5.154678388402207929e+02
1.688371441717177734e-01 5.154614217631457223e+02
1.689371661765588506e-01 5.154550212147102002e+02
1.690371881813998722e-01 5.154486374275641083e+02
1.691372101862409494e-01 5.154422706331439485e+02
1.692372321910820265e-01 5.154359210616662494e+02
1.693372541959231037e-01 5.154295889421219954e+02
1.694372762007641531e-01 5.154232745022687823e+02
1.695372982056052302e-01 5.154169779686266111e+02
1.696373202104463074e-01 5.154106995664683382e+02
1.697373422152873290e-01 5.154044395198155826e+02
1.698373642201284062e-01 5.153981980514324732e+02
1.699373862249694833e-01 5.153919753828179182e+02
1.700374082298105605e-01 5.153857717342011711e+02
1.701374302346516099e-01 5.153795873245344410e+02
1.702374522394926870e-01 5.153734223714872087e+02
1.703374742443337642e-01 5.153672770914400871e+02
1.704374962491747858e-01 5.153611516994795920e+02
1.705375182540158630e-01 5.153550464093917753e+02
1.706375402588569401e-01 5.153489614336559725e+02
1.707375622636980173e-01 5.153428969834390045e+02
1.708375842685390666e-01 5.153368532685910850e+02
1.709376062733801438e-01 5.153308304976366117e+02
1.710376282782212209e-01 5.153248288777741664e+02
1.711376502830622426e-01 5.153188486148637821e+02
1.712376722879033197e-01 5.153128899134287622e+02
1.713376942927443969e-01 5.153069529766436290e+02
1.714377162975854740e-01 5.153010380063349203e+02
1.715377383024265234e-01 5.152951452029701613e+02
1.716377603072676006e-01 5.152892747656561596e+02
1.717377823121086222e-01 5.152834268921334342e+02
1.718378043169496994e-01 5.152776017787691671e+02
1.719378263217907765e-01 5.152717996205547024e+02
1.720378483266318537e-01 5.152660206110977015e+02
1.721378703314729308e-01 5.152602649426203243e+02
1.722378923363139802e-01 5.152545328059507028e+02
1.723379143411550574e-01 5.152488243905216905e+02
1.724379363459960790e-01 5.152431398843633588e+02
1.725379583508371562e-01 5.152374794740994730e+02
1.726379803556782333e-01 5.152318433449420354e+02
1.727380023605193105e-01 5.152262316806874196e+02
1.728380243653603876e-01 5.152206446637117097e+02
1.729380463702014370e-01 5.152150824749658113e+02
1.730380683750425141e-01 5.152095452939711322e+02
1.731380903798835358e-01 5.152040332988146929e+02
1.732381123847246129e-01 5.151985466661462851e+02
1.733381343895656901e-01 5.151930855711721051e+02
1.734381563944067672e-01 5.151876501876517978e+02
1.735381783992478444e-01 5.151822406878953871e+02
1.736382004040888938e-01 5.151768572427550907e+02
1.737382224089299432e-01 5.151715000216270255e+02
1.738382444137709926e-01 5.151661691924418847e+02
1.739382664186120697e-01 5.151608649216652793e+02
1.740382884234531469e-01 5.151555873742906897e+02
1.741383104282942240e-01 5.151503367138363956e+02
1.742383324331353012e-01 5.151451131023443395e+02
1.743383544379763506e-01 5.151399167003720549e+02
1.744383764428174000e-01 5.151347476669922116e+02
1.745383984476584494e-01 5.151296061597887501e+02
1.746384204524995265e-01 5.151244923348522207e+02
1.747384424573406037e-01 5.151194063467766000e+02
1.748384644621816808e-01 5.151143483486566765e+02
1.749384864670227580e-01 5.151093184920829344e+02
1.750385084718638073e-01 5.151043169271425768e+02
1.751385304767048567e-01 5.150993438024097486e+02
1.752385524815459061e-01 5.150943992649484926e+02
1.753385744863869833e-01 5.150894834603061554e+02
1.754385964912280604e-01 5.150845965325113411e+02
1.755386184960691376e-01 5.150797386240715241e+02
1.756386405009102147e-01 5.150749098759690696e+02
1.757386625057512364e-01 5.150701104276582782e+02
1.758386845105923135e-01 5.150653404170645899e+02
1.759387065154333629e-01 5.150605999805800366e+02
1.760387285202744401e-01 5.150558892530609683e+02
1.761387505251155172e-01 5.150512083678255522e+02
1.762387725299565944e-01 5.150465574566511577e+02
1.763387945347976715e-01 5.150419366497715146e+02
1.764388165396386932e-01 5.150373460758764850e+02
1.765388385444797703e-01 5.150327858621056976e+02
1.766388605493208197e-01 5.150282561340507073e+02
1.767388825541618969e-01 5.150237570157486289e+02
1.768389045590029740e-01 5.150192886296836150e+02
1.769389265638440512e-01 5.150148510967819675e+02
1.770389485686851283e-01 5.150104445364123649e+02
1.771389705735261499e-01 5.150060690663810874e+02
1.772389925783672271e-01 5.150017248029333814e+02
1.773390145832082765e-01 5.149974118607492528e+02
1.774390365880493536e-01 5.149931303529428988e+02
1.775390585928904308e-01 5.149888803910595243e+02
1.776390805977315079e-01 5.149846620850745467e+02
1.777391026025725296e-01 5.149804755433942773e+02
1.778391246074136067e-01 5.149763208728495556e+02
1.779391466122546839e-01 5.149721981786980223e+02
1.780391686170957333e-01 5.149681075646219597e+02
1.781391906219368104e-01 5.149640491327251084e+02
1.782392126267778876e-01 5.149600229835343725e+02
1.783392346316189647e-01 5.149560292159950450e+02
1.784392566364599864e-01 5.149520679274744452e+02
1.785392786413010635e-01 5.149481392137552120e+02
1.786393006461421407e-01 5.149442431690381454e+02
1.787393226509831901e-01 5.149403798859397057e+02
1.788393446558242672e-01 5.149365494554920133e+02
1.789393666606653444e-01 5.149327519671408027e+02
1.790393886655064215e-01 5.149289875087447399e+02
1.791394106703474431e-01 5.149252561665764460e+02
1.792394326751885203e-01 5.149215580253187454e+02
1.793394546800295974e-01 5.149178931680676214e+02
1.794394766848706468e-01 5.149142616763285787e+02
1.795394986897117240e-01 5.149106636300180071e+02
1.796395206945528011e-01 5.149070991074615904e+02
1.797395426993938783e-01 5.149035681853941924e+02
1.798395647042348999e-01 5.149000709389613348e+02
1.799395867090759771e-01 5.148966074417153322e+02
1.800396087139170542e-01 5.148931777656191571e+02
1.801396307187581036e-01 5.148897819810424608e+02
1.802396527235991808e-01 5.148864201567653254e+02
1.803396747284402579e-01 5.148830923599742846e+02
1.804396967332813073e-01 5.148797986562656206e+02
1.805397187381223567e-01 5.148765391096436588e+02
1.806397407429634339e-01 5.148733137825224730e+02
1.807397627478045110e-01 5.148701227357236121e+02
1.808397847526455604e-01 5.148669660284790552e+02
1.809398067574866376e-01 5.148638437184307577e+02
1.810398287623277147e-01 5.148607558616291726e+02
1.811398507671687641e-01 5.148577025125368891e+02
1.812398727720098135e-01 5.148546837240266996e+02
1.813398947768508906e-01 5.148516995473833049e+02
1.814399167816919678e-01 5.148487500323044515e+02
1.815399387865330172e-01 5.148458352268991121e+02
1.816399607913740943e-01 5.148429551776920334e+02
1.817399827962151715e-01 5.148401099296213488e+02
1.818400048010562209e-01 5.148372995260415337e+02
1.819400268058972703e-01 5.148345240087232924e+02
1.820400488107383474e-01 5.148317834178548082e+02
1.821400708155794246e-01 5.148290777920426535e+02
1.822400928204204740e-01 5.148264071683130396e+02
1.823401148252615511e-01 5.148237715821144320e+02
1.824401368301026005e-01 5.148211710673156176e+02
1.825401588349436777e-01 5.148186056562099111e+02
1.826401808397847271e-01 5.148160753795154960e+02
1.827402028446258042e-01 5.148135802663764480e+02
1.828402248494668814e-01 5.148111203443646673e+02
1.829402468543079308e-01 5.148086956394818117e+02
1.830402688591490079e-01 5.148063061761603194e+02
1.831402908639900573e-01 5.148039519772650010e+02
1.832403128688311345e-01 5.148016330640950855e+02
1.833403348736721838e-01 5.147993494563859258e+02
1.834403568785132610e-01 5.147971011723101356e+02
1.835403788833543381e-01 5.147948882284817955e+02
1.836404008881953875e-01 5.147927106399558852e+02
1.837404228930364647e-01 5.147905684202304428e+02
1.838404448978775141e-01 5.147884615812503171e+02
1.839404669027185912e-01 5.147863901334084176e+02
1.840404889075596406e-01 5.147843540855474203e+02
1.841405109124007178e-01 5.147823534449628369e+02
1.842405329172417949e-01 5.147803882174036971e+02
1.843405549220828443e-01 5.147784584070786877e+02
1.844405769269238937e-01 5.147765640166530829e+02
1.845405989317649709e-01 5.147747050472561341e+02
1.846406209366060480e-01 5.147728814984809560e+02
1.847406429414470974e-01 5.147710933683873691e+02
1.848406649462881746e-01 5.147693406535057647e+02
1.849406869511292517e-01 5.147676233488376738e+02
1.850407089559703011e-01 5.147659414478617919e+02
1.851407309608113505e-01 5.147642949425328425e+02
1.852407529656524277e-01 5.147626838232872615e+02
1.853407749704935048e-01 5.147611080790459255e+02
1.854407969753345542e-01 5.147595676972143792e+02
1.855408189801756313e-01 5.147580626636910210e+02
1.856408409850167085e-01 5.147565929628633512e+02
1.857408629898577579e-01 5.147551585776186585e+02
1.858408849946988073e-01 5.147537594893404957e+02
1.859409069995398844e-01 5.147523956779164109e+02
1.860409290043809616e-01 5.147510671217393110e+02
1.861409510092220110e-01 5.147497737977107590e+02
1.862409730140630881e-01 5.147485156812455216e+02
1.863409950189041653e-01 5.147472927462739563e+02
1.864410170237451869e-01 5.147461049652457632e+02
1.865410390285862641e-01 5.147449523091343053e+02
1.866410610334273412e-01 5.147438347474383136e+02
1.867410830382684184e-01 5.147427522481884807e+02
1.868411050431094678e-01 5.147417047779492805e+02
1.869411270479505449e-01 5.147406923018205589e+02
1.870411490527916221e-01 5.147397147834478801e+02
1.871411710576326437e-01 5.147387721850199114e+02
1.872411930624737209e-01 5.147378644672747896e+02
1.873412150673147980e-01 5.147369915895046688e+02
1.874412370721558752e-01 5.147361535095594718e+02
1.875412590769969245e-01 5.147353501838508691e+02
1.876412810818380017e-01 5.147345815673552352e+02
1.877413030866790788e-01 5.147338476136196732e+02
1.878413250915201005e-01 5.147331482747659948e+02
1.879413470963611776e-01 5.147324835014933342e+02
1.880413691012022548e-01 5.147318532430849700e+02
1.881413911060433319e-01 5.147312574474102576e+02
1.882414131108843813e-01 5.147306960609307680e+02
1.883414351157254585e-01 5.147301690287044948e+02
1.884414571205665356e-01 5.147296762943891508e+02
1.885414791254075573e-01 5.147292178002493301e+02
1.886415011302486344e-01 5.147287934871590096e+02
1.887415231350897116e-01 5.147284032946060961e+02
1.888415451399307887e-01 5.147280471606983383e+02
1.889415671447718381e-01 5.147277250221681015e+02
1.890415891496129153e-01 5.147274368143757783e+02
1.891416111544539369e-01 5.147271824713166097e+02
1.892416331592950141e-01 5.147269619256247779e+02
1.893416551641360912e-01 5.147267751085772716e+02
1.894416771689771684e-01 5.147266219501007072e+02
1.895416991738182455e-01 5.147265023787753080e+02
1.896417211786592949e-01 5.147264163218402473e+02
1.897417431835003720e-01 5.147263637051992191e+02
1.898417651883413937e-01 5.147263444534250993e+02
1.899417871931824708e-01 5.147263584897652891e+02
1.900418091980235480e-01 5.147264057361475125e+02
1.901418312028646251e-01 5.147264861131847056e+02
1.902418532077057023e-01 5.147265995401799046e+02
1.903418752125467517e-01 5.147267459351331809e+02
1.904418972173878288e-01 5.147269252147457337e+02
1.905419192222288505e-01 5.147271372944256882e+02
1.906419412270699276e-01 5.147273820882946893e+02
1.907419632319110048e-01 5.147276595091917670e+02
1.908419852367520819e-01 5.147279694686806124e+02
1.909420072415931591e-01 5.147283118770540113e+02
1.910420292464342085e-01 5.147286866433412342e+02
1.911420512512752579e-01 5.147290936753114465e+02
1.912420732561163073e-01 5.147295328794814395e+02
1.913420952609573844e-01 5.147300041611215420e+02
1.914421172657984616e-01 5.147305074242592582e+02
1.915421392706395387e-01 5.147310425716893860e+02
1.916421612754806159e-01 5.147316095049746991e+02
1.917421832803216653e-01 5.147322081244574292e+02
1.918422052851627146e-01 5.147328383292605167e+02
1.919422272900037640e-01 5.147335000172968194e+02
1.920422492948448412e-01 5.147341930852750238e+02
1.921422712996859183e-01 5.147349174287041933e+02
1.922422933045269955e-01 5.147356729419010435e+02
1.923423153093680726e-01 5.147364595179973321e+02
1.924423373142091220e-01 5.147372770489430422e+02
1.925423593190501714e-01 5.147381254255169551e+02
1.926423813238912208e-01 5.147390045373288103e+02
1.927424033287322980e-01 5.147399142728290826e+02
1.928424253335733751e-01 5.147408545193145528e+02
1.929424473384144523e-01 5.147418251629321730e+02
1.930424693432555294e-01 5.147428260886898670e+02
1.931424913480965511e-01 5.147438571804600542e+02
1.932425133529376282e-01 5.147449183209874946e+02
1.933425353577786776e-01 5.147460093918962230e+02
1.934425573626197548e-01 5.147471302736948928e+02
1.935425793674608319e-01 5.147482808457855299e+02
1.936426013723019091e-01 5.147494609864675112e+02
1.937426233771429862e-01 5.147506705729473424e+02
1.938426453819840078e-01 5.147519094813426364e+02
1.939426673868250850e-01 5.147531775866932549e+02
1.940426893916661344e-01 5.147544747629629001e+02
1.941427113965072115e-01 5.147558008830484368e+02
1.942427334013482887e-01 5.147571558187895562e+02
1.943427554061893658e-01 5.147585394409702531e+02
1.944427774110304430e-01 5.147599516193306499e+02
1.945427994158714646e-01 5.147613922225722263e+02
1.946428214207125418e-01 5.147628611183642988e+02
1.947428434255535912e-01 5.147643581733518658e+02
1.948428654303946683e-01 5.147658832531634516e+02
1.949428874352357455e-01 5.147674362224170181e+02
1.950429094400768226e-01 5.147690169447274684e+02
1.951429314449178443e-01 5.147706252827152866e+02
1.952429534497589214e-01 5.147722610980111995e+02
1.953429754545999986e-01 5.147739242512672035e+02
1.954429974594410480e-01 5.147756146021596351e+02
1.955430194642821251e-01 5.147773320093995153e+02
1.956430414691232023e-01 5.147790763307397128e+02
1.957430634739642794e-01 5.147808474229810827e+02
1.958430854788053010e-01 5.147826451419811065e+02
1.959431074836463782e-01 5.147844693426603726e+02
1.960431294884874553e-01 5.147863198790114438e+02
1.961431514933285047e-01 5.147881966041051101e+02
1.962431734981695819e-01 5.147900993700986874e+02
1.963431955030106590e-01 5.147920280282435215e+02
1.964432175078517362e-01 5.147939824288923774e+02
1.965432395126927578e-01 5.147959624215078520e+02
1.966432615175338350e-01 5.147979678546685136e+02
1.967432835223749121e-01 5.147999985760786785e+02
1.968433055272159615e-01 5.148020544325743231e+02
1.969433275320570387e-01 5.148041352701309279e+02
1.970433495368981158e-01 5.148062409338747329e+02
1.971433715417391930e-01 5.148083712680845565e+02
1.972433935465802146e-01 5.148105261162047555e+02
1.973434155514212918e-01 5.148127053208504549e+02
1.974434375562623689e-01 5.148149087238161883e+02
1.975434595611034183e-01 5.148171361660839693e+02
1.976434815659444955e-01 5.148193874878312499e+02
1.977435035707855726e-01 5.148216625284381962e+02
1.978435255756266220e-01 5.148239611264964424e+02
1.979435475804676714e-01 5.148262831198165941e+02
1.980435695853087485e-01 5.148286283454366412e+02
1.981435915901498257e-01 5.148309966396300297e+02
1.982436135949908751e-01 5.148333878379123689e+02
1.983436355998319522e-01 5.148358017750525732e+02
1.984436576046730294e-01 5.148382382850772956e+02
1.985436796095140788e-01 5.148406972012808183e+02
1.986437016143551282e-01 5.148431783562348301e+02
1.987437236191962053e-01 5.148456815817935421e+02
1.988437456240372825e-01 5.148482067091036924e+02
1.989437676288783319e-01 5.148507535686120491e+02
1.990437896337194090e-01 5.148533219900742779e+02
1.991438116385604862e-01 5.148559118025629004e+02
1.992438336434015356e-01 5.148585228344746838e+02
1.993438556482425850e-01 5.148611549135403038e+02
1.994438776530836621e-01 5.148638078668318485e+02
1.995438996579247393e-01 5.148664815207712309e+02
1.996439216627657887e-01 5.148691757011390564e+02
1.997439436676068658e-01 5.148718902330821265e+02
1.998439656724479152e-01 5.148746249411210556e+02
1.999439876772889924e-01 5.148773796491615258e+02
2.000440096821300417e-01 5.148801541804999715e+02
2.001440316869711189e-01 5.148829483578330155e+02
2.002440536918121960e-01 5.148857620032650857e+02
2.003440756966532454e-01 5.148885949383184197e+02
2.004440977014943226e-01 5.148914469839393178e+02
2.005441197063353720e-01 5.148943179605097384e+02
2.006441417111764491e-01 5.148972076878520738e+02
2.007441637160174985e-01 5.149001159852405181e+02
2.008441857208585757e-01 5.149030426714075475e+02
2.009442077256996528e-01 5.149059875645542661e+02
2.010442297305407022e-01 5.149089504823566585e+02
2.011442517353817794e-01 5.149119312419766175e+02
2.012442737402228288e-01 5.149149296600693333e+02
2.013442957450639059e-01 5.149179455527904565e+02
2.014443177499049553e-01 5.149209787358072390e+02
2.015443397547460325e-01 5.149240290243054687e+02
2.016443617595871096e-01 5.149270962329975418e+02
2.017443837644281590e-01 5.149301801761331490e+02
2.018444057692692084e-01 5.149332806675060965e+02
2.019444277741102856e-01 5.149363975204632879e+02
2.020444497789513627e-01 5.149395305479129092e+02
2.021444717837924121e-01 5.149426795623350017e+02
2.022444937886334893e-01 5.149458443757878285e+02
2.023445157934745664e-01 5.149490247999162875e+02
2.024445377983156158e-01 5.149522206459635072e+02
2.025445598031566652e-01 5.149554317247761901e+02
2.026445818079977423e-01 5.149586578468152993e+02
2.027446038128388195e-01 5.149618988221633344e+02
2.028446258176798689e-01 5.149651544605344498e+02
2.029446478225209460e-01 5.149684245712810480e+02
2.030446698273620232e-01 5.149717089634057174e+02
2.031446918322030726e-01 5.149750074455662343e+02
2.032447138370441220e-01 5.149783198260861354e+02
2.033447358418851991e-01 5.149816459129640407e+02
2.034447578467262763e-01 5.149849855138797921e+02
2.035447798515673257e-01 5.149883384362071865e+02
2.036448018564084028e-01 5.149917044870178415e+02
2.037448238612494800e-01 5.149950834730931319e+02
2.038448458660905016e-01 5.149984752009324893e+02
2.039448678709315788e-01 5.150018794767611325e+02
2.040448898757726559e-01 5.150052961065392765e+02
2.041449118806137331e-01 5.150087248959712269e+02
2.042449338854547825e-01 5.150121656505122019e+02
2.043449558902958596e-01 5.150156181753797000e+02
2.044449778951369368e-01 5.150190822755605495e+02
2.045449998999779584e-01 5.150225577558204577e+02
2.046450219048190355e-01 5.150260444207110595e+02
2.047450439096601127e-01 5.150295420745796946e+02
2.048450659145011898e-01 5.150330505215798667e+02
2.049450879193422392e-01 5.150365695656760181e+02
2.050451099241833164e-01 5.150400990106558083e+02
2.051451319290243935e-01 5.150436386601363665e+02
2.052451539338654152e-01 5.150471883175745234e+02
2.053451759387064923e-01 5.150507477862736323e+02
2.054451979435475695e-01 5.150543168693944835e+02
2.055452199483886466e-01 5.150578953699641716e+02
2.056452419532296960e-01 5.150614830908808699e+02
2.057452639580707732e-01 5.150650798349262232e+02
2.058452859629118503e-01 5.150686854047730776e+02
2.059453079677528720e-01 5.150722996029937804e+02
2.060453299725939491e-01 5.150759222320685922e+02
2.061453519774350263e-01 5.150795530943943277e+02
2.062453739822761034e-01 5.150831919922939051e+02
2.063453959871171528e-01 5.150868387280251000e+02
2.064454179919582300e-01 5.150904931037860024e+02
2.065454399967992516e-01 5.150941549217277498e+02
2.066454620016403287e-01 5.150978239839606658e+02
2.067454840064814059e-01 5.151015000925641516e+02
2.068455060113224830e-01 5.151051830495927106e+02
2.069455280161635602e-01 5.151088726570889094e+02
2.070455500210046096e-01 5.151125687170874698e+02
2.071455720258456867e-01 5.151162710316264111e+02
2.072455940306867084e-01 5.151199794027546659e+02
2.073456160355277855e-01 5.151236936325411762e+02
2.074456380403688627e-01 5.151274135230826232e+02
2.075456600452099398e-01 5.151311388765119545e+02
2.076456820500510170e-01 5.151348694950081608e+02
2.077457040548920664e-01 5.151386051808033244e+02
2.078457260597331435e-01 5.151423457361909186e+02
2.079457480645741652e-01 5.151460909635366079e+02
2.080457700694152423e-01 5.151498406652825679e+02
2.081457920742563195e-01 5.151535946439601048e+02
2.082458140790973966e-01 5.151573527021960217e+02
2.083458360839384738e-01 5.151611146427204631e+02
2.084458580887795232e-01 5.151648802683764643e+02
2.085458800936205725e-01 5.151686493821281374e+02
2.086459020984616219e-01 5.151724217870684015e+02
2.087459241033026991e-01 5.151761972864280779e+02
2.088459461081437762e-01 5.151799756835833932e+02
2.089459681129848534e-01 5.151837567820651884e+02
2.090459901178259305e-01 5.151875403855671038e+02
2.091460121226669799e-01 5.151913262979514911e+02
2.092460341275080293e-01 5.151951143232615777e+02
2.093460561323490787e-01 5.151989042657279469e+02
2.094460781371901559e-01 5.152026959297746771e+02
2.095461001420312330e-01 5.152064891200311649e+02
2.096461221468723102e-01 5.152102836413384921e+02
2.097461441517133873e-01 5.152140792987567011e+02
2.098461661565544367e-01 5.152178758975741175e+02
2.099461881613954861e-01 5.152216732433164452e+02
2.100462101662365355e-01 5.152254711417518820e+02
2.101462321710776127e-01 5.152292693989026020e+02
2.102462541759186898e-01 5.152330678210508950e+02
2.103462761807597670e-01 5.152368662147461009e+02
2.104462981856008441e-01 5.152406643868167748e+02
2.105463201904418657e-01 5.152444621443735286e+02
2.106463421952829429e-01 5.152482592948210822e+02
2.107463642001239923e-01 5.152520556458634928e+02
2.108463862049650694e-01 5.152558510055141596e+02
2.109464082098061466e-01 5.152596451821026449e+02
2.110464302146472237e-01 5.152634379842822909e+02
2.111464522194883009e-01 5.152672292210394289e+02
2.112464742243293225e-01 5.152710187016991767e+02
2.113464962291703997e-01 5.152748062359353298e+02
2.114465182340114491e-01 5.152785916337772960e+02
2.115465402388525262e-01 5.152823747056174852e+02
2.116465622436936034e-01 5.152861552622193813e+02
2.117465842485346805e-01 5.152899331147253861e+02
2.118466062533757577e-01 5.152937080746655738e+02
2.119466282582167793e-01 5.152974799539624655e+02
2.120466502630578565e-01 5.153012485649418295e+02
2.121466722678989059e-01 5.153050137203383656e+02
2.122466942727399830e-01 5.153087752333042317e+02
2.123467162775810602e-01 5.153125329174162061e+02
2.124467382824221373e-01 5.153162865866833044e+02
2.125467602872631590e-01 5.153200360555545103e+02
2.126467822921042361e-01 5.153237811389259377e+02
2.127468042969453133e-01 5.153275216521489028e+02
2.128468263017863626e-01 5.153312574110361766e+02
2.129468483066274398e-01 5.153349882318715345e+02
2.130468703114685169e-01 5.153387139314145315e+02
2.131468923163095941e-01 5.153424343269090286e+02
2.132469143211506157e-01 5.153461492360917191e+02
2.133469363259916929e-01 5.153498584771975857e+02
2.134469583308327700e-01 5.153535618689685407e+02
2.135469803356738194e-01 5.153572592306588831e+02
2.136470023405148966e-01 5.153609503820448481e+02
2.137470243453559737e-01 5.153646351434300641e+02
2.138470463501970509e-01 5.153683133356546477e+02
2.139470683550380725e-01 5.153719847800982734e+02
2.140470903598791497e-01 5.153756492986919966e+02
2.141471123647202268e-01 5.153793067139230288e+02
2.142471343695612762e-01 5.153829568488408768e+02
2.143471563744023534e-01 5.153865995270672329e+02
2.144471783792434305e-01 5.153902345727998409e+02
2.145472003840845077e-01 5.153938618108218179e+02
2.146472223889255293e-01 5.153974810665065434e+02
2.147472443937666065e-01 5.154010921658258439e+02
2.148472663986076836e-01 5.154046949353570426e+02
2.149472884034487330e-01 5.154082892022886426e+02
2.150473104082898101e-01 5.154118747944274901e+02
2.151473324131308873e-01 5.154154515402063907e+02
2.152473544179719367e-01 5.154190192686902492e+02
2.153473764228129861e-01 5.154225778095816395e+02
2.154473984276540632e-01 5.154261269932289906e+02
2.155474204324951404e-01 5.154296666506329530e+02
2.156474424373361898e-01 5.154331966134520826e+02
2.157474644421772669e-01 5.154367167140102310e+02
2.158474864470183441e-01 5.154402267853027979e+02
2.159475084518593935e-01 5.154437266610028701e+02
2.160475304567004429e-01 5.154472161754684976e+02
2.161475524615415200e-01 5.154506951637482643e+02
2.162475744663825972e-01 5.154541634615869725e+02
2.163475964712236466e-01 5.154576209054347373e+02
2.164476184760647237e-01 5.154610673324491472e+02
2.165476404809058009e-01 5.154645025805057230e+02
2.166476624857468503e-01 5.154679264882014422e+02
2.167476844905878997e-01 5.154713388948616739e+02
2.168477064954289768e-01 5.154747396405458630e+02
2.169477285002700540e-01 5.154781285660550338e+02
2.170477505051111033e-01 5.154815055129358825e+02
2.171477725099521805e-01 5.154848703234879395e+02
2.172477945147932299e-01 5.154882228407705043e+02
2.173478165196343070e-01 5.154915629086061699e+02
2.174478385244753564e-01 5.154948903715882125e+02
2.175478605293164336e-01 5.154982050750868439e+02
2.176478825341575107e-01 5.155015068652546688e+02
2.177479045389985601e-01 5.155047955890312323e+02
2.178479265438396373e-01 5.155080710941501820e+02
2.179479485486806867e-01 5.155113332291456345e+02
2.180479705535217638e-01 5.155145818433555860e+02
2.181479925583628132e-01 5.155178167869294157e+02
2.182480145632038904e-01 5.155210379108327743e+02
2.183480365680449675e-01 5.155242450668524725e+02
2.184480585728860169e-01 5.155274381076042118e+02
2.185480805777270941e-01 5.155306168865347445e+02
2.186481025825681435e-01 5.155337812579307410e+02
2.187481245874092206e-01 5.155369310769215190e+02
2.188481465922502700e-01 5.155400661994857501e+02
2.189481685970913472e-01 5.155431864824564627e+02
2.190481906019324243e-01 5.155462917835261578e+02
2.191482126067734737e-01 5.155493819612523794e+02
2.192482346116145231e-01 5.155524568750615799e+02
2.193482566164556002e-01 5.155555163852568512e+02
2.194482786212966774e-01 5.155585603530208800e+02
2.195483006261377268e-01 5.155615886404211778e+02
2.196483226309788039e-01 5.155646011104156514e+02
2.197483446358198811e-01 5.155675976268578324e+02
2.198483666406609305e-01 5.155705780545005155e+02
2.199483886455019799e-01 5.155735422590030339e+02
2.200484106503430570e-01 5.155764901069326243e+02
2.201484326551841342e-01 5.155794214657726116e+02
2.202484546600251836e-01 5.155823362039251379e+02
2.203484766648662607e-01 5.155852341907167329e+02
2.204484986697073379e-01 5.155881152964013836e+02
2.205485206745483873e-01 5.155909793921679238e+02
2.206485426793894367e-01 5.155938263501432175e+02
2.207485646842305138e-01 5.155966560433948871e+02
2.208485866890715910e-01 5.155994683459389307e+02
2.209486086939126404e-01 5.156022631327421095e+02
2.210486306987537175e-01 5.156050402797272909e+02
2.211486527035947947e-01 5.156077996637762908e+02
2.212486747084358163e-01 5.156105411627373769e+02
2.213486967132768934e-01 5.156132646554250414e+02
2.214487187181179706e-01 5.156159700216288684e+02
2.215487407229590477e-01 5.156186571421128519e+02
2.216487627278000971e-01 5.156213258986254004e+02
2.217487847326411743e-01 5.156239761738971765e+02
2.218488067374822514e-01 5.156266078516489415e+02
2.219488287423232731e-01 5.156292208165949660e+02
2.220488507471643502e-01 5.156318149544472362e+02
2.221488727520054274e-01 5.156343901519177280e+02
2.222488947568465045e-01 5.156369462967229538e+02
2.223489167616875539e-01 5.156394832775889654e+02
2.224489387665286311e-01 5.156420009842540821e+02
2.225489607713697082e-01 5.156444993074723016e+02
2.226489827762107299e-01 5.156469781390180742e+02
2.227490047810518070e-01 5.156494373716874406e+02
2.228490267858928842e-01 5.156518768993056483e+02
2.229490487907339613e-01 5.156542966167266968e+02
2.230490707955750107e-01 5.156566964198392498e+02
2.231490928004160879e-01 5.156590762055687946e+02
2.232491148052571650e-01 5.156614358718816220e+02
2.233491368100981866e-01 5.156637753177882360e+02
2.234491588149392638e-01 5.156660944433456280e+02
2.235491808197803409e-01 5.156683931496626201e+02
2.236492028246214181e-01 5.156706713388997514e+02
2.237492248294624675e-01 5.156729289142765538e+02
2.238492468343035446e-01 5.156751657800701878e+02
2.239492688391445663e-01 5.156773818416227186e+02
2.240492908439856434e-01 5.156795770053406613e+02
2.241493128488267206e-01 5.156817511786994146e+02
2.242493348536677977e-01 5.156839042702470124e+02
2.243493568585088749e-01 5.156860361896051472e+02
2.244493788633499243e-01 5.156881468474733765e+02
2.245494008681910014e-01 5.156902361556308279e+02
2.246494228730320231e-01 5.156923040269391549e+02
2.247494448778731002e-01 5.156943503753461755e+02
2.248494668827141774e-01 5.156963751158875766e+02
2.249494888875552545e-01 5.156983781646889611e+02
2.250495108923963317e-01 5.157003594389698264e+02
2.251495328972373811e-01 5.157023188570439061e+02
2.252495549020784582e-01 5.157042563383242850e+02
2.253495769069194798e-01 5.157061718033227180e+02
2.254495989117605570e-01 5.157080651736551999e+02
2.255496209166016341e-01 5.157099363720409428e+02
2.256496429214427113e-01 5.157117853223062411e+02
2.257496649262837884e-01 5.157136119493882234e+02
2.258496869311248378e-01 5.157154161793333742e+02
2.259497089359658872e-01 5.157171979393019683e+02
2.260497309408069366e-01 5.157189571575700029e+02
2.261497529456480138e-01 5.157206937635303348e+02
2.262497749504890909e-01 5.157224076876955223e+02
2.263497969553301681e-01 5.157240988616978257e+02
2.264498189601712452e-01 5.157257672182930719e+02
2.265498409650122946e-01 5.157274126913622467e+02
2.266498629698533440e-01 5.157290352159116082e+02
2.267498849746943934e-01 5.157306347280755290e+02
2.268499069795354706e-01 5.157322111651192245e+02
2.269499289843765477e-01 5.157337644654363658e+02
2.270499509892176249e-01 5.157352945685552186e+02
2.271499729940587020e-01 5.157368014151381885e+02
2.272499949988997514e-01 5.157382849469817074e+02
2.273500170037408008e-01 5.157397451070198713e+02
2.274500390085818502e-01 5.157411818393250087e+02
2.275500610134229273e-01 5.157425950891087041e+02
2.276500830182640045e-01 5.157439848027225935e+02
2.277501050231050816e-01 5.157453509276600698e+02
2.278501270279461588e-01 5.157466934125588978e+02
2.279501490327871804e-01 5.157480122071987125e+02
2.280501710376282576e-01 5.157493072625053401e+02
2.281501930424693070e-01 5.157505785305492054e+02
2.282502150473103841e-01 5.157518259645487433e+02
2.283502370521514613e-01 5.157530495188702844e+02
2.284502590569925384e-01 5.157542491490265775e+02
2.285502810618336156e-01 5.157554248116812232e+02
2.286503030666746372e-01 5.157565764646477646e+02
2.287503250715157144e-01 5.157577040668891186e+02
2.288503470763567638e-01 5.157588075785203046e+02
2.289503690811978409e-01 5.157598869608082168e+02
2.290503910860389181e-01 5.157609421761708290e+02
2.291504130908799952e-01 5.157619731881800362e+02
2.292504350957210724e-01 5.157629799615601769e+02
2.293504571005620940e-01 5.157639624621892835e+02
2.294504791054031712e-01 5.157649206570988554e+02
2.295505011102442205e-01 5.157658545144744267e+02
2.296505231150852977e-01 5.157667640036562489e+02
2.297505451199263748e-01 5.157676490951378128e+02
2.298505671247674520e-01 5.157685097605686906e+02
2.299505891296084736e-01 5.157693459727520349e+02
2.300506111344495508e-01 5.157701577056454880e+02
2.301506331392906279e-01 5.157709449343615233e+02
2.302506551441316773e-01 5.157717076351675587e+02
2.303506771489727545e-01 5.157724457854839102e+02
2.304506991538138316e-01 5.157731593638861796e+02
2.305507211586549088e-01 5.157738483501036626e+02
2.306507431634959304e-01 5.157745127250190080e+02
2.307507651683370076e-01 5.157751524706681039e+02
2.308507871731780847e-01 5.157757675702398501e+02
2.309508091780191341e-01 5.157763580080757038e+02
2.310508311828602113e-01 5.157769237696689970e+02
2.311508531877012884e-01 5.157774648416643686e+02
2.312508751925423656e-01 5.157779812118575364e+02
2.313508971973833872e-01 5.157784728691939335e+02
2.314509192022244644e-01 5.157789398037696174e+02
2.315509412070655415e-01 5.157793820068285413e+02
2.316509632119065909e-01 5.157797994707623275e+02
2.317509852167476680e-01 5.157801921891112897e+02
2.318510072215887452e-01 5.157805601565610232e+02
2.319510292264298223e-01 5.157809033689427451e+02
2.320510512312708440e-01 5.157812218232326131e+02
2.321510732361119211e-01 5.157815155175493373e+02
2.322510952409529983e-01 5.157817844511546355e+02
2.323511172457940477e-01 5.157820286244518684e+02
2.324511392506351248e-01 5.157822480389836528e+02
2.325511612554762020e-01 5.157824426974323160e+02
2.326511832603172514e-01 5.157826126036168262e+02
2.327512052651583008e-01 5.157827577624941569e+02
2.328512272699993779e-01 5.157828781801547393e+02
2.329512492748404551e-01 5.157829738638225763e+02
2.330512712796815045e-01 5.157830448218559241e+02
2.331512932845225816e-01 5.157830910637412671e+02
2.332513152893636588e-01 5.157831126000951372e+02
2.333513372942047082e-01 5.157831094426620666e+02
2.334513592990457576e-01 5.157830816043115192e+02
2.335513813038868347e-01 5.157830290990386857e+02
2.336514033087279119e-01 5.157829519419594817e+02
2.337514253135689613e-01 5.157828501493117983e+02
2.338514473184100384e-01 5.157827237384522050e+02
2.339514693232511156e-01 5.157825727278540171e+02
2.340514913280921649e-01 5.157823971371057041e+02
2.341515133329332143e-01 5.157821969869090708e+02
2.342515353377742915e-01 5.157819722990773244e+02
2.343515573426153686e-01 5.157817230965323461e+02
2.344515793474564180e-01 5.157814494033028723e+02
2.345516013522974952e-01 5.157811512445232438e+02
2.346516233571385446e-01 5.157808286464301091e+02
2.347516453619796217e-01 5.157804816363602640e+02
2.348516673668206711e-01 5.157801102427488331e+02
2.349516893716617483e-01 5.157797144951274504e+02
2.350517113765028254e-01 5.157792944241199393e+02
2.351517333813438748e-01 5.157788500614421991e+02
2.352517553861849520e-01 5.157783814398986806e+02
2.353517773910260014e-01 5.157778885933794299e+02
2.354517993958670785e-01 5.157773715568586113e+02
2.355518214007081279e-01 5.157768303663905272e+02
2.356518434055492051e-01 5.157762650591085958e+02
2.357518654103902822e-01 5.157756756732217127e+02
2.358518874152313316e-01 5.157750622480112952e+02
2.359519094200724088e-01 5.157744248238293494e+02
2.360519314249134581e-01 5.157737634420948325e+02
2.361519534297545353e-01 5.157730781452913789e+02
2.362519754345955847e-01 5.157723689769646853e+02
2.363519974394366618e-01 5.157716359817180773e+02
2.364520194442777390e-01 5.157708792052111448e+02
2.365520414491187884e-01 5.157700986941563315e+02
2.366520634539598378e-01 5.157692944963148420e+02
2.367520854588009149e-01 5.157684666604952781e+02
2.368521074636419921e-01 5.157676152365485223e+02
2.369521294684830415e-01 5.157667402753663737e+02
2.370521514733241186e-01 5.157658418288772282e+02
2.371521734781651958e-01 5.157649199500428949e+02
2.372521954830062452e-01 5.157639746928559816e+02
2.373522174878472946e-01 5.157630061123343239e+02
2.374522394926883717e-01 5.157620142645213264e+02
2.375522614975294489e-01 5.157609992064797098e+02
2.376522835023704983e-01 5.157599609962879867e+02
2.377523055072115754e-01 5.157588996930387566e+02
2.378523275120526526e-01 5.157578153568325661e+02
2.379523495168937020e-01 5.157567080487782505e+02
2.380523715217347513e-01 5.157555778309842935e+02
2.381523935265758285e-01 5.157544247665591683e+02
2.382524155314169056e-01 5.157532489196054257e+02
2.383524375362579550e-01 5.157520503552173068e+02
2.384524595410990322e-01 5.157508291394759681e+02
2.385524815459401093e-01 5.157495853394448204e+02
2.386525035507811310e-01 5.157483190231685057e+02
2.387525255556222081e-01 5.157470302596661895e+02
2.388525475604632853e-01 5.157457191189288324e+02
2.389525695653043624e-01 5.157443856719144151e+02
2.390525915701454118e-01 5.157430299905456650e+02
2.391526135749864890e-01 5.157416521477036895e+02
2.392526355798275661e-01 5.157402522172252475e+02
2.393526575846685878e-01 5.157388302738980883e+02
2.394526795895096649e-01 5.157373863934579958e+02
2.395527015943507421e-01 5.157359206525819673e+02
2.396527235991918192e-01 5.157344331288862804e+02
2.397527456040328686e-01 5.157329239009216053e+02
2.398527676088739458e-01 5.157313930481677744e+02
2.399527896137150229e-01 5.157298406510303721e+02
