0.000000000000000000e+00 5.143563143830700710e+02
1.000220048410650341e-04 5.143568634387053180e+02
2.000440096821300682e-04 5.143573748575558966e+02
3.000660145231950752e-04 5.143578486229382634e+02
4.000880193642601364e-04 5.143582847184812863e+02
5.001100242053251434e-04 5.143586831281289733e+02
6.001320290463901504e-04 5.143590438361388806e+02
7.001540338874551574e-04 5.143593668270801800e+02
8.001760387285202728e-04 5.143596520858343411e+02
9.001980435695852798e-04 5.143598995975942216e+02
1.000220048410650287e-03 5.143601093478636130e+02
1.100242053251715294e-03 5.143602813224555348e+02
1.200264058092780301e-03 5.143604155074937125e+02
1.300286062933845308e-03 5.143605118894089401e+02
1.400308067774910315e-03 5.143605704549419215e+02
1.500330072615975322e-03 5.143605911911395197e+02
1.600352077457040546e-03 5.143605740853563475e+02
1.700374082298105553e-03 5.143605191252531768e+02
1.800396087139170560e-03 5.143604262987959146e+02
1.900418091980235567e-03 5.143602955942567405e+02
2.000440096821300574e-03 5.143601270002117190e+02
2.100462101662365581e-03 5.143599205055402308e+02
2.200484106503430588e-03 5.143596760994266788e+02
2.300506111344495595e-03 5.143593937713569630e+02
2.400528116185560602e-03 5.143590735111190497e+02
2.500550121026625609e-03 5.143587153088037667e+02
2.600572125867690616e-03 5.143583191548018476e+02
2.700594130708756056e-03 5.143578850398049553e+02
2.800616135549820630e-03 5.143574129548052269e+02
2.900638140390886070e-03 5.143569028910931138e+02
3.000660145231950644e-03 5.143563548402595416e+02
3.100682150073016084e-03 5.143557687941921586e+02
3.200704154914081091e-03 5.143551447450768137e+02
3.300726159755145665e-03 5.143544826853973291e+02
3.400748164596211105e-03 5.143537826079339084e+02
3.500770169437275679e-03 5.143530445057624547e+02
3.600792174278341119e-03 5.143522683722551392e+02
3.700814179119406126e-03 5.143514542010793775e+02
3.800836183960471133e-03 5.143506019861964660e+02
3.900858188801536140e-03 5.143497117218630592e+02
4.000880193642601147e-03 5.143487834026287828e+02
4.100902198483666154e-03 5.143478170233365745e+02
4.200924203324731161e-03 5.143468125791221155e+02
4.300946208165796168e-03 5.143457700654131486e+02
4.400968213006861175e-03 5.143446894779291370e+02
4.500990217847926182e-03 5.143435708126813779e+02
4.601012222688991189e-03 5.143424140659716386e+02
4.701034227530056196e-03 5.143412192343915876e+02
4.801056232371121203e-03 5.143399863148238182e+02
4.901078237212187078e-03 5.143387153044391198e+02
5.001100242053251217e-03 5.143374062006981831e+02
5.101122246894316224e-03 5.143360590013509182e+02
5.201144251735381231e-03 5.143346737044338397e+02
5.301166256576447106e-03 5.143332503082717722e+02
5.401188261417512113e-03 5.143317888114772813e+02
5.501210266258576252e-03 5.143302892129495376e+02
5.601232271099641259e-03 5.143287515118739748e+02
5.701254275940706266e-03 5.143271757077225175e+02
5.801276280781772141e-03 5.143255618002523306e+02
5.901298285622837148e-03 5.143239097895062741e+02
6.001320290463901287e-03 5.143222196758119935e+02
6.101342295304966294e-03 5.143204914597815787e+02
6.201364300146032169e-03 5.143187251423112230e+02
6.301386304987097176e-03 5.143169207245809957e+02
6.401408309828162183e-03 5.143150782080545014e+02
6.501430314669226322e-03 5.143131975944780834e+02
6.601452319510291329e-03 5.143112788858816202e+02
6.701474324351357204e-03 5.143093220845757969e+02
6.801496329192422211e-03 5.143073271931548334e+02
6.901518334033487218e-03 5.143052942144936424e+02
7.001540338874551357e-03 5.143032231517494210e+02
7.101562343715617232e-03 5.143011140083599457e+02
7.201584348556682239e-03 5.142989667880432307e+02
7.301606353397747246e-03 5.142967814947985516e+02
7.401628358238812253e-03 5.142945581329050810e+02
7.501650363079876392e-03 5.142922967069212064e+02
7.601672367920942266e-03 5.142899972216854394e+02
7.701694372762007273e-03 5.142876596823158479e+02
7.801716377603072280e-03 5.142852840942084640e+02
7.901738382444137287e-03 5.142828704630387620e+02
8.001760387285202294e-03 5.142804187947604078e+02
8.101782392126267301e-03 5.142779290956056002e+02
8.201804396967332308e-03 5.142754013720833655e+02
8.301826401808397315e-03 5.142728356309821720e+02
8.401848406649462322e-03 5.142702318793660652e+02
8.501870411490527329e-03 5.142675901245776231e+02
8.601892416331592336e-03 5.142649103742348871e+02
8.701914421172657343e-03 5.142621926362352269e+02
8.801936426013722350e-03 5.142594369187494294e+02
8.901958430854787357e-03 5.142566432302263593e+02
9.001980435695852364e-03 5.142538115793909128e+02
9.102002440536917371e-03 5.142509419752439044e+02
9.202024445377982378e-03 5.142480344270607020e+02
9.302046450219047385e-03 5.142450889443932738e+02
9.402068455060112392e-03 5.142421055370692784e+02
9.502090459901177399e-03 5.142390842151905872e+02
9.602112464742242406e-03 5.142360249891339663e+02
9.702134469583307413e-03 5.142329278695522135e+02
9.802156474424374155e-03 5.142297928673716569e+02
9.902178479265437427e-03 5.142266199937938609e+02
1.000220048410650243e-02 5.142234092602936926e+02
1.010222248894756918e-02 5.142201606786217098e+02
1.020224449378863245e-02 5.142168742608018874e+02
1.030226649862969746e-02 5.142135500191317306e+02
1.040228850347076246e-02 5.142101879661830708e+02
1.050231050831182747e-02 5.142067881148021797e+02
1.060233251315289421e-02 5.142033504781077227e+02
1.070235451799395748e-02 5.141998750694922364e+02
1.080237652283502423e-02 5.141963619026223569e+02
1.090239852767608750e-02 5.141928109914380229e+02
1.100242053251715250e-02 5.141892223501513399e+02
1.110244253735821925e-02 5.141855959932493079e+02
1.120246454219928252e-02 5.141819319354902973e+02
1.130248654704034753e-02 5.141782301919072324e+02
1.140250855188141253e-02 5.141744907778053175e+02
1.150253055672247754e-02 5.141707137087627189e+02
1.160255256156354428e-02 5.141668990006311333e+02
1.170257456640460755e-02 5.141630466695338555e+02
1.180259657124567430e-02 5.141591567318689613e+02
1.190261857608673930e-02 5.141552292043056696e+02
1.200264058092780257e-02 5.141512641037868434e+02
1.210266258576886932e-02 5.141472614475277396e+02
1.220268459060993259e-02 5.141432212530168044e+02
1.230270659545099760e-02 5.141391435380147641e+02
1.240272860029206434e-02 5.141350283205561027e+02
1.250275060513312761e-02 5.141308756189471296e+02
1.260277260997419435e-02 5.141266854517670026e+02
1.270279461481525762e-02 5.141224578378687511e+02
1.280281661965632437e-02 5.141181927963768885e+02
1.290283862449738937e-02 5.141138903466901411e+02
1.300286062933845264e-02 5.141095505084795150e+02
1.310288263417951939e-02 5.141051733016885237e+02
1.320290463902058266e-02 5.141007587465345523e+02
1.330292664386164767e-02 5.140963068635080617e+02
1.340294864870271441e-02 5.140918176733725886e+02
1.350297065354377768e-02 5.140872911971644044e+02
1.360299265838484442e-02 5.140827274561937656e+02
1.370301466322590769e-02 5.140781264720440049e+02
1.380303666806697444e-02 5.140734882665724399e+02
1.390305867290803944e-02 5.140688128619082136e+02
1.400308067774910271e-02 5.140641002804572963e+02
1.410310268259016946e-02 5.140593505448964606e+02
1.420312468743123446e-02 5.140545636781776011e+02
1.430314669227229774e-02 5.140497397035273934e+02
1.440316869711336448e-02 5.140448786444452480e+02
1.450319070195442775e-02 5.140399805247056975e+02
1.460321270679549449e-02 5.140350453683578280e+02
1.470323471163655950e-02 5.140300731997240291e+02
1.480325671647762451e-02 5.140250640434030629e+02
1.490327872131868951e-02 5.140200179242679042e+02
1.500330072615975278e-02 5.140149348674658540e+02
1.510332273100081953e-02 5.140098148984200179e+02
1.520334473584188453e-02 5.140046580428290781e+02
1.530336674068294781e-02 5.139994643266664980e+02
1.540338874552401455e-02 5.139942337761821136e+02
1.550341075036507782e-02 5.139889664179013380e+02
1.560343275520614456e-02 5.139836622786256157e+02
1.570345476004721130e-02 5.139783213854320820e+02
1.580347676488827457e-02 5.139729437656758364e+02
1.590349876972933785e-02 5.139675294469872142e+02
1.600352077457040459e-02 5.139620784572741741e+02
1.610354277941146786e-02 5.139565908247216157e+02
1.620356478425253460e-02 5.139510665777914937e+02
1.630358678909359788e-02 5.139455057452234996e+02
1.640360879393466462e-02 5.139399083560350618e+02
1.650363079877573136e-02 5.139342744395216869e+02
1.660365280361679463e-02 5.139286040252574139e+02
1.670367480845786137e-02 5.139228971430936781e+02
1.680369681329892464e-02 5.139171538231623799e+02
1.690371881813999139e-02 5.139113740958730432e+02
1.700374082298105466e-02 5.139055579919149750e+02
1.710376282782211793e-02 5.138997055422562426e+02
1.720378483266318467e-02 5.138938167781465154e+02
1.730380683750424795e-02 5.138878917311137684e+02
1.740382884234531469e-02 5.138819304329671240e+02
1.750385084718638143e-02 5.138759329157971933e+02
1.760387285202744470e-02 5.138698992119731201e+02
1.770389485686851144e-02 5.138638293541479243e+02
1.780391686170957471e-02 5.138577233752542952e+02
1.790393886655063799e-02 5.138515813085077752e+02
1.800396087139170473e-02 5.138454031874061911e+02
1.810398287623276800e-02 5.138391890457290856e+02
1.820400488107383474e-02 5.138329389175385131e+02
1.830402688591490148e-02 5.138266528371813138e+02
1.840404889075596476e-02 5.138203308392864983e+02
1.850407089559703150e-02 5.138139729587666125e+02
1.860409290043809477e-02 5.138075792308191012e+02
1.870411490527916151e-02 5.138011496909250582e+02
1.880413691012022478e-02 5.137946843748512720e+02
1.890415891496129153e-02 5.137881833186495442e+02
1.900418091980235480e-02 5.137816465586563481e+02
1.910420292464341807e-02 5.137750741314944207e+02
1.920422492948448481e-02 5.137684660740734444e+02
1.930424693432555155e-02 5.137618224235877733e+02
1.940426893916661483e-02 5.137551432175216632e+02
1.950429094400768157e-02 5.137484284936433596e+02
1.960431294884874831e-02 5.137416782900116914e+02
1.970433495368981158e-02 5.137348926449719784e+02
1.980435695853087485e-02 5.137280715971581913e+02
1.990437896337193813e-02 5.137212151854927242e+02
2.000440096821300487e-02 5.137143234491884414e+02
2.010442297305407161e-02 5.137073964277467439e+02
2.020444497789513835e-02 5.137004341609600715e+02
2.030446698273619816e-02 5.136934366889101966e+02
2.040448898757726490e-02 5.136864040519704986e+02
2.050451099241833164e-02 5.136793362908052814e+02
2.060453299725939491e-02 5.136722334463707966e+02
2.070455500210046165e-02 5.136650955599143344e+02
2.080457700694152492e-02 5.136579226729777474e+02
2.090459901178259167e-02 5.136507148273939265e+02
2.100462101662365494e-02 5.136434720652891883e+02
2.110464302146472168e-02 5.136361944290850943e+02
2.120466502630578842e-02 5.136288819614957220e+02
2.130468703114684823e-02 5.136215347055308484e+02
2.140470903598791497e-02 5.136141527044951545e+02
2.150473104082898171e-02 5.136067360019889065e+02
2.160475304567004845e-02 5.135992846419075022e+02
2.170477505051111172e-02 5.135917986684435164e+02
2.180479705535217499e-02 5.135842781260863603e+02
2.190481906019323827e-02 5.135767230596225090e+02
2.200484106503430501e-02 5.135691335141367517e+02
2.210486306987537175e-02 5.135615095350103729e+02
2.220488507471643849e-02 5.135538511679259273e+02
2.230490707955749830e-02 5.135461584588631467e+02
2.240492908439856504e-02 5.135384314541014419e+02
2.250495108923963178e-02 5.135306702002216070e+02
2.260497309408069505e-02 5.135228747441035466e+02
2.270499509892176179e-02 5.135150451329291172e+02
2.280501710376282506e-02 5.135071814141811046e+02
2.290503910860389181e-02 5.134992836356441330e+02
2.300506111344495508e-02 5.134913518454060295e+02
2.310508311828602182e-02 5.134833860918562323e+02
2.320510512312708856e-02 5.134753864236890877e+02
2.330512712796814837e-02 5.134673528899018038e+02
2.340514913280921511e-02 5.134592855397954736e+02
2.350517113765028185e-02 5.134511844229774624e+02
2.360519314249134859e-02 5.134430495893592479e+02
2.370521514733241186e-02 5.134348810891585799e+02
2.380523715217347860e-02 5.134266789728990261e+02
2.390525915701453841e-02 5.134184432914119043e+02
2.400528116185560515e-02 5.134101740958353730e+02
2.410530316669667189e-02 5.134018714376139769e+02
2.420532517153773863e-02 5.133935353685026257e+02
2.430534717637880537e-02 5.133851659405643204e+02
2.440536918121986518e-02 5.133767632061704944e+02
2.450539118606093192e-02 5.133683272180030599e+02
2.460541319090199519e-02 5.133598580290537257e+02
2.470543519574306193e-02 5.133513556926257024e+02
2.480545720058412867e-02 5.133428202623327934e+02
2.490547920542519195e-02 5.133342517921004173e+02
2.500550121026625522e-02 5.133256503361667455e+02
2.510552321510732196e-02 5.133170159490824744e+02
2.520554521994838870e-02 5.133083486857119624e+02
2.530556722478945197e-02 5.132996486012323203e+02
2.540558922963051525e-02 5.132909157511355716e+02
2.550561123447158199e-02 5.132821501912287658e+02
2.560563323931264873e-02 5.132733519776337516e+02
2.570565524415371200e-02 5.132645211667880858e+02
2.580567724899477874e-02 5.132556578154460567e+02
2.590569925383583855e-02 5.132467619806784569e+02
2.600572125867690529e-02 5.132378337198734926e+02
2.610574326351797203e-02 5.132288730907371246e+02
2.620576526835903877e-02 5.132198801512935233e+02
2.630578727320010551e-02 5.132108549598851823e+02
2.640580927804116532e-02 5.132017975751749645e+02
2.650583128288223206e-02 5.131927080561449657e+02
2.660585328772329533e-02 5.131835864620975372e+02
2.670587529256436207e-02 5.131744328526560821e+02
2.680589729740542881e-02 5.131652472877651689e+02
2.690591930224649209e-02 5.131560298276907588e+02
2.700594130708755536e-02 5.131467805330216834e+02
2.710596331192862210e-02 5.131374994646700998e+02
2.720598531676968884e-02 5.131281866838702399e+02
2.730600732161075211e-02 5.131188422521811390e+02
2.740602932645181539e-02 5.131094662314850439e+02
2.750605133129288213e-02 5.131000586839904827e+02
2.760607333613394887e-02 5.130906196722307868e+02
2.770609534097501214e-02 5.130811492590647731e+02
2.780611734581607888e-02 5.130716475076768575e+02
2.790613935065714563e-02 5.130621144815800108e+02
2.800616135549820543e-02 5.130525502446130304e+02
2.810618336033927217e-02 5.130429548609433823e+02
2.820620536518033891e-02 5.130333283950658370e+02
2.830622737002140565e-02 5.130236709118047429e+02
2.840624937486246893e-02 5.130139824763132310e+02
2.850627137970353220e-02 5.130042631540745788e+02
2.860629338454459547e-02 5.129945130109018692e+02
2.870631538938566221e-02 5.129847321129386728e+02
2.880633739422672895e-02 5.129749205266601848e+02
2.890635939906779570e-02 5.129650783188728838e+02
2.900638140390885550e-02 5.129552055567157822e+02
2.910640340874992224e-02 5.129453023076595173e+02
2.920642541359098898e-02 5.129353686395086243e+02
2.930644741843205225e-02 5.129254046204011956e+02
2.940646942327311900e-02 5.129154103188079716e+02
2.950649142811418227e-02 5.129053858035363191e+02
2.960651343295524901e-02 5.128953311437262528e+02
2.970653543779631228e-02 5.128852464088539591e+02
2.980655744263737902e-02 5.128751316687325925e+02
2.990657944747844577e-02 5.128649869935096604e+02
3.000660145231950557e-02 5.128548124536696378e+02
3.010662345716057231e-02 5.128446081200354456e+02
3.020664546200163905e-02 5.128343740637664041e+02
3.030666746684270579e-02 5.128241103563598244e+02
3.040668947168376907e-02 5.128138170696519182e+02
3.050671147652483234e-02 5.128034942758179113e+02
3.060673348136589561e-02 5.127931420473714752e+02
3.070675548620696235e-02 5.127827604571666598e+02
3.080677749104802909e-02 5.127723495783974386e+02
3.090679949588909584e-02 5.127619094845989594e+02
3.100682150073015564e-02 5.127514402496451567e+02
3.110684350557122238e-02 5.127409419477539814e+02
3.120686551041228912e-02 5.127304146534836491e+02
3.130688751525335239e-02 5.127198584417354823e+02
3.140690952009442261e-02 5.127092733877519777e+02
3.150693152493547894e-02 5.126986595671199893e+02
3.160695352977654915e-02 5.126880170557691372e+02
3.170697553461761242e-02 5.126773459299726028e+02
3.180699753945867569e-02 5.126666462663479251e+02
3.190701954429974591e-02 5.126559181418567732e+02
3.200704154914080918e-02 5.126451616338065378e+02
3.210706355398187245e-02 5.126343768198489670e+02
3.220708555882293572e-02 5.126235637779818717e+02
3.230710756366400593e-02 5.126127225865484434e+02
3.240712956850506921e-02 5.126018533242389594e+02
3.250715157334613248e-02 5.125909560700897600e+02
3.260717357818719575e-02 5.125800309034848397e+02
3.270719558302826596e-02 5.125690779041544829e+02
3.280721758786932923e-02 5.125580971521773108e+02
3.290723959271039251e-02 5.125470887279803947e+02
3.300726159755146272e-02 5.125360527123382326e+02
3.310728360239252599e-02 5.125249891863743414e+02
3.320730560723358926e-02 5.125138982315609155e+02
3.330732761207465253e-02 5.125027799297203046e+02
3.340734961691572275e-02 5.124916343630236497e+02
3.350737162175678602e-02 5.124804616139917925e+02
3.360739362659784929e-02 5.124692617654965261e+02
3.370741563143891256e-02 5.124580349007580935e+02
3.380743763627998277e-02 5.124467811033508724e+02
3.390745964112104605e-02 5.124355004571970085e+02
3.400748164596210932e-02 5.124241930465720998e+02
3.410750365080317259e-02 5.124128589561014451e+02
3.420752565564423586e-02 5.124014982707634545e+02
3.430754766048530607e-02 5.123901110758880577e+02
3.440756966532636935e-02 5.123786974571576138e+02
3.450759167016743956e-02 5.123672575006064562e+02
3.460761367500849589e-02 5.123557912926223707e+02
3.470763567984956610e-02 5.123442989199455724e+02
3.480765768469062937e-02 5.123327804696704106e+02
3.490767968953169265e-02 5.123212360292428684e+02
3.500770169437276286e-02 5.123096656864640863e+02
3.510772369921381919e-02 5.122980695294880888e+02
3.520774570405488940e-02 5.122864476468239445e+02
3.530776770889595267e-02 5.122748001273328100e+02
3.540778971373702289e-02 5.122631270602331597e+02
3.550781171857808616e-02 5.122514285350947603e+02
3.560783372341914943e-02 5.122397046418449236e+02
3.570785572826021270e-02 5.122279554707636180e+02
3.580787773310127597e-02 5.122161811124869928e+02
3.590789973794234619e-02 5.122043816580060138e+02
3.600792174278340946e-02 5.121925571986668047e+02
3.610794374762447273e-02 5.121807078261706465e+02
3.620796575246553600e-02 5.121688336325747741e+02
3.630798775730660621e-02 5.121569347102915799e+02
3.640800976214766949e-02 5.121450111520898645e+02
3.650803176698873276e-02 5.121330630510932451e+02
3.660805377182980297e-02 5.121210905007822021e+02
3.670807577667086624e-02 5.121090935949923733e+02
3.680809778151192951e-02 5.120970724279154638e+02
3.690811978635299279e-02 5.120850270941009512e+02
3.700814179119406300e-02 5.120729576884517655e+02
3.710816379603512627e-02 5.120608643062288365e+02
3.720818580087618954e-02 5.120487470430491612e+02
3.730820780571725281e-02 5.120366059948854627e+02
3.740822981055832303e-02 5.120244412580673270e+02
3.750825181539938630e-02 5.120122529292802938e+02
3.760827382024044957e-02 5.120000411055658560e+02
3.770829582508151284e-02 5.119878058843231656e+02
3.780831782992258305e-02 5.119755473633060774e+02
3.790833983476364633e-02 5.119632656406261049e+02
3.800836183960470960e-02 5.119509608147496920e+02
3.810838384444577981e-02 5.119386329845007140e+02
3.820840584928683614e-02 5.119262822490586018e+02
3.830842785412790635e-02 5.119139087079586830e+02
3.840844985896896963e-02 5.119015124610931480e+02
3.850847186381003984e-02 5.118890936087090608e+02
3.860849386865110311e-02 5.118766522514104622e+02
3.870851587349216638e-02 5.118641884901566641e+02
3.880853787833322965e-02 5.118517024262623636e+02
3.890855988317429293e-02 5.118391941613989502e+02
3.900858188801536314e-02 5.118266637975914932e+02
3.910860389285641947e-02 5.118141114372225502e+02
3.920862589769749662e-02 5.118015371830281310e+02
3.930864790253855295e-02 5.117889411380999150e+02
3.940866990737962317e-02 5.117763234058851936e+02
3.950869191222068644e-02 5.117636840901847108e+02
3.960871391706174971e-02 5.117510232951544822e+02
3.970873592190281992e-02 5.117383411253045438e+02
3.980875792674387625e-02 5.117256376854995779e+02
3.990877993158495340e-02 5.117129130809584581e+02
4.000880193642600974e-02 5.117001674172520893e+02
4.010882394126707301e-02 5.116874008003068752e+02
4.020884594610814322e-02 5.116746133364013076e+02
4.030886795094920649e-02 5.116618051321679559e+02
4.040888995579027670e-02 5.116489762945901134e+02
4.050891196063133304e-02 5.116361269310061743e+02
4.060893396547239631e-02 5.116232571491050294e+02
4.070895597031346652e-02 5.116103670569280553e+02
4.080897797515452979e-02 5.115974567628680347e+02
4.090899997999560000e-02 5.115845263756690429e+02
4.100902198483666328e-02 5.115715760044264471e+02
4.110904398967772655e-02 5.115586057585858271e+02
4.120906599451878982e-02 5.115456157479434864e+02
4.130908799935985309e-02 5.115326060826457706e+02
4.140911000420092331e-02 5.115195768731880435e+02
4.150913200904198658e-02 5.115065282304149150e+02
4.160915401388304985e-02 5.114934602655209233e+02
4.170917601872412006e-02 5.114803730900476921e+02
4.180919802356518333e-02 5.114672668158854094e+02
4.190922002840624661e-02 5.114541415552714625e+02
4.200924203324730988e-02 5.114409974207917458e+02
4.210926403808837315e-02 5.114278345253777616e+02
4.220928604292944336e-02 5.114146529823068477e+02
4.230930804777050663e-02 5.114014529052032003e+02
4.240933005261157684e-02 5.113882344080355438e+02
4.250935205745264012e-02 5.113749976051183239e+02
4.260937406229369645e-02 5.113617426111096620e+02
4.270939606713476666e-02 5.113484695410110135e+02
4.280941807197582993e-02 5.113351785101687028e+02
4.290944007681690014e-02 5.113218696342710814e+02
4.300946208165796342e-02 5.113085430293471063e+02
4.310948408649901975e-02 5.112951988117699784e+02
4.320950609134009690e-02 5.112818370982533338e+02
4.330952809618115323e-02 5.112684580058500501e+02
4.340955010102222345e-02 5.112550616519533833e+02
4.350957210586328672e-02 5.112416481542973656e+02
4.360959411070434999e-02 5.112282176309536226e+02
4.370961611554542020e-02 5.112147702003307472e+02
4.380963812038647653e-02 5.112013059811768585e+02
4.390966012522755368e-02 5.111878250925756788e+02
4.400968213006861002e-02 5.111743276539475573e+02
4.410970413490967329e-02 5.111608137850475373e+02
4.420972613975074350e-02 5.111472836059658675e+02
4.430974814459180677e-02 5.111337372371272068e+02
4.440977014943287698e-02 5.111201747992888045e+02
4.450979215427393332e-02 5.111065964135409558e+02
4.460981415911499659e-02 5.110930022013061489e+02
4.470983616395606680e-02 5.110793922843372457e+02
4.480985816879713007e-02 5.110657667847178800e+02
4.490988017363820028e-02 5.110521258248602408e+02
4.500990217847926356e-02 5.110384695275076865e+02
4.510992418332032683e-02 5.110247980157299708e+02
4.520994618816139010e-02 5.110111114129226166e+02
4.530996819300245337e-02 5.109974098428103275e+02
4.540999019784352358e-02 5.109836934294417006e+02
4.551001220268458686e-02 5.109699622971897384e+02
4.561003420752565013e-02 5.109562165707524173e+02
4.571005621236672034e-02 5.109424563751497317e+02
4.581007821720778361e-02 5.109286818357228981e+02
4.591010022204884689e-02 5.109148930781364584e+02
4.601012222688991016e-02 5.109010902283736186e+02
4.611014423173097343e-02 5.108872734127367607e+02
4.621016623657204364e-02 5.108734427578465329e+02
4.631018824141310691e-02 5.108595983906420770e+02
4.641021024625417712e-02 5.108457404383781864e+02
4.651023225109524040e-02 5.108318690286238848e+02
4.661025425593629673e-02 5.108179842892653824e+02
4.671027626077736694e-02 5.108040863484989131e+02
4.681029826561843021e-02 5.107901753348365332e+02
4.691032027045950042e-02 5.107762513770981059e+02
4.701034227530056370e-02 5.107623146044171563e+02
4.711036428014163391e-02 5.107483651462341641e+02
4.721038628498269718e-02 5.107344031322987803e+02
4.731040828982375351e-02 5.107204286926673831e+02
4.741043029466482372e-02 5.107064419577019407e+02
4.751045229950588700e-02 5.106924430580704666e+02
4.761047430434695721e-02 5.106784321247430967e+02
4.771049630918802048e-02 5.106644092889940794e+02
4.781051831402907681e-02 5.106503746823980237e+02
4.791054031887015396e-02 5.106363284368298423e+02
4.801056232371121030e-02 5.106222706844646950e+02
4.811058432855228051e-02 5.106082015577744073e+02
4.821060633339334378e-02 5.105941211895276979e+02
4.831062833823440705e-02 5.105800297127885301e+02
4.841065034307547726e-02 5.105659272609161690e+02
4.851067234791653360e-02 5.105518139675615998e+02
4.861069435275761075e-02 5.105376899666679265e+02
4.871071635759866708e-02 5.105235553924694045e+02
4.881073836243973035e-02 5.105094103794884290e+02
4.891076036728080056e-02 5.104952550625351932e+02
4.901078237212186384e-02 5.104810895767074612e+02
4.911080437696293405e-02 5.104669140573868162e+02
4.921082638180399038e-02 5.104527286402397976e+02
4.931084838664505365e-02 5.104385334612144902e+02
4.941087039148612386e-02 5.104243286565409790e+02
4.951089239632718714e-02 5.104101143627286206e+02
4.961091440116825735e-02 5.103958907165648498e+02
4.971093640600932062e-02 5.103816578551142129e+02
4.981095841085038389e-02 5.103674159157170607e+02
4.991098041569144717e-02 5.103531650359873311e+02
5.001100242053251044e-02 5.103389053538115263e+02
5.011102442537358065e-02 5.103246370073477465e+02
5.021104643021464392e-02 5.103103601350228473e+02
5.031106843505570719e-02 5.102960748755330087e+02
5.041109043989677740e-02 5.102817813678393577e+02
5.051111244473784068e-02 5.102674797511704128e+02
5.061113444957890395e-02 5.102531701650157174e+02
5.071115645441996722e-02 5.102388527491286823e+02
5.081117845926103049e-02 5.102245276435224355e+02
5.091120046410210070e-02 5.102101949884686292e+02
5.101122246894316398e-02 5.101958549244968140e+02
5.111124447378423419e-02 5.101815075923923359e+02
5.121126647862529746e-02 5.101671531331937786e+02
5.131128848346635379e-02 5.101527916881922238e+02
5.141131048830742400e-02 5.101384233989302857e+02
5.151133249314848728e-02 5.101240484071988135e+02
5.161135449798955749e-02 5.101096668550370623e+02
5.171137650283062076e-02 5.100952788847280885e+02
5.181139850767167709e-02 5.100808846388014217e+02
5.191142051251275424e-02 5.100664842600269822e+02
5.201144251735381058e-02 5.100520778914161610e+02
5.211146452219488079e-02 5.100376656762189214e+02
5.221148652703594406e-02 5.100232477579222063e+02
5.231150853187700733e-02 5.100088242802487457e+02
5.241153053671807754e-02 5.099943953871537587e+02
5.251155254155913388e-02 5.099799612228249543e+02
5.261157454640021103e-02 5.099655219316798593e+02
5.271159655124126736e-02 5.099510776583634879e+02
5.281161855608233063e-02 5.099366285477476595e+02
5.291164056092340084e-02 5.099221747449287818e+02
5.301166256576446412e-02 5.099077163952240994e+02
5.311168457060553433e-02 5.098932536441737966e+02
5.321170657544659066e-02 5.098787866375349722e+02
5.331172858028765393e-02 5.098643155212820375e+02
5.341175058512872414e-02 5.098498404416046128e+02
5.351177258996978742e-02 5.098353615449047425e+02
5.361179459481085763e-02 5.098208789777954166e+02
5.371181659965192090e-02 5.098063928870992640e+02
5.381183860449298417e-02 5.097919034198448003e+02
5.391186060933404744e-02 5.097774107232675078e+02
5.401188261417511072e-02 5.097629149448031853e+02
5.411190461901618093e-02 5.097484162320903920e+02
5.421192662385724420e-02 5.097339147329667526e+02
5.431194862869830747e-02 5.097194105954660586e+02
5.441197063353937768e-02 5.097049039678170175e+02
5.451199263838044096e-02 5.096903949984417181e+02
5.461201464322150423e-02 5.096758838359520496e+02
5.471203664806256750e-02 5.096613706291492463e+02
5.481205865290363077e-02 5.096468555270204206e+02
5.491208065774470098e-02 5.096323386787375966e+02
5.501210266258576426e-02 5.096178202336545269e+02
5.511212466742683447e-02 5.096033003413047027e+02
5.521214667226789774e-02 5.095887791514001606e+02
5.531216867710895407e-02 5.095742568138290380e+02
5.541219068195002428e-02 5.095597334786511396e+02
5.551221268679108756e-02 5.095452092960997561e+02
5.561223469163215777e-02 5.095306844165748998e+02
5.571225669647322104e-02 5.095161589906450672e+02
5.581227870131429125e-02 5.095016331690433731e+02
5.591230070615535452e-02 5.094871071026640834e+02
5.601232271099641086e-02 5.094725809425623879e+02
5.611234471583748107e-02 5.094580548399507052e+02
5.621236672067854434e-02 5.094435289461974889e+02
5.631238872551961455e-02 5.094290034128231923e+02
5.641241073036067782e-02 5.094144783915006087e+02
5.651243273520173416e-02 5.093999540340491876e+02
5.661245474004281131e-02 5.093854304924358871e+02
5.671247674488386764e-02 5.093709079187711382e+02
5.681249874972493785e-02 5.093563864653062865e+02
5.691252075456600112e-02 5.093418662844316032e+02
5.701254275940706440e-02 5.093273475286738972e+02
5.711256476424813461e-02 5.093128303506949806e+02
5.721258676908919094e-02 5.092983149032870642e+02
5.731260877393026809e-02 5.092838013393724168e+02
5.741263077877132442e-02 5.092692898119993856e+02
5.751265278361238770e-02 5.092547804743419420e+02
5.761267478845345791e-02 5.092402734796941104e+02
5.771269679329452118e-02 5.092257689814713899e+02
5.781271879813559139e-02 5.092112671332039326e+02
5.791274080297664772e-02 5.091967680885373966e+02
5.801276280781771100e-02 5.091822720012293644e+02
5.811278481265878121e-02 5.091677790251460465e+02
5.821280681749984448e-02 5.091532893142602916e+02
5.831282882234091469e-02 5.091388030226501087e+02
5.841285082718197796e-02 5.091243203044936649e+02
5.851287283202304124e-02 5.091098413140683192e+02
5.861289483686410451e-02 5.090953662057490874e+02
5.871291684170516778e-02 5.090808951340032991e+02
5.881293884654623799e-02 5.090664282533896881e+02
5.891296085138730126e-02 5.090519657185555502e+02
5.901298285622836454e-02 5.090375076842337307e+02
5.911300486106943475e-02 5.090230543052411463e+02
5.921302686591049802e-02 5.090086057364733279e+02
5.931304887075156129e-02 5.089941621329054442e+02
5.941307087559262456e-02 5.089797236495865604e+02
5.951309288043368784e-02 5.089652904416382171e+02
5.961311488527475805e-02 5.089508626642523268e+02
5.971313689011582132e-02 5.089364404726867406e+02
5.981315889495689153e-02 5.089220240222642815e+02
5.991318089979795480e-02 5.089076134683679129e+02
6.001320290463901114e-02 5.088932089664405680e+02
6.011322490948008135e-02 5.088788106719802045e+02
6.021324691432114462e-02 5.088644187405382695e+02
6.031326891916221483e-02 5.088500333277160053e+02
6.041329092400327810e-02 5.088356545891616065e+02
6.051331292884433444e-02 5.088212826805697091e+02
6.061333493368541159e-02 5.088069177576746824e+02
6.071335693852646792e-02 5.087925599762501179e+02
6.081337894336753813e-02 5.087782094921073508e+02
6.091340094820860140e-02 5.087638664610889236e+02
6.101342295304966468e-02 5.087495310390677901e+02
6.111344495789073489e-02 5.087352033819462349e+02
6.121346696273179122e-02 5.087208836456483141e+02
6.131348896757286837e-02 5.087065719861217303e+02
6.141351097241392470e-02 5.086922685593325468e+02
6.151353297725498798e-02 5.086779735212617197e+02
6.161355498209605819e-02 5.086636870279030518e+02
6.171357698693712146e-02 5.086494092352608050e+02
6.181359899177819167e-02 5.086351402993458350e+02
6.191362099661924800e-02 5.086208803761728632e+02
6.201364300146031128e-02 5.086066296217579747e+02
6.211366500630138149e-02 5.085923881921139582e+02
6.221368701114244476e-02 5.085781562432498504e+02
6.231370901598351497e-02 5.085639339311655363e+02
6.241373102082457824e-02 5.085497214118508964e+02
6.251375302566564152e-02 5.085355188412800658e+02
6.261377503050670479e-02 5.085213263754114905e+02
6.271379703534776806e-02 5.085071441701824142e+02
6.281381904018884521e-02 5.084929723815073430e+02
6.291384104502989461e-02 5.084788111652733846e+02
6.301386304987095788e-02 5.084646606773401913e+02
6.311388505471203503e-02 5.084505210735319451e+02
6.321390705955309830e-02 5.084363925096398020e+02
6.331392906439416157e-02 5.084222751414144454e+02
6.341395106923522484e-02 5.084081691245655747e+02
6.351397307407628812e-02 5.083940746147577556e+02
6.361399507891735139e-02 5.083799917676067821e+02
6.371401708375841466e-02 5.083659207386774597e+02
6.381403908859949181e-02 5.083518616834801378e+02
6.391406109344055508e-02 5.083378147574683226e+02
6.401408309828161836e-02 5.083237801160331628e+02
6.411410510312268163e-02 5.083097579145030522e+02
6.421412710796374490e-02 5.082957483081381156e+02
6.431414911280480817e-02 5.082817514521298108e+02
6.441417111764587144e-02 5.082677675015942782e+02
6.451419312248694860e-02 5.082537966115720565e+02
6.461421512732801187e-02 5.082398389370230802e+02
6.471423713216907514e-02 5.082258946328244633e+02
6.481425913701013841e-02 5.082119638537661785e+02
6.491428114185120168e-02 5.081980467545489546e+02
6.501430314669226496e-02 5.081841434897807517e+02
6.511432515153332823e-02 5.081702542139732941e+02
6.521434715637439150e-02 5.081563790815378070e+02
6.531436916121546865e-02 5.081425182467847890e+02
6.541439116605653192e-02 5.081286718639161677e+02
6.551441317089759520e-02 5.081148400870266642e+02
6.561443517573865847e-02 5.081010230700971988e+02
6.571445718057972174e-02 5.080872209669933000e+02
6.581447918542078501e-02 5.080734339314608405e+02
6.591450119026184828e-02 5.080596621171232528e+02
6.601452319510292543e-02 5.080459056774785722e+02
6.611454519994398871e-02 5.080321647658951179e+02
6.621456720478505198e-02 5.080184395356084792e+02
6.631458920962611525e-02 5.080047301397183332e+02
6.641461121446717852e-02 5.079910367311862842e+02
6.651463321930824180e-02 5.079773594628302931e+02
6.661465522414930507e-02 5.079636984873221195e+02
6.671467722899036834e-02 5.079500539571843660e+02
6.681469923383144549e-02 5.079364260247881475e+02
6.691472123867250876e-02 5.079228148423465541e+02
6.701474324351357204e-02 5.079092205619142533e+02
6.711476524835463531e-02 5.078956433353832836e+02
6.721478725319569858e-02 5.078820833144795870e+02
6.731480925803676185e-02 5.078685406507577227e+02
6.741483126287782512e-02 5.078550154956009237e+02
6.751485326771890227e-02 5.078415080002162085e+02
6.761487527255996555e-02 5.078280183156280714e+02
6.771489727740101494e-02 5.078145465926813813e+02
6.781491928224209209e-02 5.078010929820317756e+02
6.791494128708315536e-02 5.077876576341442387e+02
6.801496329192421864e-02 5.077742406992922497e+02
6.811498529676528191e-02 5.077608423275505629e+02
6.821500730160634518e-02 5.077474626687943555e+02
6.831502930644742233e-02 5.077341018726946800e+02
6.841505131128847172e-02 5.077207600887138597e+02
6.851507331612954887e-02 5.077074374661051479e+02
6.861509532097061215e-02 5.076941341539062478e+02
6.871511732581167542e-02 5.076808503009378910e+02
6.881513933065273869e-02 5.076675860557989495e+02
6.891516133549380196e-02 5.076543415668629677e+02
6.901518334033487911e-02 5.076411169822767988e+02
6.911520534517592851e-02 5.076279124499539535e+02
6.921522735001699178e-02 5.076147281175738044e+02
6.931524935485806893e-02 5.076015641325764705e+02
6.941527135969913220e-02 5.075884206421592921e+02
6.951529336454019548e-02 5.075752977932753538e+02
6.961531536938125875e-02 5.075621957326271172e+02
6.971533737422232202e-02 5.075491146066655119e+02
6.981535937906338529e-02 5.075360545615843080e+02
6.991538138390444856e-02 5.075230157433173872e+02
7.001540338874552571e-02 5.075099982975369244e+02
7.011542539358658899e-02 5.074970023696462249e+02
7.021544739842763838e-02 5.074840281047799522e+02
7.031546940326871553e-02 5.074710756477979885e+02
7.041549140810977880e-02 5.074581451432828203e+02
7.051551341295084208e-02 5.074452367355376623e+02
7.061553541779190535e-02 5.074323505685791815e+02
7.071555742263296862e-02 5.074194867861381795e+02
7.081557942747404577e-02 5.074066455316516340e+02
7.091560143231509517e-02 5.073938269482636656e+02
7.101562343715617232e-02 5.073810311788192848e+02
7.111564544199723559e-02 5.073682583658606973e+02
7.121566744683829886e-02 5.073555086516263941e+02
7.131568945167936213e-02 5.073427821780433646e+02
7.141571145652042540e-02 5.073300790867271530e+02
7.151573346136150255e-02 5.073173995189781067e+02
7.161575546620255195e-02 5.073047436157752372e+02
7.171577747104361522e-02 5.072921115177751972e+02
7.181579947588469237e-02 5.072795033653071641e+02
7.191582148072575564e-02 5.072669192983711355e+02
7.201584348556681892e-02 5.072543594566309366e+02
7.211586549040788219e-02 5.072418239794167221e+02
7.221588749524894546e-02 5.072293130057145163e+02
7.231590950009000873e-02 5.072168266741662137e+02
7.241593150493107200e-02 5.072043651230669070e+02
7.251595350977214915e-02 5.071919284903595440e+02
7.261597551461321243e-02 5.071795169136324830e+02
7.271599751945427570e-02 5.071671305301138091e+02
7.281601952429533897e-02 5.071547694766710492e+02
7.291604152913640224e-02 5.071424338898050905e+02
7.301606353397746552e-02 5.071301239056483610e+02
7.311608553881852879e-02 5.071178396599595999e+02
7.321610754365960594e-02 5.071055812881219254e+02
7.331612954850066921e-02 5.070933489251382866e+02
7.341615155334173248e-02 5.070811427056275988e+02
7.351617355818279576e-02 5.070689627638232650e+02
7.361619556302385903e-02 5.070568092335669235e+02
7.371621756786492230e-02 5.070446822483066285e+02
7.381623957270598557e-02 5.070325819410936106e+02
7.391626157754704884e-02 5.070205084445766488e+02
7.401628358238812599e-02 5.070084618910008203e+02
7.411630558722918927e-02 5.069964424122036917e+02
7.421632759207025254e-02 5.069844501396103169e+02
7.431634959691131581e-02 5.069724852042309635e+02
7.441637160175237908e-02 5.069605477366565651e+02
7.451639360659344236e-02 5.069486378670576983e+02
7.461641561143450563e-02 5.069367557251774770e+02
7.471643761627558278e-02 5.069249014403307569e+02
7.481645962111664605e-02 5.069130751413997586e+02
7.491648162595770932e-02 5.069012769568300882e+02
7.501650363079877259e-02 5.068895070146283501e+02
7.511652563563983587e-02 5.068777654423570880e+02
7.521654764048089914e-02 5.068660523671341593e+02
7.531656964532196241e-02 5.068543679156249482e+02
7.541659165016302568e-02 5.068427122140425354e+02
7.551661365500410283e-02 5.068310853881432081e+02
7.561663565984516611e-02 5.068194875632220828e+02
7.571665766468622938e-02 5.068079188641108317e+02
7.581667966952729265e-02 5.067963794151730781e+02
7.591670167436835592e-02 5.067848693403022367e+02
7.601672367920941920e-02 5.067733887629174205e+02
7.611674568405048247e-02 5.067619378059586666e+02
7.621676768889155962e-02 5.067505165918864236e+02
7.631678969373262289e-02 5.067391252426760389e+02
7.641681169857367228e-02 5.067277638798137218e+02
7.651683370341474943e-02 5.067164326242951802e+02
7.661685570825581271e-02 5.067051315966212996e+02
7.671687771309687598e-02 5.066938609167942786e+02
7.681689971793793925e-02 5.066826207043141039e+02
7.691692172277900252e-02 5.066714110781761065e+02
7.701694372762007967e-02 5.066602321568673801e+02
7.711696573246112907e-02 5.066490840583620070e+02
7.721698773730220622e-02 5.066379669001191814e+02
7.731700974214326949e-02 5.066268807990808796e+02
7.741703174698433276e-02 5.066158258716643559e+02
7.751705375182539604e-02 5.066048022337629959e+02
7.761707575666645931e-02 5.065938100007410299e+02
7.771709776150753646e-02 5.065828492874308040e+02
7.781711976634858585e-02 5.065719202081288017e+02
7.791714177118964912e-02 5.065610228765916645e+02
7.801716377603072627e-02 5.065501574060365328e+02
7.811718578087178955e-02 5.065393239091320652e+02
7.821720778571283894e-02 5.065285224980005410e+02
7.831722979055391609e-02 5.065177532842094479e+02
7.841725179539499324e-02 5.065070163787736419e+02
7.851727380023604264e-02 5.064963118921471050e+02
7.861729580507710591e-02 5.064856399342230588e+02
7.871731780991818306e-02 5.064750006143287919e+02
7.881733981475924633e-02 5.064643940412233860e+02
7.891736181960029572e-02 5.064538203230940212e+02
7.901738382444137287e-02 5.064432795675525654e+02
7.911740582928245002e-02 5.064327718816320498e+02
7.921742783412349942e-02 5.064222973717858167e+02
7.931744983896456269e-02 5.064118561438801294e+02
7.941747184380563984e-02 5.064014483031950249e+02
7.951749384864668924e-02 5.063910739544188573e+02
7.961751585348775251e-02 5.063807332016444320e+02
7.971753785832882966e-02 5.063704261483684377e+02
7.981755986316990681e-02 5.063601528974863868e+02
7.991758186801095620e-02 5.063499135512893758e+02
8.001760387285201948e-02 5.063397082114621526e+02
8.011762587769309663e-02 5.063295369790783411e+02
8.021764788253414602e-02 5.063193999545989641e+02
8.031766988737520929e-02 5.063092972378682930e+02
8.041769189221628644e-02 5.062992289281105514e+02
8.051771389705733584e-02 5.062891951239276409e+02
8.061773590189841299e-02 5.062791959232959584e+02
8.071775790673947626e-02 5.062692314235617346e+02
8.081777991158055341e-02 5.062593017214406927e+02
8.091780191642160280e-02 5.062494069130124785e+02
8.101782392126266608e-02 5.062395470937191249e+02
8.111784592610374323e-02 5.062297223583614141e+02
8.121786793094479262e-02 5.062199328010954673e+02
8.131788993578586977e-02 5.062101785154311528e+02
8.141791194062693304e-02 5.062004595942262881e+02
8.151793394546799632e-02 5.061907761296876060e+02
8.161795595030905959e-02 5.061811282133652412e+02
8.171797795515012286e-02 5.061715159361480119e+02
8.181799995999120001e-02 5.061619393882659779e+02
8.191802196483224940e-02 5.061523986592811752e+02
8.201804396967332655e-02 5.061428938380897762e+02
8.211806597451438983e-02 5.061334250129148700e+02
8.221808797935545310e-02 5.061239922713072019e+02
8.231810998419651637e-02 5.061145957001407396e+02
8.241813198903757964e-02 5.061052353856090917e+02
8.251815399387864292e-02 5.060959114132238028e+02
8.261817599871970619e-02 5.060866238678109994e+02
8.271819800356078334e-02 5.060773728335087753e+02
8.281822000840184661e-02 5.060681583937630421e+02
8.291824201324290988e-02 5.060589806313278700e+02
8.301826401808397315e-02 5.060498396282592921e+02
8.311828602292503643e-02 5.060407354659135422e+02
8.321830802776609970e-02 5.060316682249451787e+02
8.331833003260716297e-02 5.060226379853044136e+02
8.341835203744824012e-02 5.060136448262321096e+02
8.351837404228928952e-02 5.060046888262605194e+02
8.361839604713036667e-02 5.059957700632065780e+02
8.371841805197142994e-02 5.059868886141733810e+02
8.381844005681249321e-02 5.059780445555433630e+02
8.391846206165355648e-02 5.059692379629796051e+02
8.401848406649461976e-02 5.059604689114203779e+02
8.411850607133569691e-02 5.059517374750768681e+02
8.421852807617674630e-02 5.059430437274311316e+02
8.431855008101782345e-02 5.059343877412346728e+02
8.441857208585888672e-02 5.059257695885026465e+02
8.451859409069993612e-02 5.059171893405144829e+02
8.461861609554101327e-02 5.059086470678100795e+02
8.471863810038207654e-02 5.059001428401851967e+02
8.481866010522315369e-02 5.058916767266940155e+02
8.491868211006420308e-02 5.058832487956404975e+02
8.501870411490528023e-02 5.058748591145807154e+02
8.511872611974634351e-02 5.058665077503183625e+02
8.521874812458739290e-02 5.058581947689009439e+02
8.531877012942847005e-02 5.058499202356208571e+02
8.541879213426953332e-02 5.058416842150092521e+02
8.551881413911061047e-02 5.058334867708358047e+02
8.561883614395165987e-02 5.058253279661062720e+02
8.571885814879273702e-02 5.058172078630587976e+02
8.581888015363380029e-02 5.058091265231620923e+02
8.591890215847484968e-02 5.058010840071147527e+02
8.601892416331592683e-02 5.057930803748395192e+02
8.611894616815699011e-02 5.057851156854843566e+02
8.621896817299803950e-02 5.057771899974177927e+02
8.631899017783911665e-02 5.057693033682284067e+02
8.641901218268019380e-02 5.057614558547203956e+02
8.651903418752125707e-02 5.057536475129137443e+02
8.661905619236230647e-02 5.057458783980403609e+02
8.671907819720338362e-02 5.057381485645420867e+02
8.681910020204444689e-02 5.057304580660693318e+02
8.691912220688549628e-02 5.057228069554771537e+02
8.701914421172657343e-02 5.057151952848260521e+02
8.711916621656765058e-02 5.057076231053765696e+02
8.721918822140869998e-02 5.057000904675887227e+02
8.731921022624976325e-02 5.056925974211203538e+02
8.741923223109084040e-02 5.056851440148241181e+02
8.751925423593190367e-02 5.056777302967454375e+02
8.761927624077295307e-02 5.056703563141220457e+02
8.771929824561403022e-02 5.056630221133788723e+02
8.781932025045510737e-02 5.056557277401289525e+02
8.791934225529615676e-02 5.056484732391697321e+02
8.801936426013722004e-02 5.056412586544827263e+02
8.811938626497829719e-02 5.056340840292289727e+02
8.821940826981934658e-02 5.056269494057497695e+02
8.831943027466040985e-02 5.056198548255633796e+02
8.841945227950148700e-02 5.056128003293630400e+02
8.851947428434256415e-02 5.056057859570155983e+02
8.861949628918361355e-02 5.055988117475597505e+02
8.871951829402467682e-02 5.055918777392031984e+02
8.881954029886575397e-02 5.055849839693227068e+02
8.891956230370680336e-02 5.055781304744595559e+02
8.901958430854786664e-02 5.055713172903208488e+02
8.911960631338894379e-02 5.055645444517756459e+02
8.921962831822999318e-02 5.055578119928538285e+02
8.931965032307107033e-02 5.055511199467438246e+02
8.941967232791213360e-02 5.055444683457935753e+02
8.951969433275321075e-02 5.055378572215040549e+02
8.961971633759426015e-02 5.055312866045323403e+02
8.971973834243532342e-02 5.055247565246866088e+02
8.981976034727640057e-02 5.055182670109273317e+02
8.991978235211744996e-02 5.055118180913635797e+02
9.001980435695852711e-02 5.055054097932505215e+02
9.011982636179959039e-02 5.054990421429929484e+02
9.021984836664065366e-02 5.054927151661373728e+02
9.031987037148171693e-02 5.054864288873741316e+02
9.041989237632278020e-02 5.054801833305364767e+02
9.051991438116385735e-02 5.054739785185960841e+02
9.061993638600490675e-02 5.054678144736643617e+02
9.071995839084598390e-02 5.054616912169894363e+02
9.081998039568704717e-02 5.054556087689566652e+02
9.092000240052811044e-02 5.054495671490847144e+02
9.102002440536917371e-02 5.054435663760252737e+02
9.112004641021023699e-02 5.054376064675629436e+02
9.122006841505130026e-02 5.054316874406122793e+02
9.132009041989236353e-02 5.054258093112179040e+02
9.142011242473344068e-02 5.054199720945509284e+02
9.152013442957450395e-02 5.054141758049108830e+02
9.162015643441556723e-02 5.054084204557219664e+02
9.172017843925663050e-02 5.054027060595324201e+02
9.182020044409769377e-02 5.053970326280154381e+02
9.192022244893875704e-02 5.053914001719639941e+02
9.202024445377982032e-02 5.053858087012939109e+02
9.212026645862089747e-02 5.053802582250401656e+02
9.222028846346194686e-02 5.053747487513553551e+02
9.232031046830302401e-02 5.053692802875120833e+02
9.242033247314408728e-02 5.053638528398976746e+02
9.252035447798515055e-02 5.053584664140163341e+02
9.262037648282621383e-02 5.053531210144857369e+02
9.272039848766727710e-02 5.053478166450388471e+02
9.282042049250835425e-02 5.053425533085199959e+02
9.292044249734940364e-02 5.053373310068869273e+02
9.302046450219048079e-02 5.053321497412064218e+02
9.312048650703154407e-02 5.053270095116575931e+02
9.322050851187259346e-02 5.053219103175259761e+02
9.332053051671367061e-02 5.053168521572090981e+02
9.342055252155473388e-02 5.053118350282090887e+02
9.352057452639581103e-02 5.053068589271366591e+02
9.362059653123686043e-02 5.053019238497079186e+02
9.372061853607793758e-02 5.052970297907453414e+02
9.382064054091900085e-02 5.052921767441746965e+02
9.392066254576005024e-02 5.052873647030275492e+02
9.402068455060112739e-02 5.052825936594374525e+02
9.412070655544219067e-02 5.052778636046413681e+02
9.422072856028326782e-02 5.052731745289782452e+02
9.432075056512431721e-02 5.052685264218886232e+02
9.442077256996539436e-02 5.052639192719149150e+02
9.452079457480645763e-02 5.052593530666988499e+02
9.462081657964750703e-02 5.052548277929831784e+02
9.472083858448858418e-02 5.052503434366089436e+02
9.482086058932964745e-02 5.052458999825183810e+02
9.492088259417069684e-02 5.052414974147504836e+02
9.502090459901177399e-02 5.052371357164436745e+02
9.512092660385285114e-02 5.052328148698331347e+02
9.522094860869391442e-02 5.052285348562529634e+02
9.532097061353496381e-02 5.052242956561346432e+02
9.542099261837604096e-02 5.052200972490050503e+02
9.552101462321710423e-02 5.052159396134885583e+02
9.562103662805815363e-02 5.052118227273056732e+02
9.572105863289923078e-02 5.052077465672740573e+02
9.582108063774030793e-02 5.052037111093069370e+02
9.592110264258135732e-02 5.051997163284127623e+02
9.602112464742242059e-02 5.051957621986962295e+02
9.612114665226349774e-02 5.051918486933568602e+02
9.622116865710456102e-02 5.051879757846913890e+02
9.632119066194561041e-02 5.051841434440899548e+02
9.642121266678668756e-02 5.051803516420392839e+02
9.652123467162776471e-02 5.051766003481211555e+02
9.662125667646881411e-02 5.051728895310120606e+02
9.672127868130987738e-02 5.051692191584849638e+02
9.682130068615095453e-02 5.051655891974085080e+02
9.692132269099200392e-02 5.051619996137440012e+02
9.702134469583306720e-02 5.051584503725526929e+02
9.712136670067414435e-02 5.051549414379885548e+02
9.722138870551522150e-02 5.051514727733019754e+02
9.732141071035627089e-02 5.051480443408407837e+02
9.742143271519733416e-02 5.051446561020478043e+02
9.752145472003841131e-02 5.051413080174629044e+02
9.762147672487946071e-02 5.051380000467231639e+02
9.772149872972052398e-02 5.051347321485623070e+02
9.782152073456160113e-02 5.051315042808114413e+02
9.792154273940265052e-02 5.051283164004008768e+02
9.802156474424372767e-02 5.051251684633573973e+02
9.812158674908479095e-02 5.051220604248071027e+02
9.822160875392586810e-02 5.051189922389753519e+02
9.832163075876691749e-02 5.051159638591867633e+02
9.842165276360798076e-02 5.051129752378665216e+02
9.852167476844905791e-02 5.051100263265385024e+02
9.862169677329010731e-02 5.051071170758298194e+02
9.872171877813118446e-02 5.051042474354681531e+02
9.882174078297224773e-02 5.051014173542832850e+02
9.892176278781331100e-02 5.050986267802078373e+02
9.902178479265437427e-02 5.050958756602782955e+02
9.912180679749543755e-02 5.050931639406346676e+02
9.922182880233651470e-02 5.050904915665214503e+02
9.932185080717756409e-02 5.050878584822899597e+02
9.942187281201864124e-02 5.050852646313968535e+02
9.952189481685970451e-02 5.050827099564056653e+02
9.962191682170076779e-02 5.050801943989878851e+02
9.972193882654183106e-02 5.050777178999248918e+02
9.982196083138289433e-02 5.050752803991057363e+02
9.992198283622395760e-02 5.050728818355305521e+02
1.000220048410650209e-01 5.050705221473112374e+02
1.001220268459060980e-01 5.050682012716712279e+02
1.002220488507471613e-01 5.050659191449485661e+02
1.003220708555882246e-01 5.050636757025936276e+02
1.004220928604292878e-01 5.050614708791728731e+02
1.005221148652703511e-01 5.050593046083693594e+02
1.006221368701114144e-01 5.050571768229831946e+02
1.007221588749524777e-01 5.050550874549331866e+02
1.008221808797935548e-01 5.050530364352570132e+02
1.009222028846346042e-01 5.050510236941125868e+02
1.010222248894756814e-01 5.050490491607819763e+02
1.011222468943167446e-01 5.050471127636681672e+02
1.012222688991578079e-01 5.050452144303000637e+02
1.013222909039988712e-01 5.050433540873301581e+02
1.014223129088399344e-01 5.050415316605405565e+02
1.015223349136810116e-01 5.050397470748382602e+02
1.016223569185220610e-01 5.050380002542630109e+02
1.017223789233631381e-01 5.050362911219830266e+02
1.018224009282042014e-01 5.050346196003007435e+02
1.019224229330452508e-01 5.050329856106503712e+02
1.020224449378863280e-01 5.050313890736030089e+02
1.021224669427273912e-01 5.050298299088652811e+02
1.022224889475684684e-01 5.050283080352826346e+02
1.023225109524095178e-01 5.050268233708393382e+02
1.024225329572505949e-01 5.050253758326624620e+02
1.025225549620916582e-01 5.050239653370194901e+02
1.026225769669327076e-01 5.050225917993248004e+02
1.027225989717737847e-01 5.050212551341373342e+02
1.028226209766148480e-01 5.050199552551648026e+02
1.029226429814559252e-01 5.050186920752630613e+02
1.030226649862969746e-01 5.050174655064390663e+02
1.031226869911380517e-01 5.050162754598551373e+02
1.032227089959791150e-01 5.050151218458254903e+02
1.033227310008201644e-01 5.050140045738215804e+02
1.034227530056612415e-01 5.050129235524736373e+02
1.035227750105023048e-01 5.050118786895718586e+02
1.036227970153433542e-01 5.050108698920680581e+02
1.037228190201844313e-01 5.050098970660787927e+02
1.038228410250255085e-01 5.050089601168842250e+02
1.039228630298665718e-01 5.050080589489367071e+02
1.040228850347076212e-01 5.050071934658532200e+02
1.041229070395486983e-01 5.050063635704262310e+02
1.042229290443897616e-01 5.050055691646208516e+02
1.043229510492308110e-01 5.050048101495779065e+02
1.044229730540718881e-01 5.050040864256162081e+02
1.045229950589129653e-01 5.050033978922357392e+02
1.046230170637540147e-01 5.050027444481168004e+02
1.047230390685950779e-01 5.050021259911261495e+02
1.048230610734361551e-01 5.050015424183160917e+02
1.049230830782772184e-01 5.050009936259283450e+02
1.050231050831182678e-01 5.050004795093952907e+02
1.051231270879593449e-01 5.049999999633421339e+02
1.052231490928004221e-01 5.049995548815916209e+02
1.053231710976414714e-01 5.049991441571630730e+02
1.054231931024825347e-01 5.049987676822768208e+02
1.055232151073236119e-01 5.049984253483547718e+02
1.056232371121646613e-01 5.049981170460262092e+02
1.057232591170057245e-01 5.049978426651260293e+02
1.058232811218468017e-01 5.049976020947011079e+02
1.059233031266878788e-01 5.049973952230084819e+02
1.060233251315289282e-01 5.049972219375223972e+02
1.061233471363699915e-01 5.049970821249333994e+02
1.062233691412110687e-01 5.049969756711533364e+02
1.063233911460521181e-01 5.049969024613163810e+02
1.064234131508931813e-01 5.049968623797810210e+02
1.065234351557342585e-01 5.049968553101357998e+02
1.066234571605753079e-01 5.049968811351986915e+02
1.067234791654163850e-01 5.049969397370211368e+02
1.068235011702574483e-01 5.049970309968915672e+02
1.069235231750985254e-01 5.049971547953356890e+02
1.070235451799395748e-01 5.049973110121224522e+02
1.071235671847806381e-01 5.049974995262648463e+02
1.072235891896217153e-01 5.049977202160223442e+02
1.073236111944627647e-01 5.049979729589057342e+02
1.074236331993038418e-01 5.049982576316778591e+02
1.075236552041449051e-01 5.049985741103579358e+02
1.076236772089859683e-01 5.049989222702233747e+02
1.077236992138270316e-01 5.049993019858147250e+02
1.078237212186680949e-01 5.049997131309353335e+02
1.079237432235091720e-01 5.050001555786584504e+02
1.080237652283502214e-01 5.050006292013265465e+02
1.081237872331912986e-01 5.050011338705561457e+02
1.082238092380323619e-01 5.050016694572415759e+02
1.083238312428734251e-01 5.050022358315551969e+02
1.084238532477144884e-01 5.050028328629545626e+02
1.085238752525555517e-01 5.050034604201827619e+02
1.086238972573966149e-01 5.050041183712721704e+02
1.087239192622376782e-01 5.050048065835475199e+02
1.088239412670787554e-01 5.050055249236295936e+02
1.089239632719198186e-01 5.050062732574391475e+02
1.090239852767608819e-01 5.050070514501980483e+02
1.091240072816019452e-01 5.050078593664344453e+02
1.092240292864430085e-01 5.050086968699849876e+02
1.093240512912840717e-01 5.050095638239998834e+02
1.094240732961251350e-01 5.050104600909430701e+02
1.095240953009662122e-01 5.050113855326000021e+02
1.096241173058072615e-01 5.050123400100759454e+02
1.097241393106483387e-01 5.050133233838045044e+02
1.098241613154894020e-01 5.050143355135468255e+02
1.099241833203304652e-01 5.050153762583984758e+02
1.100242053251715285e-01 5.050164454767906932e+02
1.101242273300125918e-01 5.050175430264940246e+02
1.102242493348536689e-01 5.050186687646238397e+02
1.103242713396947183e-01 5.050198225476412404e+02
1.104242933445357955e-01 5.050210042313589156e+02
1.105243153493768588e-01 5.050222136709440406e+02
1.106243373542179081e-01 5.050234507209204935e+02
1.107243593590589853e-01 5.050247152351747673e+02
1.108243813639000486e-01 5.050260070669586980e+02
1.109244033687411257e-01 5.050273260688923074e+02
1.110244253735821751e-01 5.050286720929696003e+02
1.111244473784232523e-01 5.050300449905600999e+02
1.112244693832643155e-01 5.050314446124141341e+02
1.113244913881053649e-01 5.050328708086659049e+02
1.114245133929464421e-01 5.050343234288379222e+02
1.115245353977875054e-01 5.050358023218441303e+02
1.116245574026285825e-01 5.050373073359941145e+02
1.117245794074696319e-01 5.050388383189969090e+02
1.118246014123107090e-01 5.050403951179665683e+02
1.119246234171517723e-01 5.050419775794224506e+02
1.120246454219928217e-01 5.050435855492962673e+02
1.121246674268338989e-01 5.050452188729357772e+02
1.122246894316749621e-01 5.050468773951062076e+02
1.123247114365160115e-01 5.050485609599980990e+02
1.124247334413570887e-01 5.050502694112288964e+02
1.125247554461981658e-01 5.050520025918472697e+02
1.126247774510392291e-01 5.050537603443380021e+02
1.127247994558802785e-01 5.050555425106247185e+02
1.128248214607213556e-01 5.050573489320755698e+02
1.129248434655624189e-01 5.050591794495071554e+02
1.130248654704034683e-01 5.050610339031871945e+02
1.131248874752445455e-01 5.050629121328407223e+02
1.132249094800856226e-01 5.050648139776526477e+02
1.133249314849266720e-01 5.050667392762732675e+02
1.134249534897677353e-01 5.050686878668218469e+02
1.135249754946088124e-01 5.050706595868907698e+02
1.136249974994498757e-01 5.050726542735503699e+02
1.137250195042909251e-01 5.050746717633525691e+02
1.138250415091320022e-01 5.050767118923364478e+02
1.139250635139730794e-01 5.050787744960306327e+02
1.140250855188141288e-01 5.050808594094596060e+02
1.141251075236551921e-01 5.050829664671470027e+02
1.142251295284962692e-01 5.050850955031205558e+02
1.143251515333373186e-01 5.050872463509153931e+02
1.144251735381783819e-01 5.050894188435803471e+02
1.145251955430194590e-01 5.050916128136817633e+02
1.146252175478605362e-01 5.050938280933063425e+02
1.147252395527015856e-01 5.050960645140678480e+02
1.148252615575426488e-01 5.050983219071109716e+02
1.149252835623837260e-01 5.051006001031149708e+02
1.150253055672247754e-01 5.051028989322999223e+02
1.151253275720658387e-01 5.051052182244291657e+02
1.152253495769069158e-01 5.051075578088157272e+02
1.153253715817479652e-01 5.051099175143266962e+02
1.154253935865890424e-01 5.051122971693866361e+02
1.155254155914301056e-01 5.051146966019827005e+02
1.156254375962711828e-01 5.051171156396719084e+02
1.157254596011122322e-01 5.051195541095800650e+02
1.158254816059532954e-01 5.051220118384134139e+02
1.159255036107943726e-01 5.051244886524577851e+02
1.160255256156354220e-01 5.051269843775860409e+02
1.161255476204764991e-01 5.051294988392628511e+02
1.162255696253175624e-01 5.051320318625472510e+02
1.163255916301586257e-01 5.051345832721011107e+02
1.164256136349996890e-01 5.051371528921911249e+02
1.165256356398407522e-01 5.051397405466934742e+02
1.166256576446818294e-01 5.051423460591008165e+02
1.167256796495228788e-01 5.051449692525258115e+02
1.168257016543639559e-01 5.051476099497054975e+02
1.169257236592050192e-01 5.051502679730068053e+02
1.170257456640460825e-01 5.051529431444327543e+02
1.171257676688871457e-01 5.051556352856237027e+02
1.172257896737282090e-01 5.051583442178672385e+02
1.173258116785692723e-01 5.051610697620989754e+02
1.174258336834103356e-01 5.051638117389090894e+02
1.175258556882514127e-01 5.051665699685481741e+02
1.176258776930924760e-01 5.051693442709306510e+02
1.177258996979335393e-01 5.051721344656411361e+02
1.178259217027746025e-01 5.051749403719376801e+02
1.179259437076156658e-01 5.051777618087592714e+02
1.180259657124567291e-01 5.051805985947285649e+02
1.181259877172977923e-01 5.051834505481592146e+02
1.182260097221388695e-01 5.051863174870579201e+02
1.183260317269799189e-01 5.051891992291328393e+02
1.184260537318209960e-01 5.051920955917965443e+02
1.185260757366620593e-01 5.051950063921715923e+02
1.186260977415031226e-01 5.051979314470964368e+02
1.187261197463441859e-01 5.052008705731287819e+02
1.188261417511852491e-01 5.052038235865538809e+02
1.189261637560263263e-01 5.052067903033859011e+02
1.190261857608673757e-01 5.052097705393759952e+02
1.191262077657084528e-01 5.052127641100166784e+02
1.192262297705495161e-01 5.052157708305455230e+02
1.193262517753905655e-01 5.052187905159528896e+02
1.194262737802316426e-01 5.052218229809867012e+02
1.195262957850727059e-01 5.052248680401548881e+02
1.196263177899137831e-01 5.052279255077344260e+02
1.197263397947548325e-01 5.052309951977746323e+02
1.198263617995959096e-01 5.052340769241023963e+02
1.199263838044369729e-01 5.052371705003283182e+02
1.200264058092780223e-01 5.052402757398505742e+02
1.201264278141190994e-01 5.052433924558624199e+02
1.202264498189601627e-01 5.052465204613557717e+02
1.203264718238012398e-01 5.052496595691271182e+02
1.204264938286422892e-01 5.052528095917827500e+02
1.205265158334833664e-01 5.052559703417447849e+02
1.206265378383244297e-01 5.052591416312553179e+02
1.207265598431654791e-01 5.052623232723822184e+02
1.208265818480065562e-01 5.052655150770260093e+02
1.209266038528476195e-01 5.052687168569227651e+02
1.210266258576886689e-01 5.052719284236515591e+02
1.211266478625297460e-01 5.052751495886389534e+02
1.212266698673708232e-01 5.052783801631646270e+02
1.213266918722118864e-01 5.052816199583662069e+02
1.214267138770529358e-01 5.052848687852465446e+02
1.215267358818940130e-01 5.052881264546766715e+02
1.216267578867350763e-01 5.052913927774035301e+02
1.217267798915761257e-01 5.052946675640539524e+02
1.218268018964172028e-01 5.052979506251402313e+02
1.219268239012582800e-01 5.053012417710668842e+02
1.220268459060993294e-01 5.053045408121357696e+02
1.221268679109403926e-01 5.053078475585487581e+02
1.222268899157814698e-01 5.053111618204189881e+02
1.223269119206225330e-01 5.053144834077696714e+02
1.224269339254635824e-01 5.053178121305454624e+02
1.225269559303046596e-01 5.053211477986145610e+02
1.226269779351457367e-01 5.053244902217753634e+02
1.227269999399867861e-01 5.053278392097614642e+02
1.228270219448278494e-01 5.053311945722487053e+02
1.229270439496689266e-01 5.053345561188582451e+02
1.230270659545099760e-01 5.053379236591646304e+02
1.231270879593510392e-01 5.053412970026997755e+02
1.232271099641921164e-01 5.053446759589592148e+02
1.233271319690331935e-01 5.053480603374079010e+02
1.234271539738742429e-01 5.053514499474848094e+02
1.235271759787153062e-01 5.053548445986093611e+02
1.236271979835563833e-01 5.053582441001874486e+02
1.237272199883974327e-01 5.053616482616158123e+02
1.238272419932384960e-01 5.053650568922884077e+02
1.239272639980795732e-01 5.053684698016020320e+02
1.240272860029206226e-01 5.053718867989621799e+02
1.241273080077616997e-01 5.053753076937873061e+02
1.242273300126027630e-01 5.053787322955170112e+02
1.243273520174438401e-01 5.053821604136142582e+02
1.244273740222848895e-01 5.053855918575751502e+02
1.245273960271259528e-01 5.053890264369308625e+02
1.246274180319670299e-01 5.053924639612543501e+02
1.247274400368080793e-01 5.053959042401681359e+02
1.248274620416491565e-01 5.053993470833465267e+02
1.249274840464902198e-01 5.054027923005248795e+02
1.250275060513312830e-01 5.054062397015011356e+02
1.251275280561723324e-01 5.054096890961459394e+02
1.252275500610134096e-01 5.054131402944049682e+02
1.253275720658544867e-01 5.054165931063051858e+02
1.254275940706955361e-01 5.054200473419631976e+02
1.255276160755366133e-01 5.054235028115863884e+02
1.256276380803776904e-01 5.054269593254822439e+02
1.257276600852187398e-01 5.054304166940632967e+02
1.258276820900597892e-01 5.054338747278509913e+02
1.259277040949008664e-01 5.054373332374839265e+02
1.260277260997419158e-01 5.054407920337212659e+02
1.261277481045829929e-01 5.054442509274506961e+02
1.262277701094240701e-01 5.054477097296919510e+02
1.263277921142651472e-01 5.054511682516032351e+02
1.264278141191061966e-01 5.054546263044877605e+02
1.265278361239472460e-01 5.054580836997984647e+02
1.266278581287883231e-01 5.054615402491447753e+02
1.267278801336293725e-01 5.054649957642963614e+02
1.268279021384704497e-01 5.054684500571900116e+02
1.269279241433115268e-01 5.054719029399361148e+02
1.270279461481525762e-01 5.054753542248230360e+02
1.271279681529936534e-01 5.054788037243237682e+02
1.272279901578347028e-01 5.054822512510997967e+02
1.273280121626757799e-01 5.054856966180097402e+02
1.274280341675168293e-01 5.054891396381125332e+02
1.275280561723579065e-01 5.054925801246741912e+02
1.276280781771989836e-01 5.054960178911732100e+02
1.277281001820400330e-01 5.054994527513055118e+02
1.278281221868811102e-01 5.055028845189922322e+02
1.279281441917221596e-01 5.055063130083833585e+02
1.280281661965632367e-01 5.055097380338638686e+02
1.281281882014042861e-01 5.055131594100603252e+02
1.282282102062453633e-01 5.055165769518449679e+02
1.283282322110864404e-01 5.055199904743434445e+02
1.284282542159274898e-01 5.055233997929368570e+02
1.285282762207685670e-01 5.055268047232726758e+02
1.286282982256096163e-01 5.055302050812654215e+02
1.287283202304506935e-01 5.055336006831053055e+02
1.288283422352917429e-01 5.055369913452633455e+02
1.289283642401328200e-01 5.055403768844951173e+02
1.290283862449738972e-01 5.055437571178493386e+02
1.291284082498149466e-01 5.055471318626713355e+02
1.292284302546560237e-01 5.055505009366095237e+02
1.293284522594970731e-01 5.055538641576202394e+02
1.294284742643381503e-01 5.055572213439750158e+02
1.295284962691791997e-01 5.055605723142648458e+02
1.296285182740202768e-01 5.055639168874051279e+02
1.297285402788613262e-01 5.055672548826433399e+02
1.298285622837024034e-01 5.055705861195628472e+02
1.299285842885434805e-01 5.055739104180897812e+02
1.300286062933845299e-01 5.055772275984968473e+02
1.301286282982256071e-01 5.055805374814108291e+02
1.302286503030666565e-01 5.055838398878169073e+02
1.303286723079077336e-01 5.055871346390654253e+02
1.304286943127487830e-01 5.055904215568754125e+02
1.305287163175898602e-01 5.055937004633423726e+02
1.306287383224309373e-01 5.055969711809416367e+02
1.307287603272719867e-01 5.056002335325367767e+02
1.308287823321130638e-01 5.056034873413817650e+02
1.309288043369541132e-01 5.056067324311286484e+02
1.310288263417951904e-01 5.056099686258326074e+02
1.311288483466362398e-01 5.056131957499574128e+02
1.312288703514773169e-01 5.056164136283807693e+02
1.313288923563183941e-01 5.056196220863998860e+02
1.314289143611594435e-01 5.056228209497364787e+02
1.315289363660005206e-01 5.056260100445430226e+02
1.316289583708415700e-01 5.056291891974083796e+02
1.317289803756826472e-01 5.056323582353620054e+02
1.318290023805236966e-01 5.056355169858801446e+02
1.319290243853647737e-01 5.056386652768914018e+02
1.320290463902058509e-01 5.056418029367818576e+02
1.321290683950469003e-01 5.056449297944005252e+02
1.322290903998879774e-01 5.056480456790646940e+02
1.323291124047290268e-01 5.056511504205653296e+02
1.324291344095701040e-01 5.056542438491729285e+02
1.325291564144111534e-01 5.056573257956418956e+02
1.326291784192522305e-01 5.056603960912169669e+02
1.327292004240932799e-01 5.056634545676371317e+02
1.328292224289343570e-01 5.056665010571426819e+02
1.329292444337754342e-01 5.056695353924790197e+02
1.330292664386164836e-01 5.056725574069039340e+02
1.331292884434575607e-01 5.056755669341895327e+02
1.332293104482986101e-01 5.056785638086308268e+02
1.333293324531396873e-01 5.056815478650497653e+02
1.334293544579807367e-01 5.056845189387999540e+02
1.335293764628218138e-01 5.056874768657727941e+02
1.336293984676628910e-01 5.056904214824018595e+02
1.337294204725039404e-01 5.056933526256686378e+02
1.338294424773450175e-01 5.056962701331081007e+02
1.339294644821860669e-01 5.056991738428125700e+02
1.340294864870271441e-01 5.057020635934386519e+02
1.341295084918681935e-01 5.057049392242109889e+02
1.342295304967092706e-01 5.057078005749280010e+02
1.343295525015503478e-01 5.057106474859667173e+02
1.344295745063913972e-01 5.057134797982878922e+02
1.345295965112324743e-01 5.057162973534428261e+02
1.346296185160735237e-01 5.057190999935749574e+02
1.347296405209145731e-01 5.057218875614277636e+02
1.348296625257556502e-01 5.057246599003487404e+02
1.349296845305967274e-01 5.057274168542953703e+02
1.350297065354378045e-01 5.057301582678385330e+02
1.351297285402788539e-01 5.057328839861688152e+02
1.352297505451199311e-01 5.057355938551012287e+02
1.353297725499609805e-01 5.057382877210800984e+02
1.354297945548020299e-01 5.057409654311838949e+02
1.355298165596431070e-01 5.057436268331300653e+02
1.356298385644841842e-01 5.057462717752803201e+02
1.357298605693252336e-01 5.057489001066458059e+02
1.358298825741663107e-01 5.057515116768911412e+02
1.359299045790073879e-01 5.057541063363399871e+02
1.360299265838484373e-01 5.057566839359798792e+02
1.361299485886894867e-01 5.057592443274664333e+02
1.362299705935305638e-01 5.057617873631288603e+02
1.363299925983716410e-01 5.057643128959747401e+02
1.364300146032126904e-01 5.057668207796947968e+02
1.365300366080537675e-01 5.057693108686663663e+02
1.366300586128948447e-01 5.057717830179605016e+02
1.367300806177358941e-01 5.057742370833456107e+02
1.368301026225769434e-01 5.057766729212910377e+02
1.369301246274180206e-01 5.057790903889731453e+02
1.370301466322590977e-01 5.057814893442803168e+02
1.371301686371001471e-01 5.057838696458167078e+02
1.372301906419412243e-01 5.057862311529063959e+02
1.373302126467823014e-01 5.057885737255991216e+02
1.374302346516233508e-01 5.057908972246752910e+02
1.375302566564644002e-01 5.057932015116492721e+02
1.376302786613054774e-01 5.057954864487738291e+02
1.377303006661465545e-01 5.057977518990463750e+02
1.378303226709876039e-01 5.057999977262119273e+02
1.379303446758286811e-01 5.058022237947680537e+02
1.380303666806697582e-01 5.058044299699701583e+02
1.381303886855108076e-01 5.058066161178344942e+02
1.382304106903518570e-01 5.058087821051435071e+02
1.383304326951929342e-01 5.058109277994502122e+02
1.384304547000339836e-01 5.058130530690827982e+02
1.385304767048750607e-01 5.058151577831480381e+02
1.386304987097161379e-01 5.058172418115369737e+02
1.387305207145572150e-01 5.058193050249284397e+02
1.388305427193982644e-01 5.058213472947929290e+02
1.389305647242393138e-01 5.058233684933992436e+02
1.390305867290803910e-01 5.058253684938147217e+02
1.391306087339214403e-01 5.058273471699133665e+02
1.392306307387625175e-01 5.058293043963781201e+02
1.393306527436035946e-01 5.058312400487055243e+02
1.394306747484446440e-01 5.058331540032099838e+02
1.395306967532857212e-01 5.058350461370274616e+02
1.396307187581267706e-01 5.058369163281199121e+02
1.397307407629678477e-01 5.058387644552802840e+02
1.398307627678088971e-01 5.058405903981346228e+02
1.399307847726499743e-01 5.058423940371479830e+02
1.400308067774910514e-01 5.058441752536273270e+02
1.401308287823321008e-01 5.058459339297268116e+02
1.402308507871731780e-01 5.058476699484508003e+02
1.403308727920142274e-01 5.058493831936578431e+02
1.404308947968552768e-01 5.058510735500634610e+02
1.405309168016963539e-01 5.058527409032478204e+02
1.406309388065374311e-01 5.058543851396565287e+02
1.407309608113785082e-01 5.058560061466037610e+02
1.408309828162195576e-01 5.058576038122792511e+02
1.409310048210606348e-01 5.058591780257498840e+02
1.410310268259016842e-01 5.058607286769640723e+02
1.411310488307427335e-01 5.058622556567555648e+02
1.412310708355838107e-01 5.058637588568470846e+02
1.413310928404248878e-01 5.058652381698537965e+02
1.414311148452659372e-01 5.058666934892892186e+02
1.415311368501070144e-01 5.058681247095642561e+02
1.416311588549480915e-01 5.058695317259957847e+02
1.417311808597891409e-01 5.058709144348074460e+02
1.418312028646301903e-01 5.058722727331335136e+02
1.419312248694712675e-01 5.058736065190232694e+02
1.420312468743123446e-01 5.058749156914447553e+02
1.421312688791533940e-01 5.058762001502868770e+02
1.422312908839944712e-01 5.058774597963636666e+02
1.423313128888355483e-01 5.058786945314194554e+02
1.424313348936765977e-01 5.058799042581282492e+02
1.425313568985176471e-01 5.058810888801008332e+02
1.426313789033587243e-01 5.058822483018882394e+02
1.427314009081998014e-01 5.058833824289808945e+02
1.428314229130408508e-01 5.058844911678173730e+02
1.429314449178819280e-01 5.058855744257844549e+02
1.430314669227230051e-01 5.058866321112203082e+02
1.431314889275640545e-01 5.058876641334188662e+02
1.432315109324051039e-01 5.058886704026340340e+02
1.433315329372461810e-01 5.058896508300799155e+02
1.434315549420872304e-01 5.058906053279363846e+02
1.435315769469283076e-01 5.058915338093523246e+02
1.436315989517693847e-01 5.058924361884463679e+02
1.437316209566104619e-01 5.058933123803120111e+02
1.438316429614515113e-01 5.058941623010213107e+02
1.439316649662925607e-01 5.058949858676254507e+02
1.440316869711336378e-01 5.058957829981599161e+02
1.441317089759746872e-01 5.058965536116451744e+02
1.442317309808157644e-01 5.058972976280934972e+02
1.443317529856568415e-01 5.058980149685078231e+02
1.444317749904978909e-01 5.058987055548863054e+02
1.445317969953389681e-01 5.058993693102255520e+02
1.446318190001800175e-01 5.059000061585225581e+02
1.447318410050210946e-01 5.059006160247790831e+02
1.448318630098621440e-01 5.059011988350013098e+02
1.449318850147032212e-01 5.059017545162063243e+02
1.450319070195442983e-01 5.059022829964222296e+02
1.451319290243853477e-01 5.059027842046922956e+02
1.452319510292264249e-01 5.059032580710763227e+02
1.453319730340674742e-01 5.059037045266537689e+02
1.454319950389085514e-01 5.059041235035270461e+02
1.455320170437496008e-01 5.059045149348229984e+02
1.456320390485906779e-01 5.059048787546958579e+02
1.457320610534317551e-01 5.059052148983308257e+02
1.458320830582728045e-01 5.059055233019438447e+02
1.459321050631138816e-01 5.059058039027863742e+02
1.460321270679549310e-01 5.059060566391483462e+02
1.461321490727960082e-01 5.059062814503566301e+02
1.462321710776370576e-01 5.059064782767827637e+02
1.463321930824781347e-01 5.059066470598406795e+02
1.464322150873192119e-01 5.059067877419914794e+02
1.465322370921602613e-01 5.059069002667449695e+02
1.466322590970013384e-01 5.059069845786622182e+02
1.467322811018423878e-01 5.059070406233569202e+02
1.468323031066834650e-01 5.059070683474977841e+02
1.469323251115245144e-01 5.059070676988122273e+02
1.470323471163655915e-01 5.059070386260858641e+02
1.471323691212066409e-01 5.059069810791663144e+02
1.472323911260477181e-01 5.059068950089654209e+02
1.473324131308887952e-01 5.059067803674590209e+02
1.474324351357298446e-01 5.059066371076917790e+02
1.475324571405709217e-01 5.059064651837775273e+02
1.476324791454119711e-01 5.059062645509018239e+02
1.477325011502530483e-01 5.059060351653222369e+02
1.478325231550940977e-01 5.059057769843723236e+02
1.479325451599351748e-01 5.059054899664621985e+02
1.480325671647762520e-01 5.059051740710806371e+02
1.481325891696173014e-01 5.059048292587972355e+02
1.482326111744583785e-01 5.059044554912621265e+02
1.483326331792994279e-01 5.059040527312106974e+02
1.484326551841405051e-01 5.059036209424628510e+02
1.485326771889815545e-01 5.059031600899252226e+02
1.486326991938226316e-01 5.059026701395938517e+02
1.487327211986637088e-01 5.059021510585537271e+02
1.488327432035047582e-01 5.059016028149824251e+02
1.489327652083458353e-01 5.059010253781493702e+02
1.490327872131868847e-01 5.059004187184193597e+02
1.491328092180279619e-01 5.058997828072523930e+02
1.492328312228690113e-01 5.058991176172056612e+02
1.493328532277100884e-01 5.058984231219351955e+02
1.494328752325511656e-01 5.058976992961967198e+02
1.495328972373922150e-01 5.058969461158470153e+02
1.496329192422332921e-01 5.058961635578446021e+02
1.497329412470743415e-01 5.058953516002528659e+02
1.498329632519154186e-01 5.058945102222390346e+02
1.499329852567564680e-01 5.058936394040752589e+02
1.500330072615975452e-01 5.058927391271424199e+02
1.501330292664385946e-01 5.058918093739276856e+02
1.502330512712796717e-01 5.058908501280285464e+02
1.503330732761207489e-01 5.058898613741517352e+02
1.504330952809617983e-01 5.058888430981144211e+02
1.505331172858028754e-01 5.058877952868474495e+02
1.506331392906439248e-01 5.058867179283917608e+02
1.507331612954850020e-01 5.058856110119044160e+02
1.508331833003260514e-01 5.058844745276555841e+02
1.509332053051671285e-01 5.058833084670307585e+02
1.510332273100082057e-01 5.058821128225319512e+02
1.511332493148492551e-01 5.058808875877775790e+02
1.512332713196903322e-01 5.058796327575026908e+02
1.513332933245313816e-01 5.058783483275618664e+02
1.514333153293724588e-01 5.058770342949267729e+02
1.515333373342135082e-01 5.058756906576895176e+02
1.516333593390545853e-01 5.058743174150615687e+02
1.517333813438956625e-01 5.058729145673738685e+02
1.518334033487367118e-01 5.058714821160804149e+02
1.519334253535777890e-01 5.058700200637536000e+02
1.520334473584188384e-01 5.058685284140887575e+02
1.521334693632598878e-01 5.058670071719037082e+02
1.522334913681009649e-01 5.058654563431376801e+02
1.523335133729420421e-01 5.058638759348531266e+02
1.524335353777831192e-01 5.058622659552345340e+02
1.525335573826241686e-01 5.058606264135902393e+02
1.526335793874652458e-01 5.058589573203527721e+02
1.527336013923062952e-01 5.058572586870760119e+02
1.528336233971473446e-01 5.058555305264390540e+02
1.529336454019884217e-01 5.058537728522441057e+02
1.530336674068294989e-01 5.058519856794173393e+02
1.531336894116705483e-01 5.058501690240081530e+02
1.532337114165116254e-01 5.058483229031909332e+02
1.533337334213527026e-01 5.058464473352628943e+02
1.534337554261937520e-01 5.058445423396446472e+02
1.535337774310348014e-01 5.058426079368805972e+02
1.536337994358758785e-01 5.058406441486390577e+02
1.537338214407169557e-01 5.058386509977103174e+02
1.538338434455580050e-01 5.058366285080091984e+02
1.539338654503990822e-01 5.058345767045719299e+02
1.540338874552401593e-01 5.058324956135576258e+02
1.541339094600812087e-01 5.058303852622470345e+02
1.542339314649222581e-01 5.058282456790437891e+02
1.543339534697633353e-01 5.058260768934709404e+02
1.544339754746044124e-01 5.058238789361743102e+02
1.545339974794454618e-01 5.058216518389187968e+02
1.546340194842865390e-01 5.058193956345901370e+02
1.547340414891276161e-01 5.058171103571922913e+02
1.548340634939686655e-01 5.058147960418488083e+02
1.549340854988097149e-01 5.058124527248014033e+02
1.550341075036507921e-01 5.058100804434087649e+02
1.551341295084918692e-01 5.058076792361464413e+02
1.552341515133329186e-01 5.058052491426070674e+02
1.553341735181739958e-01 5.058027902034971248e+02
1.554341955230150729e-01 5.058003024606384201e+02
1.555342175278561223e-01 5.057977859569672887e+02
1.556342395326971717e-01 5.057952407365315821e+02
1.557342615375382489e-01 5.057926668444912366e+02
1.558342835423792982e-01 5.057900643271188414e+02
1.559343055472203754e-01 5.057874332317948074e+02
1.560343275520614525e-01 5.057847736070095834e+02
1.561343495569025297e-01 5.057820855023625768e+02
1.562343715617435791e-01 5.057793689685589698e+02
1.563343935665846285e-01 5.057766240574102312e+02
1.564344155714256779e-01 5.057738508218324114e+02
1.565344375762667550e-01 5.057710493158454028e+02
1.566344595811078322e-01 5.057682195945713488e+02
1.567344815859489093e-01 5.057653617142330518e+02
1.568345035907899865e-01 5.057624757321534616e+02
1.569345255956310359e-01 5.057595617067542548e+02
1.570345476004720853e-01 5.057566196975542425e+02
1.571345696053131347e-01 5.057536497651667560e+02
1.572345916101542118e-01 5.057506519713019202e+02
1.573346136149952890e-01 5.057476263787597759e+02
1.574346356198363661e-01 5.057445730514340880e+02
1.575346576246774433e-01 5.057414920543075141e+02
1.576346796295184927e-01 5.057383834534503535e+02
1.577347016343595421e-01 5.057352473160217414e+02
1.578347236392005914e-01 5.057320837102623727e+02
1.579347456440416686e-01 5.057288927055004706e+02
1.580347676488827457e-01 5.057256743721433736e+02
1.581347896537238229e-01 5.057224287816785591e+02
1.582348116585649000e-01 5.057191560066715397e+02
1.583348336634059217e-01 5.057158561207659204e+02
1.584348556682469988e-01 5.057125291986783395e+02
1.585348776730880482e-01 5.057091753161975021e+02
1.586348996779291254e-01 5.057057945501852032e+02
1.587349216827702025e-01 5.057023869785695638e+02
1.588349436876112797e-01 5.056989526803473609e+02
1.589349656924523568e-01 5.056954917355793100e+02
1.590349876972933785e-01 5.056920042253887573e+02
1.591350097021344556e-01 5.056884902319608841e+02
1.592350317069755050e-01 5.056849498385380457e+02
1.593350537118165822e-01 5.056813831294194870e+02
1.594350757166576593e-01 5.056777901899599783e+02
1.595350977214987365e-01 5.056741711065642448e+02
1.596351197263398136e-01 5.056705259666887287e+02
1.597351417311808353e-01 5.056668548588357908e+02
1.598351637360219124e-01 5.056631578725542795e+02
1.599351857408629618e-01 5.056594350984347557e+02
1.600352077457040390e-01 5.056556866281097200e+02
1.601352297505451161e-01 5.056519125542478150e+02
1.602352517553861933e-01 5.056481129705550757e+02
1.603352737602272149e-01 5.056442879717696997e+02
1.604352957650682920e-01 5.056404376536602854e+02
1.605353177699093692e-01 5.056365621130241834e+02
1.606353397747504186e-01 5.056326614476836880e+02
1.607353617795914957e-01 5.056287357564840477e+02
1.608353837844325729e-01 5.056247851392909070e+02
1.609354057892736500e-01 5.056208096969868961e+02
1.610354277941146717e-01 5.056168095314699826e+02
1.611354497989557488e-01 5.056127847456499467e+02
1.612354718037968260e-01 5.056087354434453687e+02
1.613354938086378754e-01 5.056046617297819807e+02
1.614355158134789525e-01 5.056005637105892561e+02
1.615355378183200297e-01 5.055964414927959183e+02
1.616355598231611068e-01 5.055922951843296005e+02
1.617355818280021285e-01 5.055881248941131503e+02
1.618356038328432056e-01 5.055839307320598550e+02
1.619356258376842828e-01 5.055797128090732713e+02
1.620356478425253322e-01 5.055754712370419952e+02
1.621356698473664093e-01 5.055712061288372752e+02
1.622356918522074865e-01 5.055669175983108516e+02
1.623357138570485636e-01 5.055626057602891024e+02
1.624357358618895852e-01 5.055582707305737244e+02
1.625357578667306624e-01 5.055539126259353679e+02
1.626357798715717395e-01 5.055495315641117600e+02
1.627358018764127889e-01 5.055451276638044646e+02
1.628358238812538661e-01 5.055407010446743925e+02
1.629358458860949432e-01 5.055362518273407204e+02
1.630358678909359926e-01 5.055317801333754915e+02
1.631358898957770420e-01 5.055272860853008865e+02
1.632359119006181192e-01 5.055227698065864956e+02
1.633359339054591963e-01 5.055182314216440318e+02
1.634359559103002457e-01 5.055136710558260233e+02
1.635359779151413229e-01 5.055090888354217213e+02
1.636359999199824000e-01 5.055044848876516994e+02
1.637360219248234494e-01 5.054998593406667737e+02
1.638360439296644988e-01 5.054952123235424324e+02
1.639360659345055760e-01 5.054905439662779258e+02
1.640360879393466531e-01 5.054858543997886500e+02
1.641361099441877025e-01 5.054811437559062028e+02
1.642361319490287797e-01 5.054764121673709951e+02
1.643361539538698568e-01 5.054716597678330459e+02
1.644361759587109062e-01 5.054668866918439107e+02
1.645361979635519556e-01 5.054620930748556020e+02
1.646362199683930327e-01 5.054572790532147906e+02
1.647362419732341099e-01 5.054524447641603615e+02
1.648362639780751593e-01 5.054475903458190942e+02
1.649362859829162364e-01 5.054427159372013989e+02
1.650363079877572858e-01 5.054378216781981905e+02
1.651363299925983630e-01 5.054329077095753746e+02
1.652363519974394124e-01 5.054279741729716307e+02
1.653363740022804895e-01 5.054230212108935802e+02
1.654363960071215667e-01 5.054180489667099891e+02
1.655364180119626161e-01 5.054130575846522220e+02
1.656364400168036932e-01 5.054080472098033283e+02
1.657364620216447426e-01 5.054030179881010554e+02
1.658364840264858198e-01 5.053979700663287531e+02
1.659365060313268692e-01 5.053929035921123614e+02
1.660365280361679463e-01 5.053878187139175111e+02
1.661365500410090235e-01 5.053827155810437830e+02
1.662365720458500729e-01 5.053775943436207854e+02
1.663365940506911500e-01 5.053724551526030382e+02
1.664366160555321994e-01 5.053672981597687794e+02
1.665366380603732765e-01 5.053621235177108701e+02
1.666366600652143259e-01 5.053569313798354870e+02
1.667366820700554031e-01 5.053517219003564378e+02
1.668367040748964802e-01 5.053464952342930019e+02
1.669367260797375296e-01 5.053412515374615737e+02
1.670367480845785790e-01 5.053359909664745828e+02
1.671367700894196562e-01 5.053307136787330478e+02
1.672367920942607333e-01 5.053254198324252684e+02
1.673368140991017827e-01 5.053201095865189245e+02
1.674368361039428599e-01 5.053147831007581772e+02
1.675368581087839370e-01 5.053094405356602010e+02
1.676368801136249864e-01 5.053040820525064873e+02
1.677369021184660358e-01 5.052987078133437535e+02
1.678369241233071130e-01 5.052933179809737680e+02
1.679369461281481901e-01 5.052879127189521000e+02
1.680369681329892395e-01 5.052824921915828327e+02
1.681369901378303167e-01 5.052770565639108327e+02
1.682370121426713938e-01 5.052716060017218069e+02
1.683370341475124432e-01 5.052661406715345151e+02
1.684370561523534926e-01 5.052606607405945738e+02
1.685370781571945697e-01 5.052551663768726939e+02
1.686371001620356469e-01 5.052496577490578602e+02
1.687371221668766963e-01 5.052441350265524989e+02
1.688371441717177734e-01 5.052385983794685558e+02
1.689371661765588506e-01 5.052330479786208457e+02
1.690371881813998722e-01 5.052274839955238690e+02
1.691372101862409494e-01 5.052219066023845357e+02
1.692372321910820265e-01 5.052163159720996646e+02
1.693372541959231037e-01 5.052107122782484225e+02
1.694372762007641531e-01 5.052050956950889713e+02
1.695372982056052302e-01 5.051994663975530102e+02
1.696373202104463074e-01 5.051938245612394098e+02
1.697373422152873290e-01 5.051881703624105171e+02
1.698373642201284062e-01 5.051825039779864142e+02
1.699373862249694833e-01 5.051768255855390066e+02
1.700374082298105605e-01 5.051711353632876467e+02
1.701374302346516099e-01 5.051654334900935623e+02
1.702374522394926870e-01 5.051597201454553669e+02
1.703374742443337642e-01 5.051539955095006462e+02
1.704374962491747858e-01 5.051482597629857310e+02
1.705375182540158630e-01 5.051425130872855220e+02
1.706375402588569401e-01 5.051367556643907619e+02
1.707375622636980173e-01 5.051309876769019525e+02
1.708375842685390666e-01 5.051252093080237842e+02
1.709376062733801438e-01 5.051194207415589972e+02
1.710376282782212209e-01 5.051136221619058233e+02
1.711376502830622426e-01 5.051078137540481521e+02
1.712376722879033197e-01 5.051019957035537118e+02
1.713376942927443969e-01 5.050961681965657704e+02
1.714377162975854740e-01 5.050903314198003500e+02
1.715377383024265234e-01 5.050844855605390649e+02
1.716377603072676006e-01 5.050786308066220158e+02
1.717377823121086222e-01 5.050727673464452891e+02
1.718378043169496994e-01 5.050668953689531691e+02
1.719378263217907765e-01 5.050610150636344429e+02
1.720378483266318537e-01 5.050551266205138745e+02
1.721378703314729308e-01 5.050492302301493055e+02
1.722378923363139802e-01 5.050433260836236968e+02
1.723379143411550574e-01 5.050374143725412637e+02
1.724379363459960790e-01 5.050314952890209383e+02
1.725379583508371562e-01 5.050255690256907428e+02
1.726379803556782333e-01 5.050196357756812517e+02
1.727380023605193105e-01 5.050136957326205902e+02
1.728380243653603876e-01 5.050077490906288631e+02
1.729380463702014370e-01 5.050017960443121297e+02
1.730380683750425141e-01 5.049958367887558097e+02
1.731380903798835358e-01 5.049898715195193972e+02
1.732381123847246129e-01 5.049839004326311169e+02
1.733381343895656901e-01 5.049779237245810464e+02
1.734381563944067672e-01 5.049719415923155452e+02
1.735381783992478444e-01 5.049659542332319688e+02
1.736382004040888938e-01 5.049599618451718470e+02
1.737382224089299432e-01 5.049539646264148587e+02
1.738382444137709926e-01 5.049479627756742843e+02
1.739382664186120697e-01 5.049419564920892753e+02
1.740382884234531469e-01 5.049359459752197381e+02
1.741383104282942240e-01 5.049299314250397401e+02
1.742383324331353012e-01 5.049239130419328490e+02
1.743383544379763506e-01 5.049178910266841740e+02
1.744383764428174000e-01 5.049118655804756486e+02
1.745383984476584494e-01 5.049058369048802888e+02
1.746384204524995265e-01 5.048998052018539511e+02
1.747384424573406037e-01 5.048937706737315807e+02
1.748384644621816808e-01 5.048877335232199357e+02
1.749384864670227580e-01 5.048816939533913910e+02
1.750385084718638073e-01 5.048756521676799025e+02
1.751385304767048567e-01 5.048696083698694110e+02
1.752385524815459061e-01 5.048635627640953771e+02
1.753385744863869833e-01 5.048575155548317070e+02
1.754385964912280604e-01 5.048514669468885359e+02
1.755386184960691376e-01 5.048454171454045536e+02
1.756386405009102147e-01 5.048393663558417188e+02
1.757386625057512364e-01 5.048333147839770731e+02
1.758386845105923135e-01 5.048272626358991602e+02
1.759387065154333629e-01 5.048212101180000673e+02
1.760387285202744401e-01 5.048151574369692867e+02
1.761387505251155172e-01 5.048091047997880310e+02
1.762387725299565944e-01 5.048030524137220709e+02
1.763387945347976715e-01 5.047970004863168469e+02
1.764388165396386932e-01 5.047909492253899657e+02
1.765388385444797703e-01 5.047848988390246063e+02
1.766388605493208197e-01 5.047788495355645182e+02
1.767388825541618969e-01 5.047728015236065175e+02
1.768389045590029740e-01 5.047667550119957127e+02
1.769389265638440512e-01 5.047607102098165228e+02
1.770389485686851283e-01 5.047546673263885850e+02
1.771389705735261499e-01 5.047486265712592513e+02
1.772389925783672271e-01 5.047425881541980175e+02
1.773390145832082765e-01 5.047365522851902142e+02
1.774390365880493536e-01 5.047305191744290482e+02
1.775390585928904308e-01 5.047244890323104869e+02
1.776390805977315079e-01 5.047184620694262662e+02
1.777391026025725296e-01 5.047124384965596846e+02
1.778391246074136067e-01 5.047064185246747456e+02
1.779391466122546839e-01 5.047004023649138276e+02
1.780391686170957333e-01 5.046943902285896684e+02
1.781391906219368104e-01 5.046883823271778056e+02
1.782392126267778876e-01 5.046823788723120856e+02
1.783392346316189647e-01 5.046763800757772742e+02
1.784392566364599864e-01 5.046703861495034289e+02
1.785392786413010635e-01 5.046643973055568040e+02
1.786393006461421407e-01 5.046584137561374064e+02
1.787393226509831901e-01 5.046524357135685932e+02
1.788393446558242672e-01 5.046464633902924106e+02
1.789393666606653444e-01 5.046404969988651033e+02
1.790393886655064215e-01 5.046345367519455181e+02
1.791394106703474431e-01 5.046285828622939107e+02
1.792394326751885203e-01 5.046226355427617705e+02
1.793394546800295974e-01 5.046166950062873866e+02
1.794394766848706468e-01 5.046107614658880038e+02
1.795394986897117240e-01 5.046048351346548202e+02
1.796395206945528011e-01 5.045989162257448015e+02
1.797395426993938783e-01 5.045930049523743719e+02
1.798395647042348999e-01 5.045871015278148093e+02
1.799395867090759771e-01 5.045812061653830938e+02
1.800396087139170542e-01 5.045753190784370190e+02
1.801396307187581036e-01 5.045694404803678026e+02
1.802396527235991808e-01 5.045635705845948564e+02
1.803396747284402579e-01 5.045577096045576582e+02
1.804396967332813073e-01 5.045518577537090437e+02
1.805397187381223567e-01 5.045460152455114553e+02
1.806397407429634339e-01 5.045401822934267102e+02
1.807397627478045110e-01 5.045343591109113959e+02
1.808397847526455604e-01 5.045285459114103901e+02
1.809398067574866376e-01 5.045227429083508923e+02
1.810398287623277147e-01 5.045169503151324761e+02
1.811398507671687641e-01 5.045111683451256113e+02
1.812398727720098135e-01 5.045053972116608634e+02
1.813398947768508906e-01 5.044996371280241760e+02
1.814399167816919678e-01 5.044938883074515275e+02
1.815399387865330172e-01 5.044881509631186418e+02
1.816399607913740943e-01 5.044824253081388861e+02
1.817399827962151715e-01 5.044767115555522423e+02
1.818400048010562209e-01 5.044710099183238299e+02
1.819400268058972703e-01 5.044653206093329345e+02
1.820400488107383474e-01 5.044596438413680630e+02
1.821400708155794246e-01 5.044539798271211453e+02
1.822400928204204740e-01 5.044483287791796897e+02
1.823401148252615511e-01 5.044426909100210992e+02
1.824401368301026005e-01 5.044370664320061337e+02
1.825401588349436777e-01 5.044314555573716916e+02
1.826401808397847271e-01 5.044258584982249545e+02
1.827402028446258042e-01 5.044202754665366228e+02
1.828402248494668814e-01 5.044147066741342655e+02
1.829402468543079308e-01 5.044091523326953848e+02
1.830402688591490079e-01 5.044036126537422433e+02
1.831402908639900573e-01 5.043980878486337929e+02
1.832403128688311345e-01 5.043925781285599896e+02
1.833403348736721838e-01 5.043870837045364510e+02
1.834403568785132610e-01 5.043816047873934281e+02
1.835403788833543381e-01 5.043761415877760328e+02
1.836404008881953875e-01 5.043706943161323579e+02
1.837404228930364647e-01 5.043652631827088157e+02
1.838404448978775141e-01 5.043598483975439422e+02
1.839404669027185912e-01 5.043544501704620302e+02
1.840404889075596406e-01 5.043490687110655699e+02
1.841405109124007178e-01 5.043437042287302461e+02
1.842405329172417949e-01 5.043383569325969233e+02
1.843405549220828443e-01 5.043330270315665871e+02
1.844405769269238937e-01 5.043277147342923854e+02
1.845405989317649709e-01 5.043224202491755932e+02
1.846406209366060480e-01 5.043171437843556646e+02
1.847406429414470974e-01 5.043118855477072771e+02
1.848406649462881746e-01 5.043066457468320891e+02
1.849406869511292517e-01 5.043014245890518623e+02
1.850407089559703011e-01 5.042962222814040842e+02
1.851407309608113505e-01 5.042910390306330441e+02
1.852407529656524277e-01 5.042858750431855697e+02
1.853407749704935048e-01 5.042807305252042624e+02
1.854407969753345542e-01 5.042756056825183464e+02
1.855408189801756313e-01 5.042705007206428718e+02
1.856408409850167085e-01 5.042654158447657551e+02
1.857408629898577579e-01 5.042603512597473241e+02
1.858408849946988073e-01 5.042553071701103704e+02
1.859409069995398844e-01 5.042502837800345787e+02
1.860409290043809616e-01 5.042452812933516952e+02
1.861409510092220110e-01 5.042402999135362052e+02
1.862409730140630881e-01 5.042353398437021497e+02
1.863409950189041653e-01 5.042304012865955656e+02
1.864410170237451869e-01 5.042254844445869821e+02
1.865410390285862641e-01 5.042205895196684651e+02
1.866410610334273412e-01 5.042157167134426459e+02
1.867410830382684184e-01 5.042108662271216986e+02
1.868411050431094678e-01 5.042060382615162553e+02
1.869411270479505449e-01 5.042012330170318819e+02
1.870411490527916221e-01 5.041964506936644170e+02
1.871411710576326437e-01 5.041916914909895695e+02
1.872411930624737209e-01 5.041869556081591668e+02
1.873412150673147980e-01 5.041822432438956412e+02
1.874412370721558752e-01 5.041775545964841285e+02
1.875412590769969245e-01 5.041728898637683187e+02
1.876412810818380017e-01 5.041682492431413607e+02
1.877413030866790788e-01 5.041636329315435887e+02
1.878413250915201005e-01 5.041590411254532569e+02
1.879413470963611776e-01 5.041544740208812527e+02
1.880413691012022548e-01 5.041499318133663792e+02
1.881413911060433319e-01 5.041454146979676807e+02
1.882414131108843813e-01 5.041409228692587590e+02
1.883414351157254585e-01 5.041364565213225433e+02
1.884414571205665356e-01 5.041320158477442419e+02
1.885414791254075573e-01 5.041276010416058853e+02
1.886415011302486344e-01 5.041232122954811530e+02
1.887415231350897116e-01 5.041188498014266770e+02
1.888415451399307887e-01 5.041145137509793130e+02
1.889415671447718381e-01 5.041102043351478983e+02
1.890415891496129153e-01 5.041059217444090450e+02
1.891416111544539369e-01 5.041016661686997509e+02
1.892416331592950141e-01 5.040974377974126241e+02
1.893416551641360912e-01 5.040932368193892898e+02
1.894416771689771684e-01 5.040890634229146485e+02
1.895416991738182455e-01 5.040849177957112488e+02
1.896417211786592949e-01 5.040808001249332619e+02
1.897417431835003720e-01 5.040767105971618207e+02
1.898417651883413937e-01 5.040726493983959813e+02
1.899417871931824708e-01 5.040686167140513589e+02
1.900418091980235480e-01 5.040646127289510332e+02
1.901418312028646251e-01 5.040606376273217961e+02
1.902418532077057023e-01 5.040566915927863079e+02
1.903418752125467517e-01 5.040527748083599704e+02
1.904418972173878288e-01 5.040488874564427988e+02
1.905419192222288505e-01 5.040450297188164086e+02
1.906419412270699276e-01 5.040412017766349209e+02
1.907419632319110048e-01 5.040374038104235410e+02
1.908419852367520819e-01 5.040336360000687819e+02
1.909420072415931591e-01 5.040298985248157919e+02
1.910420292464342085e-01 5.040261915632621594e+02
1.911420512512752579e-01 5.040225152933508070e+02
1.912420732561163073e-01 5.040188698923666379e+02
1.913420952609573844e-01 5.040152555369296579e+02
1.914421172657984616e-01 5.040116724029903139e+02
1.915421392706395387e-01 5.040081206658235828e+02
1.916421612754806159e-01 5.040046005000231162e+02
1.917421832803216653e-01 5.040011120794962380e+02
1.918422052851627146e-01 5.039976555774592271e+02
1.919422272900037640e-01 5.039942311664311774e+02
1.920422492948448412e-01 5.039908390182285984e+02
1.921422712996859183e-01 5.039874793039599012e+02
1.922422933045269955e-01 5.039841521940205666e+02
1.923423153093680726e-01 5.039808578580887115e+02
1.924423373142091220e-01 5.039775964651168465e+02
1.925423593190501714e-01 5.039743681833306255e+02
1.926423813238912208e-01 5.039711731802206032e+02
1.927424033287322980e-01 5.039680116225383131e+02
1.928424253335733751e-01 5.039648836762913788e+02
1.929424473384144523e-01 5.039617895067358404e+02
1.930424693432555294e-01 5.039587292783751877e+02
1.931424913480965511e-01 5.039557031549519479e+02
1.932425133529376282e-01 5.039527112994442177e+02
1.933425353577786776e-01 5.039497538740592972e+02
1.934425573626197548e-01 5.039468310402306770e+02
1.935425793674608319e-01 5.039439429586109895e+02
1.936426013723019091e-01 5.039410897890676324e+02
1.937426233771429862e-01 5.039382716906789597e+02
1.938426453819840078e-01 5.039354888217266080e+02
1.939426673868250850e-01 5.039327413396950988e+02
1.940426893916661344e-01 5.039300294012622317e+02
1.941427113965072115e-01 5.039273531622962992e+02
1.942427334013482887e-01 5.039247127778522213e+02
1.943427554061893658e-01 5.039221084021640991e+02
1.944427774110304430e-01 5.039195401886442482e+02
1.945427994158714646e-01 5.039170082898740475e+02
1.946428214207125418e-01 5.039145128576024604e+02
1.947428434255535912e-01 5.039120540427401238e+02
1.948428654303946683e-01 5.039096319953550278e+02
1.949428874352357455e-01 5.039072468646670018e+02
1.950429094400768226e-01 5.039048987990437922e+02
1.951429314449178443e-01 5.039025879459970270e+02
1.952429534497589214e-01 5.039003144521760760e+02
1.953429754545999986e-01 5.038980784633655503e+02
1.954429974594410480e-01 5.038958801244783672e+02
1.955430194642821251e-01 5.038937195795534763e+02
1.956430414691232023e-01 5.038915969717501753e+02
1.957430634739642794e-01 5.038895124433435058e+02
1.958430854788053010e-01 5.038874661357212972e+02
1.959431074836463782e-01 5.038854581893774593e+02
1.960431294884874553e-01 5.038834887439106183e+02
1.961431514933285047e-01 5.038815579380162717e+02
1.962431734981695819e-01 5.038796659094857660e+02
1.963431955030106590e-01 5.038778127952003842e+02
1.964432175078517362e-01 5.038759987311264013e+02
1.965432395126927578e-01 5.038742238523130936e+02
1.966432615175338350e-01 5.038724882928861462e+02
1.967432835223749121e-01 5.038707921860454348e+02
1.968433055272159615e-01 5.038691356640604795e+02
1.969433275320570387e-01 5.038675188582635087e+02
1.970433495368981158e-01 5.038659418990516201e+02
1.971433715417391930e-01 5.038644049158756388e+02
1.972433935465802146e-01 5.038629080372412545e+02
1.973434155514212918e-01 5.038614513907029959e+02
1.974434375562623689e-01 5.038600351028605928e+02
1.975434595611034183e-01 5.038586592993538034e+02
1.976434815659444955e-01 5.038573241048616751e+02
1.977435035707855726e-01 5.038560296430956669e+02
1.978435255756266220e-01 5.038547760367966362e+02
1.979435475804676714e-01 5.038535634077316558e+02
1.980435695853087485e-01 5.038523918766907173e+02
1.981435915901498257e-01 5.038512615634804206e+02
1.982436135949908751e-01 5.038501725869242591e+02
1.983436355998319522e-01 5.038491250648548885e+02
1.984436576046730294e-01 5.038481191141138424e+02
1.985436796095140788e-01 5.038471548505440296e+02
1.986437016143551282e-01 5.038462323889918366e+02
1.987437236191962053e-01 5.038453518432983174e+02
1.988437456240372825e-01 5.038445133262978857e+02
1.989437676288783319e-01 5.038437169498143930e+02
1.990437896337194090e-01 5.038429628246595939e+02
1.991438116385604862e-01 5.038422510606257561e+02
1.992438336434015356e-01 5.038415817664858878e+02
1.993438556482425850e-01 5.038409550499887359e+02
1.994438776530836621e-01 5.038403710178562278e+02
1.995438996579247393e-01 5.038398297757792079e+02
1.996439216627657887e-01 5.038393314284153348e+02
1.997439436676068658e-01 5.038388760793852725e+02
1.998439656724479152e-01 5.038384638312682000e+02
1.999439876772889924e-01 5.038380947856019247e+02
2.000440096821300417e-01 5.038377690428766300e+02
2.001440316869711189e-01 5.038374867025333401e+02
2.002440536918121960e-01 5.038372478629605098e+02
2.003440756966532454e-01 5.038370526214904999e+02
2.004440977014943226e-01 5.038369010743971899e+02
2.005441197063353720e-01 5.038367933168945001e+02
2.006441417111764491e-01 5.038367294431294567e+02
2.007441637160174985e-01 5.038367095461832719e+02
2.008441857208585757e-01 5.038367337180664549e+02
2.009442077256996528e-01 5.038368020497169937e+02
2.010442297305407022e-01 5.038369146309963753e+02
2.011442517353817794e-01 5.038370715506873694e+02
2.012442737402228288e-01 5.038372728964936300e+02
2.013442957450639059e-01 5.038375187550316809e+02
2.014443177499049553e-01 5.038378092118337577e+02
2.015443397547460325e-01 5.038381443513421800e+02
2.016443617595871096e-01 5.038385242569071920e+02
2.017443837644281590e-01 5.038389490107847450e+02
2.018444057692692084e-01 5.038394186941348494e+02
2.019444277741102856e-01 5.038399333870174246e+02
2.020444497789513627e-01 5.038404931683908217e+02
2.021444717837924121e-01 5.038410981161092650e+02
2.022444937886334893e-01 5.038417483069208060e+02
2.023445157934745664e-01 5.038424438164636854e+02
2.024445377983156158e-01 5.038431847192662190e+02
2.025445598031566652e-01 5.038439710887427054e+02
2.026445818079977423e-01 5.038448029971920050e+02
2.027446038128388195e-01 5.038456805157943563e+02
2.028446258176798689e-01 5.038466037146116037e+02
2.029446478225209460e-01 5.038475726625815696e+02
2.030446698273620232e-01 5.038485874275204424e+02
2.031446918322030726e-01 5.038496480761160683e+02
2.032447138370441220e-01 5.038507546739281793e+02
2.033447358418851991e-01 5.038519072853875969e+02
2.034447578467262763e-01 5.038531059737917985e+02
2.035447798515673257e-01 5.038543508013049177e+02
2.036448018564084028e-01 5.038556418289550720e+02
2.037448238612494800e-01 5.038569791166318623e+02
2.038448458660905016e-01 5.038583627230865432e+02
2.039448678709315788e-01 5.038597927059279868e+02
2.040448898757726559e-01 5.038612691216228541e+02
2.041449118806137331e-01 5.038627920254928085e+02
2.042449338854547825e-01 5.038643614717128685e+02
2.043449558902958596e-01 5.038659775133098719e+02
2.044449778951369368e-01 5.038676402021618514e+02
2.045449998999779584e-01 5.038693495889957603e+02
2.046450219048190355e-01 5.038711057233852557e+02
2.047450439096601127e-01 5.038729086537497892e+02
2.048450659145011898e-01 5.038747584273544362e+02
2.049450879193422392e-01 5.038766550903060875e+02
2.050451099241833164e-01 5.038785986875543017e+02
2.051451319290243935e-01 5.038805892628884635e+02
2.052451539338654152e-01 5.038826268589380106e+02
2.053451759387064923e-01 5.038847115171680002e+02
2.054451979435475695e-01 5.038868432778832585e+02
2.055452199483886466e-01 5.038890221802223550e+02
2.056452419532296960e-01 5.038912482621581717e+02
2.057452639580707732e-01 5.038935215604969926e+02
2.058452859629118503e-01 5.038958421108778793e+02
2.059453079677528720e-01 5.038982099477705106e+02
2.060453299725939491e-01 5.039006251044747273e+02
2.061453519774350263e-01 5.039030876131199648e+02
2.062453739822761034e-01 5.039055975046636604e+02
2.063453959871171528e-01 5.039081548088915952e+02
2.064454179919582300e-01 5.039107595544143692e+02
2.065454399967992516e-01 5.039134117686699597e+02
2.066454620016403287e-01 5.039161114779214472e+02
2.067454840064814059e-01 5.039188587072545147e+02
2.068455060113224830e-01 5.039216534805802326e+02
2.069455280161635602e-01 5.039244958206319325e+02
2.070455500210046096e-01 5.039273857489657757e+02
2.071455720258456867e-01 5.039303232859592185e+02
2.072455940306867084e-01 5.039333084508105003e+02
2.073456160355277855e-01 5.039363412615401785e+02
2.074456380403688627e-01 5.039394217349875476e+02
2.075456600452099398e-01 5.039425498868122872e+02
2.076456820500510170e-01 5.039457257314938374e+02
2.077457040548920664e-01 5.039489492823303181e+02
2.078457260597331435e-01 5.039522205514385860e+02
2.079457480645741652e-01 5.039555395497549739e+02
2.080457700694152423e-01 5.039589062870325051e+02
2.081457920742563195e-01 5.039623207718433378e+02
2.082458140790973966e-01 5.039657830115780257e+02
2.083458360839384738e-01 5.039692930124435293e+02
2.084458580887795232e-01 5.039728507794653751e+02
2.085458800936205725e-01 5.039764563164864057e+02
2.086459020984616219e-01 5.039801096261673479e+02
2.087459241033026991e-01 5.039838107099859599e+02
2.088459461081437762e-01 5.039875595682387939e+02
2.089459681129848534e-01 5.039913562000393767e+02
2.090459901178259305e-01 5.039952006033196312e+02
2.091460121226669799e-01 5.039990927748292506e+02
2.092460341275080293e-01 5.040030327101354146e+02
2.093460561323490787e-01 5.040070204036264840e+02
2.094460781371901559e-01 5.040110558485066576e+02
2.095461001420312330e-01 5.040151390368014859e+02
2.096461221468723102e-01 5.040192699593546877e+02
2.097461441517133873e-01 5.040234486058308789e+02
2.098461661565544367e-01 5.040276749647141514e+02
2.099461881613954861e-01 5.040319490233104034e+02
2.100462101662365355e-01 5.040362707677454637e+02
2.101462321710776127e-01 5.040406401829694687e+02
2.102462541759186898e-01 5.040450572527523718e+02
2.103462761807597670e-01 5.040495219596886045e+02
2.104462981856008441e-01 5.040540342851968489e+02
2.105463201904418657e-01 5.040585942095186169e+02
2.106463421952829429e-01 5.040632017117219448e+02
2.107463642001239923e-01 5.040678567697004837e+02
2.108463862049650694e-01 5.040725593601742389e+02
2.109464082098061466e-01 5.040773094586920706e+02
2.110464302146472237e-01 5.040821070396295340e+02
2.111464522194883009e-01 5.040869520761929721e+02
2.112464742243293225e-01 5.040918445404183785e+02
2.113464962291703997e-01 5.040967844031738991e+02
2.114465182340114491e-01 5.041017716341589221e+02
2.115465402388525262e-01 5.041068062019073750e+02
2.116465622436936034e-01 5.041118880737868722e+02
2.117465842485346805e-01 5.041170172160008747e+02
2.118466062533757577e-01 5.041221935935914757e+02
2.119466282582167793e-01 5.041274171704357059e+02
2.120466502630578565e-01 5.041326879092522972e+02
2.121466722678989059e-01 5.041380057715996372e+02
2.122466942727399830e-01 5.041433707178789518e+02
2.123467162775810602e-01 5.041487827073336234e+02
2.124467382824221373e-01 5.041542416980522034e+02
2.125467602872631590e-01 5.041597476469697767e+02
2.126467822921042361e-01 5.041653005098685867e+02
2.127468042969453133e-01 5.041709002413804228e+02
2.128468263017863626e-01 5.041765467949866206e+02
2.129468483066274398e-01 5.041822401230227229e+02
2.130468703114685169e-01 5.041879801766763762e+02
2.131468923163095941e-01 5.041937669059910831e+02
2.132469143211506157e-01 5.041996002598679638e+02
2.133469363259916929e-01 5.042054801860672342e+02
2.134469583308327700e-01 5.042114066312090586e+02
2.135469803356738194e-01 5.042173795407763350e+02
2.136470023405148966e-01 5.042233988591161733e+02
2.137470243453559737e-01 5.042294645294427369e+02
2.138470463501970509e-01 5.042355764938374136e+02
2.139470683550380725e-01 5.042417346932509190e+02
2.140470903598791497e-01 5.042479390675075024e+02
2.141471123647202268e-01 5.042541895553039808e+02
2.142471343695612762e-01 5.042604860942138885e+02
2.143471563744023534e-01 5.042668286206891821e+02
2.144471783792434305e-01 5.042732170700614915e+02
2.145472003840845077e-01 5.042796513765447344e+02
2.146472223889255293e-01 5.042861314732377878e+02
2.147472443937666065e-01 5.042926572921261936e+02
2.148472663986076836e-01 5.042992287640837503e+02
2.149472884034487330e-01 5.043058458188770032e+02
2.150473104082898101e-01 5.043125083851650743e+02
2.151473324131308873e-01 5.043192163905032430e+02
2.152473544179719367e-01 5.043259697613451635e+02
2.153473764228129861e-01 5.043327684230461045e+02
2.154473984276540632e-01 5.043396122998630631e+02
2.155474204324951404e-01 5.043465013149598803e+02
2.156474424373361898e-01 5.043534353904088903e+02
2.157474644421772669e-01 5.043604144471922837e+02
2.158474864470183441e-01 5.043674384052065420e+02
2.159475084518593935e-01 5.043745071832639724e+02
2.160475304567004429e-01 5.043816206990958904e+02
2.161475524615415200e-01 5.043887788693544962e+02
2.162475744663825972e-01 5.043959816096165696e+02
2.163475964712236466e-01 5.044032288343857999e+02
2.164476184760647237e-01 5.044105204570956857e+02
2.165476404809058009e-01 5.044178563901118650e+02
2.166476624857468503e-01 5.044252365447364355e+02
2.167476844905878997e-01 5.044326608312092048e+02
2.168477064954289768e-01 5.044401291587105334e+02
2.169477285002700540e-01 5.044476414353663927e+02
2.170477505051111033e-01 5.044551975682495595e+02
2.171477725099521805e-01 5.044627974633824579e+02
2.172477945147932299e-01 5.044704410257417635e+02
2.173478165196343070e-01 5.044781281592597111e+02
2.174478385244753564e-01 5.044858587668293239e+02
2.175478605293164336e-01 5.044936327503052098e+02
2.176478825341575107e-01 5.045014500105082789e+02
2.177479045389985601e-01 5.045093104472286427e+02
2.178479265438396373e-01 5.045172139592294229e+02
2.179479485486806867e-01 5.045251604442480584e+02
2.180479705535217638e-01 5.045331497990022172e+02
2.181479925583628132e-01 5.045411819191918426e+02
2.182480145632038904e-01 5.045492566995020525e+02
2.183480365680449675e-01 5.045573740336075161e+02
2.184480585728860169e-01 5.045655338141754100e+02
2.185480805777270941e-01 5.045737359328688854e+02
2.186481025825681435e-01 5.045819802803514449e+02
2.187481245874092206e-01 5.045902667462887621e+02
2.188481465922502700e-01 5.045985952193537969e+02
2.189481685970913472e-01 5.046069655872299791e+02
2.190481906019324243e-01 5.046153777366139934e+02
2.191482126067734737e-01 5.046238315532211800e+02
2.192482346116145231e-01 5.046323269217867278e+02
2.193482566164556002e-01 5.046408637260723253e+02
2.194482786212966774e-01 5.046494418488677525e+02
2.195483006261377268e-01 5.046580611719956551e+02
2.196483226309788039e-01 5.046667215763146714e+02
2.197483446358198811e-01 5.046754229417239230e+02
2.198483666406609305e-01 5.046841651471663681e+02
2.199483886455019799e-01 5.046929480706334630e+02
2.200484106503430570e-01 5.047017715891681746e+02
2.201484326551841342e-01 5.047106355788695282e+02
2.202484546600251836e-01 5.047195399148963588e+02
2.203484766648662607e-01 5.047284844714715177e+02
2.204484986697073379e-01 5.047374691218848852e+02
2.205485206745483873e-01 5.047464937385000212e+02
2.206485426793894367e-01 5.047555581927558137e+02
2.207485646842305138e-01 5.047646623551704579e+02
2.208485866890715910e-01 5.047738060953481636e+02
2.209486086939126404e-01 5.047829892819804058e+02
2.210486306987537175e-01 5.047922117828522914e+02
2.211486527035947947e-01 5.048014734648454578e+02
2.212486747084358163e-01 5.048107741939430753e+02
2.213486967132768934e-01 5.048201138352336557e+02
2.214487187181179706e-01 5.048294922529161681e+02
2.215487407229590477e-01 5.048389093103033360e+02
2.216487627278000971e-01 5.048483648698273214e+02
2.217487847326411743e-01 5.048578587930422259e+02
2.218488067374822514e-01 5.048673909406298321e+02
2.219488287423232731e-01 5.048769611724041511e+02
2.220488507471643502e-01 5.048865693473166516e+02
2.221488727520054274e-01 5.048962153234582502e+02
2.222488947568465045e-01 5.049058989580653360e+02
2.223489167616875539e-01 5.049156201075252852e+02
2.224489387665286311e-01 5.049253786273790183e+02
2.225489607713697082e-01 5.049351743723276513e+02
2.226489827762107299e-01 5.049450071962364746e+02
2.227490047810518070e-01 5.049548769521373401e+02
2.228490267858928842e-01 5.049647834922371885e+02
2.229490487907339613e-01 5.049747266679198674e+02
2.230490707955750107e-01 5.049847063297528393e+02
2.231490928004160879e-01 5.049947223274898533e+02
2.232491148052571650e-01 5.050047745100773113e+02
2.233491368100981866e-01 5.050148627256588156e+02
2.234491588149392638e-01 5.050249868215797164e+02
2.235491808197803409e-01 5.050351466443922845e+02
2.236492028246214181e-01 5.050453420398598041e+02
2.237492248294624675e-01 5.050555728529618591e+02
2.238492468343035446e-01 5.050658389279005860e+02
2.239492688391445663e-01 5.050761401081040276e+02
2.240492908439856434e-01 5.050864762362303964e+02
2.241493128488267206e-01 5.050968471541754070e+02
2.242493348536677977e-01 5.051072527030761421e+02
2.243493568585088749e-01 5.051176927233154288e+02
2.244493788633499243e-01 5.051281670545282623e+02
2.245494008681910014e-01 5.051386755356055573e+02
2.246494228730320231e-01 5.051492180046994918e+02
2.247494448778731002e-01 5.051597942992303274e+02
2.248494668827141774e-01 5.051704042558889682e+02
2.249494888875552545e-01 5.051810477106440658e+02
2.250495108923963317e-01 5.051917244987465097e+02
2.251495328972373811e-01 5.052024344547341457e+02
2.252495549020784582e-01 5.052131774124384833e+02
2.253495769069194798e-01 5.052239532049876516e+02
2.254495989117605570e-01 5.052347616648143571e+02
2.255496209166016341e-01 5.052456026236591242e+02
2.256496429214427113e-01 5.052564759125759792e+02
2.257496649262837884e-01 5.052673813619395560e+02
2.258496869311248378e-01 5.052783188014473126e+02
2.259497089359658872e-01 5.052892880601276033e+02
2.260497309408069366e-01 5.053002889663438282e+02
2.261497529456480138e-01 5.053113213478005150e+02
2.262497749504890909e-01 5.053223850315479240e+02
2.263497969553301681e-01 5.053334798439875613e+02
2.264498189601712452e-01 5.053446056108784887e+02
2.265498409650122946e-01 5.053557621573424967e+02
2.266498629698533440e-01 5.053669493078689356e+02
2.267498849746943934e-01 5.053781668863205141e+02
2.268499069795354706e-01 5.053894147159408590e+02
2.269499289843765477e-01 5.054006926193551408e+02
2.270499509892176249e-01 5.054120004185820108e+02
2.271499729940587020e-01 5.054233379350340556e+02
2.272499949988997514e-01 5.054347049895253576e+02
2.273500170037408008e-01 5.054461014022773497e+02
2.274500390085818502e-01 5.054575269929251249e+02
2.275500610134229273e-01 5.054689815805209037e+02
2.276500830182640045e-01 5.054804649835415375e+02
2.277501050231050816e-01 5.054919770198924880e+02
2.278501270279461588e-01 5.055035175069172055e+02
2.279501490327871804e-01 5.055150862613978688e+02
2.280501710376282576e-01 5.055266830995644227e+02
2.281501930424693070e-01 5.055383078370997509e+02
2.282502150473103841e-01 5.055499602891443374e+02
2.283502370521514613e-01 5.055616402703045082e+02
2.284502590569925384e-01 5.055733475946550470e+02
2.285502810618336156e-01 5.055850820757467545e+02
2.286503030666746372e-01 5.055968435266132133e+02
2.287503250715157144e-01 5.056086317597732886e+02
2.288503470763567638e-01 5.056204465872419860e+02
2.289503690811978409e-01 5.056322878205315874e+02
2.290503910860389181e-01 5.056441552706596099e+02
2.291504130908799952e-01 5.056560487481553423e+02
2.292504350957210724e-01 5.056679680630648477e+02
2.293504571005620940e-01 5.056799130249567042e+02
2.294504791054031712e-01 5.056918834429274057e+02
2.295505011102442205e-01 5.057038791256096602e+02
2.296505231150852977e-01 5.057158998811759147e+02
2.297505451199263748e-01 5.057279455173454039e+02
2.298505671247674520e-01 5.057400158413904023e+02
2.299505891296084736e-01 5.057521106601411134e+02
2.300506111344495508e-01 5.057642297799925473e+02
2.301506331392906279e-01 5.057763730069103758e+02
2.302506551441316773e-01 5.057885401464369579e+02
2.303506771489727545e-01 5.058007310036976492e+02
2.304506991538138316e-01 5.058129453834051787e+02
2.305507211586549088e-01 5.058251830898689150e+02
2.306507431634959304e-01 5.058374439269974800e+02
2.307507651683370076e-01 5.058497276983075608e+02
2.308507871731780847e-01 5.058620342069282287e+02
2.309508091780191341e-01 5.058743632556075340e+02
2.310508311828602113e-01 5.058867146467190992e+02
2.311508531877012884e-01 5.058990881822674055e+02
2.312508751925423656e-01 5.059114836638958081e+02
2.313508971973833872e-01 5.059239008928888097e+02
2.314509192022244644e-01 5.059363396701822921e+02
2.315509412070655415e-01 5.059487997963680073e+02
2.316509632119065909e-01 5.059612810716988065e+02
2.317509852167476680e-01 5.059737832960969399e+02
2.318510072215887452e-01 5.059863062691575806e+02
2.319510292264298223e-01 5.059988497901579763e+02
2.320510512312708440e-01 5.060114136580605191e+02
2.321510732361119211e-01 5.060239976715216130e+02
2.322510952409529983e-01 5.060366016288965625e+02
2.323511172457940477e-01 5.060492253282451429e+02
2.324511392506351248e-01 5.060618685673397863e+02
2.325511612554762020e-01 5.060745311436705833e+02
2.326511832603172514e-01 5.060872128544505131e+02
2.327512052651583008e-01 5.060999134966240263e+02
2.328512272699993779e-01 5.061126328668712517e+02
2.329512492748404551e-01 5.061253707616146471e+02
2.330512712796815045e-01 5.061381269770269569e+02
2.331512932845225816e-01 5.061509013090345093e+02
2.332513152893636588e-01 5.061636935533263113e+02
2.333513372942047082e-01 5.061765035053580277e+02
2.334513592990457576e-01 5.061893309603598254e+02
2.335513813038868347e-01 5.062021757133421715e+02
2.336514033087279119e-01 5.062150375591012335e+02
2.337514253135689613e-01 5.062279162922272917e+02
2.338514473184100384e-01 5.062408117071083780e+02
2.339514693232511156e-01 5.062537235979385741e+02
2.340514913280921649e-01 5.062666517587226735e+02
2.341515133329332143e-01 5.062795959832841390e+02
2.342515353377742915e-01 5.062925560652711283e+02
2.343515573426153686e-01 5.063055317981607573e+02
2.344515793474564180e-01 5.063185229752675696e+02
2.345516013522974952e-01 5.063315293897493916e+02
2.346516233571385446e-01 5.063445508346136421e+02
2.347516453619796217e-01 5.063575871027219932e+02
2.348516673668206711e-01 5.063706379867996930e+02
2.349516893716617483e-01 5.063837032794389756e+02
2.350517113765028254e-01 5.063967827731072475e+02
2.351517333813438748e-01 5.064098762601524299e+02
2.352517553861849520e-01 5.064229835328098943e+02
2.353517773910260014e-01 5.064361043832081464e+02
2.354517993958670785e-01 5.064492386033752496e+02
2.355518214007081279e-01 5.064623859852458736e+02
2.356518434055492051e-01 5.064755463206662398e+02
2.357518654103902822e-01 5.064887194014016814e+02
2.358518874152313316e-01 5.065019050191423275e+02
2.359519094200724088e-01 5.065151029655097545e+02
2.360519314249134581e-01 5.065283130320621012e+02
2.361519534297545353e-01 5.065415350103024821e+02
2.362519754345955847e-01 5.065547686916837051e+02
2.363519974394366618e-01 5.065680138676142974e+02
2.364520194442777390e-01 5.065812703294656671e+02
2.365520414491187884e-01 5.065945378685790956e+02
2.366520634539598378e-01 5.066078162762696593e+02
2.367520854588009149e-01 5.066211053438355520e+02
2.368521074636419921e-01 5.066344048625603591e+02
2.369521294684830415e-01 5.066477146237243687e+02
2.370521514733241186e-01 5.066610344186065049e+02
2.371521734781651958e-01 5.066743640384920582e+02
2.372521954830062452e-01 5.066877032746807572e+02
2.373522174878472946e-01 5.067010519184891564e+02
2.374522394926883717e-01 5.067144097612610949e+02
2.375522614975294489e-01 5.067277765943708232e+02
2.376522835023704983e-01 5.067411522092305631e+02
2.377523055072115754e-01 5.067545363972975565e+02
2.378523275120526526e-01 5.067679289500774757e+02
2.379523495168937020e-01 5.067813296591342009e+02
2.380523715217347513e-01 5.067947383160929462e+02
2.381523935265758285e-01 5.068081547126487294e+02
2.382524155314169056e-01 5.068215786405714880e+02
2.383524375362579550e-01 5.068350098917121613e+02
2.384524595410990322e-01 5.068484482580101371e+02
2.385524815459401093e-01 5.068618935314967757e+02
2.386525035507811310e-01 5.068753455043049030e+02
2.387525255556222081e-01 5.068888039686729030e+02
2.388525475604632853e-01 5.069022687169509709e+02
2.389525695653043624e-01 5.069157395416075360e+02
2.390525915701454118e-01 5.069292162352367086e+02
2.391526135749864890e-01 5.069426985905622018e+02
2.392526355798275661e-01 5.069561864004446647e+02
2.393526575846685878e-01 5.069696794578875938e+02
2.394526795895096649e-01 5.069831775560443248e+02
2.395527015943507421e-01 5.069966804882217275e+02
2.396527235991918192e-01 5.070101880478893008e+02
2.397527456040328686e-01 5.070237000286833222e+02
2.398527676088739458e-01 5.070372162244134415e+02
2.399527896137150229e-01 5.070507364290686496e+02
