0.000000000000000000e+00 5.178606756008273351e+02
1.000220048410650341e-04 5.178425229660846298e+02
2.000440096821300682e-04 5.178244159713838144e+02
3.000660145231950752e-04 5.178063549395722021e+02
4.000880193642601364e-04 5.177883401913645685e+02
5.001100242053251434e-04 5.177703720453351934e+02
6.001320290463901504e-04 5.177524508179117220e+02
7.001540338874551574e-04 5.177345768233649324e+02
8.001760387285202728e-04 5.177167503738038477e+02
9.001980435695852798e-04 5.176989717791674366e+02
1.000220048410650287e-03 5.176812413472175649e+02
1.100242053251715294e-03 5.176635593835308100e+02
1.200264058092780301e-03 5.176459261914939134e+02
1.300286062933845308e-03 5.176283420722932078e+02
1.400308067774910315e-03 5.176108073249108656e+02
1.500330072615975322e-03 5.175933222461167134e+02
1.600352077457040546e-03 5.175758871304618651e+02
1.700374082298105553e-03 5.175585022702705373e+02
1.800396087139170560e-03 5.175411679556358422e+02
1.900418091980235567e-03 5.175238844744122844e+02
2.000440096821300574e-03 5.175066521122076892e+02
2.100462101662365581e-03 5.174894711523794513e+02
2.200484106503430588e-03 5.174723418760268032e+02
2.300506111344495595e-03 5.174552645619852456e+02
2.400528116185560602e-03 5.174382394868191568e+02
2.500550121026625609e-03 5.174212669248175871e+02
2.600572125867690616e-03 5.174043471479863001e+02
2.700594130708756056e-03 5.173874804260437941e+02
2.800616135549820630e-03 5.173706670264150489e+02
2.900638140390886070e-03 5.173539072142234545e+02
3.000660145231950644e-03 5.173372012522897876e+02
3.100682150073016084e-03 5.173205494011222072e+02
3.200704154914081091e-03 5.173039519189121620e+02
3.300726159755145665e-03 5.172874090615312070e+02
3.400748164596211105e-03 5.172709210825229320e+02
3.500770169437275679e-03 5.172544882330980727e+02
3.600792174278341119e-03 5.172381107621314413e+02
3.700814179119406126e-03 5.172217889161537414e+02
3.800836183960471133e-03 5.172055229393490663e+02
3.900858188801536140e-03 5.171893130735502382e+02
4.000880193642601147e-03 5.171731595582307364e+02
4.100902198483666154e-03 5.171570626305041287e+02
4.200924203324731161e-03 5.171410225251162274e+02
4.300946208165796168e-03 5.171250394744421328e+02
4.400968213006861175e-03 5.171091137084814591e+02
4.500990217847926182e-03 5.170932454548541273e+02
4.601012222688991189e-03 5.170774349387949087e+02
4.701034227530056196e-03 5.170616823831508100e+02
4.801056232371121203e-03 5.170459880083765256e+02
4.901078237212187078e-03 5.170303520325282989e+02
5.001100242053251217e-03 5.170147746712638082e+02
5.101122246894316224e-03 5.169992561378348910e+02
5.201144251735381231e-03 5.169837966430847018e+02
5.301166256576447106e-03 5.169683963954453247e+02
5.401188261417512113e-03 5.169530556009320890e+02
5.501210266258576252e-03 5.169377744631416363e+02
5.601232271099641259e-03 5.169225531832472598e+02
5.701254275940706266e-03 5.169073919599959481e+02
5.801276280781772141e-03 5.168922909897063391e+02
5.901298285622837148e-03 5.168772504662624669e+02
6.001320290463901287e-03 5.168622705811139895e+02
6.101342295304966294e-03 5.168473515232711861e+02
6.201364300146032169e-03 5.168324934793017746e+02
6.301386304987097176e-03 5.168176966333297742e+02
6.401408309828162183e-03 5.168029611670310715e+02
6.501430314669226322e-03 5.167882872596308061e+02
6.601452319510291329e-03 5.167736750879024612e+02
6.701474324351357204e-03 5.167591248261626333e+02
6.801496329192422211e-03 5.167446366462708056e+02
6.901518334033487218e-03 5.167302107176261643e+02
7.001540338874551357e-03 5.167158472071649840e+02
7.101562343715617232e-03 5.167015462793588085e+02
7.201584348556682239e-03 5.166873080962129734e+02
7.301606353397747246e-03 5.166731328172623989e+02
7.401628358238812253e-03 5.166590205995730685e+02
7.501650363079876392e-03 5.166449715977369124e+02
7.601672367920942266e-03 5.166309859638710122e+02
7.701694372762007273e-03 5.166170638476181693e+02
7.801716377603072280e-03 5.166032053961409929e+02
7.901738382444137287e-03 5.165894107541245148e+02
8.001760387285202294e-03 5.165756800637724382e+02
8.101782392126267301e-03 5.165620134648063413e+02
8.201804396967332308e-03 5.165484110944644272e+02
8.301826401808397315e-03 5.165348730875002730e+02
8.401848406649462322e-03 5.165213995761821479e+02
8.501870411490527329e-03 5.165079906902922176e+02
8.601892416331592336e-03 5.164946465571229055e+02
8.701914421172657343e-03 5.164813673014815549e+02
8.801936426013722350e-03 5.164681530456833798e+02
8.901958430854787357e-03 5.164550039095553302e+02
9.001980435695852364e-03 5.164419200104340462e+02
9.102002440536917371e-03 5.164289014631650616e+02
9.202024445377982378e-03 5.164159483801017814e+02
9.302046450219047385e-03 5.164030608711070727e+02
9.402068455060112392e-03 5.163902390435523557e+02
9.502090459901177399e-03 5.163774830023157847e+02
9.602112464742242406e-03 5.163647928497839530e+02
9.702134469583307413e-03 5.163521686858518933e+02
9.802156474424374155e-03 5.163396106079221681e+02
9.902178479265437427e-03 5.163271187109065750e+02
1.000220048410650243e-02 5.163146930872233042e+02
1.010222248894756918e-02 5.163023338268018279e+02
1.020224449378863245e-02 5.162900410170798295e+02
1.030226649862969746e-02 5.162778147430045692e+02
1.040228850347076246e-02 5.162656550870343608e+02
1.050231050831182747e-02 5.162535621291389134e+02
1.060233251315289421e-02 5.162415359467989902e+02
1.070235451799395748e-02 5.162295766150087957e+02
1.080237652283502423e-02 5.162176842062765445e+02
1.090239852767608750e-02 5.162058587906245748e+02
1.100242053251715250e-02 5.161941004355916220e+02
1.110244253735821925e-02 5.161824092062336149e+02
1.120246454219928252e-02 5.161707851651239025e+02
1.130248654704034753e-02 5.161592283723572336e+02
1.140250855188141253e-02 5.161477388855483923e+02
1.150253055672247754e-02 5.161363167598354948e+02
1.160255256156354428e-02 5.161249620478807856e+02
1.170257456640460755e-02 5.161136747998724559e+02
1.180259657124567430e-02 5.161024550635277137e+02
1.190261857608673930e-02 5.160913028840921015e+02
1.200264058092780257e-02 5.160802183043433615e+02
1.210266258576886932e-02 5.160692013645933685e+02
1.220268459060993259e-02 5.160582521026893801e+02
1.230270659545099760e-02 5.160473705540167657e+02
1.240272860029206434e-02 5.160365567515024168e+02
1.250275060513312761e-02 5.160258107256140647e+02
1.260277260997419435e-02 5.160151325043659654e+02
1.270279461481525762e-02 5.160045221133201494e+02
1.280281661965632437e-02 5.159939795755880141e+02
1.290283862449738937e-02 5.159835049118353254e+02
1.300286062933845264e-02 5.159730981402821044e+02
1.310288263417951939e-02 5.159627592767086526e+02
1.320290463902058266e-02 5.159524883344557793e+02
1.330292664386164767e-02 5.159422853244292355e+02
1.340294864870271441e-02 5.159321502551034655e+02
1.350297065354377768e-02 5.159220831325221752e+02
1.360299265838484442e-02 5.159120839603049262e+02
1.370301466322590769e-02 5.159021527396475904e+02
1.380303666806697444e-02 5.158922894693284888e+02
1.390305867290803944e-02 5.158824941457078239e+02
1.400308067774910271e-02 5.158727667627381379e+02
1.410310268259016946e-02 5.158631073119591974e+02
1.420312468743123446e-02 5.158535157825093620e+02
1.430314669227229774e-02 5.158439921611253567e+02
1.440316869711336448e-02 5.158345364321468196e+02
1.450319070195442775e-02 5.158251485775217589e+02
1.460321270679549449e-02 5.158158285768085989e+02
1.470323471163655950e-02 5.158065764071810690e+02
1.480325671647762451e-02 5.157973920434341153e+02
1.490327872131868951e-02 5.157882754579844686e+02
1.500330072615975278e-02 5.157792266208792853e+02
1.510332273100081953e-02 5.157702454997970563e+02
1.520334473584188453e-02 5.157613320600552242e+02
1.530336674068294781e-02 5.157524862646120027e+02
1.540338874552401455e-02 5.157437080740729698e+02
1.550341075036507782e-02 5.157349974466950471e+02
1.560343275520614456e-02 5.157263543383909337e+02
1.570345476004721130e-02 5.157177787027358136e+02
1.580347676488827457e-02 5.157092704909703116e+02
1.590349876972933785e-02 5.157008296520070871e+02
1.600352077457040459e-02 5.156924561324344722e+02
1.610354277941146786e-02 5.156841498765231790e+02
1.620356478425253460e-02 5.156759108262303926e+02
1.630358678909359788e-02 5.156677389212065918e+02
1.640360879393466462e-02 5.156596340987998701e+02
1.650363079877573136e-02 5.156515962940617328e+02
1.660365280361679463e-02 5.156436254397525545e+02
1.670367480845786137e-02 5.156357214663476043e+02
1.680369681329892464e-02 5.156278843020428440e+02
1.690371881813999139e-02 5.156201138727607258e+02
1.700374082298105466e-02 5.156124101021555362e+02
1.710376282782211793e-02 5.156047729116196479e+02
1.720378483266318467e-02 5.155972022202906828e+02
1.730380683750424795e-02 5.155896979450554909e+02
1.740382884234531469e-02 5.155822600005586764e+02
1.750385084718638143e-02 5.155748882992073732e+02
1.760387285202744470e-02 5.155675827511772695e+02
1.770389485686851144e-02 5.155603432644211352e+02
1.780391686170957471e-02 5.155531697446723456e+02
1.790393886655063799e-02 5.155460620954536353e+02
1.800396087139170473e-02 5.155390202180846018e+02
1.810398287623276800e-02 5.155320440116843201e+02
1.820400488107383474e-02 5.155251333731819159e+02
1.830402688591490148e-02 5.155182881973232725e+02
1.840404889075596476e-02 5.155115083766750104e+02
1.850407089559703150e-02 5.155047938016341504e+02
1.860409290043809477e-02 5.154981443604351625e+02
1.870411490527916151e-02 5.154915599391546266e+02
1.880413691012022478e-02 5.154850404217218056e+02
1.890415891496129153e-02 5.154785856899233067e+02
1.900418091980235480e-02 5.154721956234111531e+02
1.910420292464341807e-02 5.154658700997107417e+02
1.920422492948448481e-02 5.154596089942280059e+02
1.930424693432555155e-02 5.154534121802555546e+02
1.940426893916661483e-02 5.154472795289843816e+02
1.950429094400768157e-02 5.154412109095053438e+02
1.960431294884874831e-02 5.154352061888233720e+02
1.970433495368981158e-02 5.154292652318595174e+02
1.980435695853087485e-02 5.154233879014635704e+02
1.990437896337193813e-02 5.154175740584181540e+02
2.000440096821300487e-02 5.154118235614496371e+02
2.010442297305407161e-02 5.154061362672347286e+02
2.020444497789513835e-02 5.154005120304095726e+02
2.030446698273619816e-02 5.153949507035753186e+02
2.040448898757726490e-02 5.153894521373106272e+02
2.050451099241833164e-02 5.153840161801764452e+02
2.060453299725939491e-02 5.153786426787260098e+02
2.070455500210046165e-02 5.153733314775116696e+02
2.080457700694152492e-02 5.153680824190976182e+02
2.090459901178259167e-02 5.153628953440626219e+02
2.100462101662365494e-02 5.153577700910125259e+02
2.110464302146472168e-02 5.153527064965877571e+02
2.120466502630578842e-02 5.153477043954732153e+02
2.130468703114684823e-02 5.153427636204049804e+02
2.140470903598791497e-02 5.153378840021809992e+02
2.150473104082898171e-02 5.153330653696694981e+02
2.160475304567004845e-02 5.153283075498164862e+02
2.170477505051111172e-02 5.153236103676582616e+02
2.180479705535217499e-02 5.153189736463270947e+02
2.190481906019323827e-02 5.153143972070618020e+02
2.200484106503430501e-02 5.153098808692187731e+02
2.210486306987537175e-02 5.153054244502756092e+02
2.220488507471643849e-02 5.153010277658482892e+02
2.230490707955749830e-02 5.152966906296942398e+02
2.240492908439856504e-02 5.152924128537248407e+02
2.250495108923963178e-02 5.152881942480145199e+02
2.260497309408069505e-02 5.152840346208093933e+02
2.270499509892176179e-02 5.152799337785379521e+02
2.280501710376282506e-02 5.152758915258200432e+02
2.290503910860389181e-02 5.152719076654773289e+02
2.300506111344495508e-02 5.152679819985427230e+02
2.310508311828602182e-02 5.152641143242693715e+02
2.320510512312708856e-02 5.152603044401420220e+02
2.330512712796814837e-02 5.152565521418870276e+02
2.340514913280921511e-02 5.152528572234798503e+02
2.350517113765028185e-02 5.152492194771590448e+02
2.360519314249134859e-02 5.152456386934319426e+02
2.370521514733241186e-02 5.152421146610888627e+02
2.380523715217347860e-02 5.152386471672120933e+02
2.390525915701453841e-02 5.152352359971832811e+02
2.400528116185560515e-02 5.152318809346986654e+02
2.410530316669667189e-02 5.152285817617749899e+02
2.420532517153773863e-02 5.152253382587635997e+02
2.430534717637880537e-02 5.152221502043577175e+02
2.440536918121986518e-02 5.152190173756051763e+02
2.450539118606093192e-02 5.152159395479181967e+02
2.460541319090199519e-02 5.152129164950838458e+02
2.470543519574306193e-02 5.152099479892751788e+02
2.480545720058412867e-02 5.152070338010612431e+02
2.490547920542519195e-02 5.152041736994186749e+02
2.500550121026625522e-02 5.152013674517417030e+02
2.510552321510732196e-02 5.151986148238538590e+02
2.520554521994838870e-02 5.151959155800180952e+02
2.530556722478945197e-02 5.151932694829480397e+02
2.540558922963051525e-02 5.151906762938190241e+02
2.550561123447158199e-02 5.151881357722797929e+02
2.560563323931264873e-02 5.151856476764611443e+02
2.570565524415371200e-02 5.151832117629905952e+02
2.580567724899477874e-02 5.151808277870003394e+02
2.590569925383583855e-02 5.151784955021405494e+02
2.600572125867690529e-02 5.151762146605901762e+02
2.610574326351797203e-02 5.151739850130677496e+02
2.620576526835903877e-02 5.151718063088422923e+02
2.630578727320010551e-02 5.151696782957453706e+02
2.640580927804116532e-02 5.151676007201839411e+02
2.650583128288223206e-02 5.151655733271484223e+02
2.660585328772329533e-02 5.151635958602275878e+02
2.670587529256436207e-02 5.151616680616177746e+02
2.680589729740542881e-02 5.151597896721355028e+02
2.690591930224649209e-02 5.151579604312285028e+02
2.700594130708755536e-02 5.151561800769885622e+02
2.710596331192862210e-02 5.151544483461618711e+02
2.720598531676968884e-02 5.151527649741608457e+02
2.730600732161075211e-02 5.151511296950773158e+02
2.740602932645181539e-02 5.151495422416921883e+02
2.750605133129288213e-02 5.151480023454892034e+02
2.760607333613394887e-02 5.151465097366658483e+02
2.770609534097501214e-02 5.151450641441454081e+02
2.780611734581607888e-02 5.151436652955881073e+02
2.790613935065714563e-02 5.151423129174047517e+02
2.800616135549820543e-02 5.151410067347676431e+02
2.810618336033927217e-02 5.151397464716226295e+02
2.820620536518033891e-02 5.151385318507020656e+02
2.830622737002140565e-02 5.151373625935347036e+02
2.840624937486246893e-02 5.151362384204601312e+02
2.850627137970353220e-02 5.151351590506412776e+02
2.860629338454459547e-02 5.151341242020737354e+02
2.870631538938566221e-02 5.151331335916006537e+02
2.880633739422672895e-02 5.151321869349231974e+02
2.890635939906779570e-02 5.151312839466150990e+02
2.900638140390885550e-02 5.151304243401315262e+02
2.910640340874992224e-02 5.151296078278256800e+02
2.920642541359098898e-02 5.151288341209574355e+02
2.930644741843205225e-02 5.151281029297080067e+02
2.940646942327311900e-02 5.151274139631907474e+02
2.950649142811418227e-02 5.151267669294654752e+02
2.960651343295524901e-02 5.151261615355490449e+02
2.970653543779631228e-02 5.151255974874291041e+02
2.980655744263737902e-02 5.151250744900767131e+02
2.990657944747844577e-02 5.151245922474575991e+02
3.000660145231950557e-02 5.151241504625459129e+02
3.010662345716057231e-02 5.151237488373358246e+02
3.020664546200163905e-02 5.151233870728568718e+02
3.030666746684270579e-02 5.151230648691816896e+02
3.040668947168376907e-02 5.151227819254436326e+02
3.050671147652483234e-02 5.151225379398472342e+02
3.060673348136589561e-02 5.151223326096794608e+02
3.070675548620696235e-02 5.151221656313255153e+02
3.080677749104802909e-02 5.151220367002790681e+02
3.090679949588909584e-02 5.151219455111576053e+02
3.100682150073015564e-02 5.151218917577109551e+02
3.110684350557122238e-02 5.151218751328398184e+02
3.120686551041228912e-02 5.151218953286036140e+02
3.130688751525335239e-02 5.151219520362367348e+02
3.140690952009442261e-02 5.151220449461577573e+02
3.150693152493547894e-02 5.151221737479871763e+02
3.160695352977654915e-02 5.151223381305559315e+02
3.170697553461761242e-02 5.151225377819204141e+02
3.180699753945867569e-02 5.151227723893757684e+02
3.190701954429974591e-02 5.151230416394668055e+02
3.200704154914080918e-02 5.151233452180036920e+02
3.210706355398187245e-02 5.151236828100724097e+02
3.220708555882293572e-02 5.151240541000493067e+02
3.230710756366400593e-02 5.151244587716131491e+02
3.240712956850506921e-02 5.151248965077597859e+02
3.250715157334613248e-02 5.151253669908123811e+02
3.260717357818719575e-02 5.151258699024374437e+02
3.270719558302826596e-02 5.151264049236557412e+02
3.280721758786932923e-02 5.151269717348565109e+02
3.290723959271039251e-02 5.151275700158097379e+02
3.300726159755146272e-02 5.151281994456796838e+02
3.310728360239252599e-02 5.151288597030387564e+02
3.320730560723358926e-02 5.151295504658786513e+02
3.330732761207465253e-02 5.151302714116249035e+02
3.340734961691572275e-02 5.151310222171503028e+02
3.350737162175678602e-02 5.151318025587867169e+02
3.360739362659784929e-02 5.151326121123390749e+02
3.370741563143891256e-02 5.151334505530976458e+02
3.380743763627998277e-02 5.151343175558538405e+02
3.390745964112104605e-02 5.151352127949093074e+02
3.400748164596210932e-02 5.151361359440924161e+02
3.410750365080317259e-02 5.151370866767692860e+02
3.420752565564423586e-02 5.151380646658582236e+02
3.430754766048530607e-02 5.151390695838427973e+02
3.440756966532636935e-02 5.151401011027836603e+02
3.450759167016743956e-02 5.151411588943346942e+02
3.460761367500849589e-02 5.151422426297513084e+02
3.470763567984956610e-02 5.151433519799094256e+02
3.480765768469062937e-02 5.151444866153138946e+02
3.490767968953169265e-02 5.151456462061141792e+02
3.500770169437276286e-02 5.151468304221175458e+02
3.510772369921381919e-02 5.151480389327998637e+02
3.520774570405488940e-02 5.151492714073222032e+02
3.530776770889595267e-02 5.151505275145411815e+02
3.540778971373702289e-02 5.151518069230245374e+02
3.550781171857808616e-02 5.151531093010607947e+02
3.560783372341914943e-02 5.151544343166774524e+02
3.570785572826021270e-02 5.151557816376489427e+02
3.580787773310127597e-02 5.151571509315133426e+02
3.590789973794234619e-02 5.151585418655840840e+02
3.600792174278340946e-02 5.151599541069638235e+02
3.610794374762447273e-02 5.151613873225566067e+02
3.620796575246553600e-02 5.151628411790818518e+02
3.630798775730660621e-02 5.151643153430866278e+02
3.640800976214766949e-02 5.151658094809599788e+02
3.650803176698873276e-02 5.151673232589458848e+02
3.660805377182980297e-02 5.151688563431547436e+02
3.670807577667086624e-02 5.151704083995780366e+02
3.680809778151192951e-02 5.151719790941017436e+02
3.690811978635299279e-02 5.151735680925175984e+02
3.700814179119406300e-02 5.151751750605371853e+02
3.710816379603512627e-02 5.151767996638066052e+02
3.720818580087618954e-02 5.151784415679167068e+02
3.730820780571725281e-02 5.151801004384179805e+02
3.740822981055832303e-02 5.151817759408327220e+02
3.750825181539938630e-02 5.151834677406686751e+02
3.760827382024044957e-02 5.151851755034311964e+02
3.770829582508151284e-02 5.151868988946381478e+02
3.780831782992258305e-02 5.151886375798295603e+02
3.790833983476364633e-02 5.151903912245845731e+02
3.800836183960470960e-02 5.151921594945312108e+02
3.810838384444577981e-02 5.151939420553612763e+02
3.820840584928683614e-02 5.151957385728412646e+02
3.830842785412790635e-02 5.151975487128278246e+02
3.840844985896896963e-02 5.151993721412795821e+02
3.850847186381003984e-02 5.152012085242683952e+02
3.860849386865110311e-02 5.152030575279943605e+02
3.870851587349216638e-02 5.152049188187982054e+02
3.880853787833322965e-02 5.152067920631734523e+02
3.890855988317429293e-02 5.152086769277806297e+02
3.900858188801536314e-02 5.152105730794570491e+02
3.910860389285641947e-02 5.152124801852335167e+02
3.920862589769749662e-02 5.152143979123436566e+02
3.930864790253855295e-02 5.152163259282393710e+02
3.940866990737962317e-02 5.152182639006020963e+02
3.950869191222068644e-02 5.152202114973547395e+02
3.960871391706174971e-02 5.152221683866760031e+02
3.970873592190281992e-02 5.152241342370127768e+02
3.980875792674387625e-02 5.152261087170910514e+02
3.990877993158495340e-02 5.152280914959314941e+02
4.000880193642600974e-02 5.152300822428592255e+02
4.010882394126707301e-02 5.152320806275174618e+02
4.020884594610814322e-02 5.152340863198801344e+02
4.030886795094920649e-02 5.152360989902647361e+02
4.040888995579027670e-02 5.152381183093445998e+02
4.050891196063133304e-02 5.152401439481600391e+02
4.060893396547239631e-02 5.152421755781325601e+02
4.070895597031346652e-02 5.152442128710773659e+02
4.080897797515452979e-02 5.152462554992125661e+02
4.090899997999560000e-02 5.152483031351771388e+02
4.100902198483666328e-02 5.152503554520374109e+02
4.110904398967772655e-02 5.152524121233033156e+02
4.120906599451878982e-02 5.152544728229387374e+02
4.130908799935985309e-02 5.152565372253748137e+02
4.140911000420092331e-02 5.152586050055207352e+02
4.150913200904198658e-02 5.152606758387776154e+02
4.160915401388304985e-02 5.152627494010498594e+02
4.170917601872412006e-02 5.152648253687569877e+02
4.180919802356518333e-02 5.152669034188460273e+02
4.190922002840624661e-02 5.152689832288031084e+02
4.200924203324730988e-02 5.152710644766671066e+02
4.210926403808837315e-02 5.152731468410393063e+02
4.220928604292944336e-02 5.152752300010968156e+02
4.230930804777050663e-02 5.152773136366045037e+02
4.240933005261157684e-02 5.152793974279255735e+02
4.250935205745264012e-02 5.152814810560357728e+02
4.260937406229369645e-02 5.152835642025326024e+02
4.270939606713476666e-02 5.152856465496488454e+02
4.280941807197582993e-02 5.152877277802639355e+02
4.290944007681690014e-02 5.152898075779155533e+02
4.300946208165796342e-02 5.152918856268105401e+02
4.310948408649901975e-02 5.152939616118375170e+02
4.320950609134009690e-02 5.152960352185792772e+02
4.330952809618115323e-02 5.152981061333219941e+02
4.340955010102222345e-02 5.153001740430684094e+02
4.350957210586328672e-02 5.153022386355498838e+02
4.360959411070434999e-02 5.153042995992357191e+02
4.370961611554542020e-02 5.153063566233461188e+02
4.380963812038647653e-02 5.153084093978633291e+02
4.390966012522755368e-02 5.153104576135435764e+02
4.400968213006861002e-02 5.153125009619267303e+02
4.410970413490967329e-02 5.153145391353489231e+02
4.420972613975074350e-02 5.153165718269526678e+02
4.430974814459180677e-02 5.153185987306992502e+02
4.440977014943287698e-02 5.153206195413797559e+02
4.450979215427393332e-02 5.153226339546246209e+02
4.460981415911499659e-02 5.153246416669165910e+02
4.470983616395606680e-02 5.153266423756002723e+02
4.480985816879713007e-02 5.153286357788945224e+02
4.490988017363820028e-02 5.153306215759009774e+02
4.500990217847926356e-02 5.153325994666180350e+02
4.510992418332032683e-02 5.153345691519498359e+02
4.520994618816139010e-02 5.153365303337162686e+02
4.530996819300245337e-02 5.153384827146657017e+02
4.540999019784352358e-02 5.153404259984849887e+02
4.551001220268458686e-02 5.153423598898085629e+02
4.561003420752565013e-02 5.153442840942318526e+02
4.571005621236672034e-02 5.153461983183191251e+02
4.581007821720778361e-02 5.153481022696151967e+02
4.591010022204884689e-02 5.153499956566569153e+02
4.601012222688991016e-02 5.153518781889818001e+02
4.611014423173097343e-02 5.153537495771390695e+02
4.621016623657204364e-02 5.153556095326991908e+02
4.631018824141310691e-02 5.153574577682667268e+02
4.641021024625417712e-02 5.153592939974876117e+02
4.651023225109524040e-02 5.153611179350605198e+02
4.661025425593629673e-02 5.153629292967470974e+02
4.671027626077736694e-02 5.153647277993813987e+02
4.681029826561843021e-02 5.153665131608815955e+02
4.691032027045950042e-02 5.153682851002565712e+02
4.701034227530056370e-02 5.153700433376208139e+02
4.711036428014163391e-02 5.153717875941987359e+02
4.721038628498269718e-02 5.153735175923385441e+02
4.731040828982375351e-02 5.153752330555206527e+02
4.741043029466482372e-02 5.153769337083664368e+02
4.751045229950588700e-02 5.153786192766498289e+02
4.761047430434695721e-02 5.153802894873053901e+02
4.771049630918802048e-02 5.153819440684382016e+02
4.781051831402907681e-02 5.153835827493335273e+02
4.791054031887015396e-02 5.153852052604667051e+02
4.801056232371121030e-02 5.153868113335119006e+02
4.811058432855228051e-02 5.153884007013506334e+02
4.821060633339334378e-02 5.153899730980834875e+02
4.831062833823440705e-02 5.153915282590362494e+02
4.841065034307547726e-02 5.153930659207723011e+02
4.851067234791653360e-02 5.153945858210980759e+02
4.861069435275761075e-02 5.153960876990767019e+02
4.871071635759866708e-02 5.153975712950317529e+02
4.881073836243973035e-02 5.153990363505613459e+02
4.891076036728080056e-02 5.154004826085412105e+02
4.901078237212186384e-02 5.154019098131403780e+02
4.911080437696293405e-02 5.154033177098241367e+02
4.921082638180399038e-02 5.154047060453656286e+02
4.931084838664505365e-02 5.154060745678531248e+02
4.941087039148612386e-02 5.154074230267003713e+02
4.951089239632718714e-02 5.154087511726538651e+02
4.961091440116825735e-02 5.154100587578004706e+02
4.971093640600932062e-02 5.154113455355786755e+02
4.981095841085038389e-02 5.154126112607826826e+02
4.991098041569144717e-02 5.154138556895757119e+02
5.001100242053251044e-02 5.154150785794938656e+02
5.011102442537358065e-02 5.154162796894572693e+02
5.021104643021464392e-02 5.154174587797758704e+02
5.031106843505570719e-02 5.154186156121600106e+02
5.041109043989677740e-02 5.154197499497250874e+02
5.051111244473784068e-02 5.154208615570036045e+02
5.061113444957890395e-02 5.154219501999492650e+02
5.071115645441996722e-02 5.154230156459470891e+02
5.081117845926103049e-02 5.154240576638201219e+02
5.091120046410210070e-02 5.154250760238375051e+02
5.101122246894316398e-02 5.154260704977220939e+02
5.111124447378423419e-02 5.154270408586579606e+02
5.121126647862529746e-02 5.154279868812969880e+02
5.131128848346635379e-02 5.154289083417680786e+02
5.141131048830742400e-02 5.154298050176829520e+02
5.151133249314848728e-02 5.154306766881447857e+02
5.161135449798955749e-02 5.154315231337545811e+02
5.171137650283062076e-02 5.154323441366162797e+02
5.181139850767167709e-02 5.154331394803497233e+02
5.191142051251275424e-02 5.154339089500913360e+02
5.201144251735381058e-02 5.154346523325042426e+02
5.211146452219488079e-02 5.154353694157850896e+02
5.221148652703594406e-02 5.154360599896705253e+02
5.231150853187700733e-02 5.154367238454437938e+02
5.241153053671807754e-02 5.154373607759411016e+02
5.251155254155913388e-02 5.154379705755593477e+02
5.261157454640021103e-02 5.154385530402619224e+02
5.271159655124126736e-02 5.154391079675850733e+02
5.281161855608233063e-02 5.154396351566447265e+02
5.291164056092340084e-02 5.154401344081437628e+02
5.301166256576446412e-02 5.154406055243750870e+02
5.311168457060553433e-02 5.154410483092332242e+02
5.321170657544659066e-02 5.154414625682145470e+02
5.331172858028765393e-02 5.154418481084275072e+02
5.341175058512872414e-02 5.154422047385977521e+02
5.351177258996978742e-02 5.154425322690724443e+02
5.361179459481085763e-02 5.154428305118284470e+02
5.371181659965192090e-02 5.154430992804777816e+02
5.381183860449298417e-02 5.154433383902703554e+02
5.391186060933404744e-02 5.154435476581054445e+02
5.401188261417511072e-02 5.154437269025299884e+02
5.411190461901618093e-02 5.154438759437517774e+02
5.421192662385724420e-02 5.154439946036388847e+02
5.431194862869830747e-02 5.154440827057286469e+02
5.441197063353937768e-02 5.154441400752302798e+02
5.451199263838044096e-02 5.154441665390343132e+02
5.461201464322150423e-02 5.154441619257123648e+02
5.471203664806256750e-02 5.154441260655268024e+02
5.481205865290363077e-02 5.154440587904337008e+02
5.491208065774470098e-02 5.154439599340877294e+02
5.501210266258576426e-02 5.154438293318484057e+02
5.511212466742683447e-02 5.154436668207830508e+02
5.521214667226789774e-02 5.154434722396732695e+02
5.531216867710895407e-02 5.154432454290199530e+02
5.541219068195002428e-02 5.154429862310450972e+02
5.551221268679108756e-02 5.154426944896991927e+02
5.561223469163215777e-02 5.154423700506649766e+02
5.571225669647322104e-02 5.154420127613617524e+02
5.581227870131429125e-02 5.154416224709490280e+02
5.591230070615535452e-02 5.154411990303320863e+02
5.601232271099641086e-02 5.154407422921651687e+02
5.611234471583748107e-02 5.154402521108561359e+02
5.621236672067854434e-02 5.154397283425704472e+02
5.631238872551961455e-02 5.154391708452347984e+02
5.641241073036067782e-02 5.154385794785421240e+02
5.651243273520173416e-02 5.154379541039531887e+02
5.661245474004281131e-02 5.154372945847042047e+02
5.671247674488386764e-02 5.154366007858058083e+02
5.681249874972493785e-02 5.154358725740503360e+02
5.691252075456600112e-02 5.154351098180137569e+02
5.701254275940706440e-02 5.154343123880597659e+02
5.711256476424813461e-02 5.154334801563429664e+02
5.721258676908919094e-02 5.154326129968115993e+02
5.731260877393026809e-02 5.154317107852122035e+02
5.741263077877132442e-02 5.154307733990913221e+02
5.751265278361238770e-02 5.154298007178003900e+02
5.761267478845345791e-02 5.154287926224959620e+02
5.771269679329452118e-02 5.154277489961467609e+02
5.781271879813559139e-02 5.154266697235314041e+02
5.791274080297664772e-02 5.154255546912469299e+02
5.801276280781771100e-02 5.154244037877072060e+02
5.811278481265878121e-02 5.154232169031467947e+02
5.821280681749984448e-02 5.154219939296253870e+02
5.831282882234091469e-02 5.154207347610267789e+02
5.841285082718197796e-02 5.154194392930655795e+02
5.851287283202304124e-02 5.154181074232847095e+02
5.861289483686410451e-02 5.154167390510639279e+02
5.871291684170516778e-02 5.154153340776151708e+02
5.881293884654623799e-02 5.154138924059901683e+02
5.891296085138730126e-02 5.154124139410801035e+02
5.901298285622836454e-02 5.154108985896167496e+02
5.911300486106943475e-02 5.154093462601775855e+02
5.921302686591049802e-02 5.154077568631844315e+02
5.931304887075156129e-02 5.154061303109065193e+02
5.941307087559262456e-02 5.154044665174626516e+02
5.951309288043368784e-02 5.154027653988223392e+02
5.961311488527475805e-02 5.154010268728078472e+02
5.971313689011582132e-02 5.153992508590943089e+02
5.981315889495689153e-02 5.153974372792137046e+02
5.991318089979795480e-02 5.153955860565524745e+02
6.001320290463901114e-02 5.153936971163572025e+02
6.011322490948008135e-02 5.153917703857321158e+02
6.021324691432114462e-02 5.153898057936427222e+02
6.031326891916221483e-02 5.153878032709145600e+02
6.041329092400327810e-02 5.153857627502362675e+02
6.051331292884433444e-02 5.153836841661598100e+02
6.061333493368541159e-02 5.153815674551010488e+02
6.071335693852646792e-02 5.153794125553403092e+02
6.081337894336753813e-02 5.153772194070238584e+02
6.091340094820860140e-02 5.153749879521631101e+02
6.101342295304966468e-02 5.153727181346370116e+02
6.111344495789073489e-02 5.153704099001914756e+02
6.121346696273179122e-02 5.153680631964391523e+02
6.131348896757286837e-02 5.153656779728614765e+02
6.141351097241392470e-02 5.153632541808073029e+02
6.151353297725498798e-02 5.153607917734933608e+02
6.161355498209605819e-02 5.153582907060050502e+02
6.171357698693712146e-02 5.153557509352962143e+02
6.181359899177819167e-02 5.153531724201882298e+02
6.191362099661924800e-02 5.153505551213720537e+02
6.201364300146031128e-02 5.153478990014042438e+02
6.211366500630138149e-02 5.153452040247108243e+02
6.221368701114244476e-02 5.153424701575845575e+02
6.231370901598351497e-02 5.153396973681847157e+02
6.241373102082457824e-02 5.153368856265374234e+02
6.251375302566564152e-02 5.153340349045338371e+02
6.261377503050670479e-02 5.153311451759316242e+02
6.271379703534776806e-02 5.153282164163513244e+02
6.281381904018884521e-02 5.153252486032773731e+02
6.291384104502989461e-02 5.153222417160581017e+02
6.301386304987095788e-02 5.153191957359028947e+02
6.311388505471203503e-02 5.153161106458813947e+02
6.321390705955309830e-02 5.153129864309240702e+02
6.331392906439416157e-02 5.153098230778194875e+02
6.341395106923522484e-02 5.153066205752127189e+02
6.351397307407628812e-02 5.153033789136068208e+02
6.361399507891735139e-02 5.153000980853580586e+02
6.371401708375841466e-02 5.152967780846762480e+02
6.381403908859949181e-02 5.152934189076230496e+02
6.391406109344055508e-02 5.152900205521108319e+02
6.401408309828161836e-02 5.152865830178985789e+02
6.411410510312268163e-02 5.152831063065950730e+02
6.421412710796374490e-02 5.152795904216505960e+02
6.431414911280480817e-02 5.152760353683614767e+02
6.441417111764587144e-02 5.152724411538630420e+02
6.451419312248694860e-02 5.152688077871314363e+02
6.461421512732801187e-02 5.152651352789783914e+02
6.471423713216907514e-02 5.152614236420519092e+02
6.481425913701013841e-02 5.152576728908308041e+02
6.491428114185120168e-02 5.152538830416260680e+02
6.501430314669226496e-02 5.152500541125758673e+02
6.511432515153332823e-02 5.152461861236436107e+02
6.521434715637439150e-02 5.152422790966161301e+02
6.531436916121546865e-02 5.152383330551010658e+02
6.541439116605653192e-02 5.152343480245225464e+02
6.551441317089759520e-02 5.152303240321211888e+02
6.561443517573865847e-02 5.152262611069489822e+02
6.571445718057972174e-02 5.152221592798681513e+02
6.581447918542078501e-02 5.152180185835456996e+02
6.591450119026184828e-02 5.152138390524542046e+02
6.601452319510292543e-02 5.152096207228653384e+02
6.611454519994398871e-02 5.152053636328486164e+02
6.621456720478505198e-02 5.152010678222670776e+02
6.631458920962611525e-02 5.151967333327745564e+02
6.641461121446717852e-02 5.151923602078130671e+02
6.651463321930824180e-02 5.151879484926083705e+02
6.661465522414930507e-02 5.151834982341657678e+02
6.671467722899036834e-02 5.151790094812685084e+02
6.681469923383144549e-02 5.151744822844734699e+02
6.691472123867250876e-02 5.151699166961057017e+02
6.701474324351357204e-02 5.151653127702578558e+02
6.711476524835463531e-02 5.151606705627841620e+02
6.721478725319569858e-02 5.151559901312969032e+02
6.731480925803676185e-02 5.151512715351623228e+02
6.741483126287782512e-02 5.151465148354969870e+02
6.751485326771890227e-02 5.151417200951646009e+02
6.761487527255996555e-02 5.151368873787691882e+02
6.771489727740101494e-02 5.151320167526544083e+02
6.781491928224209209e-02 5.151271082848961669e+02
6.791494128708315536e-02 5.151221620452990919e+02
6.801496329192421864e-02 5.151171781053940322e+02
6.811498529676528191e-02 5.151121565384310088e+02
6.821500730160634518e-02 5.151070974193758047e+02
6.831502930644742233e-02 5.151020008249058719e+02
6.841505131128847172e-02 5.150968668334044196e+02
6.851507331612954887e-02 5.150916955249563216e+02
6.861509532097061215e-02 5.150864869813439100e+02
6.871511732581167542e-02 5.150812412860410632e+02
6.881513933065273869e-02 5.150759585242091134e+02
6.891516133549380196e-02 5.150706387826903665e+02
6.901518334033487911e-02 5.150652821500054870e+02
6.911520534517592851e-02 5.150598887163462223e+02
6.921522735001699178e-02 5.150544585735710825e+02
6.931524935485806893e-02 5.150489918152001110e+02
6.941527135969913220e-02 5.150434885364096544e+02
6.951529336454019548e-02 5.150379488340262242e+02
6.961531536938125875e-02 5.150323728065221758e+02
6.971533737422232202e-02 5.150267605540101385e+02
6.981535937906338529e-02 5.150211121782358532e+02
6.991538138390444856e-02 5.150154277825744202e+02
7.001540338874552571e-02 5.150097074720241608e+02
7.011542539358658899e-02 5.150039513531992270e+02
7.021544739842763838e-02 5.149981595343276695e+02
7.031546940326871553e-02 5.149923321252406367e+02
7.041549140810977880e-02 5.149864692373698745e+02
7.051551341295084208e-02 5.149805709837416998e+02
7.061553541779190535e-02 5.149746374789685888e+02
7.071555742263296862e-02 5.149686688392458791e+02
7.081557942747404577e-02 5.149626651823423344e+02
7.091560143231509517e-02 5.149566266275984390e+02
7.101562343715617232e-02 5.149505532959154834e+02
7.111564544199723559e-02 5.149444453097528367e+02
7.121566744683829886e-02 5.149383027931189645e+02
7.131568945167936213e-02 5.149321258715663134e+02
7.141571145652042540e-02 5.149259146721843763e+02
7.151573346136150255e-02 5.149196693235949169e+02
7.161575546620255195e-02 5.149133899559411702e+02
7.171577747104361522e-02 5.149070767008860230e+02
7.181579947588469237e-02 5.149007296916008727e+02
7.191582148072575564e-02 5.148943490627631263e+02
7.201584348556681892e-02 5.148879349505456275e+02
7.211586549040788219e-02 5.148814874926127914e+02
7.221588749524894546e-02 5.148750068281110543e+02
7.231590950009000873e-02 5.148684930976631904e+02
7.241593150493107200e-02 5.148619464433611483e+02
7.251595350977214915e-02 5.148553670087601404e+02
7.261597551461321243e-02 5.148487549388685238e+02
7.271599751945427570e-02 5.148421103801430263e+02
7.281601952429533897e-02 5.148354334804809014e+02
7.291604152913640224e-02 5.148287243892121978e+02
7.301606353397746552e-02 5.148219832570928247e+02
7.311608553881852879e-02 5.148152102362969345e+02
7.321610754365960594e-02 5.148084054804094194e+02
7.331612954850066921e-02 5.148015691444186359e+02
7.341615155334173248e-02 5.147947013847076505e+02
7.351617355818279576e-02 5.147878023590498060e+02
7.361619556302385903e-02 5.147808722265963297e+02
7.371621756786492230e-02 5.147739111478721270e+02
7.381623957270598557e-02 5.147669192847678232e+02
7.391626157754704884e-02 5.147598968005295319e+02
7.401628358238812599e-02 5.147528438597530567e+02
7.411630558722918927e-02 5.147457606283765017e+02
7.421632759207025254e-02 5.147386472736698124e+02
7.431634959691131581e-02 5.147315039642289776e+02
7.441637160175237908e-02 5.147243308699667068e+02
7.451639360659344236e-02 5.147171281621056096e+02
7.461641561143450563e-02 5.147098960131675085e+02
7.471643761627558278e-02 5.147026345969693466e+02
7.481645962111664605e-02 5.146953440886097724e+02
7.491648162595770932e-02 5.146880246644660701e+02
7.501650363079877259e-02 5.146806765021815409e+02
7.511652563563983587e-02 5.146732997806591356e+02
7.521654764048089914e-02 5.146658946800544072e+02
7.531656964532196241e-02 5.146584613817630043e+02
7.541659165016302568e-02 5.146510000684163515e+02
7.551661365500410283e-02 5.146435109238701671e+02
7.561663565984516611e-02 5.146359941331974142e+02
7.571665766468622938e-02 5.146284498826788649e+02
7.581667966952729265e-02 5.146208783597958245e+02
7.591670167436835592e-02 5.146132797532179666e+02
7.601672367920941920e-02 5.146056542527994679e+02
7.611674568405048247e-02 5.145980020495659346e+02
7.621676768889155962e-02 5.145903233357078079e+02
7.631678969373262289e-02 5.145826183045708149e+02
7.641681169857367228e-02 5.145748871506464184e+02
7.651683370341474943e-02 5.145671300695649961e+02
7.661685570825581271e-02 5.145593472580828802e+02
7.671687771309687598e-02 5.145515389140783782e+02
7.681689971793793925e-02 5.145437052365377895e+02
7.691692172277900252e-02 5.145358464255491526e+02
7.701694372762007967e-02 5.145279626822934915e+02
7.711696573246112907e-02 5.145200542090334466e+02
7.721698773730220622e-02 5.145121212091039524e+02
7.731700974214326949e-02 5.145041638869072358e+02
7.741703174698433276e-02 5.144961824478968992e+02
7.751705375182539604e-02 5.144881770985738285e+02
7.761707575666645931e-02 5.144801480464745964e+02
7.771709776150753646e-02 5.144720955001616858e+02
7.781711976634858585e-02 5.144640196692166683e+02
7.791714177118964912e-02 5.144559207642249703e+02
7.801716377603072627e-02 5.144477989967754183e+02
7.811718578087178955e-02 5.144396545794401163e+02
7.821720778571283894e-02 5.144314877257731951e+02
7.831722979055391609e-02 5.144232986502964877e+02
7.841725179539499324e-02 5.144150875684927087e+02
7.851727380023604264e-02 5.144068546967935163e+02
7.861729580507710591e-02 5.143986002525709864e+02
7.871731780991818306e-02 5.143903244541274944e+02
7.881733981475924633e-02 5.143820275206865063e+02
7.891736181960029572e-02 5.143737096723809827e+02
7.901738382444137287e-02 5.143653711302457623e+02
7.911740582928245002e-02 5.143570121162068745e+02
7.921742783412349942e-02 5.143486328530705123e+02
7.931744983896456269e-02 5.143402335645146195e+02
7.941747184380563984e-02 5.143318144750785450e+02
7.951749384864668924e-02 5.143233758101521289e+02
7.961751585348775251e-02 5.143149177959662666e+02
7.971753785832882966e-02 5.143064406595832452e+02
7.981755986316990681e-02 5.142979446288865120e+02
7.991758186801095620e-02 5.142894299325701013e+02
8.001760387285201948e-02 5.142808968001287440e+02
8.011762587769309663e-02 5.142723454618478627e+02
8.021764788253414602e-02 5.142637761487926582e+02
8.031766988737520929e-02 5.142551890927994691e+02
8.041769189221628644e-02 5.142465845264638347e+02
8.051771389705733584e-02 5.142379626831308315e+02
8.061773590189841299e-02 5.142293237968855237e+02
8.071775790673947626e-02 5.142206681025409125e+02
8.081777991158055341e-02 5.142119958356298639e+02
8.091780191642160280e-02 5.142033072323930583e+02
8.101782392126266608e-02 5.141946025297694405e+02
8.111784592610374323e-02 5.141858819653845103e+02
8.121786793094479262e-02 5.141771457775423642e+02
8.131788993578586977e-02 5.141683942052128486e+02
8.141791194062693304e-02 5.141596274880215560e+02
8.151793394546799632e-02 5.141508458662408430e+02
8.161795595030905959e-02 5.141420495807788029e+02
8.171797795515012286e-02 5.141332388731663059e+02
8.181799995999120001e-02 5.141244139855502908e+02
8.191802196483224940e-02 5.141155751606800095e+02
8.201804396967332655e-02 5.141067226418989549e+02
8.211806597451438983e-02 5.140978566731312185e+02
8.221808797935545310e-02 5.140889774988751242e+02
8.231810998419651637e-02 5.140800853641882213e+02
8.241813198903757964e-02 5.140711805146797815e+02
8.251815399387864292e-02 5.140622631964981792e+02
8.261817599871970619e-02 5.140533336563222520e+02
8.271819800356078334e-02 5.140443921413477710e+02
8.281822000840184661e-02 5.140354388992791428e+02
8.291824201324290988e-02 5.140264741783183808e+02
8.301826401808397315e-02 5.140174982271535100e+02
8.311828602292503643e-02 5.140085112949474251e+02
8.321830802776609970e-02 5.139995136313289095e+02
8.331833003260716297e-02 5.139905054863811529e+02
8.341835203744824012e-02 5.139814871106287910e+02
8.351837404228928952e-02 5.139724587550316528e+02
8.361839604713036667e-02 5.139634206709688442e+02
8.371841805197142994e-02 5.139543731102318134e+02
8.381844005681249321e-02 5.139453163250119587e+02
8.391846206165355648e-02 5.139362505678894877e+02
8.401848406649461976e-02 5.139271760918238670e+02
8.411850607133569691e-02 5.139180931501405212e+02
8.421852807617674630e-02 5.139090019965235570e+02
8.431855008101782345e-02 5.138999028850022341e+02
8.441857208585888672e-02 5.138907960699395971e+02
8.451859409069993612e-02 5.138816818060239484e+02
8.461861609554101327e-02 5.138725603482573661e+02
8.471863810038207654e-02 5.138634319519418341e+02
8.481866010522315369e-02 5.138542968726737854e+02
8.491868211006420308e-02 5.138451553663279583e+02
8.501870411490528023e-02 5.138360076890492110e+02
8.511872611974634351e-02 5.138268540972417213e+02
8.521874812458739290e-02 5.138176948475563677e+02
8.531877012942847005e-02 5.138085301968819749e+02
8.541879213426953332e-02 5.137993604023318994e+02
8.551881413911061047e-02 5.137901857212352752e+02
8.561883614395165987e-02 5.137810064111254178e+02
8.571885814879273702e-02 5.137718227297281146e+02
8.581888015363380029e-02 5.137626349349518478e+02
8.591890215847484968e-02 5.137534432848759707e+02
8.601892416331592683e-02 5.137442480377401353e+02
8.611894616815699011e-02 5.137350494519332642e+02
8.621896817299803950e-02 5.137258477859827508e+02
8.631899017783911665e-02 5.137166432985439997e+02
8.641901218268019380e-02 5.137074362483876939e+02
8.651903418752125707e-02 5.136982268943911549e+02
8.661905619236230647e-02 5.136890154955261778e+02
8.671907819720338362e-02 5.136798023108474354e+02
8.681910020204444689e-02 5.136705875994839516e+02
8.691912220688549628e-02 5.136613716206240952e+02
8.701914421172657343e-02 5.136521546335103494e+02
8.711916621656765058e-02 5.136429368974229419e+02
8.721918822140869998e-02 5.136337186716714314e+02
8.731921022624976325e-02 5.136245002155844759e+02
8.741923223109084040e-02 5.136152817884981232e+02
8.751925423593190367e-02 5.136060636497430778e+02
8.761927624077295307e-02 5.135968460586375386e+02
8.771929824561403022e-02 5.135876292744731018e+02
8.781932025045510737e-02 5.135784135565058932e+02
8.791934225529615676e-02 5.135691991639436083e+02
8.801936426013722004e-02 5.135599863559381220e+02
8.811938626497829719e-02 5.135507753915705962e+02
8.821940826981934658e-02 5.135415665298430667e+02
8.831943027466040985e-02 5.135323600296669611e+02
8.841945227950148700e-02 5.135231561498526389e+02
8.851947428434256415e-02 5.135139551490982512e+02
8.861949628918361355e-02 5.135047572859790534e+02
8.871951829402467682e-02 5.134955628189359231e+02
8.881954029886575397e-02 5.134863720062658103e+02
8.891956230370680336e-02 5.134771851061100278e+02
8.901958430854786664e-02 5.134680023764436783e+02
8.911960631338894379e-02 5.134588240750662180e+02
8.921962831822999318e-02 5.134496504595873603e+02
8.931965032307107033e-02 5.134404817874201399e+02
8.941967232791213360e-02 5.134313183157689764e+02
8.951969433275321075e-02 5.134221603016171684e+02
8.961971633759426015e-02 5.134130080017174578e+02
8.971973834243532342e-02 5.134038616725845259e+02
8.981976034727640057e-02 5.133947215704772589e+02
8.991978235211744996e-02 5.133855879513954505e+02
9.001980435695852711e-02 5.133764610710637726e+02
9.011982636179959039e-02 5.133673411849248396e+02
9.021984836664065366e-02 5.133582285481271583e+02
9.031987037148171693e-02 5.133491234155127358e+02
9.041989237632278020e-02 5.133400260416110541e+02
9.051991438116385735e-02 5.133309366806237222e+02
9.061993638600490675e-02 5.133218555864167456e+02
9.071995839084598390e-02 5.133127830125088167e+02
9.081998039568704717e-02 5.133037192120635837e+02
9.092000240052811044e-02 5.132946644378746441e+02
9.102002440536917371e-02 5.132856189423577007e+02
9.112004641021023699e-02 5.132765829775412385e+02
9.122006841505130026e-02 5.132675567950534514e+02
9.132009041989236353e-02 5.132585406461147386e+02
9.142011242473344068e-02 5.132495347815242894e+02
9.152013442957450395e-02 5.132405394516521255e+02
9.162015643441556723e-02 5.132315549064286415e+02
9.172017843925663050e-02 5.132225813953317584e+02
9.182020044409769377e-02 5.132136191673808980e+02
9.192022244893875704e-02 5.132046684711226590e+02
9.202024445377982032e-02 5.131957295546242221e+02
9.212026645862089747e-02 5.131868026654593677e+02
9.222028846346194686e-02 5.131778880507009717e+02
9.232031046830302401e-02 5.131689859569112286e+02
9.242033247314408728e-02 5.131600966301292601e+02
9.252035447798515055e-02 5.131512203158627017e+02
9.262037648282621383e-02 5.131423572590774711e+02
9.272039848766727710e-02 5.131335077041875365e+02
9.282042049250835425e-02 5.131246718950444574e+02
9.292044249734940364e-02 5.131158500749282894e+02
9.302046450219048079e-02 5.131070424865364430e+02
9.312048650703154407e-02 5.130982493719762942e+02
9.322050851187259346e-02 5.130894709727508598e+02
9.332053051671367061e-02 5.130807075297537949e+02
9.342055252155473388e-02 5.130719592832570015e+02
9.352057452639581103e-02 5.130632264728999417e+02
9.362059653123686043e-02 5.130545093376824752e+02
9.372061853607793758e-02 5.130458081159533776e+02
9.382064054091900085e-02 5.130371230454009037e+02
9.392066254576005024e-02 5.130284543630436929e+02
9.402068455060112739e-02 5.130198023052198550e+02
9.412070655544219067e-02 5.130111671075787854e+02
9.422072856028326782e-02 5.130025490050708186e+02
9.432075056512431721e-02 5.129939482319375657e+02
9.442077256996539436e-02 5.129853650217041832e+02
9.452079457480645763e-02 5.129767996071660718e+02
9.462081657964750703e-02 5.129682522203831923e+02
9.472083858448858418e-02 5.129597230926685825e+02
9.482086058932964745e-02 5.129512124545810821e+02
9.492088259417069684e-02 5.129427205359124855e+02
9.502090459901177399e-02 5.129342475656815168e+02
9.512092660385285114e-02 5.129257937721223470e+02
9.522094860869391442e-02 5.129173593826777733e+02
9.532097061353496381e-02 5.129089446239878498e+02
9.542099261837604096e-02 5.129005497218818164e+02
9.552101462321710423e-02 5.128921749013667295e+02
9.562103662805815363e-02 5.128838203866228014e+02
9.572105863289923078e-02 5.128754864009908943e+02
9.582108063774030793e-02 5.128671731669638802e+02
9.592110264258135732e-02 5.128588809061786833e+02
9.602112464742242059e-02 5.128506098394082073e+02
9.612114665226349774e-02 5.128423601865474666e+02
9.622116865710456102e-02 5.128341321666125623e+02
9.632119066194561041e-02 5.128259259977248803e+02
9.642121266678668756e-02 5.128177418971067709e+02
9.652123467162776471e-02 5.128095800810702940e+02
9.662125667646881411e-02 5.128014407650091471e+02
9.672127868130987738e-02 5.127933241633912758e+02
9.682130068615095453e-02 5.127852304897493241e+02
9.692132269099200392e-02 5.127771599566694931e+02
9.702134469583306720e-02 5.127691127757891536e+02
9.712136670067414435e-02 5.127610891577827488e+02
9.722138870551522150e-02 5.127530893123546321e+02
9.732141071035627089e-02 5.127451134482334965e+02
9.742143271519733416e-02 5.127371617731598690e+02
9.752145472003841131e-02 5.127292344938809947e+02
9.762147672487946071e-02 5.127213318161415145e+02
9.772149872972052398e-02 5.127134539446740291e+02
9.782152073456160113e-02 5.127056010831926187e+02
9.792154273940265052e-02 5.126977734343847715e+02
9.802156474424372767e-02 5.126899711999017200e+02
9.812158674908479095e-02 5.126821945803510516e+02
9.822160875392586810e-02 5.126744437752900012e+02
9.832163075876691749e-02 5.126667189832160147e+02
9.842165276360798076e-02 5.126590204015592462e+02
9.852167476844905791e-02 5.126513482266740311e+02
9.862169677329010731e-02 5.126437026538327473e+02
9.872171877813118446e-02 5.126360838772172883e+02
9.882174078297224773e-02 5.126284920899099689e+02
9.892176278781331100e-02 5.126209274838882948e+02
9.902178479265437427e-02 5.126133902500146178e+02
9.912180679749543755e-02 5.126058805780314742e+02
9.922182880233651470e-02 5.125983986565519217e+02
9.932185080717756409e-02 5.125909446730523769e+02
9.942187281201864124e-02 5.125835188138662488e+02
9.952189481685970451e-02 5.125761212641752991e+02
9.962191682170076779e-02 5.125687522080032750e+02
9.972193882654183106e-02 5.125614118282084064e+02
9.982196083138289433e-02 5.125541003064749930e+02
9.992198283622395760e-02 5.125468178233084018e+02
1.000220048410650209e-01 5.125395645580258588e+02
1.001220268459060980e-01 5.125323406887509918e+02
1.002220488507471613e-01 5.125251463924058726e+02
1.003220708555882246e-01 5.125179818447041953e+02
1.004220928604292878e-01 5.125108472201437735e+02
1.005221148652703511e-01 5.125037426920016514e+02
1.006221368701114144e-01 5.124966684323248955e+02
1.007221588749524777e-01 5.124896246119257057e+02
1.008221808797935548e-01 5.124826114003731163e+02
1.009222028846346042e-01 5.124756289659869708e+02
1.010222248894756814e-01 5.124686774758325782e+02
1.011222468943167446e-01 5.124617570957116186e+02
1.012222688991578079e-01 5.124548679901590731e+02
1.013222909039988712e-01 5.124480103224314007e+02
1.014223129088399344e-01 5.124411842545079026e+02
1.015223349136810116e-01 5.124343899470757151e+02
1.016223569185220610e-01 5.124276275595306060e+02
1.017223789233631381e-01 5.124208972499666288e+02
1.018224009282042014e-01 5.124141991751722571e+02
1.019224229330452508e-01 5.124075334906218586e+02
1.020224449378863280e-01 5.124009003504728526e+02
1.021224669427273912e-01 5.123942999075557054e+02
1.022224889475684684e-01 5.123877323133722257e+02
1.023225109524095178e-01 5.123811977180860140e+02
1.024225329572505949e-01 5.123746962705197348e+02
1.025225549620916582e-01 5.123682281181459075e+02
1.026225769669327076e-01 5.123617934070844058e+02
1.027225989717737847e-01 5.123553922820960906e+02
1.028226209766148480e-01 5.123490248865748526e+02
1.029226429814559252e-01 5.123426913625452244e+02
1.030226649862969746e-01 5.123363918506538539e+02
1.031226869911380517e-01 5.123301264901674585e+02
1.032227089959791150e-01 5.123238954189641845e+02
1.033227310008201644e-01 5.123176987735308785e+02
1.034227530056612415e-01 5.123115366889556981e+02
1.035227750105023048e-01 5.123054092989244737e+02
1.036227970153433542e-01 5.122993167357149105e+02
1.037228190201844313e-01 5.122932591301915863e+02
1.038228410250255085e-01 5.122872366117992442e+02
1.039228630298665718e-01 5.122812493085635879e+02
1.040228850347076212e-01 5.122752973470771849e+02
1.041229070395486983e-01 5.122693808525032182e+02
1.042229290443897616e-01 5.122634999485659364e+02
1.043229510492308110e-01 5.122576547575466748e+02
1.044229730540718881e-01 5.122518454002804447e+02
1.045229950589129653e-01 5.122460719961510449e+02
1.046230170637540147e-01 5.122403346630833312e+02
1.047230390685950779e-01 5.122346335175445802e+02
1.048230610734361551e-01 5.122289686745347126e+02
1.049230830782772184e-01 5.122233402475856110e+02
1.050231050831182678e-01 5.122177483487533891e+02
1.051231270879593449e-01 5.122121930886172549e+02
1.052231490928004221e-01 5.122066745762738265e+02
1.053231710976414714e-01 5.122011929193332662e+02
1.054231931024825347e-01 5.121957482239154160e+02
1.055232151073236119e-01 5.121903405946442263e+02
1.056232371121646613e-01 5.121849701346475285e+02
1.057232591170057245e-01 5.121796369455485092e+02
1.058232811218468017e-01 5.121743411274655955e+02
1.059233031266878788e-01 5.121690827790056346e+02
1.060233251315289282e-01 5.121638619972637798e+02
1.061233471363699915e-01 5.121586788778167829e+02
1.062233691412110687e-01 5.121535335147207206e+02
1.063233911460521181e-01 5.121484260005073565e+02
1.064234131508931813e-01 5.121433564261801621e+02
1.065234351557342585e-01 5.121383248812121565e+02
1.066234571605753079e-01 5.121333314535414729e+02
1.067234791654163850e-01 5.121283762295681754e+02
1.068235011702574483e-01 5.121234592941523260e+02
1.069235231750985254e-01 5.121185807306084143e+02
1.070235451799395748e-01 5.121137406207045615e+02
1.071235671847806381e-01 5.121089390446591096e+02
1.072235891896217153e-01 5.121041760811361883e+02
1.073236111944627647e-01 5.120994518072448045e+02
1.074236331993038418e-01 5.120947662985354327e+02
1.075236552041449051e-01 5.120901196289956943e+02
1.076236772089859683e-01 5.120855118710493343e+02
1.077236992138270316e-01 5.120809430955546304e+02
1.078237212186680949e-01 5.120764133717977984e+02
1.079237432235091720e-01 5.120719227674956073e+02
1.080237652283502214e-01 5.120674713487898089e+02
1.081237872331912986e-01 5.120630591802438403e+02
1.082238092380323619e-01 5.120586863248440750e+02
1.083238312428734251e-01 5.120543528439947067e+02
1.084238532477144884e-01 5.120500587975160443e+02
1.085238752525555517e-01 5.120458042436440564e+02
1.086238972573966149e-01 5.120415892390254839e+02
1.087239192622376782e-01 5.120374138387189760e+02
1.088239412670787554e-01 5.120332780961905428e+02
1.089239632719198186e-01 5.120291820633133284e+02
1.090239852767608819e-01 5.120251257903655642e+02
1.091240072816019452e-01 5.120211093260281814e+02
1.092240292864430085e-01 5.120171327173829923e+02
1.093240512912840717e-01 5.120131960099128037e+02
1.094240732961251350e-01 5.120092992474984612e+02
1.095240953009662122e-01 5.120054424724172577e+02
1.096241173058072615e-01 5.120016257253413414e+02
1.097241393106483387e-01 5.119978490453383984e+02
1.098241613154894020e-01 5.119941124698679005e+02
1.099241833203304652e-01 5.119904160347824131e+02
1.100242053251715285e-01 5.119867597743229339e+02
1.101242273300125918e-01 5.119831437211208822e+02
1.102242493348536689e-01 5.119795679061968485e+02
1.103242713396947183e-01 5.119760323589569566e+02
1.104242933445357955e-01 5.119725371071958193e+02
1.105243153493768588e-01 5.119690821770932985e+02
1.106243373542179081e-01 5.119656675932133680e+02
1.107243593590589853e-01 5.119622933785054215e+02
1.108243813639000486e-01 5.119589595543018277e+02
1.109244033687411257e-01 5.119556661403188400e+02
1.110244253735821751e-01 5.119524131546542094e+02
1.111244473784232523e-01 5.119492006137894009e+02
1.112244693832643155e-01 5.119460285325865243e+02
1.113244913881053649e-01 5.119428969242895846e+02
1.114245133929464421e-01 5.119398058005244820e+02
1.115245353977875054e-01 5.119367551712973636e+02
1.116245574026285825e-01 5.119337450449962716e+02
1.117245794074696319e-01 5.119307754283889267e+02
1.118246014123107090e-01 5.119278463266271615e+02
1.119246234171517723e-01 5.119249577432398723e+02
1.120246454219928217e-01 5.119221096801403519e+02
1.121246674268338989e-01 5.119193021376220827e+02
1.122246894316749621e-01 5.119165351143600446e+02
1.123247114365160115e-01 5.119138086074127045e+02
1.124247334413570887e-01 5.119111226122197422e+02
1.125247554461981658e-01 5.119084771226047224e+02
1.126247774510392291e-01 5.119058721307752648e+02
1.127247994558802785e-01 5.119033076273211691e+02
1.128248214607213556e-01 5.119007836012190751e+02
1.129248434655624189e-01 5.118983000398308718e+02
1.130248654704034683e-01 5.118958569289044362e+02
1.131248874752445455e-01 5.118934542525745428e+02
1.132249094800856226e-01 5.118910919933655350e+02
1.133249314849266720e-01 5.118887701321895065e+02
1.134249534897677353e-01 5.118864886483500527e+02
1.135249754946088124e-01 5.118842475195407360e+02
1.136249974994498757e-01 5.118820467218491785e+02
1.137250195042909251e-01 5.118798862297560959e+02
1.138250415091320022e-01 5.118777660161375707e+02
1.139250635139730794e-01 5.118756860522659053e+02
1.140250855188141288e-01 5.118736463078111569e+02
1.141251075236551921e-01 5.118716467508434675e+02
1.142251295284962692e-01 5.118696873478340308e+02
1.143251515333373186e-01 5.118677680636559444e+02
1.144251735381783819e-01 5.118658888615868818e+02
1.145251955430194590e-01 5.118640497033121619e+02
1.146252175478605362e-01 5.118622505489220202e+02
1.147252395527015856e-01 5.118604913569195105e+02
1.148252615575426488e-01 5.118587720842176054e+02
1.149252835623837260e-01 5.118570926861438011e+02
1.150253055672247754e-01 5.118554531164413675e+02
1.151253275720658387e-01 5.118538533272709969e+02
1.152253495769069158e-01 5.118522932692142149e+02
1.153253715817479652e-01 5.118507728912752555e+02
1.154253935865890424e-01 5.118492921408818574e+02
1.155254155914301056e-01 5.118478509638900960e+02
1.156254375962711828e-01 5.118464493045853487e+02
1.157254596011122322e-01 5.118450871056843425e+02
1.158254816059532954e-01 5.118437643083395869e+02
1.159255036107943726e-01 5.118424808521402838e+02
1.160255256156354220e-01 5.118412366751156242e+02
1.161255476204764991e-01 5.118400317137374032e+02
1.162255696253175624e-01 5.118388659029238852e+02
1.163255916301586257e-01 5.118377391760400883e+02
1.164256136349996890e-01 5.118366514649040369e+02
1.165256356398407522e-01 5.118356026997869890e+02
1.166256576446818294e-01 5.118345928094185524e+02
1.167256796495228788e-01 5.118336217209884467e+02
1.168257016543639559e-01 5.118326893601496295e+02
1.169257236592050192e-01 5.118317956510227305e+02
1.170257456640460825e-01 5.118309405161984387e+02
1.171257676688871457e-01 5.118301238767407995e+02
1.172257896737282090e-01 5.118293456521909661e+02
1.173258116785692723e-01 5.118286057605714632e+02
1.174258336834103356e-01 5.118279041183869822e+02
1.175258556882514127e-01 5.118272406406320556e+02
1.176258776930924760e-01 5.118266152407908862e+02
1.177258996979335393e-01 5.118260278308434295e+02
1.178259217027746025e-01 5.118254783212685197e+02
1.179259437076156658e-01 5.118249666210468263e+02
1.180259657124567291e-01 5.118244926376669923e+02
1.181259877172977923e-01 5.118240562771268287e+02
1.182260097221388695e-01 5.118236574439386004e+02
1.183260317269799189e-01 5.118232960411343129e+02
1.184260537318209960e-01 5.118229719702669627e+02
1.185260757366620593e-01 5.118226851314186092e+02
1.186260977415031226e-01 5.118224354232000906e+02
1.187261197463441859e-01 5.118222227427585267e+02
1.188261417511852491e-01 5.118220469857814123e+02
1.189261637560263263e-01 5.118219080464994022e+02
1.190261857608673757e-01 5.118218058176926206e+02
1.191262077657084528e-01 5.118217401906940722e+02
1.192262297705495161e-01 5.118217110553933935e+02
1.193262517753905655e-01 5.118217183002433330e+02
1.194262737802316426e-01 5.118217618122648673e+02
1.195262957850727059e-01 5.118218414770486788e+02
1.196263177899137831e-01 5.118219571787633981e+02
1.197263397947548325e-01 5.118221088001583894e+02
1.198263617995959096e-01 5.118222962225701167e+02
1.199263838044369729e-01 5.118225193259249863e+02
1.200264058092780223e-01 5.118227779887469069e+02
1.201264278141190994e-01 5.118230720881607567e+02
1.202264498189601627e-01 5.118234014998982389e+02
1.203264718238012398e-01 5.118237660983022579e+02
1.204264938286422892e-01 5.118241657563331728e+02
1.205265158334833664e-01 5.118246003455726623e+02
1.206265378383244297e-01 5.118250697362316259e+02
1.207265598431654791e-01 5.118255737971516055e+02
1.208265818480065562e-01 5.118261123958144481e+02
1.209266038528476195e-01 5.118266853983453757e+02
1.210266258576886689e-01 5.118272926695190108e+02
1.211266478625297460e-01 5.118279340727644922e+02
1.212266698673708232e-01 5.118286094701724664e+02
1.213266918722118864e-01 5.118293187224995791e+02
1.214267138770529358e-01 5.118300616891748405e+02
1.215267358818940130e-01 5.118308382283047422e+02
1.216267578867350763e-01 5.118316481966806464e+02
1.217267798915761257e-01 5.118324914497827649e+02
1.218268018964172028e-01 5.118333678417866395e+02
1.219268239012582800e-01 5.118342772255707587e+02
1.220268459060993294e-01 5.118352194527212191e+02
1.221268679109403926e-01 5.118361943735363866e+02
1.222268899157814698e-01 5.118372018370375827e+02
1.223269119206225330e-01 5.118382416909688004e+02
1.224269339254635824e-01 5.118393137818094374e+02
1.225269559303046596e-01 5.118404179547764556e+02
1.226269779351457367e-01 5.118415540538325104e+02
1.227269999399867861e-01 5.118427219216907247e+02
1.228270219448278494e-01 5.118439213998236710e+02
1.229270439496689266e-01 5.118451523284677478e+02
1.230270659545099760e-01 5.118464145466303989e+02
1.231270879593510392e-01 5.118477078920959684e+02
1.232271099641921164e-01 5.118490322014348521e+02
1.233271319690331935e-01 5.118503873100066812e+02
1.234271539738742429e-01 5.118517730519698716e+02
1.235271759787153062e-01 5.118531892602863991e+02
1.236271979835563833e-01 5.118546357667302686e+02
1.237272199883974327e-01 5.118561124018934265e+02
1.238272419932384960e-01 5.118576189951926949e+02
1.239272639980795732e-01 5.118591553748765364e+02
1.240272860029206226e-01 5.118607213680337509e+02
1.241273080077616997e-01 5.118623168005970570e+02
1.242273300126027630e-01 5.118639414973545740e+02
1.243273520174438401e-01 5.118655952819526647e+02
1.244273740222848895e-01 5.118672779769069052e+02
1.245273960271259528e-01 5.118689894036060082e+02
1.246274180319670299e-01 5.118707293823209170e+02
1.247274400368080793e-01 5.118724977322123095e+02
1.248274620416491565e-01 5.118742942713374191e+02
1.249274840464902198e-01 5.118761188166563443e+02
1.250275060513312830e-01 5.118779711840413711e+02
1.251275280561723324e-01 5.118798511882837943e+02
1.252275500610134096e-01 5.118817586431005111e+02
1.253275720658544867e-01 5.118836933611420932e+02
1.254275940706955361e-01 5.118856551540022224e+02
1.255276160755366133e-01 5.118876438322209310e+02
1.256276380803776904e-01 5.118896592052969368e+02
1.257276600852187398e-01 5.118917010816933271e+02
1.258276820900597892e-01 5.118937692688439824e+02
1.259277040949008664e-01 5.118958635731642630e+02
1.260277260997419158e-01 5.118979838000557265e+02
1.261277481045829929e-01 5.119001297539173265e+02
1.262277701094240701e-01 5.119023012381500166e+02
1.263277921142651472e-01 5.119044980551664707e+02
1.264278141191061966e-01 5.119067200063994960e+02
1.265278361239472460e-01 5.119089668923080012e+02
1.266278581287883231e-01 5.119112385123881950e+02
1.267278801336293725e-01 5.119135346651781333e+02
1.268279021384704497e-01 5.119158551482677808e+02
1.269279241433115268e-01 5.119181997583075372e+02
1.270279461481525762e-01 5.119205682910144333e+02
1.271279681529936534e-01 5.119229605411834996e+02
1.272279901578347028e-01 5.119253763026927118e+02
1.273280121626757799e-01 5.119278153685136772e+02
1.274280341675168293e-01 5.119302775307178877e+02
1.275280561723579065e-01 5.119327625804870081e+02
1.276280781771989836e-01 5.119352703081204936e+02
1.277281001820400330e-01 5.119378005030432632e+02
1.278281221868811102e-01 5.119403529538154771e+02
1.279281441917221596e-01 5.119429274481397556e+02
1.280281661965632367e-01 5.119455237728715247e+02
1.281281882014042861e-01 5.119481417140247572e+02
1.282282102062453633e-01 5.119507810567828301e+02
1.283282322110864404e-01 5.119534415855069369e+02
1.284282542159274898e-01 5.119561230837426820e+02
1.285282762207685670e-01 5.119588253342319604e+02
1.286282982256096163e-01 5.119615481189186994e+02
1.287283202304506935e-01 5.119642912189593744e+02
1.288283422352917429e-01 5.119670544147313649e+02
1.289283642401328200e-01 5.119698374858408556e+02
1.290283862449738972e-01 5.119726402111333528e+02
1.291284082498149466e-01 5.119754623687001640e+02
1.292284302546560237e-01 5.119783037358899378e+02
1.293284522594970731e-01 5.119811640893150866e+02
1.294284742643381503e-01 5.119840432048630419e+02
1.295284962691791997e-01 5.119869408577030185e+02
1.296285182740202768e-01 5.119898568222955078e+02
1.297285402788613262e-01 5.119927908724033045e+02
1.298285622837024034e-01 5.119957427810974195e+02
1.299285842885434805e-01 5.119987123207684476e+02
1.300286062933845299e-01 5.120016992631340145e+02
1.301286282982256071e-01 5.120047033792496904e+02
1.302286503030666565e-01 5.120077244395160960e+02
1.303286723079077336e-01 5.120107622136891905e+02
1.304286943127487830e-01 5.120138164708897648e+02
1.305287163175898602e-01 5.120168869796113995e+02
1.306287383224309373e-01 5.120199735077306968e+02
1.307287603272719867e-01 5.120230758225161480e+02
1.308287823321130638e-01 5.120261936906370011e+02
1.309288043369541132e-01 5.120293268781733786e+02
1.310288263417951904e-01 5.120324751506248049e+02
1.311288483466362398e-01 5.120356382729197549e+02
1.312288703514773169e-01 5.120388160094252044e+02
1.313288923563183941e-01 5.120420081239559522e+02
1.314289143611594435e-01 5.120452143797830331e+02
1.315289363660005206e-01 5.120484345396444041e+02
1.316289583708415700e-01 5.120516683657549493e+02
1.317289803756826472e-01 5.120549156198120500e+02
1.318290023805236966e-01 5.120581760630101371e+02
1.319290243853647737e-01 5.120614494560472849e+02
1.320290463902058509e-01 5.120647355591338510e+02
1.321290683950469003e-01 5.120680341320048683e+02
1.322290903998879774e-01 5.120713449339270937e+02
1.323291124047290268e-01 5.120746677237095810e+02
1.324291344095701040e-01 5.120780022597127754e+02
1.325291564144111534e-01 5.120813482998589734e+02
1.326291784192522305e-01 5.120847056016400529e+02
1.327292004240932799e-01 5.120880739221295244e+02
1.328292224289343570e-01 5.120914530179896929e+02
1.329292444337754342e-01 5.120948426454827995e+02
1.330292664386164836e-01 5.120982425604802302e+02
1.331292884434575607e-01 5.121016525184724060e+02
1.332293104482986101e-01 5.121050722745775374e+02
1.333293324531396873e-01 5.121085015835524246e+02
1.334293544579807367e-01 5.121119401998009835e+02
1.335293764628218138e-01 5.121153878773853876e+02
1.336293984676628910e-01 5.121188443700341395e+02
1.337294204725039404e-01 5.121223094311524164e+02
1.338294424773450175e-01 5.121257828138329842e+02
1.339294644821860669e-01 5.121292642708633593e+02
1.340294864870271441e-01 5.121327535547382013e+02
1.341295084918681935e-01 5.121362504176669290e+02
1.342295304967092706e-01 5.121397546115850901e+02
1.343295525015503478e-01 5.121432658881626594e+02
1.344295745063913972e-01 5.121467839988155220e+02
1.345295965112324743e-01 5.121503086947136580e+02
1.346296185160735237e-01 5.121538397267913751e+02
1.347296405209145731e-01 5.121573768457566302e+02
1.348296625257556502e-01 5.121609198021037628e+02
1.349296845305967274e-01 5.121644683461181558e+02
1.350297065354378045e-01 5.121680222278903329e+02
1.351297285402788539e-01 5.121715811973243717e+02
1.352297505451199311e-01 5.121751450041463158e+02
1.353297725499609805e-01 5.121787133979165674e+02
1.354297945548020299e-01 5.121822861280381858e+02
1.355298165596431070e-01 5.121858629437660966e+02
1.356298385644841842e-01 5.121894435942188011e+02
1.357298605693252336e-01 5.121930278283859934e+02
1.358298825741663107e-01 5.121966153951408387e+02
1.359299045790073879e-01 5.122002060432470216e+02
1.360299265838484373e-01 5.122037995213713657e+02
1.361299485886894867e-01 5.122073955780916776e+02
1.362299705935305638e-01 5.122109939619069792e+02
1.363299925983716410e-01 5.122145944212484210e+02
1.364300146032126904e-01 5.122181967044878093e+02
1.365300366080537675e-01 5.122218005599473827e+02
1.366300586128948447e-01 5.122254057359110675e+02
1.367300806177358941e-01 5.122290119806337998e+02
1.368301026225769434e-01 5.122326190423491425e+02
1.369301246274180206e-01 5.122362266692828143e+02
1.370301466322590977e-01 5.122398346096592832e+02
1.371301686371001471e-01 5.122434426117150679e+02
1.372301906419412243e-01 5.122470504237033992e+02
1.373302126467823014e-01 5.122506577939093404e+02
1.374302346516233508e-01 5.122542644706563806e+02
1.375302566564644002e-01 5.122578702023181449e+02
1.376302786613054774e-01 5.122614747373255568e+02
1.377303006661465545e-01 5.122650778241807075e+02
1.378303226709876039e-01 5.122686792114616310e+02
1.379303446758286811e-01 5.122722786478359467e+02
1.380303666806697582e-01 5.122758758820710909e+02
1.381303886855108076e-01 5.122794706630390920e+02
1.382304106903518570e-01 5.122830627397321450e+02
1.383304326951929342e-01 5.122866518612690925e+02
1.384304547000339836e-01 5.122902377769058830e+02
1.385304767048750607e-01 5.122938202360453488e+02
1.386304987097161379e-01 5.122973989882476644e+02
1.387305207145572150e-01 5.123009737832385326e+02
1.388305427193982644e-01 5.123045443709202118e+02
1.389305647242393138e-01 5.123081105013809520e+02
1.390305867290803910e-01 5.123116719249036350e+02
1.391306087339214403e-01 5.123152283919779393e+02
1.392306307387625175e-01 5.123187796533068195e+02
1.393306527436035946e-01 5.123223254598183303e+02
1.394306747484446440e-01 5.123258655626756308e+02
1.395306967532857212e-01 5.123293997132842605e+02
1.396307187581267706e-01 5.123329276633041900e+02
1.397307407629678477e-01 5.123364491646584611e+02
1.398307627678088971e-01 5.123399639695421683e+02
1.399307847726499743e-01 5.123434718304333728e+02
1.400308067774910514e-01 5.123469725001009465e+02
1.401308287823321008e-01 5.123504657316169641e+02
1.402308507871731780e-01 5.123539512783631835e+02
1.403308727920142274e-01 5.123574288940424140e+02
1.404308947968552768e-01 5.123608983326863608e+02
1.405309168016963539e-01 5.123643593486680174e+02
1.406309388065374311e-01 5.123678116967081451e+02
1.407309608113785082e-01 5.123712551318868691e+02
1.408309828162195576e-01 5.123746894096509550e+02
1.409310048210606348e-01 5.123781142858263138e+02
1.410310268259016842e-01 5.123815295166240276e+02
1.411310488307427335e-01 5.123849348586521728e+02
1.412310708355838107e-01 5.123883300689250291e+02
1.413310928404248878e-01 5.123917149048702413e+02
1.414311148452659372e-01 5.123950891243417800e+02
1.415311368501070144e-01 5.123984524856249436e+02
1.416311588549480915e-01 5.124018047474497735e+02
1.417311808597891409e-01 5.124051456689983297e+02
1.418312028646301903e-01 5.124084750099132179e+02
1.419312248694712675e-01 5.124117925303083894e+02
1.420312468743123446e-01 5.124150979907784631e+02
1.421312688791533940e-01 5.124183911524061159e+02
1.422312908839944712e-01 5.124216717767726550e+02
1.423313128888355483e-01 5.124249396259674540e+02
1.424313348936765977e-01 5.124281944625962524e+02
1.425313568985176471e-01 5.124314360497902499e+02
1.426313789033587243e-01 5.124346641512163387e+02
1.427314009081998014e-01 5.124378785310843796e+02
1.428314229130408508e-01 5.124410789541582290e+02
1.429314449178819280e-01 5.124442651857631290e+02
1.430314669227230051e-01 5.124474369917958256e+02
1.431314889275640545e-01 5.124505941387320718e+02
1.432315109324051039e-01 5.124537363936376551e+02
1.433315329372461810e-01 5.124568635241764696e+02
1.434315549420872304e-01 5.124599752986175645e+02
1.435315769469283076e-01 5.124630714858476495e+02
1.436315989517693847e-01 5.124661518553768929e+02
1.437316209566104619e-01 5.124692161773477892e+02
1.438316429614515113e-01 5.124722642225474374e+02
1.439316649662925607e-01 5.124752957624120882e+02
1.440316869711336378e-01 5.124783105690374896e+02
1.441317089759746872e-01 5.124813084151885505e+02
1.442317309808157644e-01 5.124842890743062753e+02
1.443317529856568415e-01 5.124872523205192465e+02
1.444317749904978909e-01 5.124901979286473761e+02
1.445317969953389681e-01 5.124931256742161167e+02
1.446318190001800175e-01 5.124960353334604406e+02
1.447318410050210946e-01 5.124989266833373449e+02
1.448318630098621440e-01 5.125017995015299448e+02
1.449318850147032212e-01 5.125046535664598650e+02
1.450319070195442983e-01 5.125074886572938340e+02
1.451319290243853477e-01 5.125103045539525510e+02
1.452319510292264249e-01 5.125131010371188722e+02
1.453319730340674742e-01 5.125158778882454271e+02
1.454319950389085514e-01 5.125186348895642823e+02
1.455320170437496008e-01 5.125213718240953540e+02
1.456320390485906779e-01 5.125240884756519790e+02
1.457320610534317551e-01 5.125267846288531928e+02
1.458320830582728045e-01 5.125294600691291862e+02
1.459321050631138816e-01 5.125321145827289229e+02
1.460321270679549310e-01 5.125347479567313940e+02
1.461321490727960082e-01 5.125373599790501657e+02
1.462321710776370576e-01 5.125399504384438387e+02
1.463321930824781347e-01 5.125425191245221868e+02
1.464322150873192119e-01 5.125450658277569573e+02
1.465322370921602613e-01 5.125475903394858506e+02
1.466322590970013384e-01 5.125500924519245700e+02
1.467322811018423878e-01 5.125525719581713702e+02
1.468323031066834650e-01 5.125550286522164924e+02
1.469323251115245144e-01 5.125574623289496685e+02
1.470323471163655915e-01 5.125598727841688742e+02
1.471323691212066409e-01 5.125622598145856728e+02
1.472323911260477181e-01 5.125646232178351056e+02
1.473324131308887952e-01 5.125669627924823999e+02
1.474324351357298446e-01 5.125692783380302444e+02
1.475324571405709217e-01 5.125715696549278846e+02
1.476324791454119711e-01 5.125738365445768068e+02
1.477325011502530483e-01 5.125760788093390374e+02
1.478325231550940977e-01 5.125782962525443054e+02
1.479325451599351748e-01 5.125804886784989094e+02
1.480325671647762520e-01 5.125826558924911751e+02
1.481325891696173014e-01 5.125847977007995269e+02
1.482326111744583785e-01 5.125869139106991952e+02
1.483326331792994279e-01 5.125890043304711980e+02
1.484326551841405051e-01 5.125910687694074568e+02
1.485326771889815545e-01 5.125931070378194363e+02
1.486326991938226316e-01 5.125951189470445115e+02
1.487327211986637088e-01 5.125971043094536981e+02
1.488327432035047582e-01 5.125990629384581325e+02
1.489327652083458353e-01 5.126009946485156661e+02
1.490327872131868847e-01 5.126028992551393912e+02
1.491328092180279619e-01 5.126047765749028713e+02
1.492328312228690113e-01 5.126066264254471889e+02
1.493328532277100884e-01 5.126084486254897001e+02
1.494328752325511656e-01 5.126102429948284680e+02
1.495328972373922150e-01 5.126120093543504481e+02
1.496329192422332921e-01 5.126137475260369456e+02
1.497329412470743415e-01 5.126154573329724826e+02
1.498329632519154186e-01 5.126171385993480953e+02
1.499329852567564680e-01 5.126187911504711110e+02
1.500330072615975452e-01 5.126204148127695817e+02
1.501330292664385946e-01 5.126220094138002423e+02
1.502330512712796717e-01 5.126235747822536268e+02
1.503330732761207489e-01 5.126251107479613438e+02
1.504330952809617983e-01 5.126266171419014199e+02
1.505331172858028754e-01 5.126280937962067128e+02
1.506331392906439248e-01 5.126295405441676394e+02
1.507331612954850020e-01 5.126309572202429763e+02
1.508331833003260514e-01 5.126323436600608829e+02
1.509332053051671285e-01 5.126336997004298155e+02
1.510332273100082057e-01 5.126350251793414827e+02
1.511332493148492551e-01 5.126363199359776672e+02
1.512332713196903322e-01 5.126375838107159097e+02
1.513332933245313816e-01 5.126388166451370125e+02
1.514333153293724588e-01 5.126400182820290183e+02
1.515333373342135082e-01 5.126411885653933496e+02
1.516333593390545853e-01 5.126423273404518568e+02
1.517333813438956625e-01 5.126434344536510253e+02
1.518334033487367118e-01 5.126445097526684549e+02
1.519334253535777890e-01 5.126455530864185448e+02
1.520334473584188384e-01 5.126465643050569270e+02
1.521334693632598878e-01 5.126475432599883106e+02
1.522334913681009649e-01 5.126484898038693245e+02
1.523335133729420421e-01 5.126494037906157928e+02
1.524335353777831192e-01 5.126502850754076235e+02
1.525335573826241686e-01 5.126511335146933561e+02
1.526335793874652458e-01 5.126519489661967555e+02
1.527336013923062952e-01 5.126527312889210179e+02
1.528336233971473446e-01 5.126534803431545697e+02
1.529336454019884217e-01 5.126541959904757277e+02
1.530336674068294989e-01 5.126548780937579295e+02
1.531336894116705483e-01 5.126555265171753035e+02
1.532337114165116254e-01 5.126561411262061938e+02
1.533337334213527026e-01 5.126567217876403220e+02
1.534337554261937520e-01 5.126572683695810611e+02
1.535337774310348014e-01 5.126577807414521430e+02
1.536337994358758785e-01 5.126582587740026611e+02
1.537338214407169557e-01 5.126587023393088884e+02
1.538338434455580050e-01 5.126591113107833735e+02
1.539338654503990822e-01 5.126594855631760765e+02
1.540338874552401593e-01 5.126598249725792584e+02
1.541339094600812087e-01 5.126601294164340743e+02
1.542339314649222581e-01 5.126603987735335295e+02
1.543339534697633353e-01 5.126606329240262312e+02
1.544339754746044124e-01 5.126608317494221865e+02
1.545339974794454618e-01 5.126609951325960992e+02
1.546340194842865390e-01 5.126611229577931681e+02
1.547340414891276161e-01 5.126612151106303372e+02
1.548340634939686655e-01 5.126612714781024351e+02
1.549340854988097149e-01 5.126612919485877455e+02
1.550341075036507921e-01 5.126612764118481209e+02
1.551341295084918692e-01 5.126612247590355764e+02
1.552341515133329186e-01 5.126611368826967237e+02
1.553341735181739958e-01 5.126610126767750444e+02
1.554341955230150729e-01 5.126608520366143011e+02
1.555342175278561223e-01 5.126606548589650174e+02
1.556342395326971717e-01 5.126604210419851597e+02
1.557342615375382489e-01 5.126601504852445714e+02
1.558342835423792982e-01 5.126598430897311118e+02
1.559343055472203754e-01 5.126594987578486098e+02
1.560343275520614525e-01 5.126591173934275503e+02
1.561343495569025297e-01 5.126586989017222322e+02
1.562343715617435791e-01 5.126582431894178171e+02
1.563343935665846285e-01 5.126577501646311248e+02
1.564344155714256779e-01 5.126572197369164314e+02
1.565344375762667550e-01 5.126566518172676297e+02
1.566344595811078322e-01 5.126560463181199339e+02
1.567344815859489093e-01 5.126554031533545412e+02
1.568345035907899865e-01 5.126547222383019289e+02
1.569345255956310359e-01 5.126540034897435589e+02
1.570345476004720853e-01 5.126532468259160851e+02
1.571345696053131347e-01 5.126524521665123757e+02
1.572345916101542118e-01 5.126516194326871982e+02
1.573346136149952890e-01 5.126507485470560823e+02
1.574346356198363661e-01 5.126498394337019135e+02
1.575346576246774433e-01 5.126488920181755020e+02
1.576346796295184927e-01 5.126479062274970602e+02
1.577347016343595421e-01 5.126468819901629104e+02
1.578347236392005914e-01 5.126458192361411648e+02
1.579347456440416686e-01 5.126447178968820708e+02
1.580347676488827457e-01 5.126435779053147144e+02
1.581347896537238229e-01 5.126423991958498618e+02
1.582348116585649000e-01 5.126411817043851897e+02
1.583348336634059217e-01 5.126399253683046027e+02
1.584348556682469988e-01 5.126386301264819849e+02
1.585348776730880482e-01 5.126372959192806320e+02
1.586348996779291254e-01 5.126359226885605267e+02
1.587349216827702025e-01 5.126345103776729957e+02
1.588349436876112797e-01 5.126330589314702593e+02
1.589349656924523568e-01 5.126315682963008840e+02
1.590349876972933785e-01 5.126300384200164899e+02
1.591350097021344556e-01 5.126284692519689088e+02
1.592350317069755050e-01 5.126268607430152997e+02
1.593350537118165822e-01 5.126252128455175807e+02
1.594350757166576593e-01 5.126235255133474311e+02
1.595350977214987365e-01 5.126217987018823123e+02
1.596351197263398136e-01 5.126200323680116071e+02
1.597351417311808353e-01 5.126182264701358235e+02
1.598351637360219124e-01 5.126163809681678458e+02
1.599351857408629618e-01 5.126144958235347531e+02
1.600352077457040390e-01 5.126125709991798658e+02
1.601352297505451161e-01 5.126106064595613816e+02
1.602352517553861933e-01 5.126086021706562406e+02
1.603352737602272149e-01 5.126065580999596705e+02
1.604352957650682920e-01 5.126044742164849595e+02
1.605353177699093692e-01 5.126023504907675488e+02
1.606353397747504186e-01 5.126001868948629863e+02
1.607353617795914957e-01 5.125979834023493140e+02
1.608353837844325729e-01 5.125957399883270682e+02
1.609354057892736500e-01 5.125934566294195065e+02
1.610354277941146717e-01 5.125911333037747681e+02
1.611354497989557488e-01 5.125887699910653055e+02
1.612354718037968260e-01 5.125863666724881114e+02
1.613354938086378754e-01 5.125839233307652876e+02
1.614355158134789525e-01 5.125814399501468870e+02
1.615355378183200297e-01 5.125789165164056840e+02
1.616355598231611068e-01 5.125763530168434272e+02
1.617355818280021285e-01 5.125737494402874290e+02
1.618356038328432056e-01 5.125711057770915886e+02
1.619356258376842828e-01 5.125684220191375289e+02
1.620356478425253322e-01 5.125656981598326638e+02
1.621356698473664093e-01 5.125629341941112216e+02
1.622356918522074865e-01 5.125601301184352678e+02
1.623357138570485636e-01 5.125572859307918634e+02
1.624357358618895852e-01 5.125544016306957928e+02
1.625357578667306624e-01 5.125514772191866086e+02
1.626357798715717395e-01 5.125485126988307911e+02
1.627358018764127889e-01 5.125455080737192475e+02
1.628358238812538661e-01 5.125424633494686759e+02
1.629358458860949432e-01 5.125393785332196330e+02
1.630358678909359926e-01 5.125362536336363064e+02
1.631358898957770420e-01 5.125330886609075378e+02
1.632359119006181192e-01 5.125298836267429579e+02
1.633359339054591963e-01 5.125266385443754871e+02
1.634359559103002457e-01 5.125233534285580390e+02
1.635359779151413229e-01 5.125200282955652256e+02
1.636359999199824000e-01 5.125166631631894916e+02
1.637360219248234494e-01 5.125132580507422517e+02
1.638360439296644988e-01 5.125098129790526400e+02
1.639360659345055760e-01 5.125063279704664865e+02
1.640360879393466531e-01 5.125028030488433615e+02
1.641361099441877025e-01 5.124992382395587356e+02
1.642361319490287797e-01 5.124956335694985228e+02
1.643361539538698568e-01 5.124919890670627183e+02
1.644361759587109062e-01 5.124883047621593732e+02
1.645361979635519556e-01 5.124845806862066411e+02
1.646362199683930327e-01 5.124808168721294805e+02
1.647362419732341099e-01 5.124770133543577231e+02
1.648362639780751593e-01 5.124731701688263001e+02
1.649362859829162364e-01 5.124692873529731969e+02
1.650363079877572858e-01 5.124653649457360416e+02
1.651363299925983630e-01 5.124614029875515371e+02
1.652363519974394124e-01 5.124574015203545514e+02
1.653363740022804895e-01 5.124533605875752755e+02
1.654363960071215667e-01 5.124492802341361539e+02
1.655364180119626161e-01 5.124451605064533624e+02
1.656364400168036932e-01 5.124410014524296457e+02
1.657364620216447426e-01 5.124368031214580697e+02
1.658364840264858198e-01 5.124325655644149720e+02
1.659365060313268692e-01 5.124282888336604174e+02
1.660365280361679463e-01 5.124239729830360375e+02
1.661365500410090235e-01 5.124196180678604833e+02
1.662365720458500729e-01 5.124152241449296525e+02
1.663365940506911500e-01 5.124107912725125971e+02
1.664366160555321994e-01 5.124063195103512953e+02
1.665366380603732765e-01 5.124018089196537176e+02
1.666366600652143259e-01 5.123972595630963269e+02
1.667366820700554031e-01 5.123926715048175993e+02
1.668367040748964802e-01 5.123880448104180232e+02
1.669367260797375296e-01 5.123833795469554389e+02
1.670367480845785790e-01 5.123786757829436738e+02
1.671367700894196562e-01 5.123739335883484500e+02
1.672367920942607333e-01 5.123691530345854517e+02
1.673368140991017827e-01 5.123643341945168004e+02
1.674368361039428599e-01 5.123594771424477585e+02
1.675368581087839370e-01 5.123545819541253650e+02
1.676368801136249864e-01 5.123496487067322960e+02
1.677369021184660358e-01 5.123446774788878884e+02
1.678369241233071130e-01 5.123396683506402951e+02
1.679369461281481901e-01 5.123346214034663717e+02
1.680369681329892395e-01 5.123295367202680382e+02
1.681369901378303167e-01 5.123244143853664809e+02
1.682370121426713938e-01 5.123192544845024941e+02
1.683370341475124432e-01 5.123140571048301126e+02
1.684370561523534926e-01 5.123088223349136570e+02
1.685370781571945697e-01 5.123035502647254589e+02
1.686371001620356469e-01 5.122982409856399499e+02
1.687371221668766963e-01 5.122928945904321836e+02
1.688371441717177734e-01 5.122875111732730602e+02
1.689371661765588506e-01 5.122820908297248934e+02
1.690371881813998722e-01 5.122766336567402732e+02
1.691372101862409494e-01 5.122711397526537667e+02
1.692372321910820265e-01 5.122656092171813498e+02
1.693372541959231037e-01 5.122600421514167692e+02
1.694372762007641531e-01 5.122544386578240392e+02
1.695372982056052302e-01 5.122487988402373276e+02
1.696373202104463074e-01 5.122431228038533391e+02
1.697373422152873290e-01 5.122374106552308604e+02
1.698373642201284062e-01 5.122316625022829157e+02
1.699373862249694833e-01 5.122258784542742660e+02
1.700374082298105605e-01 5.122200586218161789e+02
1.701374302346516099e-01 5.122142031168649510e+02
1.702374522394926870e-01 5.122083120527123583e+02
1.703374742443337642e-01 5.122023855439859972e+02
1.704374962491747858e-01 5.121964237066413261e+02
1.705375182540158630e-01 5.121904266579595060e+02
1.706375402588569401e-01 5.121843945165421701e+02
1.707375622636980173e-01 5.121783274023039212e+02
1.708375842685390666e-01 5.121722254364730134e+02
1.709376062733801438e-01 5.121660887415816887e+02
1.710376282782212209e-01 5.121599174414637901e+02
1.711376502830622426e-01 5.121537116612491900e+02
1.712376722879033197e-01 5.121474715273596985e+02
1.713376942927443969e-01 5.121411971675021277e+02
1.714377162975854740e-01 5.121348887106660186e+02
1.715377383024265234e-01 5.121285462871164782e+02
1.716377603072676006e-01 5.121221700283895188e+02
1.717377823121086222e-01 5.121157600672875105e+02
1.718378043169496994e-01 5.121093165378733829e+02
1.719378263217907765e-01 5.121028395754658504e+02
1.720378483266318537e-01 5.120963293166339554e+02
1.721378703314729308e-01 5.120897858991918383e+02
1.722378923363139802e-01 5.120832094621924853e+02
1.723379143411550574e-01 5.120766001459240897e+02
1.724379363459960790e-01 5.120699580919031177e+02
1.725379583508371562e-01 5.120632834428690785e+02
1.726379803556782333e-01 5.120565763427791808e+02
1.727380023605193105e-01 5.120498369368031035e+02
1.728380243653603876e-01 5.120430653713165157e+02
1.729380463702014370e-01 5.120362617938965286e+02
1.730380683750425141e-01 5.120294263533147614e+02
1.731380903798835358e-01 5.120225591995321111e+02
1.732381123847246129e-01 5.120156604836936367e+02
1.733381343895656901e-01 5.120087303581212836e+02
1.734381563944067672e-01 5.120017689763093358e+02
1.735381783992478444e-01 5.119947764929177652e+02
1.736382004040888938e-01 5.119877530637666041e+02
1.737382224089299432e-01 5.119806988458292381e+02
1.738382444137709926e-01 5.119736139972274032e+02
1.739382664186120697e-01 5.119664986772247062e+02
1.740382884234531469e-01 5.119593530462205990e+02
1.741383104282942240e-01 5.119521772657425345e+02
1.742383324331353012e-01 5.119449714984432944e+02
1.743383544379763506e-01 5.119377359080906444e+02
1.744383764428174000e-01 5.119304706595642074e+02
1.745383984476584494e-01 5.119231759188491537e+02
1.746384204524995265e-01 5.119158518530264246e+02
1.747384424573406037e-01 5.119084986302700031e+02
1.748384644621816808e-01 5.119011164198384449e+02
1.749384864670227580e-01 5.118937053920689664e+02
1.750385084718638073e-01 5.118862657183726697e+02
1.751385304767048567e-01 5.118787975712235152e+02
1.752385524815459061e-01 5.118713011241570143e+02
1.753385744863869833e-01 5.118637765517600542e+02
1.754385964912280604e-01 5.118562240296649861e+02
1.755386184960691376e-01 5.118486437345445665e+02
1.756386405009102147e-01 5.118410358441027483e+02
1.757386625057512364e-01 5.118334005370688260e+02
1.758386845105923135e-01 5.118257379931926039e+02
1.759387065154333629e-01 5.118180483932338802e+02
1.760387285202744401e-01 5.118103319189593776e+02
1.761387505251155172e-01 5.118025887531327953e+02
1.762387725299565944e-01 5.117948190795091250e+02
1.763387945347976715e-01 5.117870230828286253e+02
1.764388165396386932e-01 5.117792009488077269e+02
1.765388385444797703e-01 5.117713528641336325e+02
1.766388605493208197e-01 5.117634790164566425e+02
1.767388825541618969e-01 5.117555795943835051e+02
1.768389045590029740e-01 5.117476547874694006e+02
1.769389265638440512e-01 5.117397047862111776e+02
1.770389485686851283e-01 5.117317297820403610e+02
1.771389705735261499e-01 5.117237299673164443e+02
1.772389925783672271e-01 5.117157055353183068e+02
1.773390145832082765e-01 5.117076566802379602e+02
1.774390365880493536e-01 5.116995835971724205e+02
1.775390585928904308e-01 5.116914864821177389e+02
1.776390805977315079e-01 5.116833655319591685e+02
1.777391026025725296e-01 5.116752209444669006e+02
1.778391246074136067e-01 5.116670529182861173e+02
1.779391466122546839e-01 5.116588616529303977e+02
1.780391686170957333e-01 5.116506473487746689e+02
1.781391906219368104e-01 5.116424102070465665e+02
1.782392126267778876e-01 5.116341504298202381e+02
1.783392346316189647e-01 5.116258682200069643e+02
1.784392566364599864e-01 5.116175637813502703e+02
1.785392786413010635e-01 5.116092373184155235e+02
1.786393006461421407e-01 5.116008890365834532e+02
1.787393226509831901e-01 5.115925191420431020e+02
1.788393446558242672e-01 5.115841278417825606e+02
1.789393666606653444e-01 5.115757153435826581e+02
1.790393886655064215e-01 5.115672818560081510e+02
1.791394106703474431e-01 5.115588275884013569e+02
1.792394326751885203e-01 5.115503527508716957e+02
1.793394546800295974e-01 5.115418575542916528e+02
1.794394766848706468e-01 5.115333422102845020e+02
1.795394986897117240e-01 5.115248069312206667e+02
1.796395206945528011e-01 5.115162519302071473e+02
1.797395426993938783e-01 5.115076774210797339e+02
1.798395647042348999e-01 5.114990836183957299e+02
1.799395867090759771e-01 5.114904707374262216e+02
1.800396087139170542e-01 5.114818389941481769e+02
1.801396307187581036e-01 5.114731886052344407e+02
1.802396527235991808e-01 5.114645197880491310e+02
1.803396747284402579e-01 5.114558327606353032e+02
1.804396967332813073e-01 5.114471277417100623e+02
1.805397187381223567e-01 5.114384049506572296e+02
1.806397407429634339e-01 5.114296646075151216e+02
1.807397627478045110e-01 5.114209069329714339e+02
1.808397847526455604e-01 5.114121321483550560e+02
1.809398067574866376e-01 5.114033404756270329e+02
1.810398287623277147e-01 5.113945321373722095e+02
1.811398507671687641e-01 5.113857073567916700e+02
1.812398727720098135e-01 5.113768663576938707e+02
1.813398947768508906e-01 5.113680093644868521e+02
1.814399167816919678e-01 5.113591366021706790e+02
1.815399387865330172e-01 5.113502482963261286e+02
1.816399607913740943e-01 5.113413446731104841e+02
1.817399827962151715e-01 5.113324259592461658e+02
1.818400048010562209e-01 5.113234923820141375e+02
1.819400268058972703e-01 5.113145441692436748e+02
1.820400488107383474e-01 5.113055815493070781e+02
1.821400708155794246e-01 5.112966047511064289e+02
1.822400928204204740e-01 5.112876140040706332e+02
1.823401148252615511e-01 5.112786095381433711e+02
1.824401368301026005e-01 5.112695915837758207e+02
1.825401588349436777e-01 5.112605603719181318e+02
1.826401808397847271e-01 5.112515161340109557e+02
1.827402028446258042e-01 5.112424591019768059e+02
1.828402248494668814e-01 5.112333895082114736e+02
1.829402468543079308e-01 5.112243075855759571e+02
1.830402688591490079e-01 5.112152135673881048e+02
1.831402908639900573e-01 5.112061076874126684e+02
1.832403128688311345e-01 5.111969901798549927e+02
1.833403348736721838e-01 5.111878612793502157e+02
1.834403568785132610e-01 5.111787212209553672e+02
1.835403788833543381e-01 5.111695702401431731e+02
1.836404008881953875e-01 5.111604085727896063e+02
1.837404228930364647e-01 5.111512364551671794e+02
1.838404448978775141e-01 5.111420541239368163e+02
1.839404669027185912e-01 5.111328618161388135e+02
1.840404889075596406e-01 5.111236597691838597e+02
1.841405109124007178e-01 5.111144482208438831e+02
1.842405329172417949e-01 5.111052274092458561e+02
1.843405549220828443e-01 5.110959975728601989e+02
1.844405769269238937e-01 5.110867589504927082e+02
1.845405989317649709e-01 5.110775117812781332e+02
1.846406209366060480e-01 5.110682563046689779e+02
1.847406429414470974e-01 5.110589927604279978e+02
1.848406649462881746e-01 5.110497213886193322e+02
1.849406869511292517e-01 5.110404424295989543e+02
1.850407089559703011e-01 5.110311561240080209e+02
1.851407309608113505e-01 5.110218627127622426e+02
1.852407529656524277e-01 5.110125624370436981e+02
1.853407749704935048e-01 5.110032555382932742e+02
1.854407969753345542e-01 5.109939422581983877e+02
1.855408189801756313e-01 5.109846228386905409e+02
1.856408409850167085e-01 5.109752975219293489e+02
1.857408629898577579e-01 5.109659665502995836e+02
1.858408849946988073e-01 5.109566301663993499e+02
1.859409069995398844e-01 5.109472886130323559e+02
1.860409290043809616e-01 5.109379421331993285e+02
1.861409510092220110e-01 5.109285909700876118e+02
1.862409730140630881e-01 5.109192353670658804e+02
1.863409950189041653e-01 5.109098755676719747e+02
1.864410170237451869e-01 5.109005118156049434e+02
1.865410390285862641e-01 5.108911443547189037e+02
1.866410610334273412e-01 5.108817734290100816e+02
1.867410830382684184e-01 5.108723992826115250e+02
1.868411050431094678e-01 5.108630221597828722e+02
1.869411270479505449e-01 5.108536423049007453e+02
1.870411490527916221e-01 5.108442599624529521e+02
1.871411710576326437e-01 5.108348753770263215e+02
1.872411930624737209e-01 5.108254887933003943e+02
1.873412150673147980e-01 5.108161004560374749e+02
1.874412370721558752e-01 5.108067106100742194e+02
1.875412590769969245e-01 5.107973195003132219e+02
1.876412810818380017e-01 5.107879273717134083e+02
1.877413030866790788e-01 5.107785344692829881e+02
1.878413250915201005e-01 5.107691410380684829e+02
1.879413470963611776e-01 5.107597473231472804e+02
1.880413691012022548e-01 5.107503535696204722e+02
1.881413911060433319e-01 5.107409600226006887e+02
1.882414131108843813e-01 5.107315669272053924e+02
1.883414351157254585e-01 5.107221745285496581e+02
1.884414571205665356e-01 5.107127830717334405e+02
1.885414791254075573e-01 5.107033928018375946e+02
1.886415011302486344e-01 5.106940039639121096e+02
1.887415231350897116e-01 5.106846168029674118e+02
1.888415451399307887e-01 5.106752315639674862e+02
1.889415671447718381e-01 5.106658484918202703e+02
1.890415891496129153e-01 5.106564678313681611e+02
1.891416111544539369e-01 5.106470898273818193e+02
1.892416331592950141e-01 5.106377147245491983e+02
1.893416551641360912e-01 5.106283427674665063e+02
1.894416771689771684e-01 5.106189742006326924e+02
1.895416991738182455e-01 5.106096092684381915e+02
1.896417211786592949e-01 5.106002482151563981e+02
1.897417431835003720e-01 5.105908912849375838e+02
1.898417651883413937e-01 5.105815387217964485e+02
1.899417871931824708e-01 5.105721907696073458e+02
1.900418091980235480e-01 5.105628476720930280e+02
1.901418312028646251e-01 5.105535096728173130e+02
1.902418532077057023e-01 5.105441770151772403e+02
1.903418752125467517e-01 5.105348499423924409e+02
1.904418972173878288e-01 5.105255286974985438e+02
1.905419192222288505e-01 5.105162135233382514e+02
1.906419412270699276e-01 5.105069046625519604e+02
1.907419632319110048e-01 5.104976023575709405e+02
1.908419852367520819e-01 5.104883068506072163e+02
1.909420072415931591e-01 5.104790183836462916e+02
1.910420292464342085e-01 5.104697371984383949e+02
1.911420512512752579e-01 5.104604635364897263e+02
1.912420732561163073e-01 5.104511976390540440e+02
1.913420952609573844e-01 5.104419397471255593e+02
1.914421172657984616e-01 5.104326901014288751e+02
1.915421392706395387e-01 5.104234489424119943e+02
1.916421612754806159e-01 5.104142165102364856e+02
1.917421832803216653e-01 5.104049930447712313e+02
1.918422052851627146e-01 5.103957787855821948e+02
1.919422272900037640e-01 5.103865739719253725e+02
1.920422492948448412e-01 5.103773788427383806e+02
1.921422712996859183e-01 5.103681936366308491e+02
1.922422933045269955e-01 5.103590185918784528e+02
1.923423153093680726e-01 5.103498539464133046e+02
1.924423373142091220e-01 5.103406999378156002e+02
1.925423593190501714e-01 5.103315568033067393e+02
1.926423813238912208e-01 5.103224247797400039e+02
1.927424033287322980e-01 5.103133041035920883e+02
1.928424253335733751e-01 5.103041950109575851e+02
1.929424473384144523e-01 5.102950977375365937e+02
1.930424693432555294e-01 5.102860125186308551e+02
1.931424913480965511e-01 5.102769395891328372e+02
1.932425133529376282e-01 5.102678791835203356e+02
1.933425353577786776e-01 5.102588315358446494e+02
1.934425573626197548e-01 5.102497968797275689e+02
1.935425793674608319e-01 5.102407754483488134e+02
1.936426013723019091e-01 5.102317674744410851e+02
1.937426233771429862e-01 5.102227731902805203e+02
1.938426453819840078e-01 5.102137928276787306e+02
1.939426673868250850e-01 5.102048266179788243e+02
1.940426893916661344e-01 5.101958747920404562e+02
1.941427113965072115e-01 5.101869375802381228e+02
1.942427334013482887e-01 5.101780152124508163e+02
1.943427554061893658e-01 5.101691079180538964e+02
1.944427774110304430e-01 5.101602159259134623e+02
1.945427994158714646e-01 5.101513394643760648e+02
1.946428214207125418e-01 5.101424787612625096e+02
1.947428434255535912e-01 5.101336340438600701e+02
1.948428654303946683e-01 5.101248055389148703e+02
1.949428874352357455e-01 5.101159934726236997e+02
1.950429094400768226e-01 5.101071980706264526e+02
1.951429314449178443e-01 5.100984195579997049e+02
1.952429534497589214e-01 5.100896581592476196e+02
1.953429754545999986e-01 5.100809140982963186e+02
1.954429974594410480e-01 5.100721875984839926e+02
1.955430194642821251e-01 5.100634788825548753e+02
1.956430414691232023e-01 5.100547881726535024e+02
1.957430634739642794e-01 5.100461156903127176e+02
1.958430854788053010e-01 5.100374616564512280e+02
1.959431074836463782e-01 5.100288262913629751e+02
1.960431294884874553e-01 5.100202098147119614e+02
1.961431514933285047e-01 5.100116124455225872e+02
1.962431734981695819e-01 5.100030344021755582e+02
1.963431955030106590e-01 5.099944759023977667e+02
1.964432175078517362e-01 5.099859371632559260e+02
1.965432395126927578e-01 5.099774184011511693e+02
1.966432615175338350e-01 5.099689198318089893e+02
1.967432835223749121e-01 5.099604416702749177e+02
1.968433055272159615e-01 5.099519841309048616e+02
1.969433275320570387e-01 5.099435474273596469e+02
1.970433495368981158e-01 5.099351317725999593e+02
1.971433715417391930e-01 5.099267373788736677e+02
1.972433935465802146e-01 5.099183644577148016e+02
1.973434155514212918e-01 5.099100132199331483e+02
1.974434375562623689e-01 5.099016838756097627e+02
1.975434595611034183e-01 5.098933766340867351e+02
1.976434815659444955e-01 5.098850917039645196e+02
1.977435035707855726e-01 5.098768292930917596e+02
1.978435255756266220e-01 5.098685896085605123e+02
1.979435475804676714e-01 5.098603728566984046e+02
1.980435695853087485e-01 5.098521792430638584e+02
1.981435915901498257e-01 5.098440089724356881e+02
1.982436135949908751e-01 5.098358622488112815e+02
1.983436355998319522e-01 5.098277392753967092e+02
1.984436576046730294e-01 5.098196402546005288e+02
1.985436796095140788e-01 5.098115653880279865e+02
1.986437016143551282e-01 5.098035148764756173e+02
1.987437236191962053e-01 5.097954889199224340e+02
1.988437456240372825e-01 5.097874877175251527e+02
1.989437676288783319e-01 5.097795114676116555e+02
1.990437896337194090e-01 5.097715603676741694e+02
1.991438116385604862e-01 5.097636346143625019e+02
1.992438336434015356e-01 5.097557344034803464e+02
1.993438556482425850e-01 5.097478599299756752e+02
1.994438776530836621e-01 5.097400113879364199e+02
1.995438996579247393e-01 5.097321889705846161e+02
1.996439216627657887e-01 5.097243928702699804e+02
1.997439436676068658e-01 5.097166232784629756e+02
1.998439656724479152e-01 5.097088803857485573e+02
1.999439876772889924e-01 5.097011643818235029e+02
2.000440096821300417e-01 5.096934754554864639e+02
2.001440316869711189e-01 5.096858137946338729e+02
2.002440536918121960e-01 5.096781795862528952e+02
2.003440756966532454e-01 5.096705730164189845e+02
2.004440977014943226e-01 5.096629942702849689e+02
2.005441197063353720e-01 5.096554435320801986e+02
2.006441417111764491e-01 5.096479209851011092e+02
2.007441637160174985e-01 5.096404268117076413e+02
2.008441857208585757e-01 5.096329611933172146e+02
2.009442077256996528e-01 5.096255243103987596e+02
2.010442297305407022e-01 5.096181163424673741e+02
2.011442517353817794e-01 5.096107374680784687e+02
2.012442737402228288e-01 5.096033878648239579e+02
2.013442957450639059e-01 5.095960677093239610e+02
2.014443177499049553e-01 5.095887771772239603e+02
2.015443397547460325e-01 5.095815164431873541e+02
2.016443617595871096e-01 5.095742856808926717e+02
2.017443837644281590e-01 5.095670850630260134e+02
2.018444057692692084e-01 5.095599147612772981e+02
2.019444277741102856e-01 5.095527749463342957e+02
2.020444497789513627e-01 5.095456657878769420e+02
2.021444717837924121e-01 5.095385874545746674e+02
2.022444937886334893e-01 5.095315401140783251e+02
2.023445157934745664e-01 5.095245239330168943e+02
2.024445377983156158e-01 5.095175390769922501e+02
2.025445598031566652e-01 5.095105857105743894e+02
2.026445818079977423e-01 5.095036639972964849e+02
2.027446038128388195e-01 5.094967740996484054e+02
2.028446258176798689e-01 5.094899161790758626e+02
2.029446478225209460e-01 5.094830903959705211e+02
2.030446698273620232e-01 5.094762969096707934e+02
2.031446918322030726e-01 5.094695358784522341e+02
2.032447138370441220e-01 5.094628074595254361e+02
2.033447358418851991e-01 5.094561118090319951e+02
2.034447578467262763e-01 5.094494490820382566e+02
2.035447798515673257e-01 5.094428194325320192e+02
2.036448018564084028e-01 5.094362230134175888e+02
2.037448238612494800e-01 5.094296599765108340e+02
2.038448458660905016e-01 5.094231304725373093e+02
2.039448678709315788e-01 5.094166346511237862e+02
2.040448898757726559e-01 5.094101726607988780e+02
2.041449118806137331e-01 5.094037446489841727e+02
2.042449338854547825e-01 5.093973507619932661e+02
2.043449558902958596e-01 5.093909911450260779e+02
2.044449778951369368e-01 5.093846659421658387e+02
2.045449998999779584e-01 5.093783752963747133e+02
2.046450219048190355e-01 5.093721193494885711e+02
2.047450439096601127e-01 5.093658982422142572e+02
2.048450659145011898e-01 5.093597121141266371e+02
2.049450879193422392e-01 5.093535611036618889e+02
2.050451099241833164e-01 5.093474453481173327e+02
2.051451319290243935e-01 5.093413649836442687e+02
2.052451539338654152e-01 5.093353201452466692e+02
2.053451759387064923e-01 5.093293109667750969e+02
2.054451979435475695e-01 5.093233375809268750e+02
2.055452199483886466e-01 5.093174001192394371e+02
2.056452419532296960e-01 5.093114987120866317e+02
2.057452639580707732e-01 5.093056334886769605e+02
2.058452859629118503e-01 5.092998045770495992e+02
2.059453079677528720e-01 5.092940121040708163e+02
2.060453299725939491e-01 5.092882561954303355e+02
2.061453519774350263e-01 5.092825369756386635e+02
2.062453739822761034e-01 5.092768545680232819e+02
2.063453959871171528e-01 5.092712090947265438e+02
2.064454179919582300e-01 5.092656006767005010e+02
2.065454399967992516e-01 5.092600294337060518e+02
2.066454620016403287e-01 5.092544954843084497e+02
2.067454840064814059e-01 5.092489989458752575e+02
2.068455060113224830e-01 5.092435399345719134e+02
2.069455280161635602e-01 5.092381185653606508e+02
2.070455500210046096e-01 5.092327349519966333e+02
2.071455720258456867e-01 5.092273892070251122e+02
2.072455940306867084e-01 5.092220814417786414e+02
2.073456160355277855e-01 5.092168117663753719e+02
2.074456380403688627e-01 5.092115802897151866e+02
2.075456600452099398e-01 5.092063871194768581e+02
2.076456820500510170e-01 5.092012323621170253e+02
2.077457040548920664e-01 5.091961161228668971e+02
2.078457260597331435e-01 5.091910385057282156e+02
2.079457480645741652e-01 5.091859996134746211e+02
2.080457700694152423e-01 5.091809995476450581e+02
2.081457920742563195e-01 5.091760384085439455e+02
2.082458140790973966e-01 5.091711162952387895e+02
2.083458360839384738e-01 5.091662333055566023e+02
2.084458580887795232e-01 5.091613895360832203e+02
2.085458800936205725e-01 5.091565850821605181e+02
2.086459020984616219e-01 5.091518200378841357e+02
2.087459241033026991e-01 5.091470944961018859e+02
2.088459461081437762e-01 5.091424085484113675e+02
2.089459681129848534e-01 5.091377622851587148e+02
2.090459901178259305e-01 5.091331557954363802e+02
2.091460121226669799e-01 5.091285891670800652e+02
2.092460341275080293e-01 5.091240624866684925e+02
2.093460561323490787e-01 5.091195758395230087e+02
2.094460781371901559e-01 5.091151293097005919e+02
2.095461001420312330e-01 5.091107229799995935e+02
2.096461221468723102e-01 5.091063569319520070e+02
2.097461441517133873e-01 5.091020312458240937e+02
2.098461661565544367e-01 5.090977460006162119e+02
2.099461881613954861e-01 5.090935012740602019e+02
2.100462101662365355e-01 5.090892971426164877e+02
2.101462321710776127e-01 5.090851336814763499e+02
2.102462541759186898e-01 5.090810109645568673e+02
2.103462761807597670e-01 5.090769290645019396e+02
2.104462981856008441e-01 5.090728880526810940e+02
2.105463201904418657e-01 5.090688879991866997e+02
2.106463421952829429e-01 5.090649289728345366e+02
2.107463642001239923e-01 5.090610110411623168e+02
2.108463862049650694e-01 5.090571342704282074e+02
2.109464082098061466e-01 5.090532987256107162e+02
2.110464302146472237e-01 5.090495044704061343e+02
2.111464522194883009e-01 5.090457515672305249e+02
2.112464742243293225e-01 5.090420400772155745e+02
2.113464962291703997e-01 5.090383700602107524e+02
2.114465182340114491e-01 5.090347415747807531e+02
2.115465402388525262e-01 5.090311546782060077e+02
2.116465622436936034e-01 5.090276094264813764e+02
2.117465842485346805e-01 5.090241058743145572e+02
2.118466062533757577e-01 5.090206440751293258e+02
2.119466282582167793e-01 5.090172240810599078e+02
2.120466502630578565e-01 5.090138459429559248e+02
2.121466722678989059e-01 5.090105097103767093e+02
2.122466942727399830e-01 5.090072154315955686e+02
2.123467162775810602e-01 5.090039631535965441e+02
2.124467382824221373e-01 5.090007529220761171e+02
2.125467602872631590e-01 5.089975847814417307e+02
2.126467822921042361e-01 5.089944587748115055e+02
2.127468042969453133e-01 5.089913749440162860e+02
2.128468263017863626e-01 5.089883333295972534e+02
2.129468483066274398e-01 5.089853339708070052e+02
2.130468703114685169e-01 5.089823769056099536e+02
2.131468923163095941e-01 5.089794621706811313e+02
2.132469143211506157e-01 5.089765898014080676e+02
2.133469363259916929e-01 5.089737598318899927e+02
2.134469583308327700e-01 5.089709722949392017e+02
2.135469803356738194e-01 5.089682272220781556e+02
2.136470023405148966e-01 5.089655246435451090e+02
2.137470243453559737e-01 5.089628645882900742e+02
2.138470463501970509e-01 5.089602470839774924e+02
2.139470683550380725e-01 5.089576721569853817e+02
2.140470903598791497e-01 5.089551398324082925e+02
2.141471123647202268e-01 5.089526501340541813e+02
2.142471343695612762e-01 5.089502030844482761e+02
2.143471563744023534e-01 5.089477987048337582e+02
2.144471783792434305e-01 5.089454370151697162e+02
2.145472003840845077e-01 5.089431180341355230e+02
2.146472223889255293e-01 5.089408417791281636e+02
2.147472443937666065e-01 5.089386082662659874e+02
2.148472663986076836e-01 5.089364175103880257e+02
2.149472884034487330e-01 5.089342695250568340e+02
2.150473104082898101e-01 5.089321643225558773e+02
2.151473324131308873e-01 5.089301019138952711e+02
2.152473544179719367e-01 5.089280823088099623e+02
2.153473764228129861e-01 5.089261055157607530e+02
2.154473984276540632e-01 5.089241715419372554e+02
2.155474204324951404e-01 5.089222803932582906e+02
2.156474424373361898e-01 5.089204320743725702e+02
2.157474644421772669e-01 5.089186265886611977e+02
2.158474864470183441e-01 5.089168639382396577e+02
2.159475084518593935e-01 5.089151441239561109e+02
2.160475304567004429e-01 5.089134671453967940e+02
2.161475524615415200e-01 5.089118330008851672e+02
2.162475744663825972e-01 5.089102416874841879e+02
2.163475964712236466e-01 5.089086932009980728e+02
2.164476184760647237e-01 5.089071875359742307e+02
2.165476404809058009e-01 5.089057246857036034e+02
2.166476624857468503e-01 5.089043046422257248e+02
2.167476844905878997e-01 5.089029273963261062e+02
2.168477064954289768e-01 5.089015929375409542e+02
2.169477285002700540e-01 5.089003012541593307e+02
2.170477505051111033e-01 5.088990523332237217e+02
2.171477725099521805e-01 5.088978461605327652e+02
2.172477945147932299e-01 5.088966827206432981e+02
2.173478165196343070e-01 5.088955619968718906e+02
2.174478385244753564e-01 5.088944839712984276e+02
2.175478605293164336e-01 5.088934486247665063e+02
2.176478825341575107e-01 5.088924559368873020e+02
2.177479045389985601e-01 5.088915058860401359e+02
2.178479265438396373e-01 5.088905984493758297e+02
2.179479485486806867e-01 5.088897336028206837e+02
2.180479705535217638e-01 5.088889113210747155e+02
2.181479925583628132e-01 5.088881315776184806e+02
2.182480145632038904e-01 5.088873943447132433e+02
2.183480365680449675e-01 5.088866995934032502e+02
2.184480585728860169e-01 5.088860472935202779e+02
2.185480805777270941e-01 5.088854374136834053e+02
2.186481025825681435e-01 5.088848699213052100e+02
2.187481245874092206e-01 5.088843447825919384e+02
2.188481465922502700e-01 5.088838619625460638e+02
2.189481685970913472e-01 5.088834214249712318e+02
2.190481906019324243e-01 5.088830231324732267e+02
2.191482126067734737e-01 5.088826670464635527e+02
2.192482346116145231e-01 5.088823531271617071e+02
2.193482566164556002e-01 5.088820813335997855e+02
2.194482786212966774e-01 5.088818516236245273e+02
2.195483006261377268e-01 5.088816639538989079e+02
2.196483226309788039e-01 5.088815182799081072e+02
2.197483446358198811e-01 5.088814145559604185e+02
2.198483666406609305e-01 5.088813527351912853e+02
2.199483886455019799e-01 5.088813327695663133e+02
2.200484106503430570e-01 5.088813546098848519e+02
2.201484326551841342e-01 5.088814182057828361e+02
2.202484546600251836e-01 5.088815235057365953e+02
2.203484766648662607e-01 5.088816704570665479e+02
2.204484986697073379e-01 5.088818590059385087e+02
2.205485206745483873e-01 5.088820890973697146e+02
2.206485426793894367e-01 5.088823606752324054e+02
2.207485646842305138e-01 5.088826736822537100e+02
2.208485866890715910e-01 5.088830280600244009e+02
2.209486086939126404e-01 5.088834237489981547e+02
2.210486306987537175e-01 5.088838606884980322e+02
2.211486527035947947e-01 5.088843388167179000e+02
2.212486747084358163e-01 5.088848580707293650e+02
2.213486967132768934e-01 5.088854183864811489e+02
2.214487187181179706e-01 5.088860196988072175e+02
2.215487407229590477e-01 5.088866619414276329e+02
2.216487627278000971e-01 5.088873450469545787e+02
2.217487847326411743e-01 5.088880689468937817e+02
2.218488067374822514e-01 5.088888335716509346e+02
2.219488287423232731e-01 5.088896388505340269e+02
2.220488507471643502e-01 5.088904847117597683e+02
2.221488727520054274e-01 5.088913710824531336e+02
2.222488947568465045e-01 5.088922978886561168e+02
2.223489167616875539e-01 5.088932650553296639e+02
2.224489387665286311e-01 5.088942725063581065e+02
2.225489607713697082e-01 5.088953201645537092e+02
2.226489827762107299e-01 5.088964079516604784e+02
2.227490047810518070e-01 5.088975357883580273e+02
2.228490267858928842e-01 5.088987035942677153e+02
2.229490487907339613e-01 5.088999112879548647e+02
2.230490707955750107e-01 5.089011587869348432e+02
2.231490928004160879e-01 5.089024460076759624e+02
2.232491148052571650e-01 5.089037728656051058e+02
2.233491368100981866e-01 5.089051392751115372e+02
2.234491588149392638e-01 5.089065451495525281e+02
2.235491808197803409e-01 5.089079904012565407e+02
2.236492028246214181e-01 5.089094749415277192e+02
2.237492248294624675e-01 5.089109986806519714e+02
2.238492468343035446e-01 5.089125615279016301e+02
2.239492688391445663e-01 5.089141633915373859e+02
2.240492908439856434e-01 5.089158041788164155e+02
2.241493128488267206e-01 5.089174837959954516e+02
2.242493348536677977e-01 5.089192021483352733e+02
2.243493568585088749e-01 5.089209591401069019e+02
2.244493788633499243e-01 5.089227546745951258e+02
2.245494008681910014e-01 5.089245886541033883e+02
2.246494228730320231e-01 5.089264609799605523e+02
2.247494448778731002e-01 5.089283715525230036e+02
2.248494668827141774e-01 5.089303202711820404e+02
2.249494888875552545e-01 5.089323070343676818e+02
2.250495108923963317e-01 5.089343317395546364e+02
2.251495328972373811e-01 5.089363942832649172e+02
2.252495549020784582e-01 5.089384945610765953e+02
2.253495769069194798e-01 5.089406324676257327e+02
2.254495989117605570e-01 5.089428078966142266e+02
2.255496209166016341e-01 5.089450207408116853e+02
2.256496429214427113e-01 5.089472708920642390e+02
2.257496649262837884e-01 5.089495582412980070e+02
2.258496869311248378e-01 5.089518826785230772e+02
2.259497089359658872e-01 5.089542440928418046e+02
2.260497309408069366e-01 5.089566423724512561e+02
2.261497529456480138e-01 5.089590774046508272e+02
2.262497749504890909e-01 5.089615490758459373e+02
2.263497969553301681e-01 5.089640572715543954e+02
2.264498189601712452e-01 5.089666018764114028e+02
2.265498409650122946e-01 5.089691827741752377e+02
2.266498629698533440e-01 5.089717998477324272e+02
2.267498849746943934e-01 5.089744529791037166e+02
2.268499069795354706e-01 5.089771420494500376e+02
2.269499289843765477e-01 5.089798669390756345e+02
2.270499509892176249e-01 5.089826275274366481e+02
2.271499729940587020e-01 5.089854236931458900e+02
2.272499949988997514e-01 5.089882553139769357e+02
2.273500170037408008e-01 5.089911222668711162e+02
2.274500390085818502e-01 5.089940244279437707e+02
2.275500610134229273e-01 5.089969616724888510e+02
2.276500830182640045e-01 5.089999338749845492e+02
2.277501050231050816e-01 5.090029409090990384e+02
2.278501270279461588e-01 5.090059826476989997e+02
2.279501490327871804e-01 5.090090589628502471e+02
2.280501710376282576e-01 5.090121697258279028e+02
2.281501930424693070e-01 5.090153148071204896e+02
2.282502150473103841e-01 5.090184940764358998e+02
2.283502370521514613e-01 5.090217074027082731e+02
2.284502590569925384e-01 5.090249546541014070e+02
2.285502810618336156e-01 5.090282356980180793e+02
2.286503030666746372e-01 5.090315504011025496e+02
2.287503250715157144e-01 5.090348986292493692e+02
2.288503470763567638e-01 5.090382802476083270e+02
2.289503690811978409e-01 5.090416951205901341e+02
2.290503910860389181e-01 5.090451431118713117e+02
2.291504130908799952e-01 5.090486240844036843e+02
2.292504350957210724e-01 5.090521379004175628e+02
2.293504571005620940e-01 5.090556844214283387e+02
2.294504791054031712e-01 5.090592635082430206e+02
2.295505011102442205e-01 5.090628750209658051e+02
2.296505231150852977e-01 5.090665188190058643e+02
2.297505451199263748e-01 5.090701947610808702e+02
2.298505671247674520e-01 5.090739027052254642e+02
2.299505891296084736e-01 5.090776425087960888e+02
2.300506111344495508e-01 5.090814140284775249e+02
2.301506331392906279e-01 5.090852171202900536e+02
2.302506551441316773e-01 5.090890516395938334e+02
2.303506771489727545e-01 5.090929174410970290e+02
2.304506991538138316e-01 5.090968143788608131e+02
2.305507211586549088e-01 5.091007423063064152e+02
2.306507431634959304e-01 5.091047010762205218e+02
2.307507651683370076e-01 5.091086905407630638e+02
2.308507871731780847e-01 5.091127105514719915e+02
2.309508091780191341e-01 5.091167609592707777e+02
2.310508311828602113e-01 5.091208416144735338e+02
2.311508531877012884e-01 5.091249523667932522e+02
2.312508751925423656e-01 5.091290930653462965e+02
2.313508971973833872e-01 5.091332635586601896e+02
2.314509192022244644e-01 5.091374636946787291e+02
2.315509412070655415e-01 5.091416933207696616e+02
2.316509632119065909e-01 5.091459522837303666e+02
2.317509852167476680e-01 5.091502404297951898e+02
2.318510072215887452e-01 5.091545576046397628e+02
2.319510292264298223e-01 5.091589036533912349e+02
2.320510512312708440e-01 5.091632784206297515e+02
2.321510732361119211e-01 5.091676817503998222e+02
2.322510952409529983e-01 5.091721134862140161e+02
2.323511172457940477e-01 5.091765734710597826e+02
2.324511392506351248e-01 5.091810615474069550e+02
2.325511612554762020e-01 5.091855775572134348e+02
2.326511832603172514e-01 5.091901213419317855e+02
2.327512052651583008e-01 5.091946927425164517e+02
2.328512272699993779e-01 5.091992915994296709e+02
2.329512492748404551e-01 5.092039177526476124e+02
2.330512712796815045e-01 5.092085710416686766e+02
2.331512932845225816e-01 5.092132513055182699e+02
2.332513152893636588e-01 5.092179583827567626e+02
2.333513372942047082e-01 5.092226921114846050e+02
2.334513592990457576e-01 5.092274523293499442e+02
2.335513813038868347e-01 5.092322388735557865e+02
2.336514033087279119e-01 5.092370515808656819e+02
2.337514253135689613e-01 5.092418902876098628e+02
2.338514473184100384e-01 5.092467548296937707e+02
2.339514693232511156e-01 5.092516450426023198e+02
2.340514913280921649e-01 5.092565607614089345e+02
2.341515133329332143e-01 5.092615018207798130e+02
2.342515353377742915e-01 5.092664680549835339e+02
2.343515573426153686e-01 5.092714592978941255e+02
2.344515793474564180e-01 5.092764753830001041e+02
2.345516013522974952e-01 5.092815161434119773e+02
2.346516233571385446e-01 5.092865814118655976e+02
2.347516453619796217e-01 5.092916710207326787e+02
2.348516673668206711e-01 5.092967848020241490e+02
2.349516893716617483e-01 5.093019225873987352e+02
2.350517113765028254e-01 5.093070842081696128e+02
2.351517333813438748e-01 5.093122694953102041e+02
2.352517553861849520e-01 5.093174782794616817e+02
2.353517773910260014e-01 5.093227103909396760e+02
2.354517993958670785e-01 5.093279656597397889e+02
2.355518214007081279e-01 5.093332439155449833e+02
2.356518434055492051e-01 5.093385449877337692e+02
2.357518654103902822e-01 5.093438687053842386e+02
2.358518874152313316e-01 5.093492148972828772e+02
2.359519094200724088e-01 5.093545833919301913e+02
2.360519314249134581e-01 5.093599740175469606e+02
2.361519534297545353e-01 5.093653866020828218e+02
2.362519754345955847e-01 5.093708209732211003e+02
2.363519974394366618e-01 5.093762769583864269e+02
2.364520194442777390e-01 5.093817543847503089e+02
2.365520414491187884e-01 5.093872530792403381e+02
2.366520634539598378e-01 5.093927728685434317e+02
2.367520854588009149e-01 5.093983135791156656e+02
2.368521074636419921e-01 5.094038750371869924e+02
2.369521294684830415e-01 5.094094570687678925e+02
2.370521514733241186e-01 5.094150594996585255e+02
2.371521734781651958e-01 5.094206821554511180e+02
2.372521954830062452e-01 5.094263248615410475e+02
2.373522174878472946e-01 5.094319874431303106e+02
2.374522394926883717e-01 5.094376697252363329e+02
2.375522614975294489e-01 5.094433715326968013e+02
2.376522835023704983e-01 5.094490926901769399e+02
2.377523055072115754e-01 5.094548330221782635e+02
2.378523275120526526e-01 5.094605923530406244e+02
2.379523495168937020e-01 5.094663705069539787e+02
2.380523715217347513e-01 5.094721673079611151e+02
2.381523935265758285e-01 5.094779825799666355e+02
2.382524155314169056e-01 5.094838161467416171e+02
2.383524375362579550e-01 5.094896678319322518e+02
2.384524595410990322e-01 5.094955374590654174e+02
2.385524815459401093e-01 5.095014248515545887e+02
2.386525035507811310e-01 5.095073298327074554e+02
2.387525255556222081e-01 5.095132522257329697e+02
2.388525475604632853e-01 5.095191918537463494e+02
2.389525695653043624e-01 5.095251485397760689e+02
2.390525915701454118e-01 5.095311221067721021e+02
2.391526135749864890e-01 5.095371123776097306e+02
2.392526355798275661e-01 5.095431191750977291e+02
2.393526575846685878e-01 5.095491423219855847e+02
2.394526795895096649e-01 5.095551816409684420e+02
2.395527015943507421e-01 5.095612369546936407e+02
2.396527235991918192e-01 5.095673080857677064e+02
2.397527456040328686e-01 5.095733948567649918e+02
2.398527676088739458e-01 5.095794970902293244e+02
2.399527896137150229e-01 5.095856146086844092e+02
