0.000000000000000000e+00 5.132429240891276550e+02
1.000220048410650341e-04 5.132318370195835087e+02
2.000440096821300682e-04 5.132207483965513575e+02
3.000660145231950752e-04 5.132096583014697444e+02
4.000880193642601364e-04 5.131985668159688885e+02
5.001100242053251434e-04 5.131874740218701163e+02
6.001320290463901504e-04 5.131763800011872263e+02
7.001540338874551574e-04 5.131652848361238739e+02
8.001760387285202728e-04 5.131541886090751632e+02
9.001980435695852798e-04 5.131430914026273058e+02
1.000220048410650287e-03 5.131319932995565978e+02
1.100242053251715294e-03 5.131208943828308975e+02
1.200264058092780301e-03 5.131097947356075792e+02
1.300286062933845308e-03 5.130986944412331923e+02
1.400308067774910315e-03 5.130875935832458481e+02
1.500330072615975322e-03 5.130764922453719237e+02
1.600352077457040546e-03 5.130653905115283351e+02
1.700374082298105553e-03 5.130542884658199227e+02
1.800396087139170560e-03 5.130431861925407020e+02
1.900418091980235567e-03 5.130320837761745452e+02
2.000440096821300574e-03 5.130209813013922258e+02
2.100462101662365581e-03 5.130098788530526690e+02
2.200484106503430588e-03 5.129987765162038613e+02
2.300506111344495595e-03 5.129876743760805766e+02
2.400528116185560602e-03 5.129765725181052858e+02
2.500550121026625609e-03 5.129654710278858829e+02
2.600572125867690616e-03 5.129543699912189822e+02
2.700594130708756056e-03 5.129432694940867350e+02
2.800616135549820630e-03 5.129321696226568292e+02
2.900638140390886070e-03 5.129210704632837405e+02
3.000660145231950644e-03 5.129099721025064582e+02
3.100682150073016084e-03 5.128988746270488264e+02
3.200704154914081091e-03 5.128877781238198850e+02
3.300726159755145665e-03 5.128766826799133014e+02
3.400748164596211105e-03 5.128655883826054378e+02
3.500770169437275679e-03 5.128544953193578522e+02
3.600792174278341119e-03 5.128434035778141151e+02
3.700814179119406126e-03 5.128323132458010605e+02
3.800836183960471133e-03 5.128212244113271936e+02
3.900858188801536140e-03 5.128101371625848515e+02
4.000880193642601147e-03 5.127990515879452005e+02
4.100902198483666154e-03 5.127879677759631250e+02
4.200924203324731161e-03 5.127768858153731344e+02
4.300946208165796168e-03 5.127658057950895909e+02
4.400968213006861175e-03 5.127547278042069365e+02
4.500990217847926182e-03 5.127436519319995796e+02
4.601012222688991189e-03 5.127325782679206441e+02
4.701034227530056196e-03 5.127215069016006055e+02
4.801056232371121203e-03 5.127104379228496782e+02
4.901078237212187078e-03 5.126993714216537228e+02
5.001100242053251217e-03 5.126883074881767470e+02
5.101122246894316224e-03 5.126772462127592007e+02
5.201144251735381231e-03 5.126661876859169524e+02
5.301166256576447106e-03 5.126551319983412895e+02
5.401188261417512113e-03 5.126440792408982361e+02
5.501210266258576252e-03 5.126330295046294623e+02
5.601232271099641259e-03 5.126219828807486465e+02
5.701254275940706266e-03 5.126109394606437490e+02
5.801276280781772141e-03 5.125998993358748521e+02
5.901298285622837148e-03 5.125888625981747282e+02
6.001320290463901287e-03 5.125778293394471348e+02
6.101342295304966294e-03 5.125667996517670417e+02
6.201364300146032169e-03 5.125557736273793807e+02
6.301386304987097176e-03 5.125447513586991590e+02
6.401408309828162183e-03 5.125337329383102087e+02
6.501430314669226322e-03 5.125227184589651870e+02
6.601452319510291329e-03 5.125117080135844390e+02
6.701474324351357204e-03 5.125007016952541790e+02
6.801496329192422211e-03 5.124896995972299010e+02
6.901518334033487218e-03 5.124787018129298986e+02
7.001540338874551357e-03 5.124677084359401533e+02
7.101562343715617232e-03 5.124567195600095602e+02
7.201584348556682239e-03 5.124457352790515188e+02
7.301606353397747246e-03 5.124347556871420011e+02
7.401628358238812253e-03 5.124237808785202333e+02
7.501650363079876392e-03 5.124128109475866495e+02
7.601672367920942266e-03 5.124018459889020960e+02
7.701694372762007273e-03 5.123908860971889681e+02
7.801716377603072280e-03 5.123799313673276856e+02
7.901738382444137287e-03 5.123689818943587397e+02
8.001760387285202294e-03 5.123580377734792819e+02
8.101782392126267301e-03 5.123470991000447157e+02
8.201804396967332308e-03 5.123361659695663093e+02
8.301826401808397315e-03 5.123252384777115367e+02
8.401848406649462322e-03 5.123143167203016901e+02
8.501870411490527329e-03 5.123034007933136991e+02
8.601892416331592336e-03 5.122924907928751281e+02
8.701914421172657343e-03 5.122815868152692929e+02
8.801936426013722350e-03 5.122706889569278701e+02
8.901958430854787357e-03 5.122597973144357866e+02
9.001980435695852364e-03 5.122489119845258756e+02
9.102002440536917371e-03 5.122380330640812645e+02
9.202024445377982378e-03 5.122271606501328733e+02
9.302046450219047385e-03 5.122162948398579374e+02
9.402068455060112392e-03 5.122054357305820531e+02
9.502090459901177399e-03 5.121945834197739487e+02
9.602112464742242406e-03 5.121837380050490083e+02
9.702134469583307413e-03 5.121728995841647247e+02
9.802156474424374155e-03 5.121620682550219499e+02
9.902178479265437427e-03 5.121512441156635305e+02
1.000220048410650243e-02 5.121404272642716933e+02
1.010222248894756918e-02 5.121296177991713421e+02
1.020224449378863245e-02 5.121188158188233501e+02
1.030226649862969746e-02 5.121080214218283118e+02
1.040228850347076246e-02 5.120972347069225634e+02
1.050231050831182747e-02 5.120864557729802300e+02
1.060233251315289421e-02 5.120756847190084500e+02
1.070235451799395748e-02 5.120649216441490807e+02
1.080237652283502423e-02 5.120541666476775617e+02
1.090239852767608750e-02 5.120434198289999586e+02
1.100242053251715250e-02 5.120326812876538725e+02
1.110244253735821925e-02 5.120219511233073035e+02
1.120246454219928252e-02 5.120112294357556948e+02
1.130248654704034753e-02 5.120005163249231828e+02
1.140250855188141253e-02 5.119898118908603237e+02
1.150253055672247754e-02 5.119791162337427295e+02
1.160255256156354428e-02 5.119684294538715790e+02
1.170257456640460755e-02 5.119577516516693549e+02
1.180259657124567430e-02 5.119470829276833683e+02
1.190261857608673930e-02 5.119364233825800738e+02
1.200264058092780257e-02 5.119257731171458090e+02
1.210266258576886932e-02 5.119151322322876467e+02
1.220268459060993259e-02 5.119045008290283363e+02
1.230270659545099760e-02 5.118938790085073265e+02
1.240272860029206434e-02 5.118832668719814478e+02
1.250275060513312761e-02 5.118726645208187165e+02
1.260277260997419435e-02 5.118620720565023134e+02
1.270279461481525762e-02 5.118514895806265486e+02
1.280281661965632437e-02 5.118409171948954963e+02
1.290283862449738937e-02 5.118303550011241896e+02
1.300286062933845264e-02 5.118198031012343563e+02
1.310288263417951939e-02 5.118092615972549879e+02
1.320290463902058266e-02 5.117987305913206342e+02
1.330292664386164767e-02 5.117882101856710619e+02
1.340294864870271441e-02 5.117777004826485836e+02
1.350297065354377768e-02 5.117672015846965223e+02
1.360299265838484442e-02 5.117567135943596668e+02
1.370301466322590769e-02 5.117462366142823385e+02
1.380303666806697444e-02 5.117357707472065727e+02
1.390305867290803944e-02 5.117253160959696743e+02
1.400308067774910271e-02 5.117148727635068894e+02
1.410310268259016946e-02 5.117044408528452664e+02
1.420312468743123446e-02 5.116940204671055312e+02
1.430314669227229774e-02 5.116836117094994165e+02
1.440316869711336448e-02 5.116732146833287516e+02
1.450319070195442775e-02 5.116628294919838709e+02
1.460321270679549449e-02 5.116524562389425910e+02
1.470323471163655950e-02 5.116420950277675956e+02
1.480325671647762451e-02 5.116317459621074022e+02
1.490327872131868951e-02 5.116214091456926667e+02
1.500330072615975278e-02 5.116110846823358429e+02
1.510332273100081953e-02 5.116007726759293064e+02
1.520334473584188453e-02 5.115904732304451841e+02
1.530336674068294781e-02 5.115801864499310909e+02
1.540338874552401455e-02 5.115699124385124605e+02
1.550341075036507782e-02 5.115596513003880546e+02
1.560343275520614456e-02 5.115494031398296215e+02
1.570345476004721130e-02 5.115391680611807601e+02
1.580347676488827457e-02 5.115289461688544179e+02
1.590349876972933785e-02 5.115187375673329484e+02
1.600352077457040459e-02 5.115085423611641318e+02
1.610354277941146786e-02 5.114983606549635056e+02
1.620356478425253460e-02 5.114881925534084530e+02
1.630358678909359788e-02 5.114780381612393967e+02
1.640360879393466462e-02 5.114678975832576953e+02
1.650363079877573136e-02 5.114577709243242225e+02
1.660365280361679463e-02 5.114476582893580598e+02
1.670367480845786137e-02 5.114375597833324036e+02
1.680369681329892464e-02 5.114274755112771800e+02
1.690371881813999139e-02 5.114174055782747246e+02
1.700374082298105466e-02 5.114073500894584186e+02
1.710376282782211793e-02 5.113973091500108126e+02
1.720378483266318467e-02 5.113872828651646500e+02
1.730380683750424795e-02 5.113772713401973533e+02
1.740382884234531469e-02 5.113672746804322173e+02
1.750385084718638143e-02 5.113572929912355676e+02
1.760387285202744470e-02 5.113473263780150546e+02
1.770389485686851144e-02 5.113373749462186311e+02
1.780391686170957471e-02 5.113274388013328462e+02
1.790393886655063799e-02 5.113175180488798901e+02
1.800396087139170473e-02 5.113076127944187306e+02
1.810398287623276800e-02 5.112977231435393151e+02
1.820400488107383474e-02 5.112878492018647876e+02
1.830402688591490148e-02 5.112779910750472254e+02
1.840404889075596476e-02 5.112681488687678666e+02
1.850407089559703150e-02 5.112583226887325054e+02
1.860409290043809477e-02 5.112485126406738800e+02
1.870411490527916151e-02 5.112387188303459311e+02
1.880413691012022478e-02 5.112289413635247683e+02
1.890415891496129153e-02 5.112191803460045776e+02
1.900418091980235480e-02 5.112094358835984167e+02
1.910420292464341807e-02 5.111997080821352029e+02
1.920422492948448481e-02 5.111899970474573820e+02
1.930424693432555155e-02 5.111803028854188824e+02
1.940426893916661483e-02 5.111706257018858537e+02
1.950429094400768157e-02 5.111609656027316078e+02
1.960431294884874831e-02 5.111513226938373009e+02
1.970433495368981158e-02 5.111416970810884095e+02
1.980435695853087485e-02 5.111320888703731384e+02
1.990437896337193813e-02 5.111224981675821937e+02
2.000440096821300487e-02 5.111129250786045191e+02
2.010442297305407161e-02 5.111033697093279784e+02
2.020444497789513835e-02 5.110938321656346375e+02
2.030446698273619816e-02 5.110843125534015599e+02
2.040448898757726490e-02 5.110748109784970552e+02
2.050451099241833164e-02 5.110653275467799972e+02
2.060453299725939491e-02 5.110558623640962423e+02
2.070455500210046165e-02 5.110464155362791416e+02
2.080457700694152492e-02 5.110369871691465278e+02
2.090459901178259167e-02 5.110275773684978731e+02
2.100462101662365494e-02 5.110181862401121862e+02
2.110464302146472168e-02 5.110088138897489216e+02
2.120466502630578842e-02 5.109994604231426933e+02
2.130468703114684823e-02 5.109901259460033316e+02
2.140470903598791497e-02 5.109808105640135523e+02
2.150473104082898171e-02 5.109715143828259443e+02
2.160475304567004845e-02 5.109622375080618895e+02
2.170477505051111172e-02 5.109529800453093458e+02
2.180479705535217499e-02 5.109437421001222219e+02
2.190481906019323827e-02 5.109345237780153184e+02
2.200484106503430501e-02 5.109253251844656916e+02
2.210486306987537175e-02 5.109161464249070832e+02
2.220488507471643849e-02 5.109069876047319099e+02
2.230490707955749830e-02 5.108978488292860902e+02
2.240492908439856504e-02 5.108887302038684197e+02
2.250495108923963178e-02 5.108796318337275579e+02
2.260497309408069505e-02 5.108705538240612896e+02
2.270499509892176179e-02 5.108614962800139665e+02
2.280501710376282506e-02 5.108524593066731541e+02
2.290503910860389181e-02 5.108434430090692331e+02
2.300506111344495508e-02 5.108344474921736378e+02
2.310508311828602182e-02 5.108254728608940241e+02
2.320510512312708856e-02 5.108165192200757474e+02
2.330512712796814837e-02 5.108075866744969744e+02
2.340514913280921511e-02 5.107986753288674322e+02
2.350517113765028185e-02 5.107897852878272715e+02
2.360519314249134859e-02 5.107809166559436562e+02
2.370521514733241186e-02 5.107720695377088873e+02
2.380523715217347860e-02 5.107632440375391525e+02
2.390525915701453841e-02 5.107544402597715134e+02
2.400528116185560515e-02 5.107456583086611204e+02
2.410530316669667189e-02 5.107368982883804733e+02
2.420532517153773863e-02 5.107281603030171482e+02
2.430534717637880537e-02 5.107194444565704998e+02
2.440536918121986518e-02 5.107107508529502979e+02
2.450539118606093192e-02 5.107020795959740553e+02
2.460541319090199519e-02 5.106934307893659479e+02
2.470543519574306193e-02 5.106848045367529494e+02
2.480545720058412867e-02 5.106762009416640353e+02
2.490547920542519195e-02 5.106676201075272274e+02
2.500550121026625522e-02 5.106590621376672061e+02
2.510552321510732196e-02 5.106505271353044577e+02
2.520554521994838870e-02 5.106420152035515230e+02
2.530556722478945197e-02 5.106335264454103253e+02
2.540558922963051525e-02 5.106250609637728530e+02
2.550561123447158199e-02 5.106166188614151906e+02
2.560563323931264873e-02 5.106082002409979737e+02
2.570565524415371200e-02 5.105998052050634897e+02
2.580567724899477874e-02 5.105914338560314718e+02
2.590569925383583855e-02 5.105830862962005767e+02
2.600572125867690529e-02 5.105747626277428139e+02
2.610574326351797203e-02 5.105664629527029774e+02
2.620576526835903877e-02 5.105581873729952349e+02
2.630578727320010551e-02 5.105499359904017638e+02
2.640580927804116532e-02 5.105417089065703635e+02
2.650583128288223206e-02 5.105335062230117842e+02
2.660585328772329533e-02 5.105253280410974526e+02
2.670587529256436207e-02 5.105171744620582786e+02
2.680589729740542881e-02 5.105090455869789139e+02
2.690591930224649209e-02 5.105009415168005944e+02
2.700594130708755536e-02 5.104928623523144324e+02
2.710596331192862210e-02 5.104848081941616442e+02
2.720598531676968884e-02 5.104767791428294004e+02
2.730600732161075211e-02 5.104687752986502005e+02
2.740602932645181539e-02 5.104607967617979511e+02
2.750605133129288213e-02 5.104528436322876246e+02
2.760607333613394887e-02 5.104449160099703704e+02
2.770609534097501214e-02 5.104370139945330607e+02
2.780611734581607888e-02 5.104291376854954478e+02
2.790613935065714563e-02 5.104212871822069815e+02
2.800616135549820543e-02 5.104134625838460124e+02
2.810618336033927217e-02 5.104056639894163254e+02
2.820620536518033891e-02 5.103978914977443537e+02
2.830622737002140565e-02 5.103901452074775875e+02
2.840624937486246893e-02 5.103824252170826412e+02
2.850627137970353220e-02 5.103747316248420702e+02
2.860629338454459547e-02 5.103670645288515857e+02
2.870631538938566221e-02 5.103594240270184628e+02
2.880633739422672895e-02 5.103518102170588122e+02
2.890635939906779570e-02 5.103442231964955909e+02
2.900638140390885550e-02 5.103366630626547931e+02
2.910640340874992224e-02 5.103291299126664171e+02
2.920642541359098898e-02 5.103216238434564502e+02
2.930644741843205225e-02 5.103141449517507908e+02
2.940646942327311900e-02 5.103066933340670630e+02
2.950649142811418227e-02 5.102992690867170609e+02
2.960651343295524901e-02 5.102918723058007231e+02
2.970653543779631228e-02 5.102845030872054508e+02
2.980655744263737902e-02 5.102771615266040612e+02
2.990657944747844577e-02 5.102698477194506950e+02
3.000660145231950557e-02 5.102625617609788264e+02
3.010662345716057231e-02 5.102553037462002408e+02
3.020664546200163905e-02 5.102480737699020210e+02
3.030666746684270579e-02 5.102408719266423418e+02
3.040668947168376907e-02 5.102336983107497304e+02
3.050671147652483234e-02 5.102265530163217022e+02
3.060673348136589561e-02 5.102194361372181675e+02
3.070675548620696235e-02 5.102123477670641023e+02
3.080677749104802909e-02 5.102052879992433532e+02
3.090679949588909584e-02 5.101982569268976704e+02
3.100682150073015564e-02 5.101912546429233544e+02
3.110684350557122238e-02 5.101842812399706872e+02
3.120686551041228912e-02 5.101773368104393853e+02
3.130688751525335239e-02 5.101704214464776896e+02
3.140690952009442261e-02 5.101635352399772501e+02
3.150693152493547894e-02 5.101566782825752284e+02
3.160695352977654915e-02 5.101498506656468521e+02
3.170697553461761242e-02 5.101430524803068920e+02
3.180699753945867569e-02 5.101362838174038643e+02
3.190701954429974591e-02 5.101295447675197465e+02
3.200704154914080918e-02 5.101228354209681584e+02
3.210706355398187245e-02 5.101161558677888479e+02
3.220708555882293572e-02 5.101095061977479759e+02
3.230710756366400593e-02 5.101028865003339092e+02
3.240712956850506921e-02 5.100962968647566527e+02
3.250715157334613248e-02 5.100897373799423917e+02
3.260717357818719575e-02 5.100832081345342885e+02
3.270719558302826596e-02 5.100767092168881049e+02
3.280721758786932923e-02 5.100702407150690760e+02
3.290723959271039251e-02 5.100638027168512849e+02
3.300726159755146272e-02 5.100573953097141384e+02
3.310728360239252599e-02 5.100510185808402639e+02
3.320730560723358926e-02 5.100446726171119849e+02
3.330732761207465253e-02 5.100383575051096159e+02
3.340734961691572275e-02 5.100320733311100980e+02
3.350737162175678602e-02 5.100258201810817695e+02
3.360739362659784929e-02 5.100195981406846499e+02
3.370741563143891256e-02 5.100134072952650968e+02
3.380743763627998277e-02 5.100072477298571698e+02
3.390745964112104605e-02 5.100011195291753552e+02
3.400748164596210932e-02 5.099950227776171232e+02
3.410750365080317259e-02 5.099889575592558231e+02
3.420752565564423586e-02 5.099829239578409670e+02
3.430754766048530607e-02 5.099769220567949333e+02
3.440756966532636935e-02 5.099709519392109769e+02
3.450759167016743956e-02 5.099650136878499325e+02
3.460761367500849589e-02 5.099591073851374858e+02
3.470763567984956610e-02 5.099532331131633214e+02
3.480765768469062937e-02 5.099473909536767451e+02
3.490767968953169265e-02 5.099415809880849793e+02
3.500770169437276286e-02 5.099358032974520256e+02
3.510772369921381919e-02 5.099300579624924126e+02
3.520774570405488940e-02 5.099243450635732415e+02
3.530776770889595267e-02 5.099186646807082184e+02
3.540778971373702289e-02 5.099130168935581082e+02
3.550781171857808616e-02 5.099074017814245963e+02
3.560783372341914943e-02 5.099018194232514247e+02
3.570785572826021270e-02 5.098962698976192769e+02
3.580787773310127597e-02 5.098907532827452087e+02
3.590789973794234619e-02 5.098852696564788403e+02
3.600792174278340946e-02 5.098798190963000252e+02
3.610794374762447273e-02 5.098744016793174865e+02
3.620796575246553600e-02 5.098690174822647805e+02
3.630798775730660621e-02 5.098636665814990465e+02
3.640800976214766949e-02 5.098583490529973687e+02
3.650803176698873276e-02 5.098530649723559804e+02
3.660805377182980297e-02 5.098478144147866260e+02
3.670807577667086624e-02 5.098425974551126956e+02
3.680809778151192951e-02 5.098374141677703619e+02
3.690811978635299279e-02 5.098322646268033509e+02
3.700814179119406300e-02 5.098271489058606676e+02
3.710816379603512627e-02 5.098220670781954027e+02
3.720818580087618954e-02 5.098170192166614925e+02
3.730820780571725281e-02 5.098120053937104785e+02
3.740822981055832303e-02 5.098070256813908259e+02
3.750825181539938630e-02 5.098020801513446258e+02
3.760827382024044957e-02 5.097971688748039014e+02
3.770829582508151284e-02 5.097922919225912324e+02
3.780831782992258305e-02 5.097874493651129910e+02
3.790833983476364633e-02 5.097826412723622980e+02
3.800836183960470960e-02 5.097778677139110073e+02
3.810838384444577981e-02 5.097731287589116960e+02
3.820840584928683614e-02 5.097684244760919228e+02
3.830842785412790635e-02 5.097637549337549672e+02
3.840844985896896963e-02 5.097591201997744292e+02
3.850847186381003984e-02 5.097545203415946276e+02
3.860849386865110311e-02 5.097499554262246875e+02
3.870851587349216638e-02 5.097454255202405307e+02
3.880853787833322965e-02 5.097409306897780539e+02
3.890855988317429293e-02 5.097364710005347206e+02
3.900858188801536314e-02 5.097320465177636493e+02
3.910860389285641947e-02 5.097276573062742386e+02
3.920862589769749662e-02 5.097233034304266539e+02
3.930864790253855295e-02 5.097189849541333615e+02
3.940866990737962317e-02 5.097147019408534447e+02
3.950869191222068644e-02 5.097104544535903301e+02
3.960871391706174971e-02 5.097062425548925830e+02
3.970873592190281992e-02 5.097020663068482236e+02
3.980875792674387625e-02 5.096979257710833053e+02
3.990877993158495340e-02 5.096938210087608923e+02
4.000880193642600974e-02 5.096897520805773070e+02
4.010882394126707301e-02 5.096857190467590613e+02
4.020884594610814322e-02 5.096817219670633108e+02
4.030886795094920649e-02 5.096777609007730234e+02
4.040888995579027670e-02 5.096738359066958424e+02
4.050891196063133304e-02 5.096699470431601640e+02
4.060893396547239631e-02 5.096660943680156493e+02
4.070895597031346652e-02 5.096622779386290176e+02
4.080897797515452979e-02 5.096584978118811478e+02
4.090899997999560000e-02 5.096547540441669071e+02
4.100902198483666328e-02 5.096510466913909454e+02
4.110904398967772655e-02 5.096473758089657622e+02
4.120906599451878982e-02 5.096437414518111382e+02
4.130908799935985309e-02 5.096401436743495310e+02
4.140911000420092331e-02 5.096365825305050521e+02
4.150913200904198658e-02 5.096330580737009655e+02
4.160915401388304985e-02 5.096295703568576982e+02
4.170917601872412006e-02 5.096261194323900554e+02
4.180919802356518333e-02 5.096227053522056281e+02
4.190922002840624661e-02 5.096193281677014966e+02
4.200924203324730988e-02 5.096159879297644011e+02
4.210926403808837315e-02 5.096126846887647162e+02
4.220928604292944336e-02 5.096094184945580992e+02
4.230930804777050663e-02 5.096061893964808291e+02
4.240933005261157684e-02 5.096029974433486700e+02
4.250935205745264012e-02 5.095998426834540851e+02
4.260937406229369645e-02 5.095967251645646456e+02
4.270939606713476666e-02 5.095936449339204160e+02
4.280941807197582993e-02 5.095906020382327029e+02
4.290944007681690014e-02 5.095875965236802472e+02
4.300946208165796342e-02 5.095846284359081437e+02
4.310948408649901975e-02 5.095816978200259086e+02
4.320950609134009690e-02 5.095788047206057172e+02
4.330952809618115323e-02 5.095759491816775721e+02
4.340955010102222345e-02 5.095731312467308385e+02
4.350957210586328672e-02 5.095703509587105486e+02
4.360959411070434999e-02 5.095676083600141055e+02
4.370961611554542020e-02 5.095649034924912257e+02
4.380963812038647653e-02 5.095622363974406426e+02
4.390966012522755368e-02 5.095596071156093672e+02
4.400968213006861002e-02 5.095570156871881409e+02
4.410970413490967329e-02 5.095544621518116060e+02
4.420972613975074350e-02 5.095519465485553496e+02
4.430974814459180677e-02 5.095494689159343693e+02
4.440977014943287698e-02 5.095470292919003441e+02
4.450979215427393332e-02 5.095446277138406685e+02
4.460981415911499659e-02 5.095422642185750419e+02
4.470983616395606680e-02 5.095399388423542746e+02
4.480985816879713007e-02 5.095376516208593216e+02
4.490988017363820028e-02 5.095354025891965648e+02
4.500990217847926356e-02 5.095331917818989496e+02
4.510992418332032683e-02 5.095310192329217216e+02
4.520994618816139010e-02 5.095288849756416880e+02
4.530996819300245337e-02 5.095267890428544888e+02
4.540999019784352358e-02 5.095247314667744831e+02
4.551001220268458686e-02 5.095227122790292356e+02
4.561003420752565013e-02 5.095207315106619035e+02
4.571005621236672034e-02 5.095187891921260643e+02
4.581007821720778361e-02 5.095168853532850903e+02
4.591010022204884689e-02 5.095150200234114095e+02
4.601012222688991016e-02 5.095131932311820719e+02
4.611014423173097343e-02 5.095114050046784087e+02
4.621016623657204364e-02 5.095096553713843832e+02
4.631018824141310691e-02 5.095079443581848295e+02
4.641021024625417712e-02 5.095062719913624392e+02
4.651023225109524040e-02 5.095046382965969087e+02
4.661025425593629673e-02 5.095030432989635756e+02
4.671027626077736694e-02 5.095014870229296093e+02
4.681029826561843021e-02 5.094999694923553761e+02
4.691032027045950042e-02 5.094984907304890953e+02
4.701034227530056370e-02 5.094970507599686016e+02
4.711036428014163391e-02 5.094956496028170250e+02
4.721038628498269718e-02 5.094942872804414833e+02
4.731040828982375351e-02 5.094929638136330823e+02
4.741043029466482372e-02 5.094916792225619133e+02
4.751045229950588700e-02 5.094904335267799524e+02
4.761047430434695721e-02 5.094892267452148076e+02
4.771049630918802048e-02 5.094880588961708554e+02
4.781051831402907681e-02 5.094869299973263423e+02
4.791054031887015396e-02 5.094858400657321909e+02
4.801056232371121030e-02 5.094847891178107488e+02
4.811058432855228051e-02 5.094837771693527202e+02
4.821060633339334378e-02 5.094828042355182447e+02
4.831062833823440705e-02 5.094818703308314980e+02
4.841065034307547726e-02 5.094809754691830221e+02
4.851067234791653360e-02 5.094801196638249507e+02
4.861069435275761075e-02 5.094793029273712364e+02
4.871071635759866708e-02 5.094785252717966273e+02
4.881073836243973035e-02 5.094777867084331433e+02
4.891076036728080056e-02 5.094770872479686545e+02
4.901078237212186384e-02 5.094764269004490984e+02
4.911080437696293405e-02 5.094758056752713173e+02
4.921082638180399038e-02 5.094752235811861283e+02
4.931084838664505365e-02 5.094746806262939458e+02
4.941087039148612386e-02 5.094741768180463168e+02
4.951089239632718714e-02 5.094737121632408048e+02
4.961091440116825735e-02 5.094732866680217285e+02
4.971093640600932062e-02 5.094729003378794232e+02
4.981095841085038389e-02 5.094725531776473986e+02
4.991098041569144717e-02 5.094722451915008605e+02
5.001100242053251044e-02 5.094719763829567682e+02
5.011102442537358065e-02 5.094717467548704235e+02
5.021104643021464392e-02 5.094715563094366644e+02
5.031106843505570719e-02 5.094714050481858294e+02
5.041109043989677740e-02 5.094712929719838712e+02
5.051111244473784068e-02 5.094712200810321292e+02
5.061113444957890395e-02 5.094711863748631231e+02
5.071115645441996722e-02 5.094711918523417467e+02
5.081117845926103049e-02 5.094712365116642445e+02
5.091120046410210070e-02 5.094713203503534942e+02
5.101122246894316398e-02 5.094714433652623029e+02
5.111124447378423419e-02 5.094716055525694287e+02
5.121126647862529746e-02 5.094718069077785572e+02
5.131128848346635379e-02 5.094720474257177329e+02
5.141131048830742400e-02 5.094723271005383367e+02
5.151133249314848728e-02 5.094726459257133797e+02
5.161135449798955749e-02 5.094730038940370491e+02
5.171137650283062076e-02 5.094734009976215248e+02
5.181139850767167709e-02 5.094738372278998781e+02
5.191142051251275424e-02 5.094743125756199333e+02
5.201144251735381058e-02 5.094748270308471660e+02
5.211146452219488079e-02 5.094753805829622024e+02
5.221148652703594406e-02 5.094759732206596823e+02
5.231150853187700733e-02 5.094766049319470653e+02
5.241153053671807754e-02 5.094772757041433238e+02
5.251155254155913388e-02 5.094779855238791697e+02
5.261157454640021103e-02 5.094787343770960888e+02
5.271159655124126736e-02 5.094795222490428159e+02
5.281161855608233063e-02 5.094803491242770406e+02
5.291164056092340084e-02 5.094812149866637583e+02
5.301166256576446412e-02 5.094821198193735654e+02
5.311168457060553433e-02 5.094830636048831138e+02
5.321170657544659066e-02 5.094840463249722688e+02
5.331172858028765393e-02 5.094850679607256438e+02
5.341175058512872414e-02 5.094861284925297014e+02
5.351177258996978742e-02 5.094872279000721846e+02
5.361179459481085763e-02 5.094883661623427429e+02
5.371181659965192090e-02 5.094895432576308849e+02
5.381183860449298417e-02 5.094907591635240465e+02
5.391186060933404744e-02 5.094920138569110009e+02
5.401188261417511072e-02 5.094933073139749240e+02
5.411190461901618093e-02 5.094946395101981125e+02
5.421192662385724420e-02 5.094960104203577202e+02
5.431194862869830747e-02 5.094974200185281461e+02
5.441197063353937768e-02 5.094988682780767704e+02
5.451199263838044096e-02 5.095003551716662855e+02
5.461201464322150423e-02 5.095018806712515129e+02
5.471203664806256750e-02 5.095034447480815061e+02
5.481205865290363077e-02 5.095050473726964810e+02
5.491208065774470098e-02 5.095066885149278733e+02
5.501210266258576426e-02 5.095083681438995313e+02
5.511212466742683447e-02 5.095100862280237379e+02
5.521214667226789774e-02 5.095118427350035404e+02
5.531216867710895407e-02 5.095136376318315570e+02
5.541219068195002428e-02 5.095154708847874190e+02
5.551221268679108756e-02 5.095173424594403855e+02
5.561223469163215777e-02 5.095192523206466717e+02
5.571225669647322104e-02 5.095212004325497901e+02
5.581227870131429125e-02 5.095231867585803229e+02
5.591230070615535452e-02 5.095252112614543307e+02
5.601232271099641086e-02 5.095272739031734091e+02
5.611234471583748107e-02 5.095293746450256549e+02
5.621236672067854434e-02 5.095315134475836203e+02
5.631238872551961455e-02 5.095336902707035733e+02
5.641241073036067782e-02 5.095359050735276014e+02
5.651243273520173416e-02 5.095381578144803143e+02
5.661245474004281131e-02 5.095404484512708336e+02
5.671247674488386764e-02 5.095427769408910308e+02
5.681249874972493785e-02 5.095451432396154132e+02
5.691252075456600112e-02 5.095475473030016360e+02
5.701254275940706440e-02 5.095499890858902745e+02
5.711256476424813461e-02 5.095524685424029485e+02
5.721258676908919094e-02 5.095549856259442549e+02
5.731260877393026809e-02 5.095575402891997783e+02
5.741263077877132442e-02 5.095601324841372275e+02
5.751265278361238770e-02 5.095627621620055834e+02
5.761267478845345791e-02 5.095654292733354396e+02
5.771269679329452118e-02 5.095681337679383205e+02
5.781271879813559139e-02 5.095708755949058286e+02
5.791274080297664772e-02 5.095736547026124867e+02
5.801276280781771100e-02 5.095764710387126115e+02
5.811278481265878121e-02 5.095793245501406545e+02
5.821280681749984448e-02 5.095822151831137035e+02
5.831282882234091469e-02 5.095851428831280714e+02
5.841285082718197796e-02 5.095881075949615706e+02
5.851287283202304124e-02 5.095911092626722052e+02
5.861289483686410451e-02 5.095941478296007290e+02
5.871291684170516778e-02 5.095972232383662117e+02
5.881293884654623799e-02 5.096003354308704729e+02
5.891296085138730126e-02 5.096034843482955807e+02
5.901298285622836454e-02 5.096066699311058414e+02
5.911300486106943475e-02 5.096098921190462079e+02
5.921302686591049802e-02 5.096131508511426205e+02
5.931304887075156129e-02 5.096164460657041673e+02
5.941307087559262456e-02 5.096197777003204124e+02
5.951309288043368784e-02 5.096231456918637832e+02
5.961311488527475805e-02 5.096265499764884908e+02
5.971313689011582132e-02 5.096299904896324620e+02
5.981315889495689153e-02 5.096334671660158619e+02
5.991318089979795480e-02 5.096369799396408666e+02
6.001320290463901114e-02 5.096405287437947322e+02
6.011322490948008135e-02 5.096441135110477489e+02
6.021324691432114462e-02 5.096477341732550030e+02
6.031326891916221483e-02 5.096513906615547285e+02
6.041329092400327810e-02 5.096550829063706374e+02
6.051331292884433444e-02 5.096588108374128865e+02
6.061333493368541159e-02 5.096625743836760876e+02
6.071335693852646792e-02 5.096663734734407853e+02
6.081337894336753813e-02 5.096702080342755039e+02
6.091340094820860140e-02 5.096740779930341887e+02
6.101342295304966468e-02 5.096779832758594466e+02
6.111344495789073489e-02 5.096819238081825461e+02
6.121346696273179122e-02 5.096858995147218820e+02
6.131348896757286837e-02 5.096899103194858753e+02
6.141351097241392470e-02 5.096939561457738819e+02
6.151353297725498798e-02 5.096980369161731232e+02
6.161355498209605819e-02 5.097021525525644279e+02
6.171357698693712146e-02 5.097063029761179678e+02
6.181359899177819167e-02 5.097104881072982039e+02
6.191362099661924800e-02 5.097147078658623514e+02
6.201364300146031128e-02 5.097189621708599248e+02
6.211366500630138149e-02 5.097232509406360350e+02
6.221368701114244476e-02 5.097275740928311620e+02
6.231370901598351497e-02 5.097319315443807568e+02
6.241373102082457824e-02 5.097363232115176856e+02
6.251375302566564152e-02 5.097407490097724008e+02
6.261377503050670479e-02 5.097452088539736792e+02
6.271379703534776806e-02 5.097497026582486228e+02
6.281381904018884521e-02 5.097542303360249321e+02
6.291384104502989461e-02 5.097587918000313039e+02
6.301386304987095788e-02 5.097633869622992506e+02
6.311388505471203503e-02 5.097680157341602580e+02
6.321390705955309830e-02 5.097726780262522652e+02
6.331392906439416157e-02 5.097773737485164247e+02
6.341395106923522484e-02 5.097821028101994330e+02
6.351397307407628812e-02 5.097868651198557473e+02
6.361399507891735139e-02 5.097916605853461647e+02
6.371401708375841466e-02 5.097964891138399253e+02
6.381403908859949181e-02 5.098013506118178384e+02
6.391406109344055508e-02 5.098062449850702933e+02
6.401408309828161836e-02 5.098111721386983390e+02
6.411410510312268163e-02 5.098161319771185163e+02
6.421412710796374490e-02 5.098211244040592192e+02
6.431414911280480817e-02 5.098261493225658114e+02
6.441417111764587144e-02 5.098312066349993756e+02
6.451419312248694860e-02 5.098362962430387597e+02
6.461421512732801187e-02 5.098414180476817137e+02
6.471423713216907514e-02 5.098465719492469361e+02
6.481425913701013841e-02 5.098517578473723120e+02
6.491428114185120168e-02 5.098569756410208242e+02
6.501430314669226496e-02 5.098622252284783940e+02
6.511432515153332823e-02 5.098675065073557562e+02
6.521434715637439150e-02 5.098728193745910175e+02
6.531436916121546865e-02 5.098781637264505662e+02
6.541439116605653192e-02 5.098835394585291851e+02
6.551441317089759520e-02 5.098889464657528379e+02
6.561443517573865847e-02 5.098943846423794639e+02
6.571445718057972174e-02 5.098998538820019917e+02
6.581447918542078501e-02 5.099053540775456668e+02
6.591450119026184828e-02 5.099108851212750437e+02
6.601452319510292543e-02 5.099164469047917692e+02
6.611454519994398871e-02 5.099220393190364575e+02
6.621456720478505198e-02 5.099276622542913060e+02
6.631458920962611525e-02 5.099333156001814586e+02
6.641461121446717852e-02 5.099389992456759160e+02
6.651463321930824180e-02 5.099447130790900360e+02
6.661465522414930507e-02 5.099504569880865006e+02
6.671467722899036834e-02 5.099562308596759408e+02
6.681469923383144549e-02 5.099620345802217116e+02
6.691472123867250876e-02 5.099678680354376752e+02
6.701474324351357204e-02 5.099737311103940556e+02
6.711476524835463531e-02 5.099796236895151083e+02
6.721478725319569858e-02 5.099855456565836676e+02
6.731480925803676185e-02 5.099914968947412035e+02
6.741483126287782512e-02 5.099974772864906072e+02
6.751485326771890227e-02 5.100034867136986350e+02
6.761487527255996555e-02 5.100095250575954537e+02
6.771489727740101494e-02 5.100155921987785632e+02
6.781491928224209209e-02 5.100216880172142169e+02
6.791494128708315536e-02 5.100278123922374789e+02
6.801496329192421864e-02 5.100339652025577948e+02
6.811498529676528191e-02 5.100401463262576272e+02
6.821500730160634518e-02 5.100463556407952979e+02
6.831502930644742233e-02 5.100525930230082281e+02
6.841505131128847172e-02 5.100588583491119152e+02
6.851507331612954887e-02 5.100651514947064697e+02
6.861509532097061215e-02 5.100714723347738868e+02
6.871511732581167542e-02 5.100778207436833895e+02
6.881513933065273869e-02 5.100841965951921679e+02
6.891516133549380196e-02 5.100905997624474253e+02
6.901518334033487911e-02 5.100970301179886519e+02
6.911520534517592851e-02 5.101034875337500125e+02
6.921522735001699178e-02 5.101099718810619379e+02
6.931524935485806893e-02 5.101164830306539102e+02
6.941527135969913220e-02 5.101230208526552588e+02
6.951529336454019548e-02 5.101295852166000486e+02
6.961531536938125875e-02 5.101361759914261143e+02
6.971533737422232202e-02 5.101427930454805164e+02
6.981535937906338529e-02 5.101494362465178369e+02
6.991538138390444856e-02 5.101561054617062609e+02
7.001540338874552571e-02 5.101628005576283726e+02
7.011542539358658899e-02 5.101695214002820649e+02
7.021544739842763838e-02 5.101762678550859960e+02
7.031546940326871553e-02 5.101830397868786235e+02
7.041549140810977880e-02 5.101898370599218424e+02
7.051551341295084208e-02 5.101966595379059299e+02
7.061553541779190535e-02 5.102035070839470450e+02
7.071555742263296862e-02 5.102103795605939922e+02
7.081557942747404577e-02 5.102172768298269148e+02
7.091560143231509517e-02 5.102241987530640017e+02
7.101562343715617232e-02 5.102311451911604649e+02
7.111564544199723559e-02 5.102381160044117792e+02
7.121566744683829886e-02 5.102451110525580589e+02
7.131568945167936213e-02 5.102521301947842858e+02
7.141571145652042540e-02 5.102591732897237193e+02
7.151573346136150255e-02 5.102662401954619327e+02
7.161575546620255195e-02 5.102733307695360168e+02
7.171577747104361522e-02 5.102804448689411174e+02
7.181579947588469237e-02 5.102875823501286732e+02
7.191582148072575564e-02 5.102947430690141459e+02
7.201584348556681892e-02 5.103019268809753157e+02
7.211586549040788219e-02 5.103091336408585335e+02
7.221588749524894546e-02 5.103163632029776409e+02
7.231590950009000873e-02 5.103236154211190865e+02
7.241593150493107200e-02 5.103308901485455635e+02
7.251595350977214915e-02 5.103381872379960669e+02
7.261597551461321243e-02 5.103455065416908951e+02
7.271599751945427570e-02 5.103528479113330718e+02
7.281601952429533897e-02 5.103602111981113012e+02
7.291604152913640224e-02 5.103675962527044021e+02
7.301606353397746552e-02 5.103750029252818763e+02
7.311608553881852879e-02 5.103824310655088539e+02
7.321610754365960594e-02 5.103898805225464912e+02
7.331612954850066921e-02 5.103973511450577689e+02
7.341615155334173248e-02 5.104048427812078899e+02
7.351617355818279576e-02 5.104123552786697928e+02
7.361619556302385903e-02 5.104198884846234705e+02
7.371621756786492230e-02 5.104274422457631317e+02
7.381623957270598557e-02 5.104350164082970309e+02
7.391626157754704884e-02 5.104426108179518451e+02
7.401628358238812599e-02 5.104502253199748338e+02
7.411630558722918927e-02 5.104578597591390690e+02
7.421632759207025254e-02 5.104655139797438892e+02
7.431634959691131581e-02 5.104731878256185382e+02
7.441637160175237908e-02 5.104808811401262574e+02
7.451639360659344236e-02 5.104885937661679236e+02
7.461641561143450563e-02 5.104963255461822200e+02
7.471643761627558278e-02 5.105040763221521729e+02
7.481645962111664605e-02 5.105118459356056633e+02
7.491648162595770932e-02 5.105196342276208270e+02
7.501650363079877259e-02 5.105274410388274191e+02
7.511652563563983587e-02 5.105352662094106790e+02
7.521654764048089914e-02 5.105431095791161056e+02
7.531656964532196241e-02 5.105509709872498547e+02
7.541659165016302568e-02 5.105588502726834008e+02
7.551661365500410283e-02 5.105667472738580273e+02
7.561663565984516611e-02 5.105746618287859633e+02
7.571665766468622938e-02 5.105825937750543062e+02
7.581667966952729265e-02 5.105905429498301373e+02
7.591670167436835592e-02 5.105985091898605788e+02
7.601672367920941920e-02 5.106064923314805242e+02
7.611674568405048247e-02 5.106144922106107060e+02
7.621676768889155962e-02 5.106225086627652558e+02
7.631678969373262289e-02 5.106305415230544327e+02
7.641681169857367228e-02 5.106385906261861010e+02
7.651683370341474943e-02 5.106466558064714150e+02
7.661685570825581271e-02 5.106547368978257282e+02
7.671687771309687598e-02 5.106628337337756420e+02
7.681689971793793925e-02 5.106709461474590626e+02
7.691692172277900252e-02 5.106790739716302596e+02
7.701694372762007967e-02 5.106872170386646985e+02
7.711696573246112907e-02 5.106953751805585853e+02
7.721698773730220622e-02 5.107035482289363699e+02
7.731700974214326949e-02 5.107117360150539866e+02
7.741703174698433276e-02 5.107199383697986264e+02
7.751705375182539604e-02 5.107281551236972064e+02
7.761707575666645931e-02 5.107363861069173936e+02
7.771709776150753646e-02 5.107446311492707878e+02
7.781711976634858585e-02 5.107528900802182648e+02
7.791714177118964912e-02 5.107611627288716249e+02
7.801716377603072627e-02 5.107694489240006419e+02
7.811718578087178955e-02 5.107777484940314707e+02
7.821720778571283894e-02 5.107860612670564251e+02
7.831722979055391609e-02 5.107943870708311351e+02
7.841725179539499324e-02 5.108027257327860866e+02
7.851727380023604264e-02 5.108110770800219598e+02
7.861729580507710591e-02 5.108194409393202022e+02
7.871731780991818306e-02 5.108278171371426879e+02
7.881733981475924633e-02 5.108362054996374582e+02
7.891736181960029572e-02 5.108446058526414504e+02
7.901738382444137287e-02 5.108530180216851022e+02
7.911740582928245002e-02 5.108614418319959896e+02
7.921742783412349942e-02 5.108698771085019530e+02
7.931744983896456269e-02 5.108783236758357589e+02
7.941747184380563984e-02 5.108867813583391921e+02
7.951749384864668924e-02 5.108952499800661258e+02
7.961751585348775251e-02 5.109037293647864999e+02
7.971753785832882966e-02 5.109122193359896755e+02
7.981755986316990681e-02 5.109207197168915968e+02
7.991758186801095620e-02 5.109292303304336542e+02
8.001760387285201948e-02 5.109377509992909836e+02
8.011762587769309663e-02 5.109462815458729210e+02
8.021764788253414602e-02 5.109548217923307902e+02
8.031766988737520929e-02 5.109633715605578459e+02
8.041769189221628644e-02 5.109719306721965495e+02
8.051771389705733584e-02 5.109804989486401041e+02
8.061773590189841299e-02 5.109890762110389346e+02
8.071775790673947626e-02 5.109976622803023361e+02
8.081777991158055341e-02 5.110062569771036465e+02
8.091780191642160280e-02 5.110148601218842259e+02
8.101782392126266608e-02 5.110234715348582313e+02
8.111784592610374323e-02 5.110320910360146058e+02
8.121786793094479262e-02 5.110407184451239573e+02
8.131788993578586977e-02 5.110493535817403199e+02
8.141791194062693304e-02 5.110579962652051904e+02
8.151793394546799632e-02 5.110666463146549745e+02
8.161795595030905959e-02 5.110753035490211005e+02
8.171797795515012286e-02 5.110839677870353626e+02
8.181799995999120001e-02 5.110926388472366853e+02
8.191802196483224940e-02 5.111013165479703275e+02
8.201804396967332655e-02 5.111100007073976030e+02
8.211806597451438983e-02 5.111186911434945159e+02
8.221808797935545310e-02 5.111273876740609694e+02
8.231810998419651637e-02 5.111360901167217889e+02
8.241813198903757964e-02 5.111447982889314972e+02
8.251815399387864292e-02 5.111535120079801118e+02
8.261817599871970619e-02 5.111622310909950215e+02
8.271819800356078334e-02 5.111709553549471821e+02
8.281822000840184661e-02 5.111796846166540718e+02
8.291824201324290988e-02 5.111884186927852625e+02
8.301826401808397315e-02 5.111971573998652048e+02
8.311828602292503643e-02 5.112059005542779460e+02
8.321830802776609970e-02 5.112146479722728145e+02
8.331833003260716297e-02 5.112233994699670347e+02
8.341835203744824012e-02 5.112321548633502175e+02
8.351837404228928952e-02 5.112409139682896466e+02
8.361839604713036667e-02 5.112496766005335758e+02
8.371841805197142994e-02 5.112584425757169697e+02
8.381844005681249321e-02 5.112672117093637212e+02
8.391846206165355648e-02 5.112759838168931310e+02
8.401848406649461976e-02 5.112847587136233756e+02
8.411850607133569691e-02 5.112935362147749174e+02
8.421852807617674630e-02 5.113023161354763602e+02
8.431855008101782345e-02 5.113110982907694506e+02
8.441857208585888672e-02 5.113198824956100452e+02
8.451859409069993612e-02 5.113286685648772618e+02
8.461861609554101327e-02 5.113374563133734796e+02
8.471863810038207654e-02 5.113462455558314446e+02
8.481866010522315369e-02 5.113550361069191013e+02
8.491868211006420308e-02 5.113638277812407864e+02
8.501870411490528023e-02 5.113726203933453576e+02
8.511872611974634351e-02 5.113814137577293195e+02
8.521874812458739290e-02 5.113902076888391548e+02
8.531877012942847005e-02 5.113990020010804756e+02
8.541879213426953332e-02 5.114077965088171709e+02
8.551881413911061047e-02 5.114165910263797059e+02
8.561883614395165987e-02 5.114253853680685324e+02
8.571885814879273702e-02 5.114341793481577270e+02
8.581888015363380029e-02 5.114429727809002770e+02
8.591890215847484968e-02 5.114517654805331404e+02
8.601892416331592683e-02 5.114605572612803144e+02
8.611894616815699011e-02 5.114693479373584069e+02
8.621896817299803950e-02 5.114781373229809560e+02
8.631899017783911665e-02 5.114869252323633759e+02
8.641901218268019380e-02 5.114957114797255144e+02
8.651903418752125707e-02 5.115044958792992134e+02
8.661905619236230647e-02 5.115132782453310369e+02
8.671907819720338362e-02 5.115220583920865920e+02
8.681910020204444689e-02 5.115308361338561554e+02
8.691912220688549628e-02 5.115396112849578003e+02
8.701914421172657343e-02 5.115483836597443315e+02
8.711916621656765058e-02 5.115571530726053879e+02
8.721918822140869998e-02 5.115659193379730141e+02
8.731921022624976325e-02 5.115746822703267753e+02
8.741923223109084040e-02 5.115834416841980783e+02
8.751925423593190367e-02 5.115921973941728993e+02
8.761927624077295307e-02 5.116009492148999129e+02
8.771929824561403022e-02 5.116096969610920269e+02
8.781932025045510737e-02 5.116184404475325778e+02
8.791934225529615676e-02 5.116271794890796514e+02
8.801936426013722004e-02 5.116359139006701753e+02
8.811938626497829719e-02 5.116446434973250348e+02
8.821940826981934658e-02 5.116533680941529951e+02
8.831943027466040985e-02 5.116620875063577500e+02
8.841945227950148700e-02 5.116708015492382060e+02
8.851947428434256415e-02 5.116795100381974066e+02
8.861949628918361355e-02 5.116882127887445222e+02
8.871951829402467682e-02 5.116969096165003634e+02
8.881954029886575397e-02 5.117056003372030091e+02
8.891956230370680336e-02 5.117142847667089995e+02
8.901958430854786664e-02 5.117229627210030571e+02
8.911960631338894379e-02 5.117316340161989388e+02
8.921962831822999318e-02 5.117402984685445517e+02
8.931965032307107033e-02 5.117489558944280361e+02
8.941967232791213360e-02 5.117576061103820848e+02
8.951969433275321075e-02 5.117662489330866720e+02
8.961971633759426015e-02 5.117748841793765564e+02
8.971973834243532342e-02 5.117835116662441806e+02
8.981976034727640057e-02 5.117921312108439338e+02
8.991978235211744996e-02 5.118007426304989167e+02
9.001980435695852711e-02 5.118093457427027602e+02
9.011982636179959039e-02 5.118179403651272992e+02
9.021984836664065366e-02 5.118265263156254150e+02
9.031987037148171693e-02 5.118351034122340479e+02
9.041989237632278020e-02 5.118436714731840880e+02
9.051991438116385735e-02 5.118522303168993517e+02
9.061993638600490675e-02 5.118607797620044266e+02
9.071995839084598390e-02 5.118693196273280250e+02
9.081998039568704717e-02 5.118778497319099188e+02
9.092000240052811044e-02 5.118863698950018488e+02
9.102002440536917371e-02 5.118948799360750286e+02
9.112004641021023699e-02 5.119033796748240661e+02
9.122006841505130026e-02 5.119118689311716253e+02
9.132009041989236353e-02 5.119203475252735416e+02
9.142011242473344068e-02 5.119288152775212666e+02
9.152013442957450395e-02 5.119372720085499395e+02
9.162015643441556723e-02 5.119457175392401496e+02
9.172017843925663050e-02 5.119541516907247569e+02
9.182020044409769377e-02 5.119625742843920762e+02
9.192022244893875704e-02 5.119709851418905942e+02
9.202024445377982032e-02 5.119793840851350524e+02
9.212026645862089747e-02 5.119877709363096301e+02
9.222028846346194686e-02 5.119961455178719802e+02
9.232031046830302401e-02 5.120045076525615286e+02
9.242033247314408728e-02 5.120128571633988486e+02
9.252035447798515055e-02 5.120211938736940738e+02
9.262037648282621383e-02 5.120295176070512753e+02
9.272039848766727710e-02 5.120378281873710193e+02
9.282042049250835425e-02 5.120461254388569614e+02
9.292044249734940364e-02 5.120544091860199387e+02
9.302046450219048079e-02 5.120626792536817220e+02
9.312048650703154407e-02 5.120709354669814957e+02
9.322050851187259346e-02 5.120791776513777904e+02
9.332053051671367061e-02 5.120874056326566688e+02
9.342055252155473388e-02 5.120956192369325208e+02
9.352057452639581103e-02 5.121038182906552265e+02
9.362059653123686043e-02 5.121120026206147031e+02
9.372061853607793758e-02 5.121201720539438611e+02
9.382064054091900085e-02 5.121283264181245158e+02
9.392066254576005024e-02 5.121364655409921625e+02
9.402068455060112739e-02 5.121445892507392728e+02
9.412070655544219067e-02 5.121526973759214343e+02
9.422072856028326782e-02 5.121607897454603062e+02
9.432075056512431721e-02 5.121688661886502132e+02
9.442077256996539436e-02 5.121769265351608738e+02
9.452079457480645763e-02 5.121849706150425163e+02
9.462081657964750703e-02 5.121929982587315635e+02
9.472083858448858418e-02 5.122010092970524511e+02
9.482086058932964745e-02 5.122090035612262682e+02
9.492088259417069684e-02 5.122169808828714395e+02
9.502090459901177399e-02 5.122249410940103189e+02
9.512092660385285114e-02 5.122328840270726005e+02
9.522094860869391442e-02 5.122408095149019118e+02
9.532097061353496381e-02 5.122487173907579745e+02
9.542099261837604096e-02 5.122566074883220608e+02
9.552101462321710423e-02 5.122644796417012003e+02
9.562103662805815363e-02 5.122723336854336367e+02
9.572105863289923078e-02 5.122801694544929205e+02
9.582108063774030793e-02 5.122879867842916610e+02
9.592110264258135732e-02 5.122957855106864145e+02
9.602112464742242059e-02 5.123035654699823453e+02
9.612114665226349774e-02 5.123113264989378877e+02
9.622116865710456102e-02 5.123190684347690649e+02
9.632119066194561041e-02 5.123267911151527869e+02
9.642121266678668756e-02 5.123344943782342398e+02
9.652123467162776471e-02 5.123421780626275677e+02
9.662125667646881411e-02 5.123498420074231490e+02
9.672127868130987738e-02 5.123574860521904384e+02
9.682130068615095453e-02 5.123651100369838787e+02
9.692132269099200392e-02 5.123727138023451744e+02
9.702134469583306720e-02 5.123802971893102267e+02
9.712136670067414435e-02 5.123878600394112937e+02
9.722138870551522150e-02 5.123954021946829016e+02
9.732141071035627089e-02 5.124029234976653697e+02
9.742143271519733416e-02 5.124104237914086752e+02
9.752145472003841131e-02 5.124179029194787063e+02
9.762147672487946071e-02 5.124253607259606724e+02
9.772149872972052398e-02 5.124327970554621743e+02
9.782152073456160113e-02 5.124402117531185468e+02
9.792154273940265052e-02 5.124476046645985434e+02
9.802156474424372767e-02 5.124549756361063828e+02
9.812158674908479095e-02 5.124623245143867507e+02
9.822160875392586810e-02 5.124696511467300297e+02
9.832163075876691749e-02 5.124769553809751415e+02
9.842165276360798076e-02 5.124842370655155719e+02
9.852167476844905791e-02 5.124914960493006220e+02
9.862169677329010731e-02 5.124987321818451846e+02
9.872171877813118446e-02 5.125059453132265617e+02
9.882174078297224773e-02 5.125131352940952638e+02
9.892176278781331100e-02 5.125203019756747835e+02
9.902178479265437427e-02 5.125274452097690983e+02
9.912180679749543755e-02 5.125345648487635799e+02
9.922182880233651470e-02 5.125416607456327256e+02
9.932185080717756409e-02 5.125487327539409534e+02
9.942187281201864124e-02 5.125557807278491964e+02
9.952189481685970451e-02 5.125628045221179718e+02
9.962191682170076779e-02 5.125698039921115878e+02
9.972193882654183106e-02 5.125767789938025771e+02
9.982196083138289433e-02 5.125837293837754487e+02
9.992198283622395760e-02 5.125906550192314626e+02
1.000220048410650209e-01 5.125975557579907900e+02
1.001220268459060980e-01 5.126044314584993344e+02
1.002220488507471613e-01 5.126112819798318014e+02
1.003220708555882246e-01 5.126181071816941994e+02
1.004220928604292878e-01 5.126249069244291832e+02
1.005221148652703511e-01 5.126316810690209422e+02
1.006221368701114144e-01 5.126384294770974748e+02
1.007221588749524777e-01 5.126451520109355897e+02
1.008221808797935548e-01 5.126518485334639763e+02
1.009222028846346042e-01 5.126585189082688885e+02
1.010222248894756814e-01 5.126651629995966459e+02
1.011222468943167446e-01 5.126717806723576132e+02
1.012222688991578079e-01 5.126783717921312018e+02
1.013222909039988712e-01 5.126849362251680304e+02
1.014223129088399344e-01 5.126914738383969734e+02
1.015223349136810116e-01 5.126979844994236828e+02
1.016223569185220610e-01 5.127044680765400244e+02
1.017223789233631381e-01 5.127109244387251010e+02
1.018224009282042014e-01 5.127173534556501409e+02
1.019224229330452508e-01 5.127237549976798618e+02
1.020224449378863280e-01 5.127301289358808845e+02
1.021224669427273912e-01 5.127364751420208222e+02
1.022224889475684684e-01 5.127427934885748755e+02
1.023225109524095178e-01 5.127490838487283327e+02
1.024225329572505949e-01 5.127553460963823682e+02
1.025225549620916582e-01 5.127615801061533602e+02
1.026225769669327076e-01 5.127677857533816450e+02
1.027225989717737847e-01 5.127739629141329942e+02
1.028226209766148480e-01 5.127801114652015713e+02
1.029226429814559252e-01 5.127862312841140238e+02
1.030226649862969746e-01 5.127923222491342585e+02
1.031226869911380517e-01 5.127983842392659426e+02
1.032227089959791150e-01 5.128044171342569371e+02
1.033227310008201644e-01 5.128104208146019118e+02
1.034227530056612415e-01 5.128163951615458700e+02
1.035227750105023048e-01 5.128223400570899457e+02
1.036227970153433542e-01 5.128282553839920865e+02
1.037228190201844313e-01 5.128341410257720554e+02
1.038228410250255085e-01 5.128399968667139319e+02
1.039228630298665718e-01 5.128458227918731609e+02
1.040228850347076212e-01 5.128516186870734828e+02
1.041229070395486983e-01 5.128573844389164833e+02
1.042229290443897616e-01 5.128631199347827305e+02
1.043229510492308110e-01 5.128688250628343894e+02
1.044229730540718881e-01 5.128744997120201106e+02
1.045229950589129653e-01 5.128801437720775311e+02
1.046230170637540147e-01 5.128857571335362309e+02
1.047230390685950779e-01 5.128913396877228479e+02
1.048230610734361551e-01 5.128968913267634662e+02
1.049230830782772184e-01 5.129024119435853208e+02
1.050231050831182678e-01 5.129079014319229373e+02
1.051231270879593449e-01 5.129133596863194953e+02
1.052231490928004221e-01 5.129187866021308082e+02
1.053231710976414714e-01 5.129241820755282788e+02
1.054231931024825347e-01 5.129295460035031056e+02
1.055232151073236119e-01 5.129348782838669649e+02
1.056232371121646613e-01 5.129401788152584913e+02
1.057232591170057245e-01 5.129454474971443005e+02
1.058232811218468017e-01 5.129506842298228548e+02
1.059233031266878788e-01 5.129558889144259410e+02
1.060233251315289282e-01 5.129610614529260602e+02
1.061233471363699915e-01 5.129662017481343810e+02
1.062233691412110687e-01 5.129713097037076750e+02
1.063233911460521181e-01 5.129763852241489985e+02
1.064234131508931813e-01 5.129814282148114444e+02
1.065234351557342585e-01 5.129864385819015524e+02
1.066234571605753079e-01 5.129914162324828339e+02
1.067234791654163850e-01 5.129963610744769085e+02
1.068235011702574483e-01 5.130012730166678239e+02
1.069235231750985254e-01 5.130061519687047848e+02
1.070235451799395748e-01 5.130109978411048814e+02
1.071235671847806381e-01 5.130158105452560449e+02
1.072235891896217153e-01 5.130205899934195486e+02
1.073236111944627647e-01 5.130253360987338738e+02
1.074236331993038418e-01 5.130300487752164145e+02
1.075236552041449051e-01 5.130347279377672294e+02
1.076236772089859683e-01 5.130393735021704060e+02
1.077236992138270316e-01 5.130439853850984946e+02
1.078237212186680949e-01 5.130485635041143269e+02
1.079237432235091720e-01 5.130531077776744269e+02
1.080237652283502214e-01 5.130576181251300341e+02
1.081237872331912986e-01 5.130620944667318781e+02
1.082238092380323619e-01 5.130665367236316570e+02
1.083238312428734251e-01 5.130709448178847651e+02
1.084238532477144884e-01 5.130753186724526813e+02
1.085238752525555517e-01 5.130796582112075157e+02
1.086238972573966149e-01 5.130839633589311006e+02
1.087239192622376782e-01 5.130882340413197653e+02
1.088239412670787554e-01 5.130924701849874054e+02
1.089239632719198186e-01 5.130966717174659379e+02
1.090239852767608819e-01 5.131008385672107579e+02
1.091240072816019452e-01 5.131049706635986922e+02
1.092240292864430085e-01 5.131090679369347072e+02
1.093240512912840717e-01 5.131131303184530452e+02
1.094240732961251350e-01 5.131171577403177935e+02
1.095240953009662122e-01 5.131211501356284543e+02
1.096241173058072615e-01 5.131251074384186950e+02
1.097241393106483387e-01 5.131290295836621453e+02
1.098241613154894020e-01 5.131329165072709202e+02
1.099241833203304652e-01 5.131367681461031225e+02
1.100242053251715285e-01 5.131405844379588643e+02
1.101242273300125918e-01 5.131443653215870881e+02
1.102242493348536689e-01 5.131481107366865899e+02
1.103242713396947183e-01 5.131518206239061328e+02
1.104242933445357955e-01 5.131554949248502453e+02
1.105243153493768588e-01 5.131591335820785389e+02
1.106243373542179081e-01 5.131627365391085505e+02
1.107243593590589853e-01 5.131663037404182433e+02
1.108243813639000486e-01 5.131698351314480533e+02
1.109244033687411257e-01 5.131733306586014578e+02
1.110244253735821751e-01 5.131767902692491816e+02
1.111244473784232523e-01 5.131802139117298793e+02
1.112244693832643155e-01 5.131836015353528637e+02
1.113244913881053649e-01 5.131869530903979921e+02
1.114245133929464421e-01 5.131902685281203276e+02
1.115245353977875054e-01 5.131935478007510483e+02
1.116245574026285825e-01 5.131967908614979024e+02
1.117245794074696319e-01 5.131999976645486186e+02
1.118246014123107090e-01 5.132031681650735209e+02
1.119246234171517723e-01 5.132063023192240507e+02
1.120246454219928217e-01 5.132094000841370871e+02
1.121246674268338989e-01 5.132124614179374475e+02
1.122246894316749621e-01 5.132154862797357282e+02
1.123247114365160115e-01 5.132184746296351250e+02
1.124247334413570887e-01 5.132214264287295009e+02
1.125247554461981658e-01 5.132243416391048640e+02
1.126247774510392291e-01 5.132272202238439149e+02
1.127247994558802785e-01 5.132300621470242277e+02
1.128248214607213556e-01 5.132328673737223426e+02
1.129248434655624189e-01 5.132356358700139936e+02
1.130248654704034683e-01 5.132383676029752451e+02
1.131248874752445455e-01 5.132410625406862437e+02
1.132249094800856226e-01 5.132437206522297402e+02
1.133249314849266720e-01 5.132463419076942728e+02
1.134249534897677353e-01 5.132489262781748494e+02
1.135249754946088124e-01 5.132514737357751073e+02
1.136249974994498757e-01 5.132539842536077686e+02
1.137250195042909251e-01 5.132564578057963445e+02
1.138250415091320022e-01 5.132588943674765005e+02
1.139250635139730794e-01 5.132612939147973066e+02
1.140250855188141288e-01 5.132636564249218054e+02
1.141251075236551921e-01 5.132659818760297412e+02
1.142251295284962692e-01 5.132682702473173322e+02
1.143251515333373186e-01 5.132705215189984074e+02
1.144251735381783819e-01 5.132727356723066805e+02
1.145251955430194590e-01 5.132749126894968867e+02
1.146252175478605362e-01 5.132770525538434185e+02
1.147252395527015856e-01 5.132791552496444183e+02
1.148252615575426488e-01 5.132812207622214373e+02
1.149252835623837260e-01 5.132832490779200043e+02
1.150253055672247754e-01 5.132852401841112169e+02
1.151253275720658387e-01 5.132871940691928785e+02
1.152253495769069158e-01 5.132891107225898395e+02
1.153253715817479652e-01 5.132909901347561572e+02
1.154253935865890424e-01 5.132928322971730495e+02
1.155254155914301056e-01 5.132946372023527601e+02
1.156254375962711828e-01 5.132964048438389000e+02
1.157254596011122322e-01 5.132981352162048552e+02
1.158254816059532954e-01 5.132998283150581074e+02
1.159255036107943726e-01 5.133014841370377326e+02
1.160255256156354220e-01 5.133031026798171297e+02
1.161255476204764991e-01 5.133046839421036793e+02
1.162255696253175624e-01 5.133062279236396535e+02
1.163255916301586257e-01 5.133077346252039206e+02
1.164256136349996890e-01 5.133092040486098995e+02
1.165256356398407522e-01 5.133106361967090834e+02
1.166256576446818294e-01 5.133120310733899032e+02
1.167256796495228788e-01 5.133133886835780686e+02
1.168257016543639559e-01 5.133147090332380458e+02
1.169257236592050192e-01 5.133159921293727166e+02
1.170257456640460825e-01 5.133172379800244016e+02
1.171257676688871457e-01 5.133184465942740644e+02
1.172257896737282090e-01 5.133196179822438125e+02
1.173258116785692723e-01 5.133207521550953061e+02
1.174258336834103356e-01 5.133218491250303259e+02
1.175258556882514127e-01 5.133229089052923655e+02
1.176258776930924760e-01 5.133239315101648117e+02
1.177258996979335393e-01 5.133249169549736735e+02
1.178259217027746025e-01 5.133258652560850805e+02
1.179259437076156658e-01 5.133267764309080121e+02
1.180259657124567291e-01 5.133276504978920229e+02
1.181259877172977923e-01 5.133284874765303130e+02
1.182260097221388695e-01 5.133292873873558619e+02
1.183260317269799189e-01 5.133300502519450674e+02
1.184260537318209960e-01 5.133307760929162669e+02
1.185260757366620593e-01 5.133314649339296238e+02
1.186260977415031226e-01 5.133321167996872418e+02
1.187261197463441859e-01 5.133327317159333916e+02
1.188261417511852491e-01 5.133333097094545110e+02
1.189261637560263263e-01 5.133338508080778411e+02
1.190261857608673757e-01 5.133343550406736995e+02
1.191262077657084528e-01 5.133348224371528659e+02
1.192262297705495161e-01 5.133352530284671502e+02
1.193262517753905655e-01 5.133356468466095066e+02
1.194262737802316426e-01 5.133360039246153974e+02
1.195262957850727059e-01 5.133363242965577911e+02
1.196263177899137831e-01 5.133366079975528464e+02
1.197263397947548325e-01 5.133368550637542285e+02
1.198263617995959096e-01 5.133370655323561778e+02
1.199263838044369729e-01 5.133372394415920326e+02
1.200264058092780223e-01 5.133373768307334331e+02
1.201264278141190994e-01 5.133374777400904350e+02
1.202264498189601627e-01 5.133375422110108275e+02
1.203264718238012398e-01 5.133375702858792238e+02
1.204264938286422892e-01 5.133375620081177431e+02
1.205265158334833664e-01 5.133375174221835096e+02
1.206265378383244297e-01 5.133374365735699030e+02
1.207265598431654791e-01 5.133373195088048533e+02
1.208265818480065562e-01 5.133371662754507270e+02
1.209266038528476195e-01 5.133369769221030765e+02
1.210266258576886689e-01 5.133367514983906403e+02
1.211266478625297460e-01 5.133364900549744334e+02
1.212266698673708232e-01 5.133361926435463829e+02
1.213266918722118864e-01 5.133358593168283051e+02
1.214267138770529358e-01 5.133354901285730421e+02
1.215267358818940130e-01 5.133350851335611651e+02
1.216267578867350763e-01 5.133346443876023386e+02
1.217267798915761257e-01 5.133341679475323645e+02
1.218268018964172028e-01 5.133336558712127271e+02
1.219268239012582800e-01 5.133331082175313895e+02
1.220268459060993294e-01 5.133325250463999510e+02
1.221268679109403926e-01 5.133319064187521690e+02
1.222268899157814698e-01 5.133312523965460059e+02
1.223269119206225330e-01 5.133305630427573760e+02
1.224269339254635824e-01 5.133298384213846930e+02
1.225269559303046596e-01 5.133290785974440951e+02
1.226269779351457367e-01 5.133282836369694451e+02
1.227269999399867861e-01 5.133274536070105114e+02
1.228270219448278494e-01 5.133265885756326270e+02
1.229270439496689266e-01 5.133256886119153251e+02
1.230270659545099760e-01 5.133247537859506338e+02
1.231270879593510392e-01 5.133237841688403478e+02
1.232271099641921164e-01 5.133227798326993252e+02
1.233271319690331935e-01 5.133217408506479842e+02
1.234271539738742429e-01 5.133206672968152589e+02
1.235271759787153062e-01 5.133195592463365529e+02
1.236271979835563833e-01 5.133184167753499878e+02
1.237272199883974327e-01 5.133172399609978811e+02
1.238272419932384960e-01 5.133160288814237902e+02
1.239272639980795732e-01 5.133147836157703523e+02
1.240272860029206226e-01 5.133135042441790574e+02
1.241273080077616997e-01 5.133121908477875195e+02
1.242273300126027630e-01 5.133108435087290218e+02
1.243273520174438401e-01 5.133094623101300158e+02
1.244273740222848895e-01 5.133080473361084159e+02
1.245273960271259528e-01 5.133065986717726901e+02
1.246274180319670299e-01 5.133051164032189035e+02
1.247274400368080793e-01 5.133036006175298098e+02
1.248274620416491565e-01 5.133020514027741683e+02
1.249274840464902198e-01 5.133004688480015147e+02
1.250275060513312830e-01 5.132988530432437528e+02
1.251275280561723324e-01 5.132972040795119710e+02
1.252275500610134096e-01 5.132955220487948509e+02
1.253275720658544867e-01 5.132938070440551428e+02
1.254275940706955361e-01 5.132920591592310302e+02
1.255276160755366133e-01 5.132902784892299906e+02
1.256276380803776904e-01 5.132884651299302732e+02
1.257276600852187398e-01 5.132866191781774887e+02
1.258276820900597892e-01 5.132847407317821080e+02
1.259277040949008664e-01 5.132828298895179842e+02
1.260277260997419158e-01 5.132808867511204198e+02
1.261277481045829929e-01 5.132789114172836662e+02
1.262277701094240701e-01 5.132769039896584218e+02
1.263277921142651472e-01 5.132748645708496724e+02
1.264278141191061966e-01 5.132727932644158955e+02
1.265278361239472460e-01 5.132706901748642849e+02
1.266278581287883231e-01 5.132685554076523431e+02
1.267278801336293725e-01 5.132663890691802635e+02
1.268279021384704497e-01 5.132641912667922952e+02
1.269279241433115268e-01 5.132619621087745827e+02
1.270279461481525762e-01 5.132597017043505048e+02
1.271279681529936534e-01 5.132574101636798787e+02
1.272279901578347028e-01 5.132550875978561180e+02
1.273280121626757799e-01 5.132527341189043000e+02
1.274280341675168293e-01 5.132503498397766180e+02
1.275280561723579065e-01 5.132479348743531773e+02
1.276280781771989836e-01 5.132454893374360836e+02
1.277281001820400330e-01 5.132430133447489879e+02
1.278281221868811102e-01 5.132405070129344722e+02
1.279281441917221596e-01 5.132379704595489329e+02
1.280281661965632367e-01 5.132354038030646279e+02
1.281281882014042861e-01 5.132328071628620592e+02
1.282282102062453633e-01 5.132301806592298590e+02
1.283282322110864404e-01 5.132275244133619481e+02
1.284282542159274898e-01 5.132248385473537837e+02
1.285282762207685670e-01 5.132221231842008820e+02
1.286282982256096163e-01 5.132193784477944973e+02
1.287283202304506935e-01 5.132166044629207136e+02
1.288283422352917429e-01 5.132138013552555549e+02
1.289283642401328200e-01 5.132109692513629398e+02
1.290283862449738972e-01 5.132081082786922934e+02
1.291284082498149466e-01 5.132052185655754784e+02
1.292284302546560237e-01 5.132023002412221331e+02
1.293284522594970731e-01 5.131993534357185354e+02
1.294284742643381503e-01 5.131963782800251010e+02
1.295284962691791997e-01 5.131933749059710408e+02
1.296285182740202768e-01 5.131903434462532232e+02
1.297285402788613262e-01 5.131872840344315136e+02
1.298285622837024034e-01 5.131841968049276375e+02
1.299285842885434805e-01 5.131810818930204050e+02
1.300286062933845299e-01 5.131779394348427559e+02
1.301286282982256071e-01 5.131747695673791441e+02
1.302286503030666565e-01 5.131715724284622411e+02
1.303286723079077336e-01 5.131683481567690706e+02
1.304286943127487830e-01 5.131650968918180524e+02
1.305287163175898602e-01 5.131618187739668429e+02
1.306287383224309373e-01 5.131585139444058541e+02
1.307287603272719867e-01 5.131551825451592777e+02
1.308287823321130638e-01 5.131518247190781494e+02
1.309288043369541132e-01 5.131484406098383033e+02
1.310288263417951904e-01 5.131450303619374154e+02
1.311288483466362398e-01 5.131415941206902289e+02
1.312288703514773169e-01 5.131381320322267356e+02
1.313288923563183941e-01 5.131346442434879691e+02
1.314289143611594435e-01 5.131311309022208889e+02
1.315289363660005206e-01 5.131275921569775846e+02
1.316289583708415700e-01 5.131240281571107289e+02
1.317289803756826472e-01 5.131204390527684609e+02
1.318290023805236966e-01 5.131168249948925677e+02
1.319290243853647737e-01 5.131131861352149599e+02
1.320290463902058509e-01 5.131095226262521010e+02
1.321290683950469003e-01 5.131058346213034156e+02
1.322290903998879774e-01 5.131021222744466286e+02
1.323291124047290268e-01 5.130983857405335584e+02
1.324291344095701040e-01 5.130946251751877298e+02
1.325291564144111534e-01 5.130908407347995990e+02
1.326291784192522305e-01 5.130870325765230291e+02
1.327292004240932799e-01 5.130832008582702883e+02
1.328292224289343570e-01 5.130793457387113676e+02
1.329292444337754342e-01 5.130754673772660226e+02
1.330292664386164836e-01 5.130715659341034325e+02
1.331292884434575607e-01 5.130676415701361748e+02
1.332293104482986101e-01 5.130636944470172693e+02
1.333293324531396873e-01 5.130597247271350625e+02
1.334293544579807367e-01 5.130557325736108396e+02
1.335293764628218138e-01 5.130517181502939366e+02
1.336293984676628910e-01 5.130476816217569649e+02
1.337294204725039404e-01 5.130436231532946749e+02
1.338294424773450175e-01 5.130395429109150882e+02
1.339294644821860669e-01 5.130354410613400660e+02
1.340294864870271441e-01 5.130313177719992837e+02
1.341295084918681935e-01 5.130271732110250014e+02
1.342295304967092706e-01 5.130230075472496765e+02
1.343295525015503478e-01 5.130188209502018708e+02
1.344295745063913972e-01 5.130146135900996569e+02
1.345295965112324743e-01 5.130103856378498222e+02
1.346296185160735237e-01 5.130061372650407066e+02
1.347296405209145731e-01 5.130018686439393605e+02
1.348296625257556502e-01 5.129975799474875657e+02
1.349296845305967274e-01 5.129932713492964922e+02
1.350297065354378045e-01 5.129889430236430599e+02
1.351297285402788539e-01 5.129845951454653914e+02
1.352297505451199311e-01 5.129802278903587194e+02
1.353297725499609805e-01 5.129758414345704978e+02
1.354297945548020299e-01 5.129714359549971050e+02
1.355298165596431070e-01 5.129670116291770228e+02
1.356298385644841842e-01 5.129625686352896992e+02
1.357298605693252336e-01 5.129581071521483864e+02
1.358298825741663107e-01 5.129536273591969575e+02
1.359299045790073879e-01 5.129491294365052454e+02
1.360299265838484373e-01 5.129446135647643814e+02
1.361299485886894867e-01 5.129400799252825891e+02
1.362299705935305638e-01 5.129355286999793861e+02
1.363299925983716410e-01 5.129309600713825148e+02
1.364300146032126904e-01 5.129263742226235081e+02
1.365300366080537675e-01 5.129217713374314371e+02
1.366300586128948447e-01 5.129171516001291593e+02
1.367300806177358941e-01 5.129125151956300215e+02
1.368301026225769434e-01 5.129078623094302429e+02
1.369301246274180206e-01 5.129031931276068690e+02
1.370301466322590977e-01 5.128985078368114046e+02
1.371301686371001471e-01 5.128938066242677678e+02
1.372301906419412243e-01 5.128890896777625130e+02
1.373302126467823014e-01 5.128843571856458539e+02
1.374302346516233508e-01 5.128796093368221136e+02
1.375302566564644002e-01 5.128748463207488157e+02
1.376302786613054774e-01 5.128700683274288394e+02
1.377303006661465545e-01 5.128652755474078049e+02
1.378303226709876039e-01 5.128604681717667972e+02
1.379303446758286811e-01 5.128556463921199793e+02
1.380303666806697582e-01 5.128508104006099302e+02
1.381303886855108076e-01 5.128459603898984369e+02
1.382304106903518570e-01 5.128410965531678585e+02
1.383304326951929342e-01 5.128362190841110078e+02
1.384304547000339836e-01 5.128313281769294463e+02
1.385304767048750607e-01 5.128264240263254123e+02
1.386304987097161379e-01 5.128215068275014801e+02
1.387305207145572150e-01 5.128165767761512370e+02
1.388305427193982644e-01 5.128116340684555325e+02
1.389305647242393138e-01 5.128066789010790671e+02
1.390305867290803910e-01 5.128017114711635713e+02
1.391306087339214403e-01 5.127967319763228033e+02
1.392306307387625175e-01 5.127917406146390249e+02
1.393306527436035946e-01 5.127867375846553841e+02
1.394306747484446440e-01 5.127817230853745514e+02
1.395306967532857212e-01 5.127766973162487147e+02
1.396307187581267706e-01 5.127716604771792390e+02
1.397307407629678477e-01 5.127666127685085939e+02
1.398307627678088971e-01 5.127615543910160341e+02
1.399307847726499743e-01 5.127564855459123692e+02
1.400308067774910514e-01 5.127514064348345073e+02
1.401308287823321008e-01 5.127463172598417032e+02
1.402308507871731780e-01 5.127412182234088505e+02
1.403308727920142274e-01 5.127361095284213661e+02
1.404308947968552768e-01 5.127309913781690511e+02
1.405309168016963539e-01 5.127258639763441579e+02
1.406309388065374311e-01 5.127207275270329774e+02
1.407309608113785082e-01 5.127155822347122012e+02
1.408309828162195576e-01 5.127104283042416455e+02
1.409310048210606348e-01 5.127052659408614090e+02
1.410310268259016842e-01 5.127000953501857339e+02
1.411310488307427335e-01 5.126949167381965253e+02
1.412310708355838107e-01 5.126897303112400550e+02
1.413310928404248878e-01 5.126845362760185481e+02
1.414311148452659372e-01 5.126793348395897283e+02
1.415311368501070144e-01 5.126741262093552223e+02
1.416311588549480915e-01 5.126689105930609003e+02
1.417311808597891409e-01 5.126636881987878951e+02
1.418312028646301903e-01 5.126584592349483955e+02
1.419312248694712675e-01 5.126532239102796211e+02
1.420312468743123446e-01 5.126479824338405251e+02
1.421312688791533940e-01 5.126427350150031543e+02
1.422312908839944712e-01 5.126374818634494659e+02
1.423313128888355483e-01 5.126322231891647334e+02
1.424313348936765977e-01 5.126269592024332269e+02
1.425313568985176471e-01 5.126216901138312778e+02
1.426313789033587243e-01 5.126164161342237549e+02
1.427314009081998014e-01 5.126111374747546279e+02
1.428314229130408508e-01 5.126058543468477637e+02
1.429314449178819280e-01 5.126005669621953302e+02
1.430314669227230051e-01 5.125952755327555224e+02
1.431314889275640545e-01 5.125899802707454000e+02
1.432315109324051039e-01 5.125846813886380460e+02
1.433315329372461810e-01 5.125793790991534706e+02
1.434315549420872304e-01 5.125740736152548607e+02
1.435315769469283076e-01 5.125687651501434630e+02
1.436315989517693847e-01 5.125634539172523318e+02
1.437316209566104619e-01 5.125581401302398490e+02
1.438316429614515113e-01 5.125528240029864264e+02
1.439316649662925607e-01 5.125475057495868896e+02
1.440316869711336378e-01 5.125421855843444519e+02
1.441317089759746872e-01 5.125368637217675314e+02
1.442317309808157644e-01 5.125315403765625888e+02
1.443317529856568415e-01 5.125262157636281017e+02
1.444317749904978909e-01 5.125208900980492217e+02
1.445317969953389681e-01 5.125155635950926580e+02
1.446318190001800175e-01 5.125102364702005389e+02
1.447318410050210946e-01 5.125049089389859773e+02
1.448318630098621440e-01 5.124995812172232945e+02
1.449318850147032212e-01 5.124942535208482468e+02
1.450319070195442983e-01 5.124889260659484762e+02
1.451319290243853477e-01 5.124835990687586218e+02
1.452319510292264249e-01 5.124782727456544080e+02
1.453319730340674742e-01 5.124729473131477562e+02
1.454319950389085514e-01 5.124676229878800768e+02
1.455320170437496008e-01 5.124622999866179498e+02
1.456320390485906779e-01 5.124569785262450523e+02
1.457320610534317551e-01 5.124516588237593169e+02
1.458320830582728045e-01 5.124463410962646321e+02
1.459321050631138816e-01 5.124410255609661817e+02
1.460321270679549310e-01 5.124357124351661241e+02
1.461321490727960082e-01 5.124304019362549525e+02
1.462321710776370576e-01 5.124250942817076293e+02
1.463321930824781347e-01 5.124197896890774473e+02
1.464322150873192119e-01 5.124144883759906861e+02
1.465322370921602613e-01 5.124091905601388817e+02
1.466322590970013384e-01 5.124038964592767798e+02
1.467322811018423878e-01 5.123986062912129000e+02
1.468323031066834650e-01 5.123933202738046475e+02
1.469323251115245144e-01 5.123880386249545609e+02
1.470323471163655915e-01 5.123827615626021270e+02
1.471323691212066409e-01 5.123774893047188925e+02
1.472323911260477181e-01 5.123722220693032341e+02
1.473324131308887952e-01 5.123669600743727415e+02
1.474324351357298446e-01 5.123617035379610343e+02
1.475324571405709217e-01 5.123564526781102586e+02
1.476324791454119711e-01 5.123512077128652891e+02
1.477325011502530483e-01 5.123459688602679307e+02
1.478325231550940977e-01 5.123407363383522579e+02
1.479325451599351748e-01 5.123355103651371110e+02
1.480325671647762520e-01 5.123302911586224582e+02
1.481325891696173014e-01 5.123250789367809830e+02
1.482326111744583785e-01 5.123198739175542187e+02
1.483326331792994279e-01 5.123146763188452724e+02
1.484326551841405051e-01 5.123094863585150733e+02
1.485326771889815545e-01 5.123043042543741876e+02
1.486326991938226316e-01 5.122991302241786116e+02
1.487327211986637088e-01 5.122939644856235191e+02
1.488327432035047582e-01 5.122888072563376909e+02
1.489327652083458353e-01 5.122836587538761250e+02
1.490327872131868847e-01 5.122785191957165125e+02
1.491328092180279619e-01 5.122733887992523023e+02
1.492328312228690113e-01 5.122682677817865624e+02
1.493328532277100884e-01 5.122631563605264091e+02
1.494328752325511656e-01 5.122580547525782322e+02
1.495328972373922150e-01 5.122529631749405326e+02
1.496329192422332921e-01 5.122478818444977833e+02
1.497329412470743415e-01 5.122428109780166778e+02
1.498329632519154186e-01 5.122377507921383994e+02
1.499329852567564680e-01 5.122327015033729367e+02
1.500330072615975452e-01 5.122276633280944225e+02
1.501330292664385946e-01 5.122226364825348810e+02
1.502330512712796717e-01 5.122176211827780890e+02
1.503330732761207489e-01 5.122126176447525268e+02
1.504330952809617983e-01 5.122076260842293323e+02
1.505331172858028754e-01 5.122026467168125237e+02
1.506331392906439248e-01 5.121976797579346794e+02
1.507331612954850020e-01 5.121927254228525044e+02
1.508331833003260514e-01 5.121877839266385308e+02
1.509332053051671285e-01 5.121828554841774803e+02
1.510332273100082057e-01 5.121779403101592152e+02
1.511332493148492551e-01 5.121730386190733952e+02
1.512332713196903322e-01 5.121681506252029976e+02
1.513332933245313816e-01 5.121632765426211336e+02
1.514333153293724588e-01 5.121584165851805892e+02
1.515333373342135082e-01 5.121535709665135983e+02
1.516333593390545853e-01 5.121487399000211553e+02
1.517333813438956625e-01 5.121439235988704013e+02
1.518334033487367118e-01 5.121391222759880293e+02
1.519334253535777890e-01 5.121343361440535773e+02
1.520334473584188384e-01 5.121295654154954491e+02
1.521334693632598878e-01 5.121248103024835245e+02
1.522334913681009649e-01 5.121200710169243848e+02
1.523335133729420421e-01 5.121153477704554007e+02
1.524335353777831192e-01 5.121106407744382523e+02
1.525335573826241686e-01 5.121059502399549501e+02
1.526335793874652458e-01 5.121012763778007866e+02
1.527336013923062952e-01 5.120966193984783104e+02
1.528336233971473446e-01 5.120919795121930065e+02
1.529336454019884217e-01 5.120873569288469298e+02
1.530336674068294989e-01 5.120827518580313154e+02
1.531336894116705483e-01 5.120781645090244183e+02
1.532337114165116254e-01 5.120735950907835559e+02
1.533337334213527026e-01 5.120690438119391956e+02
1.534337554261937520e-01 5.120645108807907491e+02
1.535337774310348014e-01 5.120599965052988409e+02
1.536337994358758785e-01 5.120555008930824670e+02
1.537338214407169557e-01 5.120510242514110359e+02
1.538338434455580050e-01 5.120465667871998221e+02
1.539338654503990822e-01 5.120421287070038261e+02
1.540338874552401593e-01 5.120377102170118633e+02
1.541339094600812087e-01 5.120333115230430394e+02
1.542339314649222581e-01 5.120289328305390200e+02
1.543339534697633353e-01 5.120245743445578910e+02
1.544339754746044124e-01 5.120202362697716580e+02
1.545339974794454618e-01 5.120159188104570376e+02
1.546340194842865390e-01 5.120116221704937516e+02
1.547340414891276161e-01 5.120073465533539547e+02
1.548340634939686655e-01 5.120030921621026891e+02
1.549340854988097149e-01 5.119988591993871410e+02
1.550341075036507921e-01 5.119946478674345371e+02
1.551341295084918692e-01 5.119904583680438463e+02
1.552341515133329186e-01 5.119862909025838462e+02
1.553341735181739958e-01 5.119821456719844264e+02
1.554341955230150729e-01 5.119780228767320409e+02
1.555342175278561223e-01 5.119739227168656726e+02
1.556342395326971717e-01 5.119698453919689314e+02
1.557342615375382489e-01 5.119657911011662463e+02
1.558342835423792982e-01 5.119617600431177493e+02
1.559343055472203754e-01 5.119577524160119992e+02
1.560343275520614525e-01 5.119537684175627987e+02
1.561343495569025297e-01 5.119498082450023162e+02
1.562343715617435791e-01 5.119458720950758561e+02
1.563343935665846285e-01 5.119419601640375390e+02
1.564344155714256779e-01 5.119380726476428549e+02
1.565344375762667550e-01 5.119342097411459918e+02
1.566344595811078322e-01 5.119303716392926162e+02
1.567344815859489093e-01 5.119265585363142463e+02
1.568345035907899865e-01 5.119227706259247270e+02
1.569345255956310359e-01 5.119190081013136933e+02
1.570345476004720853e-01 5.119152711551419657e+02
1.571345696053131347e-01 5.119115599795344451e+02
1.572345916101542118e-01 5.119078747660779527e+02
1.573346136149952890e-01 5.119042157058127032e+02
1.574346356198363661e-01 5.119005829892297470e+02
1.575346576246774433e-01 5.118969768062644334e+02
1.576346796295184927e-01 5.118933973462907829e+02
1.577347016343595421e-01 5.118898447981180198e+02
1.578347236392005914e-01 5.118863193499827275e+02
1.579347456440416686e-01 5.118828211895472009e+02
1.580347676488827457e-01 5.118793505038912031e+02
1.581347896537238229e-01 5.118759074795072479e+02
1.582348116585649000e-01 5.118724923022981557e+02
1.583348336634059217e-01 5.118691051575682422e+02
1.584348556682469988e-01 5.118657462300211591e+02
1.585348776730880482e-01 5.118624157037526174e+02
1.586348996779291254e-01 5.118591137622474889e+02
1.587349216827702025e-01 5.118558405883718478e+02
1.588349436876112797e-01 5.118525963643722889e+02
1.589349656924523568e-01 5.118493812718658660e+02
1.590349876972933785e-01 5.118461954918394099e+02
1.591350097021344556e-01 5.118430392046417410e+02
1.592350317069755050e-01 5.118399125899796331e+02
1.593350537118165822e-01 5.118368158269128116e+02
1.594350757166576593e-01 5.118337490938503151e+02
1.595350977214987365e-01 5.118307125685425945e+02
1.596351197263398136e-01 5.118277064280799209e+02
1.597351417311808353e-01 5.118247308488851672e+02
1.598351637360219124e-01 5.118217860067102265e+02
1.599351857408629618e-01 5.118188720766290771e+02
1.600352077457040390e-01 5.118159892330377261e+02
1.601352297505451161e-01 5.118131376496427265e+02
1.602352517553861933e-01 5.118103174994627693e+02
1.603352737602272149e-01 5.118075289548189630e+02
1.604352957650682920e-01 5.118047721873331284e+02
1.605353177699093692e-01 5.118020473679223414e+02
1.606353397747504186e-01 5.117993546667926807e+02
1.607353617795914957e-01 5.117966942534372379e+02
1.608353837844325729e-01 5.117940662966293530e+02
1.609354057892736500e-01 5.117914709644176696e+02
1.610354277941146717e-01 5.117889084241236333e+02
1.611354497989557488e-01 5.117863788423356368e+02
1.612354718037968260e-01 5.117838823849028813e+02
1.613354938086378754e-01 5.117814192169338980e+02
1.614355158134789525e-01 5.117789895027897842e+02
1.615355378183200297e-01 5.117765934060798827e+02
1.616355598231611068e-01 5.117742310896575191e+02
1.617355818280021285e-01 5.117719027156163065e+02
1.618356038328432056e-01 5.117696084452836089e+02
1.619356258376842828e-01 5.117673484392191767e+02
1.620356478425253322e-01 5.117651228572071318e+02
1.621356698473664093e-01 5.117629318582538076e+02
1.622356918522074865e-01 5.117607756005839406e+02
1.623357138570485636e-01 5.117586542416318025e+02
1.624357358618895852e-01 5.117565679380448387e+02
1.625357578667306624e-01 5.117545168456707643e+02
1.626357798715717395e-01 5.117525011195583602e+02
1.627358018764127889e-01 5.117505209139528688e+02
1.628358238812538661e-01 5.117485763822892295e+02
1.629358458860949432e-01 5.117466676771891230e+02
1.630358678909359926e-01 5.117447949504585836e+02
1.631358898957770420e-01 5.117429583530808372e+02
1.632359119006181192e-01 5.117411580352136298e+02
1.633359339054591963e-01 5.117393941461844520e+02
1.634359559103002457e-01 5.117376668344869017e+02
1.635359779151413229e-01 5.117359762477767617e+02
1.636359999199824000e-01 5.117343225328662015e+02
1.637360219248234494e-01 5.117327058357220722e+02
1.638360439296644988e-01 5.117311263014605629e+02
1.639360659345055760e-01 5.117295840743425970e+02
1.640360879393466531e-01 5.117280792977701367e+02
1.641361099441877025e-01 5.117266121142847624e+02
1.642361319490287797e-01 5.117251826655581795e+02
1.643361539538698568e-01 5.117237910923939808e+02
1.644361759587109062e-01 5.117224375347195178e+02
1.645361979635519556e-01 5.117211221315857301e+02
1.646362199683930327e-01 5.117198450211587897e+02
1.647362419732341099e-01 5.117186063407208394e+02
1.648362639780751593e-01 5.117174062266622059e+02
1.649362859829162364e-01 5.117162448144800919e+02
1.650363079877572858e-01 5.117151222387746543e+02
1.651363299925983630e-01 5.117140386332430921e+02
1.652363519974394124e-01 5.117129941306782825e+02
1.653363740022804895e-01 5.117119888629649722e+02
1.654363960071215667e-01 5.117110229610731267e+02
1.655364180119626161e-01 5.117100965550589535e+02
1.656364400168036932e-01 5.117092097740558643e+02
1.657364620216447426e-01 5.117083627462766344e+02
1.658364840264858198e-01 5.117075555990040243e+02
1.659365060313268692e-01 5.117067884585917454e+02
1.660365280361679463e-01 5.117060614504591740e+02
1.661365500410090235e-01 5.117053746990860077e+02
1.662365720458500729e-01 5.117047283280130614e+02
1.663365940506911500e-01 5.117041224598335702e+02
1.664366160555321994e-01 5.117035572161955770e+02
1.665366380603732765e-01 5.117030327177924391e+02
1.666366600652143259e-01 5.117025490843640796e+02
1.667366820700554031e-01 5.117021064346904495e+02
1.668367040748964802e-01 5.117017048865907327e+02
1.669367260797375296e-01 5.117013445569186842e+02
1.670367480845785790e-01 5.117010255615592769e+02
1.671367700894196562e-01 5.117007480154255177e+02
1.672367920942607333e-01 5.117005120324554355e+02
1.673368140991017827e-01 5.117003177256084427e+02
1.674368361039428599e-01 5.117001652068631188e+02
1.675368581087839370e-01 5.117000545872131170e+02
1.676368801136249864e-01 5.116999859766624468e+02
1.677369021184660358e-01 5.116999594842272927e+02
1.678369241233071130e-01 5.116999752179278858e+02
1.679369461281481901e-01 5.117000332847871960e+02
1.680369681329892395e-01 5.117001337908285450e+02
1.681369901378303167e-01 5.117002768410715134e+02
1.682370121426713938e-01 5.117004625395296671e+02
1.683370341475124432e-01 5.117006909892083399e+02
1.684370561523534926e-01 5.117009622920992342e+02
1.685370781571945697e-01 5.117012765491799087e+02
1.686371001620356469e-01 5.117016338604097427e+02
1.687371221668766963e-01 5.117020343247272649e+02
1.688371441717177734e-01 5.117024780400479358e+02
1.689371661765588506e-01 5.117029651032598849e+02
1.690371881813998722e-01 5.117034956102233991e+02
1.691372101862409494e-01 5.117040696557652950e+02
1.692372321910820265e-01 5.117046873336787485e+02
1.693372541959231037e-01 5.117053487367192020e+02
1.694372762007641531e-01 5.117060539566026591e+02
1.695372982056052302e-01 5.117068030840017627e+02
1.696373202104463074e-01 5.117075962085440324e+02
1.697373422152873290e-01 5.117084334188099319e+02
1.698373642201284062e-01 5.117093148023282652e+02
1.699373862249694833e-01 5.117102404455765168e+02
1.700374082298105605e-01 5.117112104339745429e+02
1.701374302346516099e-01 5.117122248518866741e+02
1.702374522394926870e-01 5.117132837826159744e+02
1.703374742443337642e-01 5.117143873084020242e+02
1.704374962491747858e-01 5.117155355104201817e+02
1.705375182540158630e-01 5.117167284687782853e+02
1.706375402588569401e-01 5.117179662625145511e+02
1.707375622636980173e-01 5.117192489695939344e+02
1.708375842685390666e-01 5.117205766669092668e+02
1.709376062733801438e-01 5.117219494302734120e+02
1.710376282782212209e-01 5.117233673344238127e+02
1.711376502830622426e-01 5.117248304530147038e+02
1.712376722879033197e-01 5.117263388586190445e+02
1.713376942927443969e-01 5.117278926227219813e+02
1.714377162975854740e-01 5.117294918157239749e+02
1.715377383024265234e-01 5.117311365069340923e+02
1.716377603072676006e-01 5.117328267645710298e+02
1.717377823121086222e-01 5.117345626557594187e+02
1.718378043169496994e-01 5.117363442465278354e+02
1.719378263217907765e-01 5.117381716018094266e+02
1.720378483266318537e-01 5.117400447854358845e+02
1.721378703314729308e-01 5.117419638601387533e+02
1.722378923363139802e-01 5.117439288875467582e+02
1.723379143411550574e-01 5.117459399281823380e+02
1.724379363459960790e-01 5.117479970414623835e+02
1.725379583508371562e-01 5.117501002856953392e+02
1.726379803556782333e-01 5.117522497180787582e+02
1.727380023605193105e-01 5.117544453946981093e+02
1.728380243653603876e-01 5.117566873705261514e+02
1.729380463702014370e-01 5.117589756994194659e+02
1.730380683750425141e-01 5.117613104341177745e+02
1.731380903798835358e-01 5.117636916262429168e+02
1.732381123847246129e-01 5.117661193262966322e+02
1.733381343895656901e-01 5.117685935836577755e+02
1.734381563944067672e-01 5.117711144465828852e+02
1.735381783992478444e-01 5.117736819622051030e+02
1.736382004040888938e-01 5.117762961765289447e+02
1.737382224089299432e-01 5.117789571344338810e+02
1.738382444137709926e-01 5.117816648796693926e+02
1.739382664186120697e-01 5.117844194548542873e+02
1.740382884234531469e-01 5.117872209014776104e+02
1.741383104282942240e-01 5.117900692598937553e+02
1.742383324331353012e-01 5.117929645693238285e+02
1.743383544379763506e-01 5.117959068678534322e+02
1.744383764428174000e-01 5.117988961924311866e+02
1.745383984476584494e-01 5.118019325788699803e+02
1.746384204524995265e-01 5.118050160618415134e+02
1.747384424573406037e-01 5.118081466748786283e+02
1.748384644621816808e-01 5.118113244503730925e+02
1.749384864670227580e-01 5.118145494195743481e+02
1.750385084718638073e-01 5.118178216125896824e+02
1.751385304767048567e-01 5.118211410583802490e+02
1.752385524815459061e-01 5.118245077847644779e+02
1.753385744863869833e-01 5.118279218184137562e+02
1.754385964912280604e-01 5.118313831848523705e+02
1.755386184960691376e-01 5.118348919084572799e+02
1.756386405009102147e-01 5.118384480124569222e+02
1.757386625057512364e-01 5.118420515189301341e+02
1.758386845105923135e-01 5.118457024488053548e+02
1.759387065154333629e-01 5.118494008218606268e+02
1.760387285202744401e-01 5.118531466567230837e+02
1.761387505251155172e-01 5.118569399708660512e+02
1.762387725299565944e-01 5.118607807806101846e+02
1.763387945347976715e-01 5.118646691011238090e+02
1.764388165396386932e-01 5.118686049464203620e+02
1.765388385444797703e-01 5.118725883293578818e+02
1.766388605493208197e-01 5.118766192616403714e+02
1.767388825541618969e-01 5.118806977538154115e+02
1.768389045590029740e-01 5.118848238152750127e+02
1.769389265638440512e-01 5.118889974542536834e+02
1.770389485686851283e-01 5.118932186778296227e+02
1.771389705735261499e-01 5.118974874919230160e+02
1.772389925783672271e-01 5.119018039012971713e+02
1.773390145832082765e-01 5.119061679095564159e+02
1.774390365880493536e-01 5.119105795191476318e+02
1.775390585928904308e-01 5.119150387313586634e+02
1.776390805977315079e-01 5.119195455463178632e+02
1.777391026025725296e-01 5.119240999629967064e+02
1.778391246074136067e-01 5.119287019792049591e+02
1.779391466122546839e-01 5.119333515915947146e+02
1.780391686170957333e-01 5.119380487956589150e+02
1.781391906219368104e-01 5.119427935857298166e+02
1.782392126267778876e-01 5.119475859549812071e+02
1.783392346316189647e-01 5.119524258954266429e+02
1.784392566364599864e-01 5.119573133979214390e+02
1.785392786413010635e-01 5.119622484521607362e+02
1.786393006461421407e-01 5.119672310466809790e+02
1.787393226509831901e-01 5.119722611688578127e+02
1.788393446558242672e-01 5.119773388049102323e+02
1.789393666606653444e-01 5.119824639398973432e+02
1.790393886655064215e-01 5.119876365577191564e+02
1.791394106703474431e-01 5.119928566411184647e+02
1.792394326751885203e-01 5.119981241716785689e+02
1.793394546800295974e-01 5.120034391298266883e+02
1.794394766848706468e-01 5.120088014948308910e+02
1.795394986897117240e-01 5.120142112448043008e+02
1.796395206945528011e-01 5.120196683567017999e+02
1.797395426993938783e-01 5.120251728063217342e+02
1.798395647042348999e-01 5.120307245683084147e+02
1.799395867090759771e-01 5.120363236161492750e+02
1.800396087139170542e-01 5.120419699221781684e+02
1.801396307187581036e-01 5.120476634575735488e+02
1.802396527235991808e-01 5.120534041923629047e+02
1.803396747284402579e-01 5.120591920954169609e+02
1.804396967332813073e-01 5.120650271344562725e+02
1.805397187381223567e-01 5.120709092760509975e+02
1.806397407429634339e-01 5.120768384856175999e+02
1.807397627478045110e-01 5.120828147274240791e+02
1.808397847526455604e-01 5.120888379645886062e+02
1.809398067574866376e-01 5.120949081590806600e+02
1.810398287623277147e-01 5.121010252717223921e+02
1.811398507671687641e-01 5.121071892621882853e+02
1.812398727720098135e-01 5.121134000890074276e+02
1.813398947768508906e-01 5.121196577095632847e+02
1.814399167816919678e-01 5.121259620800956327e+02
1.815399387865330172e-01 5.121323131557007855e+02
1.816399607913740943e-01 5.121387108903330727e+02
1.817399827962151715e-01 5.121451552368051807e+02
1.818400048010562209e-01 5.121516461467907675e+02
1.819400268058972703e-01 5.121581835708238941e+02
1.820400488107383474e-01 5.121647674583009575e+02
1.821400708155794246e-01 5.121713977574813725e+02
1.822400928204204740e-01 5.121780744154895046e+02
1.823401148252615511e-01 5.121847973783158068e+02
1.824401368301026005e-01 5.121915665908169331e+02
1.825401588349436777e-01 5.121983819967188083e+02
1.826401808397847271e-01 5.122052435386165143e+02
1.827402028446258042e-01 5.122121511579757680e+02
1.828402248494668814e-01 5.122191047951354221e+02
1.829402468543079308e-01 5.122261043893072383e+02
1.830402688591490079e-01 5.122331498785798658e+02
1.831402908639900573e-01 5.122402411999165679e+02
1.832403128688311345e-01 5.122473782891596557e+02
1.833403348736721838e-01 5.122545610810317385e+02
1.834403568785132610e-01 5.122617895091349283e+02
1.835403788833543381e-01 5.122690635059566375e+02
1.836404008881953875e-01 5.122763830028671919e+02
1.837404228930364647e-01 5.122837479301230132e+02
1.838404448978775141e-01 5.122911582168682116e+02
1.839404669027185912e-01 5.122986137911376545e+02
1.840404889075596406e-01 5.123061145798553753e+02
1.841405109124007178e-01 5.123136605088404849e+02
1.842405329172417949e-01 5.123212515028048983e+02
1.843405549220828443e-01 5.123288874853590187e+02
1.844405769269238937e-01 5.123365683790096909e+02
1.845405989317649709e-01 5.123442941051656589e+02
1.846406209366060480e-01 5.123520645841373380e+02
1.847406429414470974e-01 5.123598797351386338e+02
1.848406649462881746e-01 5.123677394762903532e+02
1.849406869511292517e-01 5.123756437246211135e+02
1.850407089559703011e-01 5.123835923960700711e+02
1.851407309608113505e-01 5.123915854054877173e+02
1.852407529656524277e-01 5.123996226666394023e+02
1.853407749704935048e-01 5.124077040922071546e+02
1.854407969753345542e-01 5.124158295937900220e+02
1.855408189801756313e-01 5.124239990819096420e+02
1.856408409850167085e-01 5.124322124660085365e+02
1.857408629898577579e-01 5.124404696544568196e+02
1.858408849946988073e-01 5.124487705545486733e+02
1.859409069995398844e-01 5.124571150725105326e+02
1.860409290043809616e-01 5.124655031135002901e+02
1.861409510092220110e-01 5.124739345816084324e+02
1.862409730140630881e-01 5.124824093798639524e+02
1.863409950189041653e-01 5.124909274102335530e+02
1.864410170237451869e-01 5.124994885736264223e+02
1.865410390285862641e-01 5.125080927698951427e+02
1.866410610334273412e-01 5.125167398978373967e+02
1.867410830382684184e-01 5.125254298552022192e+02
1.868411050431094678e-01 5.125341625386877240e+02
1.869411270479505449e-01 5.125429378439463335e+02
1.870411490527916221e-01 5.125517556655883027e+02
1.871411710576326437e-01 5.125606158971818331e+02
1.872411930624737209e-01 5.125695184312567108e+02
1.873412150673147980e-01 5.125784631593077165e+02
1.874412370721558752e-01 5.125874499717963317e+02
1.875412590769969245e-01 5.125964787581542623e+02
1.876412810818380017e-01 5.126055494067849168e+02
1.877413030866790788e-01 5.126146618050679535e+02
1.878413250915201005e-01 5.126238158393608728e+02
1.879413470963611776e-01 5.126330113950019722e+02
1.880413691012022548e-01 5.126422483563131891e+02
1.881413911060433319e-01 5.126515266066033973e+02
1.882414131108843813e-01 5.126608460281706812e+02
1.883414351157254585e-01 5.126702065023063142e+02
1.884414571205665356e-01 5.126796079092962373e+02
1.885414791254075573e-01 5.126890501284252650e+02
1.886415011302486344e-01 5.126985330379802690e+02
1.887415231350897116e-01 5.127080565152509735e+02
1.888415451399307887e-01 5.127176204365365493e+02
1.889415671447718381e-01 5.127272246771448181e+02
1.890415891496129153e-01 5.127368691113988461e+02
1.891416111544539369e-01 5.127465536126381949e+02
1.892416331592950141e-01 5.127562780532222177e+02
1.893416551641360912e-01 5.127660423045336984e+02
1.894416771689771684e-01 5.127758462369814652e+02
1.895416991738182455e-01 5.127856897200049389e+02
1.896417211786592949e-01 5.127955726220754968e+02
1.897417431835003720e-01 5.128054948107009068e+02
1.898417651883413937e-01 5.128154561524293058e+02
1.899417871931824708e-01 5.128254565128504510e+02
1.900418091980235480e-01 5.128354957566010626e+02
1.901418312028646251e-01 5.128455737473677800e+02
1.902418532077057023e-01 5.128556903478898903e+02
1.903418752125467517e-01 5.128658454199625112e+02
1.904418972173878288e-01 5.128760388244417072e+02
1.905419192222288505e-01 5.128862704212468770e+02
1.906419412270699276e-01 5.128965400693630272e+02
1.907419632319110048e-01 5.129068476268475933e+02
1.908419852367520819e-01 5.129171929508311223e+02
1.909420072415931591e-01 5.129275758975206827e+02
1.910420292464342085e-01 5.129379963222063452e+02
1.911420512512752579e-01 5.129484540792616372e+02
1.912420732561163073e-01 5.129589490221488859e+02
1.913420952609573844e-01 5.129694810034234251e+02
1.914421172657984616e-01 5.129800498747347319e+02
1.915421392706395387e-01 5.129906554868340436e+02
1.916421612754806159e-01 5.130012976895731072e+02
1.917421832803216653e-01 5.130119763319135018e+02
1.918422052851627146e-01 5.130226912619256154e+02
1.919422272900037640e-01 5.130334423267955799e+02
1.920422492948448412e-01 5.130442293728276582e+02
1.921422712996859183e-01 5.130550522454484508e+02
1.922422933045269955e-01 5.130659107892101929e+02
1.923423153093680726e-01 5.130768048477971206e+02
1.924423373142091220e-01 5.130877342640245615e+02
1.925423593190501714e-01 5.130986988798488255e+02
1.926423813238912208e-01 5.131096985363654994e+02
1.927424033287322980e-01 5.131207330738180872e+02
1.928424253335733751e-01 5.131318023315998289e+02
1.929424473384144523e-01 5.131429061482562020e+02
1.930424693432555294e-01 5.131540443614926517e+02
1.931424913480965511e-01 5.131652168081756145e+02
1.932425133529376282e-01 5.131764233243377475e+02
1.933425353577786776e-01 5.131876637451825900e+02
1.934425573626197548e-01 5.131989379050877460e+02
1.935425793674608319e-01 5.132102456376093187e+02
1.936426013723019091e-01 5.132215867754862302e+02
1.937426233771429862e-01 5.132329611506445417e+02
1.938426453819840078e-01 5.132443685942000684e+02
1.939426673868250850e-01 5.132558089364669058e+02
1.940426893916661344e-01 5.132672820069562931e+02
1.941427113965072115e-01 5.132787876343841162e+02
1.942427334013482887e-01 5.132903256466750008e+02
1.943427554061893658e-01 5.133018958709646995e+02
1.944427774110304430e-01 5.133134981336077090e+02
1.945427994158714646e-01 5.133251322601786342e+02
1.946428214207125418e-01 5.133367980754777591e+02
1.947428434255535912e-01 5.133484954035355941e+02
1.948428654303946683e-01 5.133602240676171959e+02
1.949428874352357455e-01 5.133719838902258061e+02
1.950429094400768226e-01 5.133837746931083075e+02
1.951429314449178443e-01 5.133955962972595444e+02
1.952429534497589214e-01 5.134074485229263018e+02
1.953429754545999986e-01 5.134193311896128762e+02
1.954429974594410480e-01 5.134312441160832350e+02
1.955430194642821251e-01 5.134431871203681794e+02
1.956430414691232023e-01 5.134551600197695507e+02
1.957430634739642794e-01 5.134671626308629584e+02
1.958430854788053010e-01 5.134791947695038061e+02
1.959431074836463782e-01 5.134912562508318388e+02
1.960431294884874553e-01 5.135033468892759174e+02
1.961431514933285047e-01 5.135154664985572026e+02
1.962431734981695819e-01 5.135276148916964303e+02
1.963431955030106590e-01 5.135397918810158444e+02
1.964432175078517362e-01 5.135519972781455635e+02
1.965432395126927578e-01 5.135642308940285830e+02
1.966432615175338350e-01 5.135764925389240716e+02
1.967432835223749121e-01 5.135887820224126017e+02
1.968433055272159615e-01 5.136010991534022878e+02
1.969433275320570387e-01 5.136134437401300374e+02
1.970433495368981158e-01 5.136258155901728060e+02
1.971433715417391930e-01 5.136382145104444135e+02
1.972433935465802146e-01 5.136506403072063449e+02
1.973434155514212918e-01 5.136630927860701377e+02
1.974434375562623689e-01 5.136755717520027247e+02
1.975434595611034183e-01 5.136880770093305273e+02
1.976434815659444955e-01 5.137006083617467311e+02
1.977435035707855726e-01 5.137131656123127641e+02
1.978435255756266220e-01 5.137257485634660270e+02
1.979435475804676714e-01 5.137383570170233043e+02
1.980435695853087485e-01 5.137509907741869029e+02
1.981435915901498257e-01 5.137636496355473810e+02
1.982436135949908751e-01 5.137763334010918470e+02
1.983436355998319522e-01 5.137890418702062334e+02
1.984436576046730294e-01 5.138017748416810946e+02
1.985436796095140788e-01 5.138145321137167230e+02
1.986437016143551282e-01 5.138273134839288332e+02
1.987437236191962053e-01 5.138401187493526550e+02
1.988437456240372825e-01 5.138529477064474804e+02
1.989437676288783319e-01 5.138658001511042812e+02
1.990437896337194090e-01 5.138786758786475275e+02
1.991438116385604862e-01 5.138915746838428049e+02
1.992438336434015356e-01 5.139044963609007937e+02
1.993438556482425850e-01 5.139174407034814749e+02
1.994438776530836621e-01 5.139304075047025435e+02
1.995438996579247393e-01 5.139433965571399767e+02
1.996439216627657887e-01 5.139564076528375836e+02
1.997439436676068658e-01 5.139694405833090514e+02
1.998439656724479152e-01 5.139824951395441985e+02
1.999439876772889924e-01 5.139955711120152273e+02
2.000440096821300417e-01 5.140086682906797932e+02
2.001440316869711189e-01 5.140217864649886224e+02
2.002440536918121960e-01 5.140349254238877847e+02
2.003440756966532454e-01 5.140480849558273349e+02
2.004440977014943226e-01 5.140612648487640399e+02
2.005441197063353720e-01 5.140744648901679739e+02
2.006441417111764491e-01 5.140876848670262689e+02
2.007441637160174985e-01 5.141009245658508462e+02
2.008441857208585757e-01 5.141141837726811445e+02
2.009442077256996528e-01 5.141274622730917372e+02
2.010442297305407022e-01 5.141407598521947193e+02
2.011442517353817794e-01 5.141540762946488030e+02
2.012442737402228288e-01 5.141674113846619321e+02
2.013442957450639059e-01 5.141807649059965115e+02
2.014443177499049553e-01 5.141941366419767974e+02
2.015443397547460325e-01 5.142075263754925345e+02
2.016443617595871096e-01 5.142209338890048684e+02
2.017443837644281590e-01 5.142343589645516886e+02
2.018444057692692084e-01 5.142478013837533126e+02
2.019444277741102856e-01 5.142612609278180571e+02
2.020444497789513627e-01 5.142747373775453070e+02
2.021444717837924121e-01 5.142882305133355203e+02
2.022444937886334893e-01 5.143017401151915919e+02
2.023445157934745664e-01 5.143152659627253342e+02
2.024445377983156158e-01 5.143288078351638433e+02
2.025445598031566652e-01 5.143423655113545010e+02
2.026445818079977423e-01 5.143559387697702050e+02
2.027446038128388195e-01 5.143695273885140296e+02
2.028446258176798689e-01 5.143831311453272974e+02
2.029446478225209460e-01 5.143967498175915125e+02
2.030446698273620232e-01 5.144103831823379096e+02
2.031446918322030726e-01 5.144240310162485912e+02
2.032447138370441220e-01 5.144376930956649403e+02
2.033447358418851991e-01 5.144513691965928501e+02
2.034447578467262763e-01 5.144650590947069304e+02
2.035447798515673257e-01 5.144787625653577834e+02
2.036448018564084028e-01 5.144924793835759829e+02
2.037448238612494800e-01 5.145062093240778722e+02
2.038448458660905016e-01 5.145199521612723856e+02
2.039448678709315788e-01 5.145337076692644587e+02
2.040448898757726559e-01 5.145474756218628727e+02
2.041449118806137331e-01 5.145612557925844612e+02
2.042449338854547825e-01 5.145750479546591123e+02
2.043449558902958596e-01 5.145888518810363621e+02
2.044449778951369368e-01 5.146026673443911932e+02
2.045449998999779584e-01 5.146164941171297187e+02
2.046450219048190355e-01 5.146303319713927067e+02
2.047450439096601127e-01 5.146441806790628561e+02
2.048450659145011898e-01 5.146580400117715044e+02
2.049450879193422392e-01 5.146719097409013557e+02
2.050451099241833164e-01 5.146857896375942119e+02
2.051451319290243935e-01 5.146996794727560882e+02
2.052451539338654152e-01 5.147135790170621021e+02
2.053451759387064923e-01 5.147274880409626121e+02
2.054451979435475695e-01 5.147414063146895842e+02
2.055452199483886466e-01 5.147553336082615942e+02
2.056452419532296960e-01 5.147692696914881481e+02
2.057452639580707732e-01 5.147832143339766162e+02
2.058452859629118503e-01 5.147971673051389416e+02
2.059453079677528720e-01 5.148111283741942543e+02
2.060453299725939491e-01 5.148250973101779664e+02
2.061453519774350263e-01 5.148390738819446142e+02
2.062453739822761034e-01 5.148530578581744521e+02
2.063453959871171528e-01 5.148670490073797055e+02
2.064454179919582300e-01 5.148810470979094589e+02
2.065454399967992516e-01 5.148950518979553408e+02
2.066454620016403287e-01 5.149090631755574350e+02
2.067454840064814059e-01 5.149230806986096241e+02
2.068455060113224830e-01 5.149371042348658420e+02
2.069455280161635602e-01 5.149511335519443946e+02
2.070455500210046096e-01 5.149651684173350077e+02
2.071455720258456867e-01 5.149792085984042842e+02
2.072455940306867084e-01 5.149932538624000244e+02
2.073456160355277855e-01 5.150073039764586156e+02
2.074456380403688627e-01 5.150213587076092381e+02
2.075456600452099398e-01 5.150354178227802322e+02
2.076456820500510170e-01 5.150494810888048960e+02
2.077457040548920664e-01 5.150635482724268286e+02
2.078457260597331435e-01 5.150776191403045914e+02
2.079457480645741652e-01 5.150916934590202345e+02
2.080457700694152423e-01 5.151057709950805474e+02
2.081457920742563195e-01 5.151198515149272907e+02
2.082458140790973966e-01 5.151339347849396972e+02
2.083458360839384738e-01 5.151480205714414069e+02
2.084458580887795232e-01 5.151621086407053554e+02
2.085458800936205725e-01 5.151761987589600267e+02
2.086459020984616219e-01 5.151902906923951377e+02
2.087459241033026991e-01 5.152043842071660720e+02
2.088459461081437762e-01 5.152184790694018375e+02
2.089459681129848534e-01 5.152325750452083639e+02
2.090459901178259305e-01 5.152466719006748690e+02
2.091460121226669799e-01 5.152607694018805660e+02
2.092460341275080293e-01 5.152748673148975058e+02
2.093460561323490787e-01 5.152889654058002407e+02
2.094460781371901559e-01 5.153030634406669606e+02
2.095461001420312330e-01 5.153171611855896117e+02
2.096461221468723102e-01 5.153312584066756017e+02
2.097461441517133873e-01 5.153453548700551892e+02
2.098461661565544367e-01 5.153594503418864861e+02
2.099461881613954861e-01 5.153735445883634156e+02
2.100462101662365355e-01 5.153876373757161673e+02
2.101462321710776127e-01 5.154017284702231336e+02
2.102462541759186898e-01 5.154158176382107968e+02
2.103462761807597670e-01 5.154299046460625959e+02
2.104462981856008441e-01 5.154439892602243845e+02
2.105463201904418657e-01 5.154580712472080677e+02
2.106463421952829429e-01 5.154721503735988790e+02
2.107463642001239923e-01 5.154862264060601547e+02
2.108463862049650694e-01 5.155002991113393591e+02
2.109464082098061466e-01 5.155143682562737695e+02
2.110464302146472237e-01 5.155284336077938860e+02
2.111464522194883009e-01 5.155424949329333231e+02
2.112464742243293225e-01 5.155565519988290362e+02
2.113464962291703997e-01 5.155706045727309856e+02
2.114465182340114491e-01 5.155846524220063429e+02
2.115465402388525262e-01 5.155986953141432423e+02
2.116465622436936034e-01 5.156127330167593072e+02
2.117465842485346805e-01 5.156267652976049476e+02
2.118466062533757577e-01 5.156407919245700668e+02
2.119466282582167793e-01 5.156548126656878139e+02
2.120466502630578565e-01 5.156688272891426550e+02
2.121466722678989059e-01 5.156828355632735565e+02
2.122466942727399830e-01 5.156968372565809204e+02
2.123467162775810602e-01 5.157108321377303355e+02
2.124467382824221373e-01 5.157248199755598534e+02
2.125467602872631590e-01 5.157388005390846502e+02
2.126467822921042361e-01 5.157527735975022551e+02
2.127468042969453133e-01 5.157667389201981223e+02
2.128468263017863626e-01 5.157806962767508594e+02
2.129468483066274398e-01 5.157946454369390494e+02
2.130468703114685169e-01 5.158085861707432969e+02
2.131468923163095941e-01 5.158225182483553226e+02
2.132469143211506157e-01 5.158364414401805789e+02
2.133469363259916929e-01 5.158503555168463208e+02
2.134469583308327700e-01 5.158642602492042215e+02
2.135469803356738194e-01 5.158781554083362835e+02
2.136470023405148966e-01 5.158920407655623421e+02
2.137470243453559737e-01 5.159059160924430216e+02
2.138470463501970509e-01 5.159197811607859876e+02
2.139470683550380725e-01 5.159336357426503810e+02
2.140470903598791497e-01 5.159474796103539802e+02
2.141471123647202268e-01 5.159613125364771804e+02
2.142471343695612762e-01 5.159751342938661764e+02
2.143471563744023534e-01 5.159889446556442181e+02
2.144471783792434305e-01 5.160027433952105866e+02
2.145472003840845077e-01 5.160165302862485532e+02
2.146472223889255293e-01 5.160303051027316315e+02
2.147472443937666065e-01 5.160440676189258511e+02
2.148472663986076836e-01 5.160578176093980574e+02
2.149472884034487330e-01 5.160715548490196625e+02
2.150473104082898101e-01 5.160852791129703974e+02
2.151473324131308873e-01 5.160989901767471792e+02
2.152473544179719367e-01 5.161126878161657032e+02
2.153473764228129861e-01 5.161263718073669224e+02
2.154473984276540632e-01 5.161400419268228461e+02
2.155474204324951404e-01 5.161536979513412007e+02
2.156474424373361898e-01 5.161673396580692952e+02
2.157474644421772669e-01 5.161809668245010698e+02
2.158474864470183441e-01 5.161945792284816434e+02
2.159475084518593935e-01 5.162081766482110652e+02
2.160475304567004429e-01 5.162217588622511357e+02
2.161475524615415200e-01 5.162353256495300684e+02
2.162475744663825972e-01 5.162488767893456725e+02
2.163475964712236466e-01 5.162624120613734249e+02
2.164476184760647237e-01 5.162759312456695397e+02
2.165476404809058009e-01 5.162894341226749475e+02
2.166476624857468503e-01 5.163029204732241624e+02
2.167476844905878997e-01 5.163163900785461919e+02
2.168477064954289768e-01 5.163298427202711309e+02
2.169477285002700540e-01 5.163432781804353908e+02
2.170477505051111033e-01 5.163566962414860200e+02
2.171477725099521805e-01 5.163700966862858195e+02
2.172477945147932299e-01 5.163834792981191413e+02
2.173478165196343070e-01 5.163968438606949576e+02
2.174478385244753564e-01 5.164101901581526590e+02
2.175478605293164336e-01 5.164235179750679663e+02
2.176478825341575107e-01 5.164368270964558860e+02
2.177479045389985601e-01 5.164501173077762815e+02
2.178479265438396373e-01 5.164633883949396704e+02
2.179479485486806867e-01 5.164766401443102950e+02
2.180479705535217638e-01 5.164898723427120331e+02
2.181479925583628132e-01 5.165030847774331733e+02
2.182480145632038904e-01 5.165162772362308488e+02
2.183480365680449675e-01 5.165294495073351300e+02
2.184480585728860169e-01 5.165426013794551636e+02
2.185480805777270941e-01 5.165557326417829245e+02
2.186481025825681435e-01 5.165688430839971943e+02
2.187481245874092206e-01 5.165819324962712926e+02
2.188481465922502700e-01 5.165950006692733041e+02
2.189481685970913472e-01 5.166080473941735818e+02
2.190481906019324243e-01 5.166210724626504316e+02
2.191482126067734737e-01 5.166340756668905669e+02
2.192482346116145231e-01 5.166470567995970669e+02
2.193482566164556002e-01 5.166600156539936961e+02
2.194482786212966774e-01 5.166729520238288842e+02
2.195483006261377268e-01 5.166858657033789086e+02
2.196483226309788039e-01 5.166987564874541476e+02
2.197483446358198811e-01 5.167116241714041962e+02
2.198483666406609305e-01 5.167244685511200259e+02
2.199483886455019799e-01 5.167372894230402380e+02
2.200484106503430570e-01 5.167500865841545874e+02
2.201484326551841342e-01 5.167628598320093261e+02
2.202484546600251836e-01 5.167756089647107274e+02
2.203484766648662607e-01 5.167883337809302020e+02
2.204484986697073379e-01 5.168010340799069127e+02
2.205485206745483873e-01 5.168137096614556185e+02
2.206485426793894367e-01 5.168263603259680394e+02
2.207485646842305138e-01 5.168389858744168350e+02
2.208485866890715910e-01 5.168515861083628806e+02
2.209486086939126404e-01 5.168641608299569725e+02
2.210486306987537175e-01 5.168767098419450576e+02
2.211486527035947947e-01 5.168892329476719851e+02
2.212486747084358163e-01 5.169017299510867360e+02
2.213486967132768934e-01 5.169142006567449243e+02
2.214487187181179706e-01 5.169266448698150498e+02
2.215487407229590477e-01 5.169390623960813400e+02
2.216487627278000971e-01 5.169514530419482981e+02
2.217487847326411743e-01 5.169638166144439992e+02
2.218488067374822514e-01 5.169761529212260029e+02
2.219488287423232731e-01 5.169884617705827168e+02
2.220488507471643502e-01 5.170007429714420368e+02
2.221488727520054274e-01 5.170129963333695287e+02
2.222488947568465045e-01 5.170252216665768401e+02
2.223489167616875539e-01 5.170374187819240888e+02
2.224489387665286311e-01 5.170495874909238410e+02
2.225489607713697082e-01 5.170617276057453182e+02
2.226489827762107299e-01 5.170738389392190584e+02
2.227490047810518070e-01 5.170859213048390757e+02
2.228490267858928842e-01 5.170979745167682040e+02
2.229490487907339613e-01 5.171099983898411665e+02
2.230490707955750107e-01 5.171219927395698051e+02
2.231490928004160879e-01 5.171339573821450131e+02
2.232491148052571650e-01 5.171458921344421924e+02
2.233491368100981866e-01 5.171577968140240955e+02
2.234491588149392638e-01 5.171696712391445772e+02
2.235491808197803409e-01 5.171815152287534829e+02
2.236492028246214181e-01 5.171933286024985819e+02
2.237492248294624675e-01 5.172051111807312509e+02
2.238492468343035446e-01 5.172168627845081801e+02
2.239492688391445663e-01 5.172285832355975117e+02
2.240492908439856434e-01 5.172402723564794087e+02
2.241493128488267206e-01 5.172519299703523075e+02
2.242493348536677977e-01 5.172635559011356463e+02
2.243493568585088749e-01 5.172751499734727076e+02
2.244493788633499243e-01 5.172867120127357339e+02
2.245494008681910014e-01 5.172982418450274054e+02
2.246494228730320231e-01 5.173097392971861836e+02
2.247494448778731002e-01 5.173212041967897221e+02
2.248494668827141774e-01 5.173326363721571397e+02
2.249494888875552545e-01 5.173440356523525452e+02
2.250495108923963317e-01 5.173554018671904942e+02
2.251495328972373811e-01 5.173667348472371259e+02
2.252495549020784582e-01 5.173780344238141424e+02
2.253495769069194798e-01 5.173893004290026738e+02
2.254495989117605570e-01 5.174005326956470299e+02
2.255496209166016341e-01 5.174117310573554960e+02
2.256496429214427113e-01 5.174228953485074953e+02
2.257496649262837884e-01 5.174340254042543847e+02
2.258496869311248378e-01 5.174451210605224105e+02
2.259497089359658872e-01 5.174561821540170286e+02
2.260497309408069366e-01 5.174672085222260876e+02
2.261497529456480138e-01 5.174782000034225575e+02
2.262497749504890909e-01 5.174891564366678267e+02
2.263497969553301681e-01 5.175000776618147711e+02
2.264498189601712452e-01 5.175109635195109377e+02
2.265498409650122946e-01 5.175218138512012729e+02
2.266498629698533440e-01 5.175326284991326702e+02
2.267498849746943934e-01 5.175434073063544247e+02
2.268499069795354706e-01 5.175541501167247134e+02
2.269499289843765477e-01 5.175648567749090034e+02
2.270499509892176249e-01 5.175755271263871009e+02
2.271499729940587020e-01 5.175861610174556517e+02
2.272499949988997514e-01 5.175967582952274597e+02
2.273500170037408008e-01 5.176073188076384213e+02
2.274500390085818502e-01 5.176178424034496857e+02
2.275500610134229273e-01 5.176283289322484507e+02
2.276500830182640045e-01 5.176387782444519416e+02
2.277501050231050816e-01 5.176491901913112770e+02
2.278501270279461588e-01 5.176595646249131732e+02
2.279501490327871804e-01 5.176699013981824464e+02
2.280501710376282576e-01 5.176802003648849677e+02
2.281501930424693070e-01 5.176904613796311878e+02
2.282502150473103841e-01 5.177006842978770464e+02
2.283502370521514613e-01 5.177108689759298841e+02
2.284502590569925384e-01 5.177210152709466229e+02
2.285502810618336156e-01 5.177311230409393374e+02
2.286503030666746372e-01 5.177411921447783243e+02
2.287503250715157144e-01 5.177512224421917608e+02
2.288503470763567638e-01 5.177612137937715033e+02
2.289503690811978409e-01 5.177711660609733144e+02
2.290503910860389181e-01 5.177810791061198188e+02
2.291504130908799952e-01 5.177909527924042550e+02
2.292504350957210724e-01 5.178007869838907027e+02
2.293504571005620940e-01 5.178105815455189713e+02
2.294504791054031712e-01 5.178203363431043726e+02
2.295505011102442205e-01 5.178300512433422682e+02
2.296505231150852977e-01 5.178397261138093199e+02
2.297505451199263748e-01 5.178493608229655365e+02
2.298505671247674520e-01 5.178589552401585934e+02
2.299505891296084736e-01 5.178685092356229234e+02
2.300506111344495508e-01 5.178780226804831273e+02
2.301506331392906279e-01 5.178874954467585212e+02
2.302506551441316773e-01 5.178969274073624547e+02
2.303506771489727545e-01 5.179063184361048116e+02
2.304506991538138316e-01 5.179156684076953070e+02
2.305507211586549088e-01 5.179249771977454202e+02
2.306507431634959304e-01 5.179342446827687354e+02
2.307507651683370076e-01 5.179434707401856031e+02
2.308507871731780847e-01 5.179526552483242767e+02
2.309508091780191341e-01 5.179617980864202309e+02
2.310508311828602113e-01 5.179708991346228686e+02
2.311508531877012884e-01 5.179799582739940433e+02
2.312508751925423656e-01 5.179889753865107878e+02
2.313508971973833872e-01 5.179979503550672462e+02
2.314509192022244644e-01 5.180068830634776305e+02
2.315509412070655415e-01 5.180157733964764475e+02
2.316509632119065909e-01 5.180246212397206591e+02
2.317509852167476680e-01 5.180334264797929791e+02
2.318510072215887452e-01 5.180421890042015320e+02
2.319510292264298223e-01 5.180509087013828093e+02
2.320510512312708440e-01 5.180595854607028059e+02
2.321510732361119211e-01 5.180682191724590666e+02
2.322510952409529983e-01 5.180768097278837558e+02
2.323511172457940477e-01 5.180853570191417248e+02
2.324511392506351248e-01 5.180938609393355136e+02
2.325511612554762020e-01 5.181023213825054654e+02
2.326511832603172514e-01 5.181107382436309763e+02
2.327512052651583008e-01 5.181191114186337927e+02
2.328512272699993779e-01 5.181274408043772155e+02
2.329512492748404551e-01 5.181357262986684873e+02
2.330512712796815045e-01 5.181439678002617484e+02
2.331512932845225816e-01 5.181521652088562178e+02
2.332513152893636588e-01 5.181603184251016501e+02
2.333513372942047082e-01 5.181684273505957208e+02
2.334513592990457576e-01 5.181764918878881190e+02
2.335513813038868347e-01 5.181845119404815705e+02
2.336514033087279119e-01 5.181924874128308147e+02
2.337514253135689613e-01 5.182004182103476069e+02
2.338514473184100384e-01 5.182083042393991263e+02
2.339514693232511156e-01 5.182161454073094546e+02
2.340514913280921649e-01 5.182239416223619628e+02
2.341515133329332143e-01 5.182316927938001072e+02
2.342515353377742915e-01 5.182393988318283391e+02
2.343515573426153686e-01 5.182470596476124456e+02
2.344515793474564180e-01 5.182546751532820508e+02
2.345516013522974952e-01 5.182622452619320939e+02
2.346516233571385446e-01 5.182697698876206687e+02
2.347516453619796217e-01 5.182772489453739126e+02
2.348516673668206711e-01 5.182846823511843013e+02
2.349516893716617483e-01 5.182920700220131494e+02
2.350517113765028254e-01 5.182994118757906108e+02
2.351517333813438748e-01 5.183067078314177252e+02
2.352517553861849520e-01 5.183139578087651671e+02
2.353517773910260014e-01 5.183211617286769979e+02
2.354517993958670785e-01 5.183283195129698697e+02
2.355518214007081279e-01 5.183354310844318888e+02
2.356518434055492051e-01 5.183424963668279588e+02
2.357518654103902822e-01 5.183495152848965972e+02
2.358518874152313316e-01 5.183564877643523232e+02
2.359519094200724088e-01 5.183634137318863395e+02
2.360519314249134581e-01 5.183702931151668736e+02
2.361519534297545353e-01 5.183771258428397459e+02
2.362519754345955847e-01 5.183839118445293934e+02
2.363519974394366618e-01 5.183906510508395513e+02
2.364520194442777390e-01 5.183973433933522301e+02
2.365520414491187884e-01 5.184039888046308988e+02
2.366520634539598378e-01 5.184105872182188932e+02
2.367520854588009149e-01 5.184171385686412350e+02
2.368521074636419921e-01 5.184236427914036085e+02
2.369521294684830415e-01 5.184300998229948618e+02
2.370521514733241186e-01 5.184365096008855289e+02
2.371521734781651958e-01 5.184428720635280570e+02
2.372521954830062452e-01 5.184491871503608991e+02
2.373522174878472946e-01 5.184554548018021478e+02
2.374522394926883717e-01 5.184616749592569249e+02
2.375522614975294489e-01 5.184678475651124927e+02
2.376522835023704983e-01 5.184739725627418920e+02
2.377523055072115754e-01 5.184800498965014413e+02
2.378523275120526526e-01 5.184860795117327825e+02
2.379523495168937020e-01 5.184920613547623134e+02
2.380523715217347513e-01 5.184979953729024373e+02
2.381523935265758285e-01 5.185038815144494038e+02
2.382524155314169056e-01 5.185097197286860364e+02
2.383524375362579550e-01 5.185155099658790050e+02
2.384524595410990322e-01 5.185212521772825767e+02
2.385524815459401093e-01 5.185269463151348646e+02
2.386525035507811310e-01 5.185325923326597604e+02
2.387525255556222081e-01 5.185381901840671617e+02
2.388525475604632853e-01 5.185437398245519489e+02
2.389525695653043624e-01 5.185492412102942126e+02
2.390525915701454118e-01 5.185546942984598218e+02
2.391526135749864890e-01 5.185600990471991736e+02
2.392526355798275661e-01 5.185654554156471931e+02
2.393526575846685878e-01 5.185707633639256073e+02
2.394526795895096649e-01 5.185760228531386247e+02
2.395527015943507421e-01 5.185812338453753227e+02
2.396527235991918192e-01 5.185863963037089661e+02
2.397527456040328686e-01 5.185915101921972337e+02
2.398527676088739458e-01 5.185965754758801722e+02
2.399527896137150229e-01 5.186015921207817883e+02
