0.000000000000000000e+00 5.147425124668810668e+02
1.000240057613827342e-04 5.147382251036293610e+02
2.000480115227654685e-04 5.147339170814859699e+02
3.000720172841482027e-04 5.147295886613658240e+02
4.000960230455309369e-04 5.147252401048891670e+02
5.001200288069136170e-04 5.147208716743718924e+02
6.001440345682964054e-04 5.147164836328154252e+02
7.001680403296790854e-04 5.147120762438953534e+02
8.001920460910618739e-04 5.147076497719505142e+02
9.002160518524445539e-04 5.147032044819752628e+02
1.000240057613827234e-03 5.146987406396050346e+02
1.100264063375209914e-03 5.146942585111088420e+02
1.200288069136592811e-03 5.146897583633767681e+02
1.300312074897975491e-03 5.146852404639099632e+02
1.400336080659358171e-03 5.146807050808100712e+02
1.500360086420741068e-03 5.146761524827686571e+02
1.600384092182123748e-03 5.146715829390564068e+02
1.700408097943506211e-03 5.146669967195113031e+02
1.800432103704889108e-03 5.146623940945301001e+02
1.900456109466271788e-03 5.146577753350558169e+02
2.000480115227654468e-03 5.146531407125661417e+02
2.100504120989037365e-03 5.146484904990651330e+02
2.200528126750419828e-03 5.146438249670710547e+02
2.300552132511802725e-03 5.146391443896052351e+02
2.400576138273185622e-03 5.146344490401805842e+02
2.500600144034568085e-03 5.146297391927928402e+02
2.600624149795950982e-03 5.146250151219070403e+02
2.700648155557333879e-03 5.146202771024489948e+02
2.800672161318716342e-03 5.146155254097919851e+02
2.900696167080099239e-03 5.146107603197481239e+02
3.000720172841482136e-03 5.146059821085549402e+02
3.100744178602864165e-03 5.146011910528661701e+02
3.200768184364247496e-03 5.145963874297397069e+02
3.300792190125629959e-03 5.145915715166279369e+02
3.400816195887012422e-03 5.145867435913639838e+02
3.500840201648395319e-03 5.145819039321536366e+02
3.600864207409778216e-03 5.145770528175622758e+02
3.700888213171160679e-03 5.145721905265040732e+02
3.800912218932543576e-03 5.145673173382316463e+02
3.900936224693926473e-03 5.145624335323244622e+02
4.000960230455308936e-03 5.145575393886764459e+02
4.100984236216691399e-03 5.145526351874874535e+02
4.201008241978074730e-03 5.145477212092491754e+02
4.301032247739457193e-03 5.145427977347360411e+02
4.401056253500839656e-03 5.145378650449928273e+02
4.501080259262222986e-03 5.145329234213246536e+02
4.601104265023605450e-03 5.145279731452841361e+02
4.701128270784987913e-03 5.145230144986600180e+02
4.801152276546371243e-03 5.145180477634695535e+02
4.901176282307753707e-03 5.145130732219414540e+02
5.001200288069136170e-03 5.145080911565095221e+02
5.101224293830518633e-03 5.145031018497992363e+02
5.201248299591901963e-03 5.144981055846162690e+02
5.301272305353285294e-03 5.144931026439348898e+02
5.401296311114667757e-03 5.144880933108884165e+02
5.501320316876049353e-03 5.144830778687572774e+02
5.601344322637432684e-03 5.144780566009554832e+02
5.701368328398815147e-03 5.144730297910220997e+02
5.801392334160198477e-03 5.144679977226090841e+02
5.901416339921580941e-03 5.144629606794687788e+02
6.001440345682964271e-03 5.144579189454441348e+02
6.101464351444345867e-03 5.144528728044565469e+02
6.201488357205728330e-03 5.144478225404941441e+02
6.301512362967111661e-03 5.144427684376015577e+02
6.401536368728494991e-03 5.144377107798668476e+02
6.501560374489877454e-03 5.144326498514125205e+02
6.601584380251259918e-03 5.144275859363820018e+02
6.701608386012643248e-03 5.144225193189286074e+02
6.801632391774024844e-03 5.144174502832054259e+02
6.901656397535408174e-03 5.144123791133526993e+02
7.001680403296790638e-03 5.144073060934866817e+02
7.101704409058173968e-03 5.144022315076887253e+02
7.201728414819556431e-03 5.143971556399939118e+02
7.301752420580939762e-03 5.143920787743778646e+02
7.401776426342321358e-03 5.143870011947486773e+02
7.501800432103704688e-03 5.143819231849327025e+02
7.601824437865087152e-03 5.143768450286636380e+02
7.701848443626469615e-03 5.143717670095742278e+02
7.801872449387852945e-03 5.143666894111781858e+02
7.901896455149236276e-03 5.143616125168665576e+02
8.001920460910617872e-03 5.143565366098912364e+02
8.101944466672001202e-03 5.143514619733557538e+02
8.201968472433382798e-03 5.143463888902026611e+02
8.301992478194766129e-03 5.143413176432031833e+02
8.402016483956149459e-03 5.143362485149451686e+02
8.502040489717532790e-03 5.143311817878233114e+02
8.602064495478914385e-03 5.143261177440241454e+02
8.702088501240295981e-03 5.143210566655208140e+02
8.802112507001679312e-03 5.143159988340539712e+02
8.902136512763062642e-03 5.143109445311278023e+02
9.002160518524445973e-03 5.143058940379936530e+02
9.102184524285829303e-03 5.143008476356424126e+02
9.202208530047210899e-03 5.142958056047892796e+02
9.302232535808592495e-03 5.142907682258653495e+02
9.402256541569975826e-03 5.142857357790071546e+02
9.502280547331359156e-03 5.142807085440415449e+02
9.602304553092742487e-03 5.142756868004782973e+02
9.702328558854124083e-03 5.142706708274972698e+02
9.802352564615507413e-03 5.142656609039360092e+02
9.902376570376889009e-03 5.142606573082815657e+02
1.000240057613827234e-02 5.142556603186553730e+02
1.010242458189965567e-02 5.142506702128063125e+02
1.020244858766103727e-02 5.142456872680963897e+02
1.030247259342242060e-02 5.142407117614903882e+02
1.040249659918380393e-02 5.142357439695452967e+02
1.050252060494518726e-02 5.142307841683992820e+02
1.060254461070657059e-02 5.142258326337594099e+02
1.070256861646795218e-02 5.142208896408908458e+02
1.080259262222933551e-02 5.142159554646074184e+02
1.090261662799071538e-02 5.142110303792590003e+02
1.100264063375209871e-02 5.142061146587196845e+02
1.110266463951348204e-02 5.142012085763788036e+02
1.120268864527486537e-02 5.141963124051291061e+02
1.130271265103624870e-02 5.141914264173550464e+02
1.140273665679763029e-02 5.141865508849216440e+02
1.150276066255901362e-02 5.141816860791666386e+02
1.160278466832039695e-02 5.141768322708848018e+02
1.170280867408177855e-02 5.141719897303191829e+02
1.180283267984316188e-02 5.141671587271532644e+02
1.190285668560454521e-02 5.141623395304935684e+02
1.200288069136592854e-02 5.141575324088647676e+02
1.210290469712731187e-02 5.141527376301957020e+02
1.220292870288869173e-02 5.141479554618098291e+02
1.230295270865007506e-02 5.141431861704127186e+02
1.240297671441145666e-02 5.141384300220843215e+02
1.250300072017283999e-02 5.141336872822645319e+02
1.260302472593422332e-02 5.141289582157460245e+02
1.270304873169560665e-02 5.141242430866610675e+02
1.280307273745698998e-02 5.141195421584715177e+02
1.290309674321837158e-02 5.141148556939585887e+02
1.300312074897975491e-02 5.141101839552117099e+02
1.310314475474113824e-02 5.141055272036185215e+02
1.320316876050251984e-02 5.141008856998533929e+02
1.330319276626390317e-02 5.140962597038682134e+02
1.340321677202528650e-02 5.140916494748805690e+02
1.350324077778666809e-02 5.140870552713632833e+02
1.360326478354804969e-02 5.140824773510348678e+02
1.370328878930943302e-02 5.140779159708495172e+02
1.380331279507081635e-02 5.140733713869846042e+02
1.390333680083219794e-02 5.140688438548312433e+02
1.400336080659358128e-02 5.140643336289858780e+02
1.410338481235496461e-02 5.140598409632359562e+02
1.420340881811634794e-02 5.140553661105547008e+02
1.430343282387773127e-02 5.140509093230858753e+02
1.440345682963911286e-02 5.140464708521365083e+02
1.450348083540049619e-02 5.140420509481664340e+02
1.460350484116187952e-02 5.140376498607774920e+02
1.470352884692326112e-02 5.140332678387026135e+02
1.480355285268464272e-02 5.140289051297982041e+02
1.490357685844602605e-02 5.140245619810316384e+02
1.500360086420740938e-02 5.140202386384721649e+02
1.510362486996879097e-02 5.140159353472805606e+02
1.520364887573017430e-02 5.140116523517006044e+02
1.530367288149155763e-02 5.140073898950471403e+02
1.540369688725293923e-02 5.140031482196968682e+02
1.550372089301432256e-02 5.139989275670794768e+02
1.560374489877570589e-02 5.139947281776660475e+02
1.570376890453708749e-02 5.139905502909610959e+02
1.580379291029847255e-02 5.139863941454909764e+02
1.590381691605985415e-02 5.139822599787964919e+02
1.600384092182123574e-02 5.139781480274203886e+02
1.610386492758261734e-02 5.139740585269000803e+02
1.620388893334400240e-02 5.139699917117561654e+02
1.630391293910538400e-02 5.139659478154853787e+02
1.640393694486676560e-02 5.139619270705480858e+02
1.650396095062815066e-02 5.139579297083608935e+02
1.660398495638953226e-02 5.139539559592865317e+02
1.670400896215091385e-02 5.139500060526233938e+02
1.680403296791229892e-02 5.139460802165989435e+02
1.690405697367368051e-02 5.139421786783569814e+02
1.700408097943506558e-02 5.139383016639515063e+02
1.710410498519644718e-02 5.139344493983338680e+02
1.720412899095782877e-02 5.139306221053481067e+02
1.730415299671921037e-02 5.139268200077176516e+02
1.740417700248059196e-02 5.139230433270390677e+02
1.750420100824197703e-02 5.139192922837709148e+02
1.760422501400335862e-02 5.139155670972252210e+02
1.770424901976474369e-02 5.139118679855599794e+02
1.780427302552612528e-02 5.139081951657683476e+02
1.790429703128750688e-02 5.139045488536709172e+02
1.800432103704889195e-02 5.139009292639061641e+02
1.810434504281027354e-02 5.138973366099214672e+02
1.820436904857165861e-02 5.138937711039653777e+02
1.830439305433304020e-02 5.138902329570781831e+02
1.840441706009442180e-02 5.138867223790831531e+02
1.850444106585580686e-02 5.138832395785777862e+02
1.860446507161718499e-02 5.138797847629260787e+02
1.870448907737857006e-02 5.138763581382481789e+02
1.880451308313995165e-02 5.138729599094151581e+02
1.890453708890133672e-02 5.138695902800368458e+02
1.900456109466271831e-02 5.138662494524558042e+02
1.910458510042409991e-02 5.138629376277373240e+02
1.920460910618548497e-02 5.138596550056639671e+02
1.930463311194686657e-02 5.138564017847227205e+02
1.940465711770824817e-02 5.138531781621027221e+02
1.950468112346963323e-02 5.138499843336809363e+02
1.960470512923101483e-02 5.138468204940190844e+02
1.970472913499239642e-02 5.138436868363521626e+02
1.980475314075377802e-02 5.138405835525826433e+02
1.990477714651516308e-02 5.138375108332704713e+02
2.000480115227654468e-02 5.138344688676276064e+02
2.010482515803792974e-02 5.138314578435089288e+02
2.020484916379931134e-02 5.138284779474031438e+02
2.030487316956069641e-02 5.138255293644276662e+02
2.040489717532207453e-02 5.138226122783181609e+02
2.050492118108345613e-02 5.138197268714245638e+02
2.060494518684484119e-02 5.138168733246982356e+02
2.070496919260622279e-02 5.138140518176892328e+02
2.080499319836760785e-02 5.138112625285376680e+02
2.090501720412898945e-02 5.138085056339647281e+02
2.100504120989037452e-02 5.138057813092647166e+02
2.110506521565175264e-02 5.138030897283022114e+02
2.120508922141314118e-02 5.138004310634997864e+02
2.130511322717451930e-02 5.137978054858327823e+02
2.140513723293590437e-02 5.137952131648230534e+02
2.150516123869728596e-02 5.137926542685312370e+02
2.160518524445867103e-02 5.137901289635483408e+02
2.170520925022005262e-02 5.137876374149899448e+02
2.180523325598143075e-02 5.137851797864908576e+02
2.190525726174281929e-02 5.137827562401945443e+02
2.200528126750419741e-02 5.137803669367497150e+02
2.210530527326558248e-02 5.137780120353013444e+02
2.220532927902696407e-02 5.137756916934854416e+02
2.230535328478834914e-02 5.137734060674212060e+02
2.240537729054973073e-02 5.137711553117059111e+02
2.250540129631111580e-02 5.137689395794064922e+02
2.260542530207249740e-02 5.137667590220547709e+02
2.270544930783387899e-02 5.137646137896401797e+02
2.280547331359526059e-02 5.137625040306032815e+02
2.290549731935664565e-02 5.137604298918296308e+02
2.300552132511802725e-02 5.137583915186443164e+02
2.310554533087940884e-02 5.137563890548046857e+02
2.320556933664079391e-02 5.137544226424946601e+02
2.330559334240217551e-02 5.137524924223191647e+02
2.340561734816355710e-02 5.137505985332965111e+02
2.350564135392493870e-02 5.137487411128555550e+02
2.360566535968632376e-02 5.137469202968260333e+02
2.370568936544770536e-02 5.137451362194348121e+02
2.380571337120909042e-02 5.137433890133013392e+02
2.390573737697047202e-02 5.137416788094291178e+02
2.400576138273185708e-02 5.137400057372021820e+02
2.410578538849323521e-02 5.137383699243778210e+02
2.420580939425462375e-02 5.137367714970837369e+02
2.430583340001600187e-02 5.137352105798104276e+02
2.440585740577738347e-02 5.137336872954050477e+02
2.450588141153876853e-02 5.137322017650694761e+02
2.460590541730015013e-02 5.137307541083511069e+02
2.470592942306153519e-02 5.137293444431408034e+02
2.480595342882291332e-02 5.137279728856656220e+02
2.490597743458430186e-02 5.137266395504857428e+02
2.500600144034567998e-02 5.137253445504870797e+02
2.510602544610706505e-02 5.137240879968782110e+02
2.520604945186844664e-02 5.137228699991856047e+02
2.530607345762983171e-02 5.137216906652464559e+02
2.540609746339121330e-02 5.137205501012073228e+02
2.550612146915259837e-02 5.137194484115170781e+02
2.560614547491397996e-02 5.137183856989225887e+02
2.570616948067535809e-02 5.137173620644653056e+02
2.580619348643674316e-02 5.137163776074755788e+02
2.590621749219812475e-02 5.137154324255683377e+02
2.600624149795950982e-02 5.137145266146404765e+02
2.610626550372089141e-02 5.137136602688639186e+02
2.620628950948227648e-02 5.137128334806828889e+02
2.630631351524365807e-02 5.137120463408092519e+02
2.640633752100503967e-02 5.137112989382204660e+02
2.650636152676642127e-02 5.137105913601513976e+02
2.660638553252780633e-02 5.137099236920951171e+02
2.670640953828918793e-02 5.137092960177950545e+02
2.680643354405057299e-02 5.137087084192435213e+02
2.690645754981195459e-02 5.137081609766769361e+02
2.700648155557333618e-02 5.137076537685732092e+02
2.710650556133471778e-02 5.137071868716468543e+02
2.720652956709609938e-02 5.137067603608456920e+02
2.730655357285748444e-02 5.137063743093486892e+02
2.740657757861886604e-02 5.137060287885605021e+02
2.750660158438025110e-02 5.137057238681098852e+02
2.760662559014163270e-02 5.137054596158461663e+02
2.770664959590301776e-02 5.137052360978341312e+02
2.780667360166439589e-02 5.137050533783528863e+02
2.790669760742578442e-02 5.137049115198931304e+02
2.800672161318716255e-02 5.137048105831527209e+02
2.810674561894854762e-02 5.137047506270344002e+02
2.820676962470992921e-02 5.137047317086420435e+02
2.830679363047131081e-02 5.137047538832799773e+02
2.840681763623269587e-02 5.137048172044478633e+02
2.850684164199407400e-02 5.137049217238401297e+02
2.860686564775546253e-02 5.137050674913413104e+02
2.870688965351684066e-02 5.137052545550261584e+02
2.880691365927822573e-02 5.137054829611536206e+02
2.890693766503960732e-02 5.137057527541682020e+02
2.900696167080099239e-02 5.137060639766949635e+02
2.910698567656237398e-02 5.137064166695390668e+02
2.920700968232375905e-02 5.137068108716824781e+02
2.930703368808514064e-02 5.137072466202820351e+02
2.940705769384652224e-02 5.137077239506679689e+02
2.950708169960790384e-02 5.137082428963414031e+02
2.960710570536928543e-02 5.137088034889728760e+02
2.970712971113067050e-02 5.137094057584004076e+02
2.980715371689205209e-02 5.137100497326268851e+02
2.990717772265343716e-02 5.137107354378213131e+02
3.000720172841481875e-02 5.137114628983116518e+02
3.010722573417620035e-02 5.137122321365901598e+02
3.020724973993758194e-02 5.137130431733065734e+02
3.030727374569896701e-02 5.137138960272690156e+02
3.040729775146034861e-02 5.137147907154430868e+02
3.050732175722173367e-02 5.137157272529493639e+02
3.060734576298311527e-02 5.137167056530622631e+02
3.070736976874450033e-02 5.137177259272100400e+02
3.080739377450587846e-02 5.137187880849729709e+02
3.090741778026726005e-02 5.137198921340828974e+02
3.100744178602864512e-02 5.137210380804208398e+02
3.110746579179002672e-02 5.137222259280184744e+02
3.120748979755141178e-02 5.137234556790559736e+02
3.130751380331279338e-02 5.137247273338623472e+02
3.140753780907417497e-02 5.137260408909119178e+02
3.150756181483555657e-02 5.137273963468285274e+02
3.160758582059694510e-02 5.137287936963814445e+02
3.170760982635832670e-02 5.137302329324855918e+02
3.180763383211970829e-02 5.137317140462025691e+02
3.190765783788108989e-02 5.137332370267391752e+02
3.200768184364247149e-02 5.137348018614479770e+02
3.210770584940385308e-02 5.137364085358262855e+02
3.220772985516523468e-02 5.137380570335170660e+02
3.230775386092662321e-02 5.137397473363080280e+02
3.240777786668800481e-02 5.137414794241341269e+02
3.250780187244938640e-02 5.137432532750732435e+02
3.260782587821076800e-02 5.137450688653517545e+02
3.270784988397215653e-02 5.137469261693406679e+02
3.280787388973353119e-02 5.137488251595578959e+02
3.290789789549491973e-02 5.137507658066693921e+02
3.300792190125630132e-02 5.137527480794874464e+02
3.310794590701768292e-02 5.137547719449734132e+02
3.320796991277906451e-02 5.137568373682373704e+02
3.330799391854044611e-02 5.137589443125394837e+02
3.340801792430182771e-02 5.137610927392903477e+02
3.350804193006320930e-02 5.137632826080514405e+02
3.360806593582459784e-02 5.137655138765377387e+02
3.370808994158597943e-02 5.137677865006160118e+02
3.380811394734736103e-02 5.137701004343100522e+02
3.390813795310874262e-02 5.137724556297974914e+02
3.400816195887013116e-02 5.137748520374144618e+02
3.410818596463151275e-02 5.137772896056544596e+02
3.420820997039289435e-02 5.137797682811703908e+02
3.430823397615427595e-02 5.137822880087779822e+02
3.440825798191565754e-02 5.137848487314550994e+02
3.450828198767703914e-02 5.137874503903440200e+02
3.460830599343842073e-02 5.137900929247524573e+02
3.470832999919980927e-02 5.137927762721576528e+02
3.480835400496118393e-02 5.137955003682052393e+02
3.490837801072257246e-02 5.137982651467128790e+02
3.500840201648395406e-02 5.138010705396725371e+02
3.510842602224533565e-02 5.138039164772510503e+02
3.520845002800671725e-02 5.138068028877929692e+02
3.530847403376810578e-02 5.138097296978230588e+02
3.540849803952948738e-02 5.138126968320497099e+02
3.550852204529086897e-02 5.138157042133628920e+02
3.560854605105225057e-02 5.138187517628425667e+02
3.570857005681363217e-02 5.138218393997561861e+02
3.580859406257501376e-02 5.138249670415643777e+02
3.590861806833639536e-02 5.138281346039211712e+02
3.600864207409778389e-02 5.138313420006792285e+02
3.610866607985916549e-02 5.138345891438904118e+02
3.620869008562054708e-02 5.138378759438090810e+02
3.630871409138192868e-02 5.138412023088961860e+02
3.640873809714331721e-02 5.138445681458211993e+02
3.650876210290469187e-02 5.138479733594651861e+02
3.660878610866608041e-02 5.138514178529238734e+02
3.670881011442746200e-02 5.138549015275109468e+02
3.680883412018884360e-02 5.138584242827621438e+02
3.690885812595022519e-02 5.138619860164369584e+02
3.700888213171161373e-02 5.138655866245225070e+02
3.710890613747298838e-02 5.138692260012384168e+02
3.720893014323436998e-02 5.138729040390385308e+02
3.730895414899575852e-02 5.138766206286147735e+02
3.740897815475714011e-02 5.138803756589020395e+02
3.750900216051852171e-02 5.138841690170806942e+02
3.760902616627990330e-02 5.138880005885802120e+02
3.770905017204129184e-02 5.138918702570850883e+02
3.780907417780267343e-02 5.138957779045348389e+02
3.790909818356405503e-02 5.138997234111330954e+02
3.800912218932543662e-02 5.139037066553470368e+02
3.810914619508681822e-02 5.139077275139144376e+02
3.820917020084819982e-02 5.139117858618459422e+02
3.830919420660958835e-02 5.139158815724313172e+02
3.840921821237096995e-02 5.139200145172421799e+02
3.850924221813234460e-02 5.139241845661367734e+02
3.860926622389373314e-02 5.139283915872647412e+02
3.870929022965511473e-02 5.139326354470720162e+02
3.880931423541649633e-02 5.139369160103041168e+02
3.890933824117787793e-02 5.139412331400128551e+02
3.900936224693926646e-02 5.139455866975575873e+02
3.910938625270064806e-02 5.139499765426149906e+02
3.920941025846202965e-02 5.139544025331787225e+02
3.930943426422341125e-02 5.139588645255688562e+02
3.940945826998479284e-02 5.139633623744341548e+02
3.950948227574618138e-02 5.139678959327563916e+02
3.960950628150755604e-02 5.139724650518589897e+02
3.970953028726894457e-02 5.139770695814085002e+02
3.980955429303032617e-02 5.139817093694227879e+02
3.990957829879170082e-02 5.139863842622744414e+02
4.000960230455308936e-02 5.139910941046965718e+02
4.010962631031447789e-02 5.139958387397882689e+02
4.020965031607585949e-02 5.140006180090206271e+02
4.030967432183723415e-02 5.140054317522424299e+02
4.040969832759862268e-02 5.140102798076844692e+02
4.050972233336000428e-02 5.140151620119662539e+02
4.060974633912139281e-02 5.140200782001023754e+02
4.070977034488276747e-02 5.140250282055067146e+02
4.080979435064414906e-02 5.140300118599993766e+02
4.090981835640553760e-02 5.140350289938129436e+02
4.100984236216691226e-02 5.140400794355977041e+02
4.110986636792830079e-02 5.140451630124276790e+02
4.120989037368968239e-02 5.140502795498076694e+02
4.130991437945107092e-02 5.140554288716788278e+02
4.140993838521244558e-02 5.140606108004247972e+02
4.150996239097383411e-02 5.140658251568784181e+02
4.160998639673521571e-02 5.140710717603276407e+02
4.171001040249659730e-02 5.140763504285230283e+02
4.181003440825797890e-02 5.140816609776824180e+02
4.191005841401936050e-02 5.140870032224988790e+02
4.201008241978074903e-02 5.140923769761482163e+02
4.211010642554213063e-02 5.140977820502928353e+02
4.221013043130350528e-02 5.141032182550908374e+02
4.231015443706489382e-02 5.141086853992023862e+02
4.241017844282628235e-02 5.141141832897951645e+02
4.251020244858765701e-02 5.141197117325541512e+02
4.261022645434903861e-02 5.141252705316853735e+02
4.271025046011042714e-02 5.141308594899247737e+02
4.281027446587180874e-02 5.141364784085460542e+02
4.291029847163319033e-02 5.141421270873652247e+02
4.301032247739457193e-02 5.141478053247500384e+02
4.311034648315595352e-02 5.141535129176257897e+02
4.321037048891734206e-02 5.141592496614856600e+02
4.331039449467871671e-02 5.141650153503933325e+02
4.341041850044010525e-02 5.141708097769936785e+02
4.351044250620148685e-02 5.141766327325208294e+02
4.361046651196286150e-02 5.141824840068022695e+02
4.371049051772425004e-02 5.141883633882699769e+02
4.381051452348563857e-02 5.141942706639662219e+02
4.391053852924702017e-02 5.142002056195522073e+02
4.401056253500839482e-02 5.142061680393148890e+02
4.411058654076978336e-02 5.142121577061756170e+02
4.421061054653116495e-02 5.142181744016970697e+02
4.431063455229255349e-02 5.142242179060923490e+02
4.441065855805392815e-02 5.142302879982327113e+02
4.451068256381530974e-02 5.142363844556546155e+02
4.461070656957669828e-02 5.142425070545691597e+02
4.471073057533808681e-02 5.142486555698686743e+02
4.481075458109946147e-02 5.142548297751369546e+02
4.491077858686084306e-02 5.142610294426552855e+02
4.501080259262223160e-02 5.142672543434126737e+02
4.511082659838360626e-02 5.142735042471133511e+02
4.521085060414499479e-02 5.142797789221845051e+02
4.531087460990637639e-02 5.142860781357851465e+02
4.541089861566775798e-02 5.142924016538167962e+02
4.551092262142913958e-02 5.142987492409275774e+02
4.561094662719052117e-02 5.143051206605254038e+02
4.571097063295190971e-02 5.143115156747835499e+02
4.581099463871329130e-02 5.143179340446499737e+02
4.591101864447466596e-02 5.143243755298581164e+02
4.601104265023605450e-02 5.143308398889327009e+02
4.611106665599744303e-02 5.143373268792000772e+02
4.621109066175881769e-02 5.143438362567970898e+02
4.631111466752019928e-02 5.143503677766805140e+02
4.641113867328158782e-02 5.143569211926343314e+02
4.651116267904296941e-02 5.143634962572807581e+02
4.661118668480435101e-02 5.143700927220882022e+02
4.671121069056573261e-02 5.143767103373803593e+02
4.681123469632711420e-02 5.143833488523462165e+02
4.691125870208850274e-02 5.143900080150478971e+02
4.701128270784987739e-02 5.143966875724318015e+02
4.711130671361126593e-02 5.144033872703357702e+02
4.721133071937264752e-02 5.144101068535002241e+02
4.731135472513403606e-02 5.144168460655768058e+02
4.741137873089541072e-02 5.144236046491375873e+02
4.751140273665679925e-02 5.144303823456845066e+02
4.761142674241818085e-02 5.144371788956603950e+02
4.771145074817955550e-02 5.144439940384565944e+02
4.781147475394094404e-02 5.144508275124230749e+02
4.791149875970232563e-02 5.144576790548787812e+02
4.801152276546371417e-02 5.144645484021214088e+02
4.811154677122508883e-02 5.144714352894352487e+02
4.821157077698647042e-02 5.144783394511046026e+02
4.831159478274785896e-02 5.144852606204178755e+02
4.841161878850924749e-02 5.144921985296850835e+02
4.851164279427062215e-02 5.144991529102402410e+02
4.861166680003200374e-02 5.145061234924562541e+02
4.871169080579339228e-02 5.145131100057534468e+02
4.881171481155476694e-02 5.145201121786088834e+02
4.891173881731615547e-02 5.145271297385661455e+02
4.901176282307753707e-02 5.145341624122481790e+02
4.911178682883891866e-02 5.145412099253636597e+02
4.921181083460030026e-02 5.145482720027204095e+02
4.931183484036168185e-02 5.145553483682322167e+02
4.941185884612307039e-02 5.145624387449333881e+02
4.951188285188445198e-02 5.145695428549855706e+02
4.961190685764582664e-02 5.145766604196879825e+02
4.971193086340721518e-02 5.145837911594911702e+02
4.981195486916860371e-02 5.145909347940032603e+02
4.991197887492998531e-02 5.145980910420033752e+02
5.001200288069135996e-02 5.146052596214503865e+02
5.011202688645274850e-02 5.146124402494942842e+02
5.021205089221413009e-02 5.146196326424857261e+02
5.031207489797551169e-02 5.146268365159886571e+02
5.041209890373689329e-02 5.146340515847873576e+02
5.051212290949827488e-02 5.146412775629009957e+02
5.061214691525966342e-02 5.146485141635918126e+02
5.071217092102103807e-02 5.146557610993755816e+02
5.081219492678242661e-02 5.146630180820349096e+02
5.091221893254380820e-02 5.146702848226262859e+02
5.101224293830519674e-02 5.146775610314942924e+02
5.111226694406657139e-02 5.146848464182801308e+02
5.121229094982795993e-02 5.146921406919333322e+02
5.131231495558934153e-02 5.146994435607221021e+02
5.141233896135071618e-02 5.147067547322452583e+02
5.151236296711210472e-02 5.147140739134418936e+02
5.161238697287348631e-02 5.147214008106037682e+02
5.171241097863487485e-02 5.147287351293831534e+02
5.181243498439624950e-02 5.147360765748096583e+02
5.191245899015763110e-02 5.147434248512937529e+02
5.201248299591901963e-02 5.147507796626442769e+02
5.211250700168040817e-02 5.147581407120761696e+02
5.221253100744178283e-02 5.147655077022214982e+02
5.231255501320316442e-02 5.147728803351430997e+02
5.241257901896455296e-02 5.147802583123426530e+02
5.251260302472592761e-02 5.147876413347735252e+02
5.261262703048731615e-02 5.147950291028516858e+02
5.271265103624869774e-02 5.148024213164671892e+02
5.281267504201007934e-02 5.148098176749942922e+02
5.291269904777146094e-02 5.148172178773046426e+02
5.301272305353284253e-02 5.148246216217758047e+02
5.311274705929423107e-02 5.148320286063063804e+02
5.321277106505561266e-02 5.148394385283232850e+02
5.331279507081698732e-02 5.148468510847950483e+02
5.341281907657837585e-02 5.148542659722446615e+02
5.351284308233976439e-02 5.148616828867574213e+02
5.361286708810114598e-02 5.148691015239946864e+02
5.371289109386252064e-02 5.148765215792066101e+02
5.381291509962390918e-02 5.148839427472391890e+02
5.391293910538529077e-02 5.148913647225506338e+02
5.401296311114667237e-02 5.148987871992187593e+02
5.411298711690805396e-02 5.149062098709558768e+02
5.421301112266943556e-02 5.149136324311165254e+02
5.431303512843082409e-02 5.149210545727144108e+02
5.441305913419219875e-02 5.149284759884275218e+02
5.451308313995358729e-02 5.149358963706150689e+02
5.461310714571496888e-02 5.149433154113253295e+02
5.471313115147635742e-02 5.149507328023096306e+02
5.481315515723773207e-02 5.149581482350330361e+02
5.491317916299912061e-02 5.149655614006853739e+02
5.501320316876050220e-02 5.149729719901941962e+02
5.511322717452187686e-02 5.149803796942350118e+02
5.521325118028326540e-02 5.149877842032439048e+02
5.531327518604464699e-02 5.149951852074298131e+02
5.541329919180603553e-02 5.150025823967830547e+02
5.551332319756741018e-02 5.150099754610912441e+02
5.561334720332879178e-02 5.150173640899479324e+02
5.571337120909018031e-02 5.150247479727656810e+02
5.581339521485156885e-02 5.150321267987875444e+02
5.591341922061294351e-02 5.150395002570983252e+02
5.601344322637432510e-02 5.150468680366368517e+02
5.611346723213571364e-02 5.150542298262076883e+02
5.621349123789709523e-02 5.150615853144921630e+02
5.631351524365847683e-02 5.150689341900612135e+02
5.641353924941985842e-02 5.150762761413865292e+02
5.651356325518124002e-02 5.150836108568512373e+02
5.661358726094262162e-02 5.150909380247654781e+02
5.671361126670400321e-02 5.150982573333724304e+02
5.681363527246539175e-02 5.151055684708650233e+02
5.691365927822677334e-02 5.151128711253951451e+02
5.701368328398814800e-02 5.151201649850866033e+02
5.711370728974953653e-02 5.151274497380464936e+02
5.721373129551092507e-02 5.151347250723766820e+02
5.731375530127230666e-02 5.151419906761856282e+02
5.741377930703368132e-02 5.151492462376010053e+02
5.751380331279506986e-02 5.151564914447806132e+02
5.761382731855645145e-02 5.151637259859249980e+02
5.771385132431783305e-02 5.151709495492881388e+02
5.781387533007921464e-02 5.151781618231905213e+02
5.791389933584059624e-02 5.151853624960294837e+02
5.801392334160198477e-02 5.151925512562931999e+02
5.811394734736335943e-02 5.151997277925697745e+02
5.821397135312474796e-02 5.152068917935611125e+02
5.831399535888612956e-02 5.152140429480940611e+02
5.841401936464751810e-02 5.152211809451322324e+02
5.851404337040889275e-02 5.152283054737868042e+02
5.861406737617028129e-02 5.152354162233311854e+02
5.871409138193166288e-02 5.152425128832088603e+02
5.881411538769304448e-02 5.152495951430482819e+02
5.891413939345442607e-02 5.152566626926736717e+02
5.901416339921580767e-02 5.152637152221163888e+02
5.911418740497719621e-02 5.152707524216270940e+02
5.921421141073857086e-02 5.152777739816870053e+02
5.931423541649995246e-02 5.152847795930211987e+02
5.941425942226134099e-02 5.152917689466082720e+02
5.951428342802272953e-02 5.152987417336933049e+02
5.961430743378410418e-02 5.153056976457994551e+02
5.971433143954548578e-02 5.153126363747398955e+02
5.981435544530687431e-02 5.153195576126297510e+02
5.991437945106825591e-02 5.153264610518955351e+02
6.001440345682963751e-02 5.153333463852903833e+02
6.011442746259101910e-02 5.153402133059032622e+02
6.021445146835240070e-02 5.153470615071719294e+02
6.031447547411378229e-02 5.153538906828937343e+02
6.041449947987516389e-02 5.153607005272368724e+02
6.051452348563655242e-02 5.153674907347544831e+02
6.061454749139793402e-02 5.153742610003939717e+02
6.071457149715930868e-02 5.153810110195087191e+02
6.081459550292069721e-02 5.153877404878713833e+02
6.091461950868208575e-02 5.153944491016827669e+02
6.101464351444346734e-02 5.154011365575863692e+02
6.111466752020484200e-02 5.154078025526791862e+02
6.121469152596623053e-02 5.154144467845208055e+02
6.131471553172761213e-02 5.154210689511484134e+02
6.141473953748900066e-02 5.154276687510869124e+02
6.151476354325037532e-02 5.154342458833592673e+02
6.161478754901175692e-02 5.154408000474987830e+02
6.171481155477314545e-02 5.154473309435634292e+02
6.181483556053452011e-02 5.154538382721415246e+02
6.191485956629590864e-02 5.154603217343687902e+02
6.201488357205729024e-02 5.154667810319361934e+02
6.211490757781867877e-02 5.154732158671032494e+02
6.221493158358005343e-02 5.154796259427080258e+02
6.231495558934144197e-02 5.154860109621795345e+02
6.241497959510282356e-02 5.154923706295498960e+02
6.251500360086420516e-02 5.154987046494625247e+02
6.261502760662558675e-02 5.155050127271872498e+02
6.271505161238696835e-02 5.155112945686288413e+02
6.281507561814834995e-02 5.155175498803396295e+02
6.291509962390973154e-02 5.155237783695303051e+02
6.301512362967111314e-02 5.155299797440821976e+02
6.311514763543249473e-02 5.155361537125558016e+02
6.321517164119389021e-02 5.155422999842053287e+02
6.331519564695525792e-02 5.155484182689872341e+02
6.341521965271665340e-02 5.155545082775729497e+02
6.351524365847803499e-02 5.155605697213597978e+02
6.361526766423941659e-02 5.155666023124801995e+02
6.371529167000079819e-02 5.155726057638153179e+02
6.381531567576217978e-02 5.155785797890056301e+02
6.391533968152356138e-02 5.155845241024605912e+02
6.401536368728494297e-02 5.155904384193689793e+02
6.411538769304632457e-02 5.155963224557144713e+02
6.421541169880770616e-02 5.156021759282797348e+02
6.431543570456910164e-02 5.156079985546642774e+02
6.441545971033046936e-02 5.156137900532891081e+02
6.451548371609186483e-02 5.156195501434126527e+02
6.461550772185324643e-02 5.156252785451376894e+02
6.471553172761462802e-02 5.156309749794257868e+02
6.481555573337600962e-02 5.156366391681033292e+02
6.491557973913739121e-02 5.156422708338773191e+02
6.501560374489877281e-02 5.156478697003431080e+02
6.511562775066015440e-02 5.156534354919953103e+02
6.521565175642153600e-02 5.156589679342390582e+02
6.531567576218291760e-02 5.156644667534010296e+02
6.541569976794431307e-02 5.156699316767383152e+02
6.551572377370568079e-02 5.156753624324511520e+02
6.561574777946706238e-02 5.156807587496908809e+02
6.571577178522845786e-02 5.156861203585735893e+02
6.581579579098983945e-02 5.156914469901869325e+02
6.591581979675120717e-02 5.156967383766041166e+02
6.601584380251260264e-02 5.157019942508919712e+02
6.611586780827398424e-02 5.157072143471211803e+02
6.621589181403536584e-02 5.157123984003777650e+02
6.631591581979674743e-02 5.157175461467734294e+02
6.641593982555812903e-02 5.157226573234545413e+02
6.651596383131951062e-02 5.157277316686135009e+02
6.661598783708089222e-02 5.157327689214980637e+02
6.671601184284227382e-02 5.157377688224213443e+02
6.681603584860365541e-02 5.157427311127732992e+02
6.691605985436505089e-02 5.157476555350286844e+02
6.701608386012641860e-02 5.157525418327596753e+02
6.711610786588781408e-02 5.157573897506438243e+02
6.721613187164919567e-02 5.157621990344738379e+02
6.731615587741057727e-02 5.157669694311686044e+02
6.741617988317195886e-02 5.157717006887819480e+02
6.751620388893334046e-02 5.157763925565150203e+02
6.761622789469472206e-02 5.157810447847213027e+02
6.771625190045610365e-02 5.157856571249217268e+02
6.781627590621748525e-02 5.157902293298104723e+02
6.791629991197886684e-02 5.157947611532655401e+02
6.801632391774026232e-02 5.157992523503596658e+02
6.811634792350163004e-02 5.158037026773689604e+02
6.821637192926302551e-02 5.158081118917808681e+02
6.831639593502440710e-02 5.158124797523075813e+02
6.841641994078578870e-02 5.158168060188908157e+02
6.851644394654717030e-02 5.158210904527149978e+02
6.861646795230855189e-02 5.158253328162136313e+02
6.871649195806993349e-02 5.158295328730819165e+02
6.881651596383131508e-02 5.158336903882820934e+02
6.891653996959269668e-02 5.158378051280557202e+02
6.901656397535407828e-02 5.158418768599321993e+02
6.911658798111547375e-02 5.158459053527357128e+02
6.921661198687684147e-02 5.158498903765979549e+02
6.931663599263822306e-02 5.158538317029642712e+02
6.941665999839961854e-02 5.158577291046028677e+02
6.951668400416100013e-02 5.158615823556159512e+02
6.961670800992236785e-02 5.158653912314463241e+02
6.971673201568376332e-02 5.158691555088872747e+02
6.981675602144514492e-02 5.158728749660907624e+02
6.991678002720652652e-02 5.158765493825760586e+02
7.001680403296790811e-02 5.158801785392403190e+02
7.011682803872928971e-02 5.158837622183632448e+02
7.021685204449067130e-02 5.158873002036215212e+02
7.031687605025206678e-02 5.158907922800913184e+02
7.041690005601343449e-02 5.158942382342597739e+02
7.051692406177481609e-02 5.158976378540348833e+02
7.061694806753621156e-02 5.159009909287498203e+02
7.071697207329757928e-02 5.159042972491753289e+02
7.081699607905897476e-02 5.159075566075243842e+02
7.091702008482035635e-02 5.159107687974646979e+02
7.101704409058173795e-02 5.159139336141220156e+02
7.111706809634311954e-02 5.159170508540926221e+02
7.121709210210450114e-02 5.159201203154478890e+02
7.131711610786588273e-02 5.159231417977450747e+02
7.141714011362726433e-02 5.159261151020332363e+02
7.151716411938864593e-02 5.159290400308632343e+02
7.161718812515002752e-02 5.159319163882926205e+02
7.171721213091142300e-02 5.159347439798970072e+02
7.181723613667279071e-02 5.159375226127738188e+02
7.191726014243418619e-02 5.159402520955540012e+02
7.201728414819556778e-02 5.159429322384062289e+02
7.211730815395694938e-02 5.159455628530488411e+02
7.221733215971833098e-02 5.159481437527512071e+02
7.231735616547971257e-02 5.159506747523462309e+02
7.241738017124109417e-02 5.159531556682361497e+02
7.251740417700247576e-02 5.159555863183995825e+02
7.261742818276385736e-02 5.159579665223991469e+02
7.271745218852523895e-02 5.159602961013885079e+02
7.281747619428663443e-02 5.159625748781198809e+02
7.291750020004801602e-02 5.159648026769503986e+02
7.301752420580938374e-02 5.159669793238507509e+02
7.311754821157077922e-02 5.159691046464107558e+02
7.321757221733216081e-02 5.159711784738465212e+02
7.331759622309352853e-02 5.159732006370076078e+02
7.341762022885492400e-02 5.159751709683839636e+02
7.351764423461630560e-02 5.159770893021129723e+02
7.361766824037768719e-02 5.159789554739846835e+02
7.371769224613906879e-02 5.159807693214506799e+02
7.381771625190045039e-02 5.159825306836288519e+02
7.391774025766183198e-02 5.159842394013114699e+02
7.401776426342322746e-02 5.159858953169684810e+02
7.411778826918459517e-02 5.159874982747594458e+02
7.421781227494597677e-02 5.159890481205349033e+02
7.431783628070737224e-02 5.159905447018441009e+02
7.441786028646873996e-02 5.159919878679422709e+02
7.451788429223013543e-02 5.159933774697968829e+02
7.461790829799151703e-02 5.159947133600910547e+02
7.471793230375289863e-02 5.159959953932333292e+02
7.481795630951428022e-02 5.159972234253601755e+02
7.491798031527566182e-02 5.159983973143448566e+02
7.501800432103704341e-02 5.159995169198016356e+02
7.511802832679842501e-02 5.160005821030911193e+02
7.521805233255980661e-02 5.160015927273286707e+02
7.531807633832118820e-02 5.160025486573861144e+02
7.541810034408258367e-02 5.160034497599003771e+02
7.551812434984396527e-02 5.160042959032783756e+02
7.561814835560534687e-02 5.160050869577014510e+02
7.571817236136672846e-02 5.160058227951317349e+02
7.581819636712811006e-02 5.160065032893179477e+02
7.591822037288949165e-02 5.160071283157985818e+02
7.601824437865087325e-02 5.160076977519097454e+02
7.611826838441225485e-02 5.160082114767884605e+02
7.621829239017363644e-02 5.160086693713789145e+02
7.631831639593501804e-02 5.160090713184363267e+02
7.641834040169639963e-02 5.160094172025322905e+02
7.651836440745779511e-02 5.160097069100612543e+02
7.661838841321917670e-02 5.160099403292424540e+02
7.671841241898054442e-02 5.160101173501267340e+02
7.681843642474193989e-02 5.160102378646007537e+02
7.691846043050332149e-02 5.160103017663913079e+02
7.701848443626468921e-02 5.160103089510708969e+02
7.711850844202608468e-02 5.160102593160598872e+02
7.721853244778746628e-02 5.160101527606334457e+02
7.731855645354884787e-02 5.160099891859252921e+02
7.741858045931022947e-02 5.160097684949301993e+02
7.751860446507161106e-02 5.160094905925109288e+02
7.761862847083299266e-02 5.160091553854005042e+02
7.771865247659438813e-02 5.160087627822070999e+02
7.781867648235575585e-02 5.160083126934167694e+02
7.791870048811713745e-02 5.160078050313991298e+02
7.801872449387853292e-02 5.160072397104115680e+02
7.811874849963990064e-02 5.160066166465995821e+02
7.821877250540129611e-02 5.160059357580059896e+02
7.831879651116266383e-02 5.160051969645674035e+02
7.841882051692405931e-02 5.160044001881262830e+02
7.851884452268544090e-02 5.160035453524269542e+02
7.861886852844682250e-02 5.160026323831240234e+02
7.871889253420820409e-02 5.160016612077829450e+02
7.881891653996958569e-02 5.160006317558852516e+02
7.891894054573098116e-02 5.159995439588305999e+02
7.901896455149236276e-02 5.159983977499396133e+02
7.911898855725373048e-02 5.159971930644579743e+02
7.921901256301511207e-02 5.159959298395601763e+02
7.931903656877650755e-02 5.159946080143500922e+02
7.941906057453788914e-02 5.159932275298662034e+02
7.951908458029927074e-02 5.159917883290830787e+02
7.961910858606065233e-02 5.159902903569145565e+02
7.971913259182203393e-02 5.159887335602153371e+02
7.981915659758340165e-02 5.159871178877871216e+02
7.991918060334479712e-02 5.159854432903766792e+02
8.001920460910617872e-02 5.159837097206809631e+02
8.011922861486756031e-02 5.159819171333485883e+02
8.021925262062895579e-02 5.159800654849835837e+02
8.031927662639033738e-02 5.159781547341448231e+02
8.041930063215171898e-02 5.159761848413513690e+02
8.051932463791310057e-02 5.159741557690822447e+02
8.061934864367446829e-02 5.159720674817805275e+02
8.071937264943584989e-02 5.159699199458522116e+02
8.081939665519724536e-02 5.159677131296720063e+02
8.091942066095862696e-02 5.159654470035826535e+02
8.101944466672000855e-02 5.159631215398968607e+02
8.111946867248140403e-02 5.159607367129000295e+02
8.121949267824278562e-02 5.159582924988508239e+02
8.131951668400415334e-02 5.159557888759833304e+02
8.141954068976553494e-02 5.159532258245075127e+02
8.151956469552691653e-02 5.159506033266130771e+02
8.161958870128829813e-02 5.159479213664683357e+02
8.171961270704969360e-02 5.159451799302216841e+02
8.181963671281107520e-02 5.159423790060044439e+02
8.191966071857245679e-02 5.159395185839302940e+02
8.201968472433382451e-02 5.159365986560974306e+02
8.211970873009521998e-02 5.159336192165878856e+02
8.221973273585660158e-02 5.159305802614710501e+02
8.231975674161798318e-02 5.159274817888020834e+02
8.241978074737936477e-02 5.159243237986245276e+02
8.251980475314074637e-02 5.159211062929686022e+02
8.261982875890214184e-02 5.159178292758541602e+02
8.271985276466352344e-02 5.159144927532906877e+02
8.281987677042489115e-02 5.159110967332767359e+02
8.291990077618627275e-02 5.159076412258012851e+02
8.301992478194766822e-02 5.159041262428438586e+02
8.311994878770904982e-02 5.159005517983737263e+02
8.321997279347043142e-02 5.158969179083521794e+02
8.331999679923181301e-02 5.158932245907310516e+02
8.342002080499319461e-02 5.158894718654524922e+02
8.352004481075456233e-02 5.158856597544508986e+02
8.362006881651595780e-02 5.158817882816499605e+02
8.372009282227733939e-02 5.158778574729644788e+02
8.382011682803872099e-02 5.158738673563004795e+02
8.392014083380011646e-02 5.158698179615524850e+02
8.402016483956149806e-02 5.158657093206055606e+02
8.412018884532287966e-02 5.158615414673337227e+02
8.422021285108426125e-02 5.158573144375988022e+02
8.432023685684562897e-02 5.158530282692520359e+02
8.442026086260701057e-02 5.158486830021296328e+02
8.452028486836840604e-02 5.158442786780560709e+02
8.462030887412978764e-02 5.158398153408409144e+02
8.472033287989116923e-02 5.158352930362775624e+02
8.482035688565256470e-02 5.158307118121445001e+02
8.492038089141394630e-02 5.158260717182008648e+02
8.502040489717531402e-02 5.158213728061888332e+02
8.512042890293669561e-02 5.158166151298303248e+02
8.522045290869807721e-02 5.158117987448260919e+02
8.532047691445945881e-02 5.158069237088548107e+02
8.542050092022085428e-02 5.158019900815701249e+02
8.552052492598223588e-02 5.157969979246017829e+02
8.562054893174361747e-02 5.157919473015523408e+02
8.572057293750501294e-02 5.157868382779950025e+02
8.582059694326638066e-02 5.157816709214725961e+02
8.592062094902776226e-02 5.157764453014979154e+02
8.602064495478914385e-02 5.157711614895466710e+02
8.612066896055052545e-02 5.157658195590614696e+02
8.622069296631190705e-02 5.157604195854452200e+02
8.632071697207330252e-02 5.157549616460627249e+02
8.642074097783468412e-02 5.157494458202342003e+02
8.652076498359605183e-02 5.157438721892378908e+02
8.662078898935743343e-02 5.157382408363040440e+02
8.672081299511882890e-02 5.157325518466147969e+02
8.682083700088021050e-02 5.157268053073003102e+02
8.692086100664159209e-02 5.157210013074360404e+02
8.702088501240297369e-02 5.157151399380435350e+02
8.712090901816435529e-02 5.157092212920824750e+02
8.722093302392572300e-02 5.157032454644523796e+02
8.732095702968711848e-02 5.156972125519873771e+02
8.742098103544850007e-02 5.156911226534547268e+02
8.752100504120988167e-02 5.156849758695500441e+02
8.762102904697127714e-02 5.156787723028975279e+02
8.772105305273265874e-02 5.156725120580426847e+02
8.782107705849404033e-02 5.156661952414528969e+02
8.792110106425542193e-02 5.156598219615125345e+02
8.802112507001678965e-02 5.156533923285197716e+02
8.812114907577817124e-02 5.156469064546828349e+02
8.822117308153956672e-02 5.156403644541172753e+02
8.832119708730094831e-02 5.156337664428426706e+02
8.842122109306232991e-02 5.156271125387780785e+02
8.852124509882372538e-02 5.156204028617398762e+02
8.862126910458510698e-02 5.156136375334367585e+02
8.872129311034647470e-02 5.156068166774655310e+02
8.882131711610785629e-02 5.155999404193096325e+02
8.892134112186923789e-02 5.155930088863326546e+02
8.902136512763061948e-02 5.155860222077756134e+02
8.912138913339201496e-02 5.155789805147539937e+02
8.922141313915339655e-02 5.155718839402505864e+02
8.932143714491477815e-02 5.155647326191142383e+02
8.942146115067617362e-02 5.155575266880541676e+02
8.952148515643754134e-02 5.155502662856360985e+02
8.962150916219892294e-02 5.155429515522773727e+02
8.972153316796030453e-02 5.155355826302438800e+02
8.982155717372168613e-02 5.155281596636432369e+02
8.992158117948306773e-02 5.155206827984231950e+02
9.002160518524446320e-02 5.155131521823622052e+02
9.012162919100584479e-02 5.155055679650716911e+02
9.022165319676721251e-02 5.154979302979859312e+02
9.032167720252859411e-02 5.154902393343562608e+02
9.042170120828998958e-02 5.154824952292525495e+02
9.052172521405137118e-02 5.154746981395519470e+02
9.062174921981275277e-02 5.154668482239358127e+02
9.072177322557413437e-02 5.154589456428850553e+02
9.082179723133551597e-02 5.154509905586771765e+02
9.092182123709688368e-02 5.154429831353754707e+02
9.102184524285827916e-02 5.154349235388285706e+02
9.112186924861966075e-02 5.154268119366622614e+02
9.122189325438104235e-02 5.154186484982770935e+02
9.132191726014243782e-02 5.154104333948389467e+02
9.142194126590381942e-02 5.154021667992765288e+02
9.152196527166520101e-02 5.153938488862748954e+02
9.162198927742658261e-02 5.153854798322681745e+02
9.172201328318795033e-02 5.153770598154364961e+02
9.182203728894933192e-02 5.153685890156990581e+02
9.192206129471072740e-02 5.153600676147062813e+02
9.202208530047210899e-02 5.153514957958381046e+02
9.212210930623349059e-02 5.153428737441929570e+02
9.222213331199488606e-02 5.153342016465850293e+02
9.232215731775626766e-02 5.153254796915389306e+02
9.242218132351763538e-02 5.153167080692792297e+02
9.252220532927901697e-02 5.153078869717288626e+02
9.262222933504039857e-02 5.152990165924989014e+02
9.272225334080178016e-02 5.152900971268863941e+02
9.282227734656317564e-02 5.152811287718629956e+02
9.292230135232455723e-02 5.152721117260732626e+02
9.302232535808593883e-02 5.152630461898239673e+02
9.312234936384733430e-02 5.152539323650806864e+02
9.322237336960870202e-02 5.152447704554585926e+02
9.332239737537008362e-02 5.152355606662180207e+02
9.342242138113146521e-02 5.152263032042553732e+02
9.352244538689284681e-02 5.152169982780983446e+02
9.362246939265422840e-02 5.152076460978972818e+02
9.372249339841562388e-02 5.151982468754197271e+02
9.382251740417700547e-02 5.151888008240410954e+02
9.392254140993837319e-02 5.151793081587414918e+02
9.402256541569975479e-02 5.151697690960933187e+02
9.412258942146115026e-02 5.151601838542588894e+02
9.422261342722253186e-02 5.151505526529796271e+02
9.432263743298391345e-02 5.151408757135716314e+02
9.442266143874529505e-02 5.151311532589161288e+02
9.452268544450667664e-02 5.151213855134519690e+02
9.462270945026807212e-02 5.151115727031714187e+02
9.472273345602943984e-02 5.151017150556053821e+02
9.482275746179082143e-02 5.150918127998260161e+02
9.492278146755220303e-02 5.150818661664301317e+02
9.502280547331359850e-02 5.150718753875352149e+02
9.512282947907498010e-02 5.150618406967716965e+02
9.522285348483636169e-02 5.150517623292746521e+02
9.532287749059774329e-02 5.150416405216760722e+02
9.542290149635911101e-02 5.150314755120965629e+02
9.552292550212049260e-02 5.150212675401369324e+02
9.562294950788188808e-02 5.150110168468714846e+02
9.572297351364326967e-02 5.150007236748392643e+02
9.582299751940465127e-02 5.149903882680357583e+02
9.592302152516604674e-02 5.149800108719040281e+02
9.602304553092742834e-02 5.149695917333277748e+02
9.612306953668879606e-02 5.149591311006216756e+02
9.622309354245017765e-02 5.149486292235249039e+02
9.632311754821155925e-02 5.149380863531898740e+02
9.642314155397294084e-02 5.149275027421772393e+02
9.652316555973433632e-02 5.149168786444436137e+02
9.662318956549571791e-02 5.149062143153362285e+02
9.672321357125709951e-02 5.148955100115823598e+02
9.682323757701849498e-02 5.148847659912820518e+02
9.692326158277986270e-02 5.148739825138964079e+02
9.702328558854124430e-02 5.148631598402444070e+02
9.712330959430262589e-02 5.148522982324874420e+02
9.722333360006400749e-02 5.148413979541250001e+02
9.732335760582538908e-02 5.148304592699853401e+02
9.742338161158678456e-02 5.148194824462136694e+02
9.752340561734816615e-02 5.148084677502657769e+02
9.762342962310953387e-02 5.147974154508991660e+02
9.772345362887091547e-02 5.147863258181622541e+02
9.782347763463231094e-02 5.147751991233848230e+02
9.792350164039369254e-02 5.147640356391724481e+02
9.802352564615507413e-02 5.147528356393921740e+02
9.812354965191645573e-02 5.147415993991671712e+02
9.822357365767783732e-02 5.147303271948661632e+02
9.832359766343923280e-02 5.147190193040927397e+02
9.842362166920060051e-02 5.147076760056787634e+02
9.852364567496198211e-02 5.146962975796702722e+02
9.862366968072336371e-02 5.146848843073247508e+02
9.872369368648475918e-02 5.146734364710943055e+02
9.882371769224614078e-02 5.146619543546215709e+02
9.892374169800752237e-02 5.146504382427265227e+02
9.902376570376890397e-02 5.146388884213988604e+02
9.912378970953027169e-02 5.146273051777874343e+02
9.922381371529165328e-02 5.146156888001906964e+02
9.932383772105304875e-02 5.146040395780465815e+02
9.942386172681443035e-02 5.145923578019230717e+02
9.952388573257581195e-02 5.145806437635078510e+02
9.962390973833720742e-02 5.145688977555986412e+02
9.972393374409858902e-02 5.145571200720937668e+02
9.982395774985997061e-02 5.145453110079806720e+02
9.992398175562133833e-02 5.145334708593268260e+02
1.000240057613827199e-01 5.145215999232702870e+02
1.001240297671441015e-01 5.145096984980076513e+02
1.002240537729054970e-01 5.144977668827860953e+02
1.003240777786668786e-01 5.144858053778916656e+02
1.004241017844282602e-01 5.144738142846388200e+02
1.005241257901896557e-01 5.144617939053619011e+02
1.006241497959510234e-01 5.144497445434030851e+02
1.007241738017124050e-01 5.144376665031027187e+02
1.008241978074737866e-01 5.144255600897888598e+02
1.009242218132351682e-01 5.144134256097656817e+02
1.010242458189965498e-01 5.144012633703061965e+02
1.011242698247579452e-01 5.143890736796381589e+02
1.012242938305193268e-01 5.143768568469362208e+02
1.013243178362806945e-01 5.143646131823081760e+02
1.014243418420420761e-01 5.143523429967890479e+02
1.015243658478034716e-01 5.143400466023255149e+02
1.016243898535648532e-01 5.143277243117687476e+02
1.017244138593262348e-01 5.143153764388617901e+02
1.018244378650876164e-01 5.143030032982303510e+02
1.019244618708489980e-01 5.142906052053700705e+02
1.020244858766103935e-01 5.142781824766381078e+02
1.021245098823717612e-01 5.142657354292394984e+02
1.022245338881331428e-01 5.142532643812193101e+02
1.023245578938945244e-01 5.142407696514494546e+02
1.024245818996559199e-01 5.142282515596192525e+02
1.025246059054173015e-01 5.142157104262225857e+02
1.026246299111786831e-01 5.142031465725495991e+02
1.027246539169400646e-01 5.141905603206736259e+02
1.028246779227014324e-01 5.141779519934409564e+02
1.029247019284628140e-01 5.141653219144594686e+02
1.030247259342242094e-01 5.141526704080874879e+02
1.031247499399855910e-01 5.141399977994234405e+02
1.032247739457469726e-01 5.141273044142939170e+02
1.033247979515083681e-01 5.141145905792428721e+02
1.034248219572697497e-01 5.141018566215198007e+02
1.035248459630311313e-01 5.140891028690700750e+02
1.036248699687924990e-01 5.140763296505215294e+02
1.037248939745538806e-01 5.140635372951751378e+02
1.038249179803152622e-01 5.140507261329918265e+02
1.039249419860766577e-01 5.140378964945854250e+02
1.040249659918380393e-01 5.140250487112029987e+02
1.041249899975994209e-01 5.140121831147231433e+02
1.042250140033608163e-01 5.139993000376383634e+02
1.043250380091221841e-01 5.139863998130454092e+02
1.044250620148835657e-01 5.139734827746339079e+02
1.045250860206449472e-01 5.139605492566763587e+02
1.046251100264063288e-01 5.139475995940121038e+02
1.047251340321677104e-01 5.139346341220424392e+02
1.048251580379291059e-01 5.139216531767131073e+02
1.049251820436904875e-01 5.139086570945066796e+02
1.050252060494518552e-01 5.138956462124291420e+02
1.051252300552132368e-01 5.138826208679987531e+02
1.052252540609746323e-01 5.138695813992346757e+02
1.053252780667360139e-01 5.138565281446460631e+02
1.054253020724973955e-01 5.138434614432180751e+02
1.055253260782587771e-01 5.138303816344027837e+02
1.056253500840201587e-01 5.138172890581073489e+02
1.057253740897815542e-01 5.138041840546793537e+02
1.058253980955429219e-01 5.137910669649007787e+02
1.059254221013043035e-01 5.137779381299684474e+02
1.060254461070656851e-01 5.137647978914910709e+02
1.061254701128270805e-01 5.137516465914703758e+02
1.062254941185884621e-01 5.137384845722937143e+02
1.063255181243498437e-01 5.137253121767205357e+02
1.064255421301112253e-01 5.137121297478705628e+02
1.065255661358725930e-01 5.136989376292128782e+02
1.066255901416339746e-01 5.136857361645530773e+02
1.067256141473953701e-01 5.136725256980226959e+02
1.068256381531567517e-01 5.136593065740673865e+02
1.069256621589181333e-01 5.136460791374321389e+02
1.070256861646795288e-01 5.136328437331541181e+02
1.071257101704409104e-01 5.136196007065484537e+02
1.072257341762022920e-01 5.136063504031949378e+02
1.073257581819636597e-01 5.135930931689290446e+02
1.074257821877250413e-01 5.135798293498284011e+02
1.075258061934864229e-01 5.135665592922011911e+02
1.076258301992478184e-01 5.135532833425739909e+02
1.077258542050091999e-01 5.135400018476813102e+02
1.078258782107705815e-01 5.135267151544514945e+02
1.079259022165319770e-01 5.135134236099968348e+02
1.080259262222933447e-01 5.135001275616009480e+02
1.081259502280547263e-01 5.134868273567053620e+02
1.082259742338161079e-01 5.134735233429009895e+02
1.083259982395774895e-01 5.134602158679118702e+02
1.084260222453388711e-01 5.134469052795881225e+02
1.085260462511002666e-01 5.134335919258903687e+02
1.086260702568616482e-01 5.134202761548783656e+02
1.087260942626230298e-01 5.134069583147003186e+02
1.088261182683843975e-01 5.133936387535802623e+02
1.089261422741457930e-01 5.133803178198063506e+02
1.090261662799071746e-01 5.133669958617185785e+02
1.091261902856685562e-01 5.133536732276968451e+02
1.092262142914299378e-01 5.133403502661486755e+02
1.093262382971913194e-01 5.133270273254992162e+02
1.094262623029527148e-01 5.133137047541770244e+02
1.095262863087140826e-01 5.133003829006028127e+02
1.096263103144754641e-01 5.132870621131780808e+02
1.097263343202368457e-01 5.132737427402726098e+02
1.098263583259982412e-01 5.132604251302127523e+02
1.099263823317596228e-01 5.132471096312701775e+02
1.100264063375210044e-01 5.132337965916483427e+02
1.101264303432823860e-01 5.132204863594714652e+02
1.102264543490437537e-01 5.132071792827737227e+02
1.103264783548051353e-01 5.131938757094849279e+02
1.104265023605665308e-01 5.131805759874207524e+02
1.105265263663279124e-01 5.131672804642705614e+02
1.106265503720892940e-01 5.131539894875835444e+02
1.107265743778506895e-01 5.131407034047596198e+02
1.108265983836120711e-01 5.131274225630353385e+02
1.109266223893734526e-01 5.131141473094736511e+02
1.110266463951348204e-01 5.131008779909503801e+02
1.111266704008962020e-01 5.130876149541439872e+02
1.112266944066575836e-01 5.130743585455231823e+02
1.113267184124189790e-01 5.130611091113338489e+02
1.114267424181803606e-01 5.130478669975891535e+02
1.115267664239417422e-01 5.130346325500568128e+02
1.116267904297031377e-01 5.130214061142471564e+02
1.117268144354645054e-01 5.130081880354006216e+02
1.118268384412258870e-01 5.129949786584785443e+02
1.119268624469872686e-01 5.129817783281484935e+02
1.120268864527486502e-01 5.129685873887733578e+02
1.121269104585100318e-01 5.129554061844012267e+02
1.122269344642714273e-01 5.129422350587506116e+02
1.123269584700328089e-01 5.129290743552018057e+02
1.124269824757941905e-01 5.129159244167835823e+02
1.125270064815555582e-01 5.129027855861603484e+02
1.126270304873169537e-01 5.128896582056239595e+02
1.127270544930783353e-01 5.128765426170779165e+02
1.128270784988397168e-01 5.128634391620291808e+02
1.129271025046010984e-01 5.128503481815739633e+02
1.130271265103624800e-01 5.128372700163870377e+02
1.131271505161238755e-01 5.128242050067115088e+02
1.132271745218852432e-01 5.128111534923451700e+02
1.133271985276466248e-01 5.127981158126292485e+02
1.134272225334080064e-01 5.127850923064384006e+02
1.135272465391694019e-01 5.127720833121668420e+02
1.136272705449307835e-01 5.127590891677191394e+02
1.137272945506921651e-01 5.127461102104971360e+02
1.138273185564535467e-01 5.127331467773888107e+02
1.139273425622149283e-01 5.127201992047579324e+02
1.140273665679762960e-01 5.127072678284301901e+02
1.141273905737376915e-01 5.126943529836843254e+02
1.142274145794990731e-01 5.126814550052392860e+02
1.143274385852604547e-01 5.126685742272428570e+02
1.144274625910218501e-01 5.126557109832613151e+02
1.145274865967832317e-01 5.126428656062676055e+02
1.146275106025446133e-01 5.126300384286288363e+02
1.147275346083059810e-01 5.126172297820960466e+02
1.148275586140673626e-01 5.126044399977943158e+02
1.149275826198287442e-01 5.125916694062088936e+02
1.150276066255901397e-01 5.125789183371748550e+02
1.151276306313515213e-01 5.125661871198672088e+02
1.152276546371129029e-01 5.125534760827883929e+02
1.153276786428742984e-01 5.125407855537578143e+02
1.154277026486356661e-01 5.125281158598996853e+02
1.155277266543970477e-01 5.125154673276325639e+02
1.156277506601584293e-01 5.125028402826599176e+02
1.157277746659198109e-01 5.124902350499554586e+02
1.158277986716811925e-01 5.124776519537563217e+02
1.159278226774425880e-01 5.124650913175480582e+02
1.160278466832039695e-01 5.124525534640567912e+02
1.161278706889653511e-01 5.124400387152368239e+02
1.162278946947267189e-01 5.124275473922598394e+02
1.163279187004881143e-01 5.124150798155046687e+02
1.164279427062494959e-01 5.124026363045455810e+02
1.165279667120108775e-01 5.123902171781425068e+02
1.166279907177722591e-01 5.123778227542288732e+02
1.167280147235336407e-01 5.123654533499020545e+02
1.168280387292950362e-01 5.123531092814124577e+02
1.169280627350564039e-01 5.123407908641522681e+02
1.170280867408177855e-01 5.123284984126455583e+02
1.171281107465791671e-01 5.123162322405368059e+02
1.172281347523405626e-01 5.123039926605814571e+02
1.173281587581019442e-01 5.122917799846341040e+02
1.174281827638633258e-01 5.122795945236389343e+02
1.175282067696247074e-01 5.122674365876187039e+02
1.176282307753860890e-01 5.122553064856647325e+02
1.177282547811474567e-01 5.122432045259263305e+02
1.178282787869088521e-01 5.122311310155995443e+02
1.179283027926702337e-01 5.122190862609188571e+02
1.180283267984316153e-01 5.122070705671444557e+02
1.181283508041930108e-01 5.121950842385542728e+02
1.182283748099543924e-01 5.121831275784315949e+02
1.183283988157157740e-01 5.121712008890563084e+02
1.184284228214771417e-01 5.121593044716944405e+02
1.185284468272385233e-01 5.121474386265883822e+02
1.186284708329999049e-01 5.121356036529451785e+02
1.187284948387613004e-01 5.121237998489284564e+02
1.188285188445226820e-01 5.121120275116478524e+02
1.189285428502840636e-01 5.121002869371484394e+02
1.190285668560454591e-01 5.120885784204010633e+02
1.191285908618068268e-01 5.120769022552934757e+02
1.192286148675682084e-01 5.120652587346182827e+02
1.193286388733295900e-01 5.120536481500646460e+02
1.194286628790909716e-01 5.120420707922102110e+02
1.195286868848523532e-01 5.120305269505068964e+02
1.196287108906137486e-01 5.120190169132757774e+02
1.197287348963751302e-01 5.120075409676945810e+02
1.198287589021365118e-01 5.119960993997892160e+02
1.199287829078978795e-01 5.119846924944242232e+02
1.200288069136592750e-01 5.119733205352927143e+02
1.201288309194206566e-01 5.119619838049075042e+02
1.202288549251820382e-01 5.119506825845916183e+02
1.203288789309434198e-01 5.119394171544680603e+02
1.204289029367048014e-01 5.119281877934521958e+02
1.205289269424661969e-01 5.119169947792404400e+02
1.206289509482275646e-01 5.119058383883028682e+02
1.207289749539889462e-01 5.118947188958721313e+02
1.208289989597503278e-01 5.118836365759368050e+02
1.209290229655117233e-01 5.118725917012292257e+02
1.210290469712731048e-01 5.118615845432191804e+02
1.211290709770344864e-01 5.118506153721031069e+02
1.212290949827958680e-01 5.118396844567961352e+02
1.213291189885572496e-01 5.118287920649226521e+02
1.214291429943186174e-01 5.118179384628074331e+02
1.215291670000800128e-01 5.118071239154671730e+02
1.216291910058413944e-01 5.117963486866014478e+02
1.217292150116027760e-01 5.117856130385844722e+02
1.218292390173641715e-01 5.117749172324544134e+02
1.219292630231255531e-01 5.117642615279082179e+02
1.220292870288869347e-01 5.117536461832911527e+02
1.221293110346483024e-01 5.117430714555858913e+02
1.222293350404096840e-01 5.117325376004104101e+02
1.223293590461710656e-01 5.117220448720011063e+02
1.224293830519324611e-01 5.117115935232121728e+02
1.225294070576938427e-01 5.117011838055031490e+02
1.226294310634552243e-01 5.116908159689311333e+02
1.227294550692166197e-01 5.116804902621430529e+02
1.228294790749780013e-01 5.116702069323674777e+02
1.229295030807393690e-01 5.116599662254064924e+02
1.230295270865007506e-01 5.116497683856279650e+02
1.231295510922621322e-01 5.116396136559554293e+02
1.232295750980235138e-01 5.116295022778643897e+02
1.233295991037849093e-01 5.116194344913693044e+02
1.234296231095462909e-01 5.116094105350203449e+02
1.235296471153076725e-01 5.115994306458917436e+02
1.236296711210690402e-01 5.115894950595773025e+02
1.237296951268304357e-01 5.115796040101806739e+02
1.238297191325918173e-01 5.115697577303081403e+02
1.239297431383531989e-01 5.115599564510608275e+02
1.240297671441145805e-01 5.115502004020287927e+02
1.241297911498759621e-01 5.115404898112811338e+02
1.242298151556373575e-01 5.115308249053600207e+02
1.243298391613987253e-01 5.115212059092731920e+02
1.244298631671601069e-01 5.115116330464867360e+02
1.245298871729214885e-01 5.115021065389175874e+02
1.246299111786828839e-01 5.114926266069251710e+02
1.247299351844442655e-01 5.114831934693074231e+02
1.248299591902056471e-01 5.114738073432905594e+02
1.249299831959670287e-01 5.114644684445240728e+02
1.250300072017284103e-01 5.114551769870713542e+02
1.251300312074897780e-01 5.114459331834069076e+02
1.252300552132511735e-01 5.114367372444050375e+02
1.253300792190125690e-01 5.114275893793354157e+02
1.254301032247739367e-01 5.114184897958574538e+02
1.255301272305353322e-01 5.114094387000100710e+02
1.256301512362966999e-01 5.114004362962079426e+02
1.257301752420580954e-01 5.113914827872351907e+02
1.258301992478194631e-01 5.113825783742370277e+02
1.259302232535808586e-01 5.113737232567135607e+02
1.260302472593422263e-01 5.113649176325153007e+02
1.261302712651036217e-01 5.113561616978361144e+02
1.262302952708649895e-01 5.113474556472045265e+02
1.263303192766263849e-01 5.113387996734804801e+02
1.264303432823877804e-01 5.113301939678489134e+02
1.265303672881491481e-01 5.113216387198116877e+02
1.266303912939105158e-01 5.113131341171847453e+02
1.267304152996719113e-01 5.113046803460888441e+02
1.268304393054333068e-01 5.112962775909452944e+02
1.269304633111946745e-01 5.112879260344705585e+02
1.270304873169560700e-01 5.112796258576696005e+02
1.271305113227174655e-01 5.112713772398307697e+02
1.272305353284788332e-01 5.112631803585194916e+02
1.273305593342402009e-01 5.112550353895744593e+02
1.274305833400015964e-01 5.112469425070989928e+02
1.275306073457629641e-01 5.112389018834587660e+02
1.276306313515243596e-01 5.112309136892747574e+02
1.277306553572857550e-01 5.112229780934181917e+02
1.278306793630471228e-01 5.112150952630050256e+02
1.279307033688085182e-01 5.112072653633917980e+02
1.280307273745698859e-01 5.111994885581694916e+02
1.281307513803312537e-01 5.111917650091589849e+02
1.282307753860926491e-01 5.111840948764053110e+02
1.283307993918540446e-01 5.111764783181744178e+02
1.284308233976154123e-01 5.111689154909450963e+02
1.285308474033768078e-01 5.111614065494084684e+02
1.286308714091382033e-01 5.111539516464602002e+02
1.287308954148995710e-01 5.111465509331962949e+02
1.288309194206609387e-01 5.111392045589093414e+02
1.289309434264223342e-01 5.111319126710832847e+02
1.290309674321837297e-01 5.111246754153892198e+02
1.291309914379450974e-01 5.111174929356808434e+02
1.292310154437064929e-01 5.111103653739900210e+02
1.293310394494678606e-01 5.111032928705226936e+02
1.294310634552292560e-01 5.110962755636554107e+02
1.295310874609906238e-01 5.110893135899296453e+02
1.296311114667520192e-01 5.110824070840482136e+02
1.297311354725133870e-01 5.110755561788726595e+02
1.298311594782747824e-01 5.110687610054168317e+02
1.299311834840361501e-01 5.110620216928451214e+02
1.300312074897975456e-01 5.110553383684679716e+02
1.301312314955589411e-01 5.110487111577378982e+02
1.302312555013203088e-01 5.110421401842455111e+02
1.303312795070816765e-01 5.110356255697171264e+02
1.304313035128430720e-01 5.110291674340096506e+02
1.305313275186044675e-01 5.110227658951088188e+02
1.306313515243658352e-01 5.110164210691235667e+02
1.307313755301272307e-01 5.110101330702852920e+02
1.308313995358886261e-01 5.110039020109423404e+02
1.309314235416499939e-01 5.109977280015583574e+02
1.310314475474113616e-01 5.109916111507079677e+02
1.311314715531727570e-01 5.109855515650747861e+02
1.312314955589341248e-01 5.109795493494475522e+02
1.313315195646955202e-01 5.109736046067175721e+02
1.314315435704569157e-01 5.109677174378753080e+02
1.315315675762182834e-01 5.109618879420090138e+02
1.316315915819796789e-01 5.109561162163011545e+02
1.317316155877410466e-01 5.109504023560248811e+02
1.318316395935024143e-01 5.109447464545415869e+02
1.319316635992638098e-01 5.109391486033016463e+02
1.320316876050252053e-01 5.109336088918364567e+02
1.321317116107865730e-01 5.109281274077599164e+02
1.322317356165479685e-01 5.109227042367660374e+02
1.323317596223093640e-01 5.109173394626241134e+02
1.324317836280707317e-01 5.109120331671799136e+02
1.325318076338320994e-01 5.109067854303509648e+02
1.326318316395934949e-01 5.109015963301255283e+02
1.327318556453548903e-01 5.108964659425598711e+02
1.328318796511162581e-01 5.108913943417785504e+02
1.329319036568776535e-01 5.108863815999692406e+02
1.330319276626390212e-01 5.108814277873838705e+02
1.331319516684004167e-01 5.108765329723359514e+02
1.332319756741617844e-01 5.108716972211976781e+02
1.333319996799231799e-01 5.108669205984008386e+02
1.334320236856845476e-01 5.108622031664333463e+02
1.335320476914459431e-01 5.108575449858384445e+02
1.336320716972073108e-01 5.108529461152130580e+02
1.337320957029687063e-01 5.108484066112077358e+02
1.338321197087301018e-01 5.108439265285240936e+02
1.339321437144914695e-01 5.108395059199139041e+02
1.340321677202528372e-01 5.108351448361784151e+02
1.341321917260142327e-01 5.108308433261670984e+02
1.342322157317756282e-01 5.108266014367770822e+02
1.343322397375369959e-01 5.108224192129515586e+02
1.344322637432983913e-01 5.108182966976803527e+02
1.345322877490597868e-01 5.108142339319974212e+02
1.346323117548211545e-01 5.108102309549814208e+02
1.347323357605825223e-01 5.108062878037541168e+02
1.348323597663439177e-01 5.108024045134818039e+02
1.349323837721052854e-01 5.107985811173725779e+02
1.350324077778666809e-01 5.107948176466775294e+02
1.351324317836280764e-01 5.107911141306893796e+02
1.352324557893894441e-01 5.107874705967425939e+02
1.353324797951508396e-01 5.107838870702147460e+02
1.354325038009122073e-01 5.107803635745239603e+02
1.355325278066735750e-01 5.107769001311295369e+02
1.356325518124349705e-01 5.107734967595332591e+02
1.357325758181963660e-01 5.107701534772784271e+02
1.358325998239577337e-01 5.107668702999504831e+02
1.359326238297191292e-01 5.107636472411767272e+02
1.360326478354805246e-01 5.107604843126268861e+02
1.361326718412418924e-01 5.107573815240145336e+02
1.362326958470032601e-01 5.107543388830951585e+02
1.363327198527646555e-01 5.107513563956694043e+02
1.364327438585260510e-01 5.107484340655821597e+02
1.365327678642874187e-01 5.107455718947227297e+02
1.366327918700488142e-01 5.107427698830266536e+02
1.367328158758101819e-01 5.107400280284771270e+02
1.368328398815715774e-01 5.107373463271038077e+02
1.369328638873329729e-01 5.107347247729848050e+02
1.370328878930943406e-01 5.107321633582491245e+02
1.371329118988557083e-01 5.107296620730747918e+02
1.372329359046171038e-01 5.107272209056923771e+02
1.373329599103784715e-01 5.107248398423855633e+02
1.374329839161398670e-01 5.107225188674916012e+02
1.375330079219012624e-01 5.107202579634043218e+02
1.376330319276626302e-01 5.107180571105739091e+02
1.377330559334239979e-01 5.107159162875093443e+02
1.378330799391853934e-01 5.107138354707797134e+02
1.379331039449467888e-01 5.107118146350152870e+02
1.380331279507081566e-01 5.107098537529114992e+02
1.381331519564695520e-01 5.107079527952261628e+02
1.382331759622309475e-01 5.107061117307869722e+02
1.383331999679923152e-01 5.107043305264887749e+02
1.384332239737536829e-01 5.107026091472976645e+02
1.385332479795150784e-01 5.107009475562527996e+02
1.386332719852764461e-01 5.106993457144684498e+02
1.387332959910378416e-01 5.106978035811363270e+02
1.388333199967992371e-01 5.106963211135263236e+02
1.389333440025606048e-01 5.106948982669927091e+02
1.390333680083220003e-01 5.106935349949702641e+02
1.391333920140833680e-01 5.106922312489834894e+02
1.392334160198447357e-01 5.106909869786440481e+02
1.393334400256061312e-01 5.106898021316561653e+02
1.394334640313675266e-01 5.106886766538184474e+02
1.395334880371288944e-01 5.106876104890256443e+02
1.396335120428902898e-01 5.106866035792727985e+02
1.397335360486516853e-01 5.106856558646574058e+02
1.398335600544130530e-01 5.106847672833825413e+02
1.399335840601744207e-01 5.106839377717599859e+02
1.400336080659358162e-01 5.106831672642121589e+02
1.401336320716972117e-01 5.106824556932773476e+02
1.402336560774585794e-01 5.106818029896106736e+02
1.403336800832199749e-01 5.106812090819890955e+02
1.404337040889813426e-01 5.106806738973122037e+02
1.405337280947427381e-01 5.106801973606093270e+02
1.406337521005041336e-01 5.106797793950401001e+02
1.407337761062655013e-01 5.106794199218979884e+02
1.408338001120268690e-01 5.106791188606154606e+02
1.409338241177882645e-01 5.106788761287667739e+02
1.410338481235496322e-01 5.106786916420709304e+02
1.411338721293110277e-01 5.106785653143973605e+02
1.412338961350724231e-01 5.106784970577671174e+02
1.413339201408337908e-01 5.106784867823593004e+02
1.414339441465951586e-01 5.106785343965137258e+02
1.415339681523565540e-01 5.106786398067337700e+02
1.416339921581179495e-01 5.106788029176934174e+02
1.417340161638793172e-01 5.106790236322391365e+02
1.418340401696407127e-01 5.106793018513941433e+02
1.419340641754021082e-01 5.106796374743634033e+02
1.420340881811634759e-01 5.106800303985387472e+02
1.421341121869248436e-01 5.106804805195007475e+02
1.422341361926862391e-01 5.106809877310249703e+02
1.423341601984476068e-01 5.106815519250869215e+02
1.424341842042090023e-01 5.106821729918653432e+02
1.425342082099703978e-01 5.106828508197471592e+02
1.426342322157317655e-01 5.106835852953332733e+02
1.427342562214931609e-01 5.106843763034405015e+02
1.428342802272545287e-01 5.106852237271110653e+02
1.429343042330158964e-01 5.106861274476120229e+02
1.430343282387772919e-01 5.106870873444447056e+02
1.431343522445386873e-01 5.106881032953461954e+02
1.432343762503000550e-01 5.106891751762984768e+02
1.433344002560614505e-01 5.106903028615291760e+02
1.434344242618228460e-01 5.106914862235190071e+02
1.435344482675842137e-01 5.106927251330079116e+02
1.436344722733455814e-01 5.106940194589976727e+02
1.437344962791069769e-01 5.106953690687593621e+02
1.438345202848683724e-01 5.106967738278382285e+02
1.439345442906297401e-01 5.106982336000602345e+02
1.440345682963911356e-01 5.106997482475336483e+02
1.441345923021525033e-01 5.107013176306599576e+02
1.442346163079138988e-01 5.107029416081356317e+02
1.443346403136752942e-01 5.107046200369607618e+02
1.444346643194366620e-01 5.107063527724412779e+02
1.445346883251980297e-01 5.107081396681978731e+02
1.446347123309594251e-01 5.107099805761705511e+02
1.447347363367207929e-01 5.107118753466254475e+02
1.448347603424821883e-01 5.107138238281581266e+02
1.449347843482435838e-01 5.107158258677038702e+02
1.450348083540049515e-01 5.107178813105405766e+02
1.451348323597663192e-01 5.107199900002957520e+02
1.452348563655277147e-01 5.107221517789535028e+02
1.453348803712891102e-01 5.107243664868597648e+02
1.454349043770504779e-01 5.107266339627283855e+02
1.455349283828118734e-01 5.107289540436493098e+02
1.456349523885732689e-01 5.107313265650930703e+02
1.457349763943346366e-01 5.107337513609191433e+02
1.458350004000960320e-01 5.107362282633798714e+02
1.459350244058573998e-01 5.107387571031285347e+02
1.460350484116187675e-01 5.107413377092290716e+02
1.461350724173801630e-01 5.107439699091557372e+02
1.462350964231415584e-01 5.107466535288060641e+02
1.463351204289029261e-01 5.107493883925055798e+02
1.464351444346643216e-01 5.107521743230139464e+02
1.465351684404256893e-01 5.107550111415328615e+02
1.466351924461870571e-01 5.107578986677129365e+02
1.467352164519484525e-01 5.107608367196593804e+02
1.468352404577098480e-01 5.107638251139412660e+02
1.469352644634712157e-01 5.107668636655969294e+02
1.470352884692326112e-01 5.107699521881420424e+02
1.471353124749940067e-01 5.107730904935762055e+02
1.472353364807553744e-01 5.107762783923913616e+02
1.473353604865167421e-01 5.107795156935770819e+02
1.474353844922781376e-01 5.107828022046296041e+02
1.475354084980395331e-01 5.107861377315595632e+02
1.476354325038009008e-01 5.107895220788975053e+02
1.477354565095622962e-01 5.107929550497033802e+02
1.478354805153236640e-01 5.107964364455725104e+02
1.479355045210850594e-01 5.107999660666453110e+02
1.480355285268464549e-01 5.108035437116120647e+02
1.481355525326078226e-01 5.108071691777242904e+02
1.482355765383691903e-01 5.108108422607975285e+02
1.483356005441305858e-01 5.108145627552245287e+02
1.484356245498919535e-01 5.108183304539798542e+02
1.485356485556533490e-01 5.108221451486275555e+02
1.486356725614147445e-01 5.108260066293311183e+02
1.487356965671761122e-01 5.108299146848602277e+02
1.488357205729374799e-01 5.108338691025995786e+02
1.489357445786988754e-01 5.108378696685547311e+02
1.490357685844602709e-01 5.108419161673629105e+02
1.491357925902216386e-01 5.108460083823002833e+02
1.492358165959830341e-01 5.108501460952886646e+02
1.493358406017444295e-01 5.108543290869066595e+02
1.494358646075057973e-01 5.108585571363958593e+02
1.495358886132671927e-01 5.108628300216695379e+02
1.496359126190285604e-01 5.108671475193212927e+02
1.497359366247899282e-01 5.108715094046328318e+02
1.498359606305513236e-01 5.108759154515842056e+02
1.499359846363127191e-01 5.108803654328597759e+02
1.500360086420740868e-01 5.108848591198587883e+02
1.501360326478354823e-01 5.108893962827031032e+02
1.502360566535968500e-01 5.108939766902461201e+02
1.503360806593582177e-01 5.108986001100806789e+02
1.504361046651196132e-01 5.109032663085490071e+02
1.505361286708810087e-01 5.109079750507513040e+02
1.506361526766423764e-01 5.109127261005521632e+02
1.507361766824037719e-01 5.109175192205934763e+02
1.508362006881651673e-01 5.109223541722994355e+02
1.509362246939265351e-01 5.109272307158884132e+02
1.510362486996879305e-01 5.109321486103795564e+02
1.511362727054492983e-01 5.109371076136039846e+02
1.512362967112106937e-01 5.109421074822110995e+02
1.513363207169720615e-01 5.109471479716803515e+02
1.514363447227334569e-01 5.109522288363289135e+02
1.515363687284948246e-01 5.109573498293204352e+02
1.516363927342562201e-01 5.109625107026761270e+02
1.517364167400176156e-01 5.109677112072810132e+02
1.518364407457789833e-01 5.109729510928961531e+02
1.519364647515403510e-01 5.109782301081654623e+02
1.520364887573017465e-01 5.109835480006267971e+02
1.521365127630631142e-01 5.109889045167205950e+02
1.522365367688245097e-01 5.109942994017984006e+02
1.523365607745859052e-01 5.109997324001343486e+02
1.524365847803472729e-01 5.110052032549318710e+02
1.525366087861086406e-01 5.110107117083355206e+02
1.526366327918700361e-01 5.110162575014402933e+02
1.527366567976314315e-01 5.110218403742985060e+02
1.528366808033927993e-01 5.110274600659329280e+02
1.529367048091541947e-01 5.110331163143442836e+02
1.530367288149155902e-01 5.110388088565205749e+02
1.531367528206769579e-01 5.110445374284483933e+02
1.532367768264383534e-01 5.110503017651211621e+02
1.533368008321997211e-01 5.110561016005504484e+02
1.534368248379610888e-01 5.110619366677726134e+02
1.535368488437224843e-01 5.110678066988622277e+02
1.536368728494838798e-01 5.110737114249394040e+02
1.537368968552452475e-01 5.110796505761812796e+02
1.538369208610066430e-01 5.110856238818297470e+02
1.539369448667680107e-01 5.110916310702041301e+02
1.540369688725293784e-01 5.110976718687081757e+02
1.541369928782907739e-01 5.111037460038423887e+02
1.542370168840521694e-01 5.111098532012124451e+02
1.543370408898135371e-01 5.111159931855394802e+02
1.544370648955749326e-01 5.111221656806716851e+02
1.545370889013363280e-01 5.111283704095912412e+02
1.546371129070976957e-01 5.111346070944273379e+02
1.547371369128590912e-01 5.111408754564647552e+02
1.548371609186204589e-01 5.111471752161533573e+02
1.549371849243818544e-01 5.111535060931209387e+02
1.550372089301432221e-01 5.111598678061797045e+02
1.551372329359046176e-01 5.111662600733388899e+02
1.552372569416659853e-01 5.111726826118156168e+02
1.553372809474273808e-01 5.111791351380419428e+02
1.554373049531887763e-01 5.111856173676781054e+02
1.555373289589501440e-01 5.111921290156217879e+02
1.556373529647115117e-01 5.111986697960179526e+02
1.557373769704729072e-01 5.112052394222691305e+02
1.558374009762342749e-01 5.112118376070474142e+02
1.559374249819956704e-01 5.112184640623014502e+02
1.560374489877570658e-01 5.112251184992705930e+02
1.561374729935184336e-01 5.112318006284930334e+02
1.562374969992798013e-01 5.112385101598162578e+02
1.563375210050411968e-01 5.112452468024087580e+02
1.564375450108025922e-01 5.112520102647681597e+02
1.565375690165639599e-01 5.112588002547350357e+02
1.566375930223253277e-01 5.112656164794998972e+02
1.567376170280867509e-01 5.112724586456157567e+02
1.568376410338481186e-01 5.112793264590078479e+02
1.569376650396095141e-01 5.112862196249850513e+02
1.570376890453708818e-01 5.112931378482492732e+02
1.571377130511322773e-01 5.113000808329059623e+02
1.572377370568936450e-01 5.113070482824763303e+02
1.573377610626550405e-01 5.113140398999058220e+02
1.574377850684164082e-01 5.113210553875758819e+02
1.575378090741777759e-01 5.113280944473144700e+02
1.576378330799391714e-01 5.113351567804054412e+02
1.577378570857005391e-01 5.113422420876030969e+02
1.578378810914619623e-01 5.113493500691352551e+02
1.579379050972233300e-01 5.113564804247235998e+02
1.580379291029847255e-01 5.113636328535862390e+02
1.581379531087460932e-01 5.113708070544518023e+02
1.582379771145074610e-01 5.113780027255702976e+02
1.583380011202688564e-01 5.113852195647235135e+02
1.584380251260302241e-01 5.113924572692348534e+02
1.585380491317916474e-01 5.113997155359805333e+02
1.586380731375530151e-01 5.114069940614009511e+02
1.587380971433144106e-01 5.114142925415101217e+02
1.588381211490757783e-01 5.114216106719081267e+02
1.589381451548371460e-01 5.114289481477898676e+02
1.590381691605985415e-01 5.114363046639578556e+02
1.591381931663599092e-01 5.114436799148304544e+02
1.592382171721213047e-01 5.114510735944554654e+02
1.593382411778826724e-01 5.114584853965179718e+02
1.594382651836440679e-01 5.114659150143551756e+02
1.595382891894054356e-01 5.114733621409615125e+02
1.596383131951668033e-01 5.114808264690040573e+02
1.597383372009282265e-01 5.114883076908325847e+02
1.598383612066895942e-01 5.114958054984883802e+02
1.599383852124509897e-01 5.115033195837160633e+02
1.600384092182123574e-01 5.115108496379746157e+02
1.601384332239737529e-01 5.115183953524486924e+02
1.602384572297351206e-01 5.115259564180586835e+02
1.603384812354964883e-01 5.115335325254710028e+02
1.604385052412579116e-01 5.115411233651089447e+02
1.605385292470192793e-01 5.115487286271662128e+02
1.606385532527806748e-01 5.115563480016126050e+02
1.607385772585420425e-01 5.115639811782102129e+02
1.608386012643034380e-01 5.115716278465202436e+02
1.609386252700648057e-01 5.115792876959151840e+02
1.610386492758262011e-01 5.115869604155909087e+02
1.611386732815875689e-01 5.115946456945755472e+02
1.612386972873489366e-01 5.116023432217398295e+02
1.613387212931103321e-01 5.116100526858112971e+02
1.614387452988716998e-01 5.116177737753815222e+02
1.615387693046331230e-01 5.116255061789173624e+02
1.616387933103944907e-01 5.116332495847738642e+02
1.617388173161558862e-01 5.116410036812038129e+02
1.618388413219172539e-01 5.116487681563668275e+02
1.619388653276786216e-01 5.116565426983435714e+02
1.620388893334400171e-01 5.116643269951432558e+02
1.621389133392013848e-01 5.116721207347166569e+02
1.622389373449628081e-01 5.116799236049654382e+02
1.623389613507241758e-01 5.116877352937530077e+02
1.624389853564855712e-01 5.116955554889175346e+02
1.625390093622469390e-01 5.117033838782782027e+02
1.626390333680083067e-01 5.117112201496502735e+02
1.627390573737697022e-01 5.117190639908541812e+02
1.628390813795310699e-01 5.117269150897242298e+02
1.629391053852924653e-01 5.117347731341233157e+02
1.630391293910538331e-01 5.117426378119503738e+02
1.631391533968152285e-01 5.117505088111522582e+02
1.632391774025765963e-01 5.117583858197344853e+02
1.633392014083379640e-01 5.117662685257712951e+02
1.634392254140993872e-01 5.117741566174165087e+02
1.635392494198607549e-01 5.117820497829158626e+02
1.636392734256221504e-01 5.117899477106135464e+02
1.637392974313835181e-01 5.117978500889670954e+02
1.638393214371449136e-01 5.118057566065562014e+02
1.639393454429062813e-01 5.118136669520923761e+02
1.640393694486676490e-01 5.118215808144316270e+02
1.641393934544290722e-01 5.118294978825831549e+02
1.642394174601904400e-01 5.118374178457196422e+02
1.643394414659518354e-01 5.118453403931909520e+02
1.644394654717132032e-01 5.118532652145300972e+02
1.645394894774745986e-01 5.118611919994683603e+02
1.646395134832359664e-01 5.118691204379416035e+02
1.647395374889973618e-01 5.118770502201032286e+02
1.648395614947587295e-01 5.118849810363338975e+02
1.649395855005200973e-01 5.118929125772523889e+02
1.650396095062814927e-01 5.119008445337248645e+02
1.651396335120428605e-01 5.119087765968772601e+02
1.652396575178042837e-01 5.119167084581031304e+02
1.653396815235656514e-01 5.119246398090767229e+02
1.654397055293270469e-01 5.119325703417606519e+02
1.655397295350884146e-01 5.119404997484192563e+02
1.656397535408497823e-01 5.119484277216244550e+02
1.657397775466111778e-01 5.119563539542716626e+02
1.658398015523725455e-01 5.119642781395851330e+02
1.659398255581339687e-01 5.119721999711308627e+02
1.660398495638953364e-01 5.119801191428264246e+02
1.661398735696567319e-01 5.119880353489499498e+02
1.662398975754180996e-01 5.119959482841528597e+02
1.663399215811794674e-01 5.120038576434664037e+02
1.664399455869408628e-01 5.120117631223158696e+02
1.665399695927022305e-01 5.120196644165270072e+02
1.666399935984636260e-01 5.120275612223385906e+02
1.667400176042249937e-01 5.120354532364110582e+02
1.668400416099863892e-01 5.120433401558374271e+02
1.669400656157477569e-01 5.120512216781530697e+02
1.670400896215091247e-01 5.120590975013459456e+02
1.671401136272705479e-01 5.120669673238653559e+02
1.672401376330319156e-01 5.120748308446338797e+02
1.673401616387933111e-01 5.120826877630553327e+02
1.674401856445546788e-01 5.120905377790254533e+02
1.675402096503160743e-01 5.120983805929430446e+02
1.676402336560774420e-01 5.121062159057169083e+02
1.677402576618388097e-01 5.121140434187792607e+02
1.678402816676002329e-01 5.121218628340914165e+02
1.679403056733616006e-01 5.121296738541582272e+02
1.680403296791229961e-01 5.121374761820334243e+02
1.681403536848843638e-01 5.121452695213313291e+02
1.682403776906457593e-01 5.121530535762371983e+02
1.683404016964071270e-01 5.121608280515166598e+02
1.684404257021685225e-01 5.121685926525226478e+02
1.685404497079298902e-01 5.121763470852084765e+02
1.686404737136912579e-01 5.121840910561362534e+02
1.687404977194526534e-01 5.121918242724854053e+02
1.688405217252140211e-01 5.121995464420627968e+02
1.689405457309754444e-01 5.122072572733129618e+02
1.690405697367368121e-01 5.122149564753267441e+02
1.691405937424982076e-01 5.122226437578500509e+02
1.692406177482595753e-01 5.122303188312948805e+02
1.693406417540209430e-01 5.122379814067473944e+02
1.694406657597823385e-01 5.122456311959767845e+02
1.695406897655437062e-01 5.122532679114472103e+02
1.696407137713051294e-01 5.122608912663228011e+02
1.697407377770664971e-01 5.122685009744812987e+02
1.698407617828278926e-01 5.122760967505196277e+02
1.699407857885892603e-01 5.122836783097654916e+02
1.700408097943506280e-01 5.122912453682837395e+02
1.701408338001120235e-01 5.122987976428897809e+02
1.702408578058733912e-01 5.123063348511542472e+02
1.703408818116347867e-01 5.123138567114133366e+02
1.704409058173961544e-01 5.123213629427796150e+02
1.705409298231575499e-01 5.123288532651488367e+02
1.706409538289189176e-01 5.123363273992088125e+02
1.707409778346802853e-01 5.123437850664496409e+02
1.708410018404417086e-01 5.123512259891714393e+02
1.709410258462030763e-01 5.123586498904927566e+02
1.710410498519644718e-01 5.123660564943618283e+02
1.711410738577258395e-01 5.123734455255611238e+02
1.712410978634872349e-01 5.123808167097203068e+02
1.713411218692486027e-01 5.123881697733206693e+02
1.714411458750100259e-01 5.123955044437082051e+02
1.715411698807713936e-01 5.124028204490980443e+02
1.716411938865327613e-01 5.124101175185851389e+02
1.717412178922941568e-01 5.124173953821522218e+02
1.718412418980555245e-01 5.124246537706782192e+02
1.719412659038169200e-01 5.124318924159472317e+02
1.720412899095782877e-01 5.124391110506553559e+02
1.721413139153396832e-01 5.124463094084206887e+02
1.722413379211010509e-01 5.124534872237896934e+02
1.723413619268624186e-01 5.124606442322485691e+02
1.724413859326238141e-01 5.124677801702265469e+02
1.725414099383851818e-01 5.124748947751091919e+02
1.726414339441466050e-01 5.124819877852427226e+02
1.727414579499079728e-01 5.124890589399439023e+02
1.728414819556693682e-01 5.124961079795075420e+02
1.729415059614307359e-01 5.125031346452144589e+02
1.730415299671921037e-01 5.125101386793389793e+02
1.731415539729534991e-01 5.125171198251578062e+02
1.732415779787148669e-01 5.125240778269566135e+02
1.733416019844762901e-01 5.125310124300391408e+02
1.734416259902376578e-01 5.125379233807328774e+02
1.735416499959990533e-01 5.125448104263997493e+02
1.736416740017604210e-01 5.125516733154408939e+02
1.737416980075217887e-01 5.125585117973060960e+02
1.738417220132831842e-01 5.125653256224999268e+02
1.739417460190445519e-01 5.125721145425906116e+02
1.740417700248059474e-01 5.125788783102168509e+02
1.741417940305673151e-01 5.125856166790946418e+02
1.742418180363287106e-01 5.125923294040260316e+02
1.743418420420900783e-01 5.125990162409045752e+02
1.744418660478514460e-01 5.126056769467238610e+02
1.745418900536128692e-01 5.126123112795862653e+02
1.746419140593742370e-01 5.126189189987060217e+02
1.747419380651356324e-01 5.126254998644192256e+02
1.748419620708970001e-01 5.126320536381914508e+02
1.749419860766583956e-01 5.126385800826219565e+02
1.750420100824197633e-01 5.126450789614550558e+02
1.751420340881811866e-01 5.126515500395804565e+02
1.752420580939425543e-01 5.126579930830476997e+02
1.753420820997039220e-01 5.126644078590675235e+02
1.754421061054653175e-01 5.126707941360202767e+02
1.755421301112266852e-01 5.126771516834639897e+02
1.756421541169880807e-01 5.126834802721390361e+02
1.757421781227494484e-01 5.126897796739756359e+02
1.758422021285108439e-01 5.126960496621002221e+02
1.759422261342722116e-01 5.127022900108422618e+02
1.760422501400335793e-01 5.127085004957411911e+02
1.761422741457949748e-01 5.127146808935518720e+02
1.762422981515563425e-01 5.127208309822508454e+02
1.763423221573177657e-01 5.127269505410433794e+02
1.764423461630791334e-01 5.127330393503701771e+02
1.765423701688405289e-01 5.127390971919119238e+02
1.766423941746018966e-01 5.127451238485967906e+02
1.767424181803632643e-01 5.127511191046061185e+02
1.768424421861246598e-01 5.127570827453814672e+02
1.769424661918860275e-01 5.127630145576279119e+02
1.770424901976474508e-01 5.127689143293231382e+02
1.771425142034088185e-01 5.127747818497216485e+02
1.772425382091702140e-01 5.127806169093605604e+02
1.773425622149315817e-01 5.127864193000664272e+02
1.774425862206929494e-01 5.127921888149597862e+02
1.775426102264543449e-01 5.127979252484615245e+02
1.776426342322157126e-01 5.128036283962977677e+02
1.777426582379771081e-01 5.128092980555076110e+02
1.778426822437384758e-01 5.128149340244456198e+02
1.779427062494998713e-01 5.128205361027887648e+02
1.780427302552612390e-01 5.128261040915430158e+02
1.781427542610226067e-01 5.128316377930460703e+02
1.782427782667840299e-01 5.128371370109750842e+02
1.783428022725453976e-01 5.128426015503498547e+02
1.784428262783067931e-01 5.128480312175404379e+02
1.785428502840681608e-01 5.128534258202695355e+02
1.786428742898295563e-01 5.128587851676206810e+02
1.787428982955909240e-01 5.128641090700391487e+02
1.788429223013523472e-01 5.128693973393407077e+02
1.789429463071137150e-01 5.128746497887158284e+02
1.790429703128750827e-01 5.128798662327318425e+02
1.791429943186364782e-01 5.128850464873415831e+02
1.792430183243978459e-01 5.128901903698847491e+02
1.793430423301592413e-01 5.128952976990951811e+02
1.794430663359206091e-01 5.129003682951039309e+02
1.795430903416820045e-01 5.129054019794444912e+02
1.796431143474433723e-01 5.129103985750568881e+02
1.797431383532047400e-01 5.129153579062917743e+02
1.798431623589661355e-01 5.129202797989173632e+02
1.799431863647275032e-01 5.129251640801194299e+02
1.800432103704889264e-01 5.129300105785093820e+02
1.801432343762502941e-01 5.129348191241264203e+02
1.802432583820116896e-01 5.129395895484436778e+02
1.803432823877730573e-01 5.129443216843685605e+02
1.804433063935344250e-01 5.129490153662510465e+02
1.805433303992958205e-01 5.129536704298866425e+02
1.806433544050571882e-01 5.129582867125168377e+02
1.807433784108186114e-01 5.129628640528377446e+02
1.808434024165799792e-01 5.129674022910013491e+02
1.809434264223413746e-01 5.129719012686198312e+02
1.810434504281027424e-01 5.129763608287689749e+02
1.811434744338641101e-01 5.129807808159914657e+02
1.812434984396255055e-01 5.129851610763023473e+02
1.813435224453868733e-01 5.129895014571903857e+02
1.814435464511482687e-01 5.129938018076226172e+02
1.815435704569096365e-01 5.129980619780469624e+02
1.816435944626710319e-01 5.130022818203964334e+02
1.817436184684323996e-01 5.130064611880923167e+02
1.818436424741937674e-01 5.130105999360470150e+02
1.819436664799551906e-01 5.130146979206676860e+02
1.820436904857165583e-01 5.130187549998580607e+02
1.821437144914779538e-01 5.130227710330226500e+02
1.822437384972393215e-01 5.130267458810707240e+02
1.823437625030007170e-01 5.130306794064169935e+02
1.824437865087620847e-01 5.130345714729850215e+02
1.825438105145235079e-01 5.130384219462118836e+02
1.826438345202848756e-01 5.130422306930482819e+02
1.827438585260462434e-01 5.130459975819630927e+02
1.828438825318076388e-01 5.130497224829455263e+02
1.829439065375690066e-01 5.130534052675068324e+02
1.830439305433304020e-01 5.130570458086845065e+02
1.831439545490917697e-01 5.130606439810431993e+02
1.832439785548531652e-01 5.130641996606768771e+02
1.833440025606145329e-01 5.130677127252132550e+02
1.834440265663759007e-01 5.130711830538135700e+02
1.835440505721372961e-01 5.130746105271769011e+02
1.836440745778986638e-01 5.130779950275409647e+02
1.837440985836600871e-01 5.130813364386833655e+02
1.838441225894214548e-01 5.130846346459267124e+02
1.839441465951828503e-01 5.130878895361375953e+02
1.840441706009442180e-01 5.130911009977293133e+02
1.841441946067055857e-01 5.130942689206648311e+02
1.842442186124669812e-01 5.130973931964565509e+02
1.843442426182283489e-01 5.131004737181709743e+02
1.844442666239897721e-01 5.131035103804251776e+02
1.845442906297511398e-01 5.131065030793953383e+02
1.846443146355125353e-01 5.131094517128130974e+02
1.847443386412739030e-01 5.131123561799679464e+02
1.848443626470352708e-01 5.131152163817106384e+02
1.849443866527966662e-01 5.131180322204517097e+02
1.850444106585580339e-01 5.131208036001655728e+02
1.851444346643194294e-01 5.131235304263896069e+02
1.852444586700807971e-01 5.131262126062269999e+02
1.853444826758421926e-01 5.131288500483462940e+02
1.854445066816035603e-01 5.131314426629819536e+02
1.855445306873649836e-01 5.131339903619397091e+02
1.856445546931263513e-01 5.131364930585904176e+02
1.857445786988877190e-01 5.131389506678784755e+02
1.858446027046491145e-01 5.131413631063159073e+02
1.859446267104104822e-01 5.131437302919878221e+02
1.860446507161718777e-01 5.131460521445513905e+02
1.861446747219332454e-01 5.131483285852353902e+02
1.862446987276946686e-01 5.131505595368424792e+02
1.863447227334560363e-01 5.131527449237496512e+02
1.864447467392174040e-01 5.131548846719073254e+02
1.865447707449787995e-01 5.131569787088405974e+02
1.866447947507401672e-01 5.131590269636496942e+02
1.867448187565015627e-01 5.131610293670100873e+02
1.868448427622629304e-01 5.131629858511716975e+02
1.869448667680243259e-01 5.131648963499600313e+02
1.870448907737856936e-01 5.131667607987776591e+02
1.871449147795470613e-01 5.131685791346014867e+02
1.872449387853084568e-01 5.131703512959834370e+02
1.873449627910698245e-01 5.131720772230518151e+02
1.874449867968312478e-01 5.131737568575096020e+02
1.875450108025926155e-01 5.131753901426352513e+02
1.876450348083540109e-01 5.131769770232810970e+02
1.877450588141153787e-01 5.131785174458744905e+02
1.878450828198767464e-01 5.131800113584170049e+02
1.879451068256381419e-01 5.131814587104825023e+02
1.880451308313995096e-01 5.131828594532194074e+02
1.881451548371609328e-01 5.131842135393470699e+02
1.882451788429223005e-01 5.131855209231569006e+02
1.883452028486836960e-01 5.131867815605125998e+02
1.884452268544450637e-01 5.131879954088452678e+02
1.885452508602064314e-01 5.131891624271589762e+02
1.886452748659678269e-01 5.131902825760241740e+02
1.887452988717291946e-01 5.131913558175781418e+02
1.888453228774905901e-01 5.131923821155274936e+02
1.889453468832519578e-01 5.131933614351419237e+02
1.890453708890133533e-01 5.131942937432564804e+02
1.891453948947747210e-01 5.131951790082689513e+02
1.892454189005361442e-01 5.131960172001403180e+02
1.893454429062975120e-01 5.131968082903904360e+02
1.894454669120588797e-01 5.131975522521001949e+02
1.895454909178202751e-01 5.131982490599071980e+02
1.896455149235816429e-01 5.131988986900062173e+02
1.897455389293430383e-01 5.131995011201462376e+02
1.898455629351044061e-01 5.132000563296303426e+02
1.899455869408658293e-01 5.132005642993125321e+02
1.900456109466271970e-01 5.132010250115972667e+02
1.901456349523885647e-01 5.132014384504370810e+02
1.902456589581499602e-01 5.132018046013309913e+02
1.903456829639113279e-01 5.132021234513218815e+02
1.904457069696727234e-01 5.132023949889960477e+02
1.905457309754340911e-01 5.132026192044803565e+02
1.906457549811954866e-01 5.132027960894391754e+02
1.907457789869568543e-01 5.132029256370736903e+02
1.908458029927182220e-01 5.132030078421203143e+02
1.909458269984796175e-01 5.132030427008456854e+02
1.910458510042409852e-01 5.132030302110487128e+02
1.911458750100024084e-01 5.132029703720525049e+02
1.912458990157637762e-01 5.132028631847076667e+02
1.913459230215251716e-01 5.132027086513862741e+02
1.914459470272865393e-01 5.132025067759810781e+02
1.915459710330479071e-01 5.132022575639016395e+02
1.916459950388093025e-01 5.132019610220726236e+02
1.917460190445706703e-01 5.132016171589311853e+02
1.918460430503320935e-01 5.132012259844241271e+02
1.919460670560934612e-01 5.132007875100034653e+02
1.920460910618548567e-01 5.132003017486274530e+02
1.921461150676162244e-01 5.131997687147535316e+02
1.922461390733775921e-01 5.131991884243371942e+02
1.923461630791389876e-01 5.131985608948303934e+02
1.924461870849003553e-01 5.131978861451750618e+02
1.925462110906617508e-01 5.131971641958036798e+02
1.926462350964231185e-01 5.131963950686333646e+02
1.927462591021845140e-01 5.131955787870639369e+02
1.928462831079458817e-01 5.131947153759755338e+02
1.929463071137073049e-01 5.131938048617222421e+02
1.930463311194686726e-01 5.131928472721314165e+02
1.931463551252300404e-01 5.131918426364999277e+02
1.932463791309914358e-01 5.131907909855896150e+02
1.933464031367528035e-01 5.131896923516247853e+02
1.934464271425141990e-01 5.131885467682880062e+02
1.935464511482755667e-01 5.131873542707166962e+02
1.936464751540369900e-01 5.131861148954990313e+02
1.937464991597983577e-01 5.131848286806709893e+02
1.938465231655597254e-01 5.131834956657105522e+02
1.939465471713211209e-01 5.131821158915385013e+02
1.940465711770824886e-01 5.131806894005089816e+02
1.941465951828438841e-01 5.131792162364080241e+02
1.942466191886052518e-01 5.131776964444507030e+02
1.943466431943666473e-01 5.131761300712740876e+02
1.944466672001280150e-01 5.131745171649371287e+02
1.945466912058893827e-01 5.131728577749123588e+02
1.946467152116507782e-01 5.131711519520848697e+02
1.947467392174121459e-01 5.131693997487456045e+02
1.948467632231735691e-01 5.131676012185891977e+02
1.949467872289349368e-01 5.131657564167082910e+02
1.950468112346963323e-01 5.131638653995892128e+02
1.951468352404577000e-01 5.131619282251083405e+02
1.952468592462190677e-01 5.131599449525256205e+02
1.953468832519804632e-01 5.131579156424842267e+02
1.954469072577418309e-01 5.131558403570003293e+02
1.955469312635032542e-01 5.131537191594621845e+02
1.956469552692646219e-01 5.131515521146251331e+02
1.957469792750260174e-01 5.131493392886051197e+02
1.958470032807873851e-01 5.131470807488764194e+02
1.959470272865487528e-01 5.131447765642640206e+02
1.960470512923101483e-01 5.131424268049413513e+02
1.961470752980715160e-01 5.131400315424227756e+02
1.962470993038329115e-01 5.131375908495606382e+02
1.963471233095942792e-01 5.131351048005391249e+02
1.964471473153556746e-01 5.131325734708702839e+02
1.965471713211170424e-01 5.131299969373877730e+02
1.966471953268784656e-01 5.131273752782419706e+02
1.967472193326398333e-01 5.131247085728948605e+02
1.968472433384012010e-01 5.131219969021153702e+02
1.969472673441625965e-01 5.131192403479719815e+02
1.970472913499239642e-01 5.131164389938318209e+02
1.971473153556853597e-01 5.131135929243494047e+02
1.972473393614467274e-01 5.131107022254656158e+02
1.973473633672081506e-01 5.131077669844002003e+02
1.974473873729695184e-01 5.131047872896472199e+02
1.975474113787308861e-01 5.131017632309687997e+02
1.976474353844922816e-01 5.130986948993898977e+02
1.977474593902536493e-01 5.130955823871928487e+02
1.978474833960150447e-01 5.130924257879102015e+02
1.979475074017764125e-01 5.130892251963215358e+02
1.980475314075378079e-01 5.130859807084458453e+02
1.981475554132991757e-01 5.130826924215351710e+02
1.982475794190605434e-01 5.130793604340709635e+02
1.983476034248219388e-01 5.130759848457564658e+02
1.984476274305833066e-01 5.130725657575114838e+02
1.985476514363447298e-01 5.130691032714648827e+02
1.986476754421060975e-01 5.130655974909512906e+02
1.987476994478674930e-01 5.130620485205035948e+02
1.988477234536288607e-01 5.130584564658454383e+02
1.989477474593902284e-01 5.130548214338875823e+02
1.990477714651516239e-01 5.130511435327200616e+02
1.991477954709129916e-01 5.130474228716064999e+02
1.992478194766744148e-01 5.130436595609786536e+02
1.993478434824357826e-01 5.130398537124270888e+02
1.994478674881971780e-01 5.130360054386995898e+02
1.995478914939585457e-01 5.130321148536903593e+02
1.996479154997199412e-01 5.130281820724366071e+02
1.997479395054813089e-01 5.130242072111103653e+02
1.998479635112426767e-01 5.130201903870123488e+02
1.999479875170040721e-01 5.130161317185658163e+02
2.000480115227654399e-01 5.130120313253105451e+02
2.001480355285268353e-01 5.130078893278951000e+02
2.002480595342882030e-01 5.130037058480694441e+02
2.003480835400496263e-01 5.129994810086813004e+02
2.004481075458109940e-01 5.129952149336662615e+02
2.005481315515723617e-01 5.129909077480439237e+02
2.006481555573337572e-01 5.129865595779073146e+02
2.007481795630951249e-01 5.129821705504200509e+02
2.008482035688565204e-01 5.129777407938070155e+02
2.009482275746178881e-01 5.129732704373493561e+02
2.010482515803793113e-01 5.129687596113745940e+02
2.011482755861406790e-01 5.129642084472532133e+02
2.012482995919020468e-01 5.129596170773896802e+02
2.013483235976634422e-01 5.129549856352150528e+02
2.014483476034248099e-01 5.129503142551811834e+02
2.015483716091862054e-01 5.129456030727533289e+02
2.016483956149475731e-01 5.129408522244024198e+02
2.017484196207089686e-01 5.129360618475984666e+02
2.018484436264703363e-01 5.129312320808039658e+02
2.019484676322317040e-01 5.129263630634653737e+02
2.020484916379930995e-01 5.129214549360059436e+02
2.021485156437544672e-01 5.129165078398201558e+02
2.022485396495158905e-01 5.129115219172656452e+02
2.023485636552772582e-01 5.129064973116541069e+02
2.024485876610386537e-01 5.129014341672465207e+02
2.025486116668000214e-01 5.128963326292445117e+02
2.026486356725613891e-01 5.128911928437830738e+02
2.027486596783227846e-01 5.128860149579227254e+02
2.028486836840841523e-01 5.128807991196438252e+02
2.029487076898455755e-01 5.128755454778357716e+02
2.030487316956069432e-01 5.128702541822942749e+02
2.031487557013683387e-01 5.128649253837088509e+02
2.032487797071297064e-01 5.128595592336577056e+02
2.033488037128911019e-01 5.128541558846011412e+02
2.034488277186524696e-01 5.128487154898717790e+02
2.035488517244138373e-01 5.128432382036683066e+02
2.036488757301752328e-01 5.128377241810472924e+02
2.037488997359366005e-01 5.128321735779145456e+02
2.038489237416979960e-01 5.128265865510209096e+02
2.039489477474593637e-01 5.128209632579496429e+02
2.040489717532207870e-01 5.128153038571122124e+02
2.041489957589821547e-01 5.128096085077397674e+02
2.042490197647435224e-01 5.128038773698741579e+02
2.043490437705049179e-01 5.127981106043609998e+02
2.044490677762662856e-01 5.127923083728420579e+02
2.045490917820276811e-01 5.127864708377478564e+02
2.046491157877890488e-01 5.127805981622873333e+02
2.047491397935504720e-01 5.127746905104420421e+02
2.048491637993118397e-01 5.127687480469592174e+02
2.049491878050732074e-01 5.127627709373408607e+02
2.050492118108346029e-01 5.127567593478379422e+02
2.051492358165959706e-01 5.127507134454415336e+02
2.052492598223573661e-01 5.127446333978754183e+02
2.053492838281187338e-01 5.127385193735863140e+02
2.054493078338801293e-01 5.127323715417392123e+02
2.055493318396414970e-01 5.127261900722063501e+02
2.056493558454028647e-01 5.127199751355597073e+02
2.057493798511642602e-01 5.127137269030632751e+02
2.058494038569256279e-01 5.127074455466657810e+02
2.059494278626870511e-01 5.127011312389907971e+02
2.060494518684484189e-01 5.126947841533294650e+02
2.061494758742098143e-01 5.126884044636339013e+02
2.062494998799711821e-01 5.126819923445046925e+02
2.063495238857325498e-01 5.126755479711880525e+02
2.064495478914939453e-01 5.126690715195638859e+02
2.065495718972553130e-01 5.126625631661385114e+02
2.066495959030167362e-01 5.126560230880371591e+02
2.067496199087781039e-01 5.126494514629946480e+02
2.068496439145394994e-01 5.126428484693478822e+02
2.069496679203008671e-01 5.126362142860270978e+02
2.070496919260622626e-01 5.126295490925484728e+02
2.071497159318236303e-01 5.126228530690046910e+02
2.072497399375849980e-01 5.126161263960563019e+02
2.073497639433463935e-01 5.126093692549253547e+02
2.074497879491077612e-01 5.126025818273855066e+02
2.075498119548691567e-01 5.125957642957530425e+02
2.076498359606305244e-01 5.125889168428806215e+02
2.077498599663919476e-01 5.125820396521476141e+02
2.078498839721533153e-01 5.125751329074513478e+02
2.079499079779146831e-01 5.125681967931993768e+02
2.080499319836760785e-01 5.125612314943010688e+02
2.081499559894374463e-01 5.125542371961587378e+02
2.082499799951988417e-01 5.125472140846603679e+02
2.083500040009602094e-01 5.125401623461690406e+02
2.084500280067216327e-01 5.125330821675165680e+02
2.085500520124830004e-01 5.125259737359942847e+02
2.086500760182443681e-01 5.125188372393442933e+02
2.087501000240057636e-01 5.125116728657512795e+02
2.088501240297671313e-01 5.125044808038346673e+02
2.089501480355285268e-01 5.124972612426383876e+02
2.090501720412898945e-01 5.124900143716248522e+02
2.091501960470512900e-01 5.124827403806641541e+02
2.092502200528126577e-01 5.124754394600266778e+02
2.093502440585740254e-01 5.124681118003754818e+02
2.094502680643354209e-01 5.124607575927551579e+02
2.095502920700967886e-01 5.124533770285868286e+02
2.096503160758582118e-01 5.124459702996570059e+02
2.097503400816195795e-01 5.124385375981094057e+02
2.098503640873809750e-01 5.124310791164373313e+02
2.099503880931423427e-01 5.124235950474754873e+02
2.100504120989037105e-01 5.124160855843888385e+02
2.101504361046651059e-01 5.124085509206686311e+02
2.102504601104264736e-01 5.124009912501189774e+02
2.103504841161878969e-01 5.123934067668515127e+02
2.104505081219492646e-01 5.123857976652759589e+02
2.105505321277106601e-01 5.123781641400917124e+02
2.106505561334720278e-01 5.123705063862788620e+02
2.107505801392334233e-01 5.123628245990902315e+02
2.108506041449947910e-01 5.123551189740420568e+02
2.109506281507561587e-01 5.123473897069077339e+02
2.110506521565175542e-01 5.123396369937055397e+02
2.111506761622789219e-01 5.123318610306935170e+02
2.112507001680403174e-01 5.123240620143598107e+02
2.113507241738016851e-01 5.123162401414126634e+02
2.114507481795631083e-01 5.123083956087747310e+02
2.115507721853244760e-01 5.123005286135725100e+02
2.116507961910858437e-01 5.122926393531279246e+02
2.117508201968472392e-01 5.122847280249509367e+02
2.118508442026086069e-01 5.122767948267307929e+02
2.119508682083700024e-01 5.122688399563261328e+02
2.120508922141313701e-01 5.122608636117589640e+02
2.121509162198927934e-01 5.122528659912030662e+02
2.122509402256541611e-01 5.122448472929793297e+02
2.123509642314155288e-01 5.122368077155431365e+02
2.124509882371769243e-01 5.122287474574792441e+02
2.125510122429382920e-01 5.122206667174918948e+02
2.126510362486996875e-01 5.122125656943965168e+02
2.127510602544610552e-01 5.122044445871113112e+02
2.128510842602224507e-01 5.121963035946486116e+02
2.129511082659838184e-01 5.121881429161071537e+02
2.130511322717451861e-01 5.121799627506628667e+02
2.131511562775065816e-01 5.121717632975606875e+02
2.132511802832679493e-01 5.121635447561066030e+02
2.133512042890293725e-01 5.121553073256590096e+02
2.134512282947907402e-01 5.121470512056203006e+02
2.135512523005521357e-01 5.121387765954279985e+02
2.136512763063135034e-01 5.121304836945472516e+02
2.137513003120748989e-01 5.121221727024623078e+02
2.138513243178362666e-01 5.121138438186681014e+02
2.139513483235976343e-01 5.121054972426616132e+02
2.140513723293590576e-01 5.120971331739339121e+02
2.141513963351204253e-01 5.120887518119611741e+02
2.142514203408818207e-01 5.120803533561975200e+02
2.143514443466431885e-01 5.120719380060668300e+02
2.144514683524045839e-01 5.120635059609527389e+02
2.145514923581659517e-01 5.120550574201928384e+02
2.146515163639273194e-01 5.120465925830678771e+02
2.147515403696887148e-01 5.120381116487955069e+02
2.148515643754500826e-01 5.120296148165206205e+02
2.149515883812114780e-01 5.120211022853097802e+02
2.150516123869728458e-01 5.120125742541395084e+02
2.151516363927342690e-01 5.120040309218904895e+02
2.152516603984956367e-01 5.119954724873388159e+02
2.153516844042570044e-01 5.119868991491480870e+02
2.154517084100183999e-01 5.119783111058604277e+02
2.155517324157797676e-01 5.119697085558899516e+02
2.156517564215411631e-01 5.119610916975130408e+02
2.157517804273025308e-01 5.119524607288617517e+02
2.158518044330639540e-01 5.119438158479146068e+02
2.159518284388253218e-01 5.119351572524892617e+02
2.160518524445866895e-01 5.119264851402344902e+02
2.161518764503480849e-01 5.119177997086227379e+02
2.162519004561094527e-01 5.119091011549393215e+02
2.163519244618708481e-01 5.119003896762792465e+02
2.164519484676322159e-01 5.118916654695348711e+02
2.165519724733936113e-01 5.118829287313910186e+02
2.166519964791549790e-01 5.118741796583155406e+02
2.167520204849163468e-01 5.118654184465518711e+02
2.168520444906777422e-01 5.118566452921112955e+02
2.169520684964391100e-01 5.118478603907649926e+02
2.170520925022005332e-01 5.118390639380362472e+02
2.171521165079619009e-01 5.118302561291929464e+02
2.172521405137232964e-01 5.118214371592396787e+02
2.173521645194846641e-01 5.118126072229096621e+02
2.174521885252460596e-01 5.118037665146579798e+02
2.175522125310074273e-01 5.117949152286532808e+02
2.176522365367687950e-01 5.117860535587693107e+02
2.177522605425302182e-01 5.117771816985789997e+02
2.178522845482915860e-01 5.117682998413455380e+02
2.179523085540529814e-01 5.117594081800159529e+02
2.180523325598143491e-01 5.117505069072120136e+02
2.181523565655757446e-01 5.117415962152242059e+02
2.182523805713371123e-01 5.117326762960038877e+02
2.183524045770984801e-01 5.117237473411545920e+02
2.184524285828598755e-01 5.117148095419263427e+02
2.185524525886212432e-01 5.117058630892071278e+02
2.186524765943826387e-01 5.116969081735156806e+02
2.187525006001440064e-01 5.116879449849950561e+02
2.188525246059054297e-01 5.116789737134037068e+02
2.189525486116667974e-01 5.116699945481094005e+02
2.190525726174281651e-01 5.116610076780809209e+02
2.191525966231895606e-01 5.116520132918826675e+02
2.192526206289509283e-01 5.116430115776646517e+02
2.193526446347123238e-01 5.116340027231576073e+02
2.194526686404736915e-01 5.116249869156657724e+02
2.195526926462351147e-01 5.116159643420573957e+02
2.196527166519964824e-01 5.116069351887608718e+02
2.197527406577578502e-01 5.115978996417550775e+02
2.198527646635192456e-01 5.115888578865639147e+02
2.199527886692806133e-01 5.115798101082482390e+02
2.200528126750420088e-01 5.115707564914000045e+02
2.201528366808033765e-01 5.115616972201338513e+02
2.202528606865647720e-01 5.115526324780815912e+02
2.203528846923261397e-01 5.115435624483849324e+02
2.204529086980875074e-01 5.115344873136875776e+02
2.205529327038489029e-01 5.115254072561298813e+02
2.206529567096102706e-01 5.115163224573420848e+02
2.207529807153716939e-01 5.115072330984349946e+02
2.208530047211330616e-01 5.114981393599973103e+02
2.209530287268944571e-01 5.114890414220850516e+02
2.210530527326558248e-01 5.114799394642184325e+02
2.211530767384172202e-01 5.114708336653719130e+02
2.212531007441785880e-01 5.114617242039699931e+02
2.213531247499399557e-01 5.114526112578791412e+02
2.214531487557013789e-01 5.114434950044027346e+02
2.215531727614627466e-01 5.114343756202734994e+02
2.216531967672241421e-01 5.114252532816479402e+02
2.217532207729855098e-01 5.114161281640983816e+02
2.218532447787469053e-01 5.114070004426077389e+02
2.219532687845082730e-01 5.113978702915630947e+02
2.220532927902696407e-01 5.113887378847505829e+02
2.221533167960310362e-01 5.113796033953459528e+02
2.222533408017924039e-01 5.113704669959113289e+02
2.223533648075537994e-01 5.113613288583878784e+02
2.224533888133151671e-01 5.113521891540893307e+02
2.225534128190765903e-01 5.113430480536962932e+02
2.226534368248379581e-01 5.113339057272509081e+02
2.227534608305993258e-01 5.113247623441487804e+02
2.228534848363607213e-01 5.113156180731349423e+02
2.229535088421220890e-01 5.113064730822971455e+02
2.230535328478834844e-01 5.112973275390596655e+02
2.231535568536448522e-01 5.112881816101781283e+02
2.232535808594062754e-01 5.112790354617325761e+02
2.233536048651676431e-01 5.112698892591231470e+02
2.234536288709290108e-01 5.112607431670625715e+02
2.235536528766904063e-01 5.112515973495721369e+02
2.236536768824517740e-01 5.112424519699744678e+02
2.237537008882131695e-01 5.112333071908893203e+02
2.238537248939745372e-01 5.112241631742269306e+02
2.239537488997359327e-01 5.112150200811827858e+02
2.240537729054973004e-01 5.112058780722312576e+02
2.241537969112586681e-01 5.111967373071230440e+02
2.242538209170200636e-01 5.111875979448752787e+02
2.243538449227814313e-01 5.111784601437701099e+02
2.244538689285428545e-01 5.111693240613467424e+02
2.245538929343042223e-01 5.111601898543975722e+02
2.246539169400656177e-01 5.111510576789617630e+02
2.247539409458269855e-01 5.111419276903218929e+02
2.248539649515883809e-01 5.111328000429965641e+02
2.249539889573497486e-01 5.111236748907364245e+02
2.250540129631111164e-01 5.111145523865185396e+02
2.251540369688725396e-01 5.111054326825423004e+02
2.252540609746339073e-01 5.110963159302235113e+02
2.253540849803953028e-01 5.110872022801881940e+02
2.254541089861566705e-01 5.110780918822725312e+02
2.255541329919180660e-01 5.110689848855106447e+02
2.256541569976794337e-01 5.110598814381355623e+02
2.257541810034408014e-01 5.110507816875737035e+02
2.258542050092021969e-01 5.110416857804363531e+02
2.259542290149635646e-01 5.110325938625186382e+02
2.260542530207249601e-01 5.110235060787941279e+02
2.261542770264863278e-01 5.110144225734095471e+02
2.262543010322477510e-01 5.110053434896802287e+02
2.263543250380091187e-01 5.109962689700860210e+02
2.264543490437704865e-01 5.109871991562663425e+02
2.265543730495318819e-01 5.109781341890163731e+02
2.266543970552932497e-01 5.109690742082819952e+02
2.267544210610546451e-01 5.109600193531555306e+02
2.268544450668160128e-01 5.109509697618727273e+02
2.269544690725774361e-01 5.109419255718054274e+02
2.270544930783388038e-01 5.109328869194611116e+02
2.271545170841001715e-01 5.109238539404764765e+02
2.272545410898615670e-01 5.109148267696129437e+02
2.273545650956229347e-01 5.109058055407543861e+02
2.274545891013843302e-01 5.108967903869016141e+02
2.275546131071456979e-01 5.108877814401697606e+02
2.276546371129070934e-01 5.108787788317823697e+02
2.277546611186684611e-01 5.108697826920689522e+02
2.278546851244298566e-01 5.108607931504617454e+02
2.279547091301912243e-01 5.108518103354898585e+02
2.280547331359525920e-01 5.108428343747776239e+02
2.281547571417140152e-01 5.108338653950392541e+02
2.282547811474753829e-01 5.108249035220758287e+02
2.283548051532367784e-01 5.108159488807736466e+02
2.284548291589981461e-01 5.108070015950960965e+02
2.285548531647595416e-01 5.107980617880846808e+02
2.286548771705209093e-01 5.107891295818534445e+02
2.287549011762822770e-01 5.107802050975849397e+02
2.288549251820437003e-01 5.107712884555296569e+02
2.289549491878050680e-01 5.107623797749993741e+02
2.290549731935664635e-01 5.107534791743657365e+02
2.291549971993278312e-01 5.107445867710575840e+02
2.292550212050892267e-01 5.107357026815556083e+02
2.293550452108505944e-01 5.107268270213919550e+02
2.294550692166119621e-01 5.107179599051439709e+02
2.295550932223733576e-01 5.107091014464349428e+02
2.296551172281347253e-01 5.107002517579286405e+02
2.297551412338961208e-01 5.106914109513259064e+02
2.298551652396574885e-01 5.106825791373639731e+02
2.299551892454189117e-01 5.106737564258124848e+02
2.300552132511802794e-01 5.106649429254703136e+02
2.301552372569416471e-01 5.106561387441631723e+02
2.302552612627030426e-01 5.106473439887423069e+02
2.303552852684644103e-01 5.106385587650791535e+02
2.304553092742258058e-01 5.106297831780651109e+02
2.305553332799871735e-01 5.106210173316085275e+02
2.306553572857485968e-01 5.106122613286304954e+02
2.307553812915099645e-01 5.106035152710662715e+02
2.308554052972713322e-01 5.105947792598585124e+02
2.309554293030327277e-01 5.105860533949575597e+02
2.310554533087940954e-01 5.105773377753183695e+02
2.311554773145554909e-01 5.105686324989001150e+02
2.312555013203168586e-01 5.105599376626603316e+02
2.313555253260782540e-01 5.105512533625559968e+02
2.314555493318396218e-01 5.105425796935404037e+02
2.315555733376010172e-01 5.105339167495610013e+02
2.316555973433623850e-01 5.105252646235572342e+02
2.317556213491237527e-01 5.105166234074606564e+02
2.318556453548851759e-01 5.105079931921893603e+02
2.319556693606465436e-01 5.104993740676499669e+02
2.320556933664079391e-01 5.104907661227323956e+02
2.321557173721693068e-01 5.104821694453119107e+02
2.322557413779307023e-01 5.104735841222444606e+02
2.323557653836920700e-01 5.104650102393658813e+02
2.324557893894534377e-01 5.104564478814918402e+02
2.325558133952148610e-01 5.104478971324136864e+02
2.326558374009762287e-01 5.104393580748994736e+02
2.327558614067376241e-01 5.104308307906912887e+02
2.328558854124989919e-01 5.104223153605047969e+02
2.329559094182603873e-01 5.104138118640251491e+02
2.330559334240217551e-01 5.104053203799109042e+02
2.331559574297831228e-01 5.103968409857880602e+02
2.332559814355445182e-01 5.103883737582510776e+02
2.333560054413058860e-01 5.103799187728619700e+02
2.334560294470672814e-01 5.103714761041482006e+02
2.335560534528286492e-01 5.103630458256031943e+02
2.336560774585900724e-01 5.103546280096832675e+02
2.337561014643514401e-01 5.103462227278093906e+02
2.338561254701128078e-01 5.103378300503635501e+02
2.339561494758742033e-01 5.103294500466909653e+02
2.340561734816355710e-01 5.103210827850965075e+02
2.341561974873969665e-01 5.103127283328460635e+02
2.342562214931583342e-01 5.103043867561655702e+02
2.343562454989197574e-01 5.102960581202395360e+02
2.344562695046811251e-01 5.102877424892108706e+02
2.345562935104424929e-01 5.102794399261817375e+02
2.346563175162038883e-01 5.102711504932111666e+02
2.347563415219652561e-01 5.102628742513157363e+02
2.348563655277266515e-01 5.102546112604696873e+02
2.349563895334880193e-01 5.102463615796035583e+02
2.350564135392494147e-01 5.102381252666049818e+02
2.351564375450107824e-01 5.102299023783179450e+02
2.352564615507721779e-01 5.102216929705427333e+02
2.353564855565335456e-01 5.102134970980366120e+02
2.354565095622949134e-01 5.102053148145128603e+02
2.355565335680563366e-01 5.101971461726411690e+02
2.356565575738177043e-01 5.101889912240478679e+02
2.357565815795790998e-01 5.101808500193162672e+02
2.358566055853404675e-01 5.101727226079858610e+02
2.359566295911018630e-01 5.101646090385553407e+02
2.360566535968632307e-01 5.101565093584779333e+02
2.361566776026245984e-01 5.101484236141676547e+02
2.362567016083860216e-01 5.101403518509956712e+02
2.363567256141473893e-01 5.101322941132915503e+02
2.364567496199087848e-01 5.101242504443443408e+02
2.365567736256701525e-01 5.101162208864038803e+02
2.366567976314315480e-01 5.101082054806791461e+02
2.367568216371929157e-01 5.101002042673419510e+02
2.368568456429542834e-01 5.100922172855242707e+02
2.369568696487156789e-01 5.100842445733219392e+02
2.370568936544770466e-01 5.100762861677948763e+02
2.371569176602384421e-01 5.100683421049649269e+02
2.372569416659998098e-01 5.100604124198226828e+02
2.373569656717612331e-01 5.100524971463221391e+02
2.374569896775226008e-01 5.100445963173862083e+02
2.375570136832839685e-01 5.100367099649055262e+02
2.376570376890453640e-01 5.100288381197406125e+02
2.377570616948067317e-01 5.100209808117228931e+02
2.378570857005681272e-01 5.100131380696547581e+02
2.379571097063294949e-01 5.100053099213129144e+02
2.380571337120909181e-01 5.099974963934492962e+02
2.381571577178522858e-01 5.099896975117893589e+02
2.382571817236136535e-01 5.099819133010379915e+02
2.383572057293750490e-01 5.099741437848780947e+02
2.384572297351364167e-01 5.099663889859730830e+02
2.385572537408978122e-01 5.099586489259686459e+02
2.386572777466591799e-01 5.099509236254934308e+02
2.387573017524205754e-01 5.099432131041619982e+02
2.388573257581819431e-01 5.099355173805753338e+02
2.389573497639433386e-01 5.099278364723235200e+02
2.390573737697047063e-01 5.099201703959874976e+02
2.391573977754660740e-01 5.099125191671398625e+02
2.392574217812274973e-01 5.099048828003479343e+02
2.393574457869888650e-01 5.098972613091756330e+02
2.394574697927502605e-01 5.098896547061856950e+02
2.395574937985116282e-01 5.098820630029397876e+02
2.396575178042730236e-01 5.098744862100031128e+02
2.397575418100343914e-01 5.098669243369458286e+02
2.398575658157957591e-01 5.098593773923445838e+02
2.399575898215571823e-01 5.098518453837843367e+02
