0.000000000000000000e+00 5.118104301798995266e+02
1.000220048410650341e-04 5.118124806486751481e+02
2.000440096821300682e-04 5.118144799128933755e+02
3.000660145231950752e-04 5.118164280210082211e+02
4.000880193642601364e-04 5.118183250236652384e+02
5.001100242053251434e-04 5.118201709737014085e+02
6.001320290463901504e-04 5.118219659261425249e+02
7.001540338874551574e-04 5.118237099381996131e+02
8.001760387285202728e-04 5.118254030692677361e+02
9.001980435695852798e-04 5.118270453809229252e+02
1.000220048410650287e-03 5.118286369369195654e+02
1.100242053251715294e-03 5.118301778031874392e+02
1.200264058092780301e-03 5.118316680478290550e+02
1.300286062933845308e-03 5.118331077411165211e+02
1.400308067774910315e-03 5.118344969554887030e+02
1.500330072615975322e-03 5.118358357655487794e+02
1.600352077457040546e-03 5.118371242480595811e+02
1.700374082298105553e-03 5.118383624819417719e+02
1.800396087139170560e-03 5.118395505482688463e+02
1.900418091980235567e-03 5.118406885302666183e+02
2.000440096821300574e-03 5.118417765133056605e+02
2.100462101662365581e-03 5.118428145849009070e+02
2.200484106503430588e-03 5.118438028347074464e+02
2.300506111344495595e-03 5.118447413545151221e+02
2.400528116185560602e-03 5.118456302382465992e+02
2.500550121026625609e-03 5.118464695819521921e+02
2.600572125867690616e-03 5.118472594838059422e+02
2.700594130708756056e-03 5.118480000441022639e+02
2.800616135549820630e-03 5.118486913652519092e+02
2.900638140390886070e-03 5.118493335517757714e+02
3.000660145231950644e-03 5.118499267103029524e+02
3.100682150073016084e-03 5.118504709495642828e+02
3.200704154914081091e-03 5.118509663803891954e+02
3.300726159755145665e-03 5.118514131157010070e+02
3.400748164596211105e-03 5.118518112705114618e+02
3.500770169437275679e-03 5.118521609619169794e+02
3.600792174278341119e-03 5.118524623090921750e+02
3.700814179119406126e-03 5.118527154332870168e+02
3.800836183960471133e-03 5.118529204578197209e+02
3.900858188801536140e-03 5.118530775080746480e+02
4.000880193642601147e-03 5.118531867114924694e+02
4.100902198483666154e-03 5.118532481975700534e+02
4.200924203324731161e-03 5.118532620978509158e+02
4.300946208165796168e-03 5.118532285459234572e+02
4.400968213006861175e-03 5.118531476774115276e+02
4.500990217847926182e-03 5.118530196299726072e+02
4.601012222688991189e-03 5.118528445432898479e+02
4.701034227530056196e-03 5.118526225590663330e+02
4.801056232371121203e-03 5.118523538210212678e+02
4.901078237212187078e-03 5.118520384748812830e+02
5.001100242053251217e-03 5.118516766683770243e+02
5.101122246894316224e-03 5.118512685512354210e+02
5.201144251735381231e-03 5.118508142751740024e+02
5.301166256576447106e-03 5.118503139938945878e+02
5.401188261417512113e-03 5.118497678630778864e+02
5.501210266258576252e-03 5.118491760403761646e+02
5.601232271099641259e-03 5.118485386854060835e+02
5.701254275940706266e-03 5.118478559597448339e+02
5.801276280781772141e-03 5.118471280269206432e+02
5.901298285622837148e-03 5.118463550524070911e+02
6.001320290463901287e-03 5.118455372036178801e+02
6.101342295304966294e-03 5.118446746498973994e+02
6.201364300146032169e-03 5.118437675625158931e+02
6.301386304987097176e-03 5.118428161146614457e+02
6.401408309828162183e-03 5.118418204814323644e+02
6.501430314669226322e-03 5.118407808398327461e+02
6.601452319510291329e-03 5.118396973687617333e+02
6.701474324351357204e-03 5.118385702490079439e+02
6.801496329192422211e-03 5.118373996632429908e+02
6.901518334033487218e-03 5.118361857960123302e+02
7.001540338874551357e-03 5.118349288337283838e+02
7.101562343715617232e-03 5.118336289646641717e+02
7.201584348556682239e-03 5.118322863789430244e+02
7.301606353397747246e-03 5.118309012685334096e+02
7.401628358238812253e-03 5.118294738272402924e+02
7.501650363079876392e-03 5.118280042506960399e+02
7.601672367920942266e-03 5.118264927363542824e+02
7.701694372762007273e-03 5.118249394834817849e+02
7.801716377603072280e-03 5.118233446931476465e+02
7.901738382444137287e-03 5.118217085682192646e+02
8.001760387285202294e-03 5.118200313133507962e+02
8.101782392126267301e-03 5.118183131349766199e+02
8.201804396967332308e-03 5.118165542413021285e+02
8.301826401808397315e-03 5.118147548422961108e+02
8.401848406649462322e-03 5.118129151496809754e+02
8.501870411490527329e-03 5.118110353769257586e+02
8.601892416331592336e-03 5.118091157392346418e+02
8.701914421172657343e-03 5.118071564535435414e+02
8.801936426013722350e-03 5.118051577385041355e+02
8.901958430854787357e-03 5.118031198144820451e+02
9.001980435695852364e-03 5.118010429035427933e+02
9.102002440536917371e-03 5.117989272294454395e+02
9.202024445377982378e-03 5.117967730176328018e+02
9.302046450219047385e-03 5.117945804952207141e+02
9.402068455060112392e-03 5.117923498909937621e+02
9.502090459901177399e-03 5.117900814353894248e+02
9.602112464742242406e-03 5.117877753604935833e+02
9.702134469583307413e-03 5.117854319000290388e+02
9.802156474424374155e-03 5.117830512893473838e+02
9.902178479265437427e-03 5.117806337654170079e+02
1.000220048410650243e-02 5.117781795668165614e+02
1.010222248894756918e-02 5.117756889337231883e+02
1.020224449378863245e-02 5.117731621079041133e+02
1.030226649862969746e-02 5.117705993327051033e+02
1.040228850347076246e-02 5.117680008530429632e+02
1.050231050831182747e-02 5.117653669153942246e+02
1.060233251315289421e-02 5.117626977677844593e+02
1.070235451799395748e-02 5.117599936597802071e+02
1.080237652283502423e-02 5.117572548424770957e+02
1.090239852767608750e-02 5.117544815684912010e+02
1.100242053251715250e-02 5.117516740919472795e+02
1.110244253735821925e-02 5.117488326684699587e+02
1.120246454219928252e-02 5.117459575551717421e+02
1.130248654704034753e-02 5.117430490106449952e+02
1.140250855188141253e-02 5.117401072949489276e+02
1.150253055672247754e-02 5.117371326696003280e+02
1.160255256156354428e-02 5.117341253975639574e+02
1.170257456640460755e-02 5.117310857432390776e+02
1.180259657124567430e-02 5.117280139724525725e+02
1.190261857608673930e-02 5.117249103524449083e+02
1.200264058092780257e-02 5.117217751518602427e+02
1.210266258576886932e-02 5.117186086407380685e+02
1.220268459060993259e-02 5.117154110904969571e+02
1.230270659545099760e-02 5.117121827739290438e+02
1.240272860029206434e-02 5.117089239651868411e+02
1.250275060513312761e-02 5.117056349397708459e+02
1.260277260997419435e-02 5.117023159745201610e+02
1.270279461481525762e-02 5.116989673476018652e+02
1.280281661965632437e-02 5.116955893384960632e+02
1.290283862449738937e-02 5.116921822279902017e+02
1.300286062933845264e-02 5.116887462981630392e+02
1.310288263417951939e-02 5.116852818323748124e+02
1.320290463902058266e-02 5.116817891152567199e+02
1.330292664386164767e-02 5.116782684326981325e+02
1.340294864870271441e-02 5.116747200718365320e+02
1.350297065354377768e-02 5.116711443210431298e+02
1.360299265838484442e-02 5.116675414699141697e+02
1.370301466322590769e-02 5.116639118092580247e+02
1.380303666806697444e-02 5.116602556310837713e+02
1.390305867290803944e-02 5.116565732285872059e+02
1.400308067774910271e-02 5.116528648961441377e+02
1.410310268259016946e-02 5.116491309292918572e+02
1.420312468743123446e-02 5.116453716247231682e+02
1.430314669227229774e-02 5.116415872802701870e+02
1.440316869711336448e-02 5.116377781948945085e+02
1.450319070195442775e-02 5.116339446686753263e+02
1.460321270679549449e-02 5.116300870027951646e+02
1.470323471163655950e-02 5.116262054995293056e+02
1.480325671647762451e-02 5.116223004622346480e+02
1.490327872131868951e-02 5.116183721953348140e+02
1.500330072615975278e-02 5.116144210043094063e+02
1.510332273100081953e-02 5.116104471956816724e+02
1.520334473584188453e-02 5.116064510770060565e+02
1.530336674068294781e-02 5.116024329568550684e+02
1.540338874552401455e-02 5.115983931448077442e+02
1.550341075036507782e-02 5.115943319514365726e+02
1.560343275520614456e-02 5.115902496882952164e+02
1.570345476004721130e-02 5.115861466679054388e+02
1.580347676488827457e-02 5.115820232037448250e+02
1.590349876972933785e-02 5.115778796102351293e+02
1.600352077457040459e-02 5.115737162027269846e+02
1.610354277941146786e-02 5.115695332974902385e+02
1.620356478425253460e-02 5.115653312116980942e+02
1.630358678909359788e-02 5.115611102634167082e+02
1.640360879393466462e-02 5.115568707715917185e+02
1.650363079877573136e-02 5.115526130560347156e+02
1.660365280361679463e-02 5.115483374374108507e+02
1.670367480845786137e-02 5.115440442372245116e+02
1.680369681329892464e-02 5.115397337778098290e+02
1.690371881813999139e-02 5.115354063823133401e+02
1.700374082298105466e-02 5.115310623746836427e+02
1.710376282782211793e-02 5.115267020796570705e+02
1.720378483266318467e-02 5.115223258227456427e+02
1.730380683750424795e-02 5.115179339302229664e+02
1.740382884234531469e-02 5.115135267291113905e+02
1.750385084718638143e-02 5.115091045471698976e+02
1.760387285202744470e-02 5.115046677128759711e+02
1.770389485686851144e-02 5.115002165554208773e+02
1.780391686170957471e-02 5.114957514046878941e+02
1.790393886655063799e-02 5.114912725912441260e+02
1.800396087139170473e-02 5.114867804463254402e+02
1.810398287623276800e-02 5.114822753018220851e+02
1.820400488107383474e-02 5.114777574902678339e+02
1.830402688591490148e-02 5.114732273448241813e+02
1.840404889075596476e-02 5.114686851992681795e+02
1.850407089559703150e-02 5.114641313879772611e+02
1.860409290043809477e-02 5.114595662459178129e+02
1.870411490527916151e-02 5.114549901086309660e+02
1.880413691012022478e-02 5.114504033122178726e+02
1.890415891496129153e-02 5.114458061933277122e+02
1.900418091980235480e-02 5.114411990891424011e+02
1.910420292464341807e-02 5.114365823373643707e+02
1.920422492948448481e-02 5.114319562762026408e+02
1.930424693432555155e-02 5.114273212443566763e+02
1.940426893916661483e-02 5.114226775810088270e+02
1.950429094400768157e-02 5.114180256258021018e+02
1.960431294884874831e-02 5.114133657188343136e+02
1.970433495368981158e-02 5.114086982006388666e+02
1.980435695853087485e-02 5.114040234121728759e+02
1.990437896337193813e-02 5.113993416948037520e+02
2.000440096821300487e-02 5.113946533902956162e+02
2.010442297305407161e-02 5.113899588407938950e+02
2.020444497789513835e-02 5.113852583888132131e+02
2.030446698273619816e-02 5.113805523772211927e+02
2.040448898757726490e-02 5.113758411492277105e+02
2.050451099241833164e-02 5.113711250483680715e+02
2.060453299725939491e-02 5.113664044184905606e+02
2.070455500210046165e-02 5.113616796037417771e+02
2.080457700694152492e-02 5.113569509485540721e+02
2.090459901178259167e-02 5.113522187976298028e+02
2.100462101662365494e-02 5.113474834959279178e+02
2.110464302146472168e-02 5.113427453886506555e+02
2.120466502630578842e-02 5.113380048212289921e+02
2.130468703114684823e-02 5.113332621393079194e+02
2.140470903598791497e-02 5.113285176887345074e+02
2.150473104082898171e-02 5.113237718155406242e+02
2.160475304567004845e-02 5.113190248659322492e+02
2.170477505051111172e-02 5.113142771862727614e+02
2.180479705535217499e-02 5.113095291230711723e+02
2.190481906019323827e-02 5.113047810229655852e+02
2.200484106503430501e-02 5.113000332327119395e+02
2.210486306987537175e-02 5.112952860991659918e+02
2.220488507471643849e-02 5.112905399692738229e+02
2.230490707955749830e-02 5.112857951900545004e+02
2.240492908439856504e-02 5.112810521085867776e+02
2.250495108923963178e-02 5.112763110719957353e+02
2.260497309408069505e-02 5.112715724274374907e+02
2.270499509892176179e-02 5.112668365220865780e+02
2.280501710376282506e-02 5.112621037031194646e+02
2.290503910860389181e-02 5.112573743177026131e+02
2.300506111344495508e-02 5.112526487129777593e+02
2.310508311828602182e-02 5.112479272360475306e+02
2.320510512312708856e-02 5.112432102339612356e+02
2.330512712796814837e-02 5.112384980537015053e+02
2.340514913280921511e-02 5.112337910421678089e+02
2.350517113765028185e-02 5.112290895461662217e+02
2.360519314249134859e-02 5.112243939123918608e+02
2.370521514733241186e-02 5.112197044874159815e+02
2.380523715217347860e-02 5.112150216176729032e+02
2.390525915701453841e-02 5.112103456494440934e+02
2.400528116185560515e-02 5.112056769288445253e+02
2.410530316669667189e-02 5.112010158018093762e+02
2.420532517153773863e-02 5.111963626140798169e+02
2.430534717637880537e-02 5.111917177111879482e+02
2.440536918121986518e-02 5.111870814384433288e+02
2.450539118606093192e-02 5.111824541409189919e+02
2.460541319090199519e-02 5.111778361634371777e+02
2.470543519574306193e-02 5.111732278505553495e+02
2.480545720058412867e-02 5.111686295465516423e+02
2.490547920542519195e-02 5.111640415954120726e+02
2.500550121026625522e-02 5.111594643408144520e+02
2.510552321510732196e-02 5.111548981261166205e+02
2.520554521994838870e-02 5.111503432943410417e+02
2.530556722478945197e-02 5.111458001881606492e+02
2.540558922963051525e-02 5.111412691498856020e+02
2.550561123447158199e-02 5.111367505214496987e+02
2.560563323931264873e-02 5.111322446443937793e+02
2.570565524415371200e-02 5.111277518598550387e+02
2.580567724899477874e-02 5.111232725085520201e+02
2.590569925383583855e-02 5.111188069307690398e+02
2.600572125867690529e-02 5.111143554663444206e+02
2.610574326351797203e-02 5.111099184546561105e+02
2.620576526835903877e-02 5.111054962346057664e+02
2.630578727320010551e-02 5.111010891446078404e+02
2.640580927804116532e-02 5.110966975225742885e+02
2.650583128288223206e-02 5.110923217059003605e+02
2.660585328772329533e-02 5.110879620314519798e+02
2.670587529256436207e-02 5.110836188355500553e+02
2.680589729740542881e-02 5.110792924539586011e+02
2.690591930224649209e-02 5.110749832218699567e+02
2.700594130708755536e-02 5.110706914738912019e+02
2.710596331192862210e-02 5.110664175440311396e+02
2.720598531676968884e-02 5.110621617656849480e+02
2.730600732161075211e-02 5.110579244716226412e+02
2.740602932645181539e-02 5.110537059939728692e+02
2.750605133129288213e-02 5.110495066642122310e+02
2.760607333613394887e-02 5.110453268131491313e+02
2.770609534097501214e-02 5.110411667709116728e+02
2.780611734581607888e-02 5.110370268669325355e+02
2.790613935065714563e-02 5.110329074299381773e+02
2.800616135549820543e-02 5.110288087879323484e+02
2.810618336033927217e-02 5.110247312681846097e+02
2.820620536518033891e-02 5.110206751972152688e+02
2.830622737002140565e-02 5.110166409007841821e+02
2.840624937486246893e-02 5.110126287038747819e+02
2.850627137970353220e-02 5.110086389306819683e+02
2.860629338454459547e-02 5.110046719045998884e+02
2.870631538938566221e-02 5.110007279482064746e+02
2.880633739422672895e-02 5.109968073832507116e+02
2.890635939906779570e-02 5.109929105306408701e+02
2.900638140390885550e-02 5.109890377104289882e+02
2.910640340874992224e-02 5.109851892418004127e+02
2.920642541359098898e-02 5.109813654430573138e+02
2.930644741843205225e-02 5.109775666316088518e+02
2.940646942327311900e-02 5.109737931239553177e+02
2.950649142811418227e-02 5.109700452356772189e+02
2.960651343295524901e-02 5.109663232814206140e+02
2.970653543779631228e-02 5.109626275748852322e+02
2.980655744263737902e-02 5.109589584288111155e+02
2.990657944747844577e-02 5.109553161549659990e+02
3.000660145231950557e-02 5.109517010641307593e+02
3.010662345716057231e-02 5.109481134660892394e+02
3.020664546200163905e-02 5.109445536696133559e+02
3.030666746684270579e-02 5.109410219824517867e+02
3.040668947168376907e-02 5.109375187113152492e+02
3.050671147652483234e-02 5.109340441618669502e+02
3.060673348136589561e-02 5.109305986387054190e+02
3.070675548620696235e-02 5.109271824453575164e+02
3.080677749104802909e-02 5.109237958842596754e+02
3.090679949588909584e-02 5.109204392567508535e+02
3.100682150073015564e-02 5.109171128630558769e+02
3.110684350557122238e-02 5.109138170022764598e+02
3.120686551041228912e-02 5.109105519723756288e+02
3.130688751525335239e-02 5.109073180701680030e+02
3.140690952009442261e-02 5.109041155913045031e+02
3.150693152493547894e-02 5.109009448302641090e+02
3.160695352977654915e-02 5.108978060803377730e+02
3.170697553461761242e-02 5.108946996336179041e+02
3.180699753945867569e-02 5.108916257809864874e+02
3.190701954429974591e-02 5.108885848121014419e+02
3.200704154914080918e-02 5.108855770153877529e+02
3.210706355398187245e-02 5.108826026780214420e+02
3.220708555882293572e-02 5.108796620859202449e+02
3.230710756366400593e-02 5.108767555237305373e+02
3.240712956850506921e-02 5.108738832748167056e+02
3.250715157334613248e-02 5.108710456212474469e+02
3.260717357818719575e-02 5.108682428437859357e+02
3.270719558302826596e-02 5.108654752218765793e+02
3.280721758786932923e-02 5.108627430336337056e+02
3.290723959271039251e-02 5.108600465558308770e+02
3.300726159755146272e-02 5.108573860638884412e+02
3.310728360239252599e-02 5.108547618318614809e+02
3.320730560723358926e-02 5.108521741324296386e+02
3.330732761207465253e-02 5.108496232368843835e+02
3.340734961691572275e-02 5.108471094151198031e+02
3.350737162175678602e-02 5.108446329356179376e+02
3.360739362659784929e-02 5.108421940654408218e+02
3.370741563143891256e-02 5.108397930702155918e+02
3.380743763627998277e-02 5.108374302141289718e+02
3.390745964112104605e-02 5.108351057599095952e+02
3.400748164596210932e-02 5.108328199688221503e+02
3.410750365080317259e-02 5.108305731006531119e+02
3.420752565564423586e-02 5.108283654137013627e+02
3.430754766048530607e-02 5.108261971647667110e+02
3.440756966532636935e-02 5.108240686091403404e+02
3.450759167016743956e-02 5.108219800005920206e+02
3.460761367500849589e-02 5.108199315913604437e+02
3.470763567984956610e-02 5.108179236321434473e+02
3.480765768469062937e-02 5.108159563720852248e+02
3.490767968953169265e-02 5.108140300587676847e+02
3.500770169437276286e-02 5.108121449382002197e+02
3.510772369921381919e-02 5.108103012548064044e+02
3.520774570405488940e-02 5.108084992514178566e+02
3.530776770889595267e-02 5.108067391692595152e+02
3.540778971373702289e-02 5.108050212479444667e+02
3.550781171857808616e-02 5.108033457254582004e+02
3.560783372341914943e-02 5.108017128381530938e+02
3.570785572826021270e-02 5.108001228207353961e+02
3.580787773310127597e-02 5.107985759062572697e+02
3.590789973794234619e-02 5.107970723261054218e+02
3.600792174278340946e-02 5.107956123099917249e+02
3.610794374762447273e-02 5.107941960859440655e+02
3.620796575246553600e-02 5.107928238802952592e+02
3.630798775730660621e-02 5.107914959176746379e+02
3.640800976214766949e-02 5.107902124209982162e+02
3.650803176698873276e-02 5.107889736114590278e+02
3.660805377182980297e-02 5.107877797085164957e+02
3.670807577667086624e-02 5.107866309298889860e+02
3.680809778151192951e-02 5.107855274915437462e+02
3.690811978635299279e-02 5.107844696076872424e+02
3.700814179119406300e-02 5.107834574907552678e+02
3.710816379603512627e-02 5.107824913514059517e+02
3.720818580087618954e-02 5.107815713985098682e+02
3.730820780571725281e-02 5.107806978391385542e+02
3.740822981055832303e-02 5.107798708785597341e+02
3.750825181539938630e-02 5.107790907202253265e+02
3.760827382024044957e-02 5.107783575657642245e+02
3.770829582508151284e-02 5.107776716149730873e+02
3.780831782992258305e-02 5.107770330658067337e+02
3.790833983476364633e-02 5.107764421143720028e+02
3.800836183960470960e-02 5.107758989549168973e+02
3.810838384444577981e-02 5.107754037798233071e+02
3.820840584928683614e-02 5.107749567795980852e+02
3.830842785412790635e-02 5.107745581428644641e+02
3.840844985896896963e-02 5.107742080563564286e+02
3.850847186381003984e-02 5.107739067049059258e+02
3.860849386865110311e-02 5.107736542714389998e+02
3.870851587349216638e-02 5.107734509369662987e+02
3.880853787833322965e-02 5.107732968805736959e+02
3.890855988317429293e-02 5.107731922794177990e+02
3.900858188801536314e-02 5.107731373087142401e+02
3.910860389285641947e-02 5.107731321417330719e+02
3.920862589769749662e-02 5.107731769497892742e+02
3.930864790253855295e-02 5.107732719022361607e+02
3.940866990737962317e-02 5.107734171664578753e+02
3.950869191222068644e-02 5.107736129078612066e+02
3.960871391706174971e-02 5.107738592898693923e+02
3.970873592190281992e-02 5.107741564739134787e+02
3.980875792674387625e-02 5.107745046194264660e+02
3.990877993158495340e-02 5.107749038838359752e+02
4.000880193642600974e-02 5.107753544225559494e+02
4.010882394126707301e-02 5.107758563889817651e+02
4.020884594610814322e-02 5.107764099344817623e+02
4.030886795094920649e-02 5.107770152083908783e+02
4.040888995579027670e-02 5.107776723580044518e+02
4.050891196063133304e-02 5.107783815285705487e+02
4.060893396547239631e-02 5.107791428632850739e+02
4.070895597031346652e-02 5.107799565032836426e+02
4.080897797515452979e-02 5.107808225876354413e+02
4.090899997999560000e-02 5.107817412533382821e+02
4.100902198483666328e-02 5.107827126353108156e+02
4.110904398967772655e-02 5.107837368663869029e+02
4.120906599451878982e-02 5.107848140773096475e+02
4.130908799935985309e-02 5.107859443967262791e+02
4.140911000420092331e-02 5.107871279511798548e+02
4.150913200904198658e-02 5.107883648651058479e+02
4.160915401388304985e-02 5.107896552608253273e+02
4.170917601872412006e-02 5.107909992585392160e+02
4.180919802356518333e-02 5.107923969763235164e+02
4.190922002840624661e-02 5.107938485301221476e+02
4.200924203324730988e-02 5.107953540337436493e+02
4.210926403808837315e-02 5.107969135988547578e+02
4.220928604292944336e-02 5.107985273349742101e+02
4.230930804777050663e-02 5.108001953494699592e+02
4.240933005261157684e-02 5.108019177475512720e+02
4.250935205745264012e-02 5.108036946322662288e+02
4.260937406229369645e-02 5.108055261044956978e+02
4.270939606713476666e-02 5.108074122629475937e+02
4.280941807197582993e-02 5.108093532041542630e+02
4.290944007681690014e-02 5.108113490224661177e+02
4.300946208165796342e-02 5.108133998100468034e+02
4.310948408649901975e-02 5.108155056568708119e+02
4.320950609134009690e-02 5.108176666507173422e+02
4.330952809618115323e-02 5.108198828771654689e+02
4.340955010102222345e-02 5.108221544195915840e+02
4.350957210586328672e-02 5.108244813591654179e+02
4.360959411070434999e-02 5.108268637748428773e+02
4.370961611554542020e-02 5.108293017433653631e+02
4.380963812038647653e-02 5.108317953392548247e+02
4.390966012522755368e-02 5.108343446348096677e+02
4.400968213006861002e-02 5.108369497001015134e+02
4.410970413490967329e-02 5.108396106029700263e+02
4.420972613975074350e-02 5.108423274090220048e+02
4.430974814459180677e-02 5.108451001816260373e+02
4.440977014943287698e-02 5.108479289819089786e+02
4.450979215427393332e-02 5.108508138687541873e+02
4.460981415911499659e-02 5.108537548987968080e+02
4.470983616395606680e-02 5.108567521264212132e+02
4.480985816879713007e-02 5.108598056037589572e+02
4.490988017363820028e-02 5.108629153806831482e+02
4.500990217847926356e-02 5.108660815048086761e+02
4.510992418332032683e-02 5.108693040214886878e+02
4.520994618816139010e-02 5.108725829738086759e+02
4.530996819300245337e-02 5.108759184025896047e+02
4.540999019784352358e-02 5.108793103463812031e+02
4.551001220268458686e-02 5.108827588414592356e+02
4.561003420752565013e-02 5.108862639218272079e+02
4.571005621236672034e-02 5.108898256192101144e+02
4.581007821720778361e-02 5.108934439630530733e+02
4.591010022204884689e-02 5.108971189805217819e+02
4.601012222688991016e-02 5.109008506964980825e+02
4.611014423173097343e-02 5.109046391335776889e+02
4.621016623657204364e-02 5.109084843120700725e+02
4.631018824141310691e-02 5.109123862499968709e+02
4.641021024625417712e-02 5.109163449630887612e+02
4.651023225109524040e-02 5.109203604647842667e+02
4.661025425593629673e-02 5.109244327662304954e+02
4.671027626077736694e-02 5.109285618762773993e+02
4.681029826561843021e-02 5.109327478014820372e+02
4.691032027045950042e-02 5.109369905461021517e+02
4.701034227530056370e-02 5.109412901120995230e+02
4.711036428014163391e-02 5.109456464991352505e+02
4.721038628498269718e-02 5.109500597045721406e+02
4.731040828982375351e-02 5.109545297234712393e+02
4.741043029466482372e-02 5.109590565485922298e+02
4.751045229950588700e-02 5.109636401703934894e+02
4.761047430434695721e-02 5.109682805770306686e+02
4.771049630918802048e-02 5.109729777543558384e+02
4.781051831402907681e-02 5.109777316859186840e+02
4.791054031887015396e-02 5.109825423529640034e+02
4.801056232371121030e-02 5.109874097344351185e+02
4.811058432855228051e-02 5.109923338069686451e+02
4.821060633339334378e-02 5.109973145448993819e+02
4.831062833823440705e-02 5.110023519202573539e+02
4.841065034307547726e-02 5.110074459027700300e+02
4.851067234791653360e-02 5.110125964598607311e+02
4.861069435275761075e-02 5.110178035566498238e+02
4.871071635759866708e-02 5.110230671559564257e+02
4.881073836243973035e-02 5.110283872182963592e+02
4.891076036728080056e-02 5.110337637018842543e+02
4.901078237212186384e-02 5.110391965626360502e+02
4.911080437696293405e-02 5.110446857541652435e+02
4.921082638180399038e-02 5.110502312277887427e+02
4.931084838664505365e-02 5.110558329325241402e+02
4.941087039148612386e-02 5.110614908150936344e+02
4.951089239632718714e-02 5.110672048199230062e+02
4.961091440116825735e-02 5.110729748891435520e+02
4.971093640600932062e-02 5.110788009625949257e+02
4.981095841085038389e-02 5.110846829778239453e+02
4.991098041569144717e-02 5.110906208700878324e+02
5.001100242053251044e-02 5.110966145723564296e+02
5.011102442537358065e-02 5.111026640153123708e+02
5.021104643021464392e-02 5.111087691273532414e+02
5.031106843505570719e-02 5.111149298345940224e+02
5.041109043989677740e-02 5.111211460608686252e+02
5.051111244473784068e-02 5.111274177277331887e+02
5.061113444957890395e-02 5.111337447544658517e+02
5.071115645441996722e-02 5.111401270580709593e+02
5.081117845926103049e-02 5.111465645532811095e+02
5.091120046410210070e-02 5.111530571525588584e+02
5.101122246894316398e-02 5.111596047661003581e+02
5.111124447378423419e-02 5.111662073018370620e+02
5.121126647862529746e-02 5.111728646654379418e+02
5.131128848346635379e-02 5.111795767603135801e+02
5.141131048830742400e-02 5.111863434876191832e+02
5.151133249314848728e-02 5.111931647462551496e+02
5.161135449798955749e-02 5.112000404328749141e+02
5.171137650283062076e-02 5.112069704418809692e+02
5.181139850767167709e-02 5.112139546654355513e+02
5.191142051251275424e-02 5.112209929934592765e+02
5.201144251735381058e-02 5.112280853136352903e+02
5.211146452219488079e-02 5.112352315114138719e+02
5.221148652703594406e-02 5.112424314700161858e+02
5.231150853187700733e-02 5.112496850704366693e+02
5.241153053671807754e-02 5.112569921914470683e+02
5.251155254155913388e-02 5.112643527096009279e+02
5.261157454640021103e-02 5.112717664992375148e+02
5.271159655124126736e-02 5.112792334324852845e+02
5.281161855608233063e-02 5.112867533792659742e+02
5.291164056092340084e-02 5.112943262072997754e+02
5.301166256576446412e-02 5.113019517821081763e+02
5.311168457060553433e-02 5.113096299670204985e+02
5.321170657544659066e-02 5.113173606231749204e+02
5.331172858028765393e-02 5.113251436095268332e+02
5.341175058512872414e-02 5.113329787828510575e+02
5.351177258996978742e-02 5.113408659977472439e+02
5.361179459481085763e-02 5.113488051066444200e+02
5.371181659965192090e-02 5.113567959598073003e+02
5.381183860449298417e-02 5.113648384053382188e+02
5.391186060933404744e-02 5.113729322891866786e+02
5.401188261417511072e-02 5.113810774551487839e+02
5.411190461901618093e-02 5.113892737448782668e+02
5.421192662385724420e-02 5.113975209978873977e+02
5.431194862869830747e-02 5.114058190515555111e+02
5.441197063353937768e-02 5.114141677411321325e+02
5.451199263838044096e-02 5.114225668997442540e+02
5.461201464322150423e-02 5.114310163584010525e+02
5.471203664806256750e-02 5.114395159459996876e+02
5.481205865290363077e-02 5.114480654893310430e+02
5.491208065774470098e-02 5.114566648130872863e+02
5.501210266258576426e-02 5.114653137398647686e+02
5.511212466742683447e-02 5.114740120901725504e+02
5.521214667226789774e-02 5.114827596824383704e+02
5.531216867710895407e-02 5.114915563330141595e+02
5.541219068195002428e-02 5.115004018561814405e+02
5.551221268679108756e-02 5.115092960641604805e+02
5.561223469163215777e-02 5.115182387671140987e+02
5.571225669647322104e-02 5.115272297731560798e+02
5.581227870131429125e-02 5.115362688883562896e+02
5.591230070615535452e-02 5.115453559167486333e+02
5.601232271099641086e-02 5.115544906603374216e+02
5.611234471583748107e-02 5.115636729191040786e+02
5.621236672067854434e-02 5.115729024910145881e+02
5.631238872551961455e-02 5.115821791720255192e+02
5.641241073036067782e-02 5.115915027560935755e+02
5.651243273520173416e-02 5.116008730351788927e+02
5.661245474004281131e-02 5.116102897992567478e+02
5.671247674488386764e-02 5.116197528363214815e+02
5.681249874972493785e-02 5.116292619323956501e+02
5.691252075456600112e-02 5.116388168715369602e+02
5.701254275940706440e-02 5.116484174358467953e+02
5.711256476424813461e-02 5.116580634054757866e+02
5.721258676908919094e-02 5.116677545586347833e+02
5.731260877393026809e-02 5.116774906716000260e+02
5.741263077877132442e-02 5.116872715187212179e+02
5.751265278361238770e-02 5.116970968724322688e+02
5.761267478845345791e-02 5.117069665032546482e+02
5.771269679329452118e-02 5.117168801798111986e+02
5.781271879813559139e-02 5.117268376688289777e+02
5.791274080297664772e-02 5.117368387351517072e+02
5.801276280781771100e-02 5.117468831417460251e+02
5.811278481265878121e-02 5.117569706497092739e+02
5.821280681749984448e-02 5.117671010182810960e+02
5.831282882234091469e-02 5.117772740048484934e+02
5.841285082718197796e-02 5.117874893649568548e+02
5.851287283202304124e-02 5.117977468523174593e+02
5.861289483686410451e-02 5.118080462188177080e+02
5.871291684170516778e-02 5.118183872145281725e+02
5.881293884654623799e-02 5.118287695877133956e+02
5.891296085138730126e-02 5.118391930848391098e+02
5.901298285622836454e-02 5.118496574505831518e+02
5.911300486106943475e-02 5.118601624278432496e+02
5.921302686591049802e-02 5.118707077577469704e+02
5.931304887075156129e-02 5.118812931796614407e+02
5.941307087559262456e-02 5.118919184312014181e+02
5.951309288043368784e-02 5.119025832482401484e+02
5.961311488527475805e-02 5.119132873649186308e+02
5.971313689011582132e-02 5.119240305136536335e+02
5.981315889495689153e-02 5.119348124251511081e+02
5.991318089979795480e-02 5.119456328284106803e+02
6.001320290463901114e-02 5.119564914507403159e+02
6.011322490948008135e-02 5.119673880177634828e+02
6.021324691432114462e-02 5.119783222534305764e+02
6.031326891916221483e-02 5.119892938800273896e+02
6.041329092400327810e-02 5.120003026181855148e+02
6.051331292884433444e-02 5.120113481868951339e+02
6.061333493368541159e-02 5.120224303035108733e+02
6.071335693852646792e-02 5.120335486837662984e+02
6.081337894336753813e-02 5.120447030417810765e+02
6.091340094820860140e-02 5.120558930900724590e+02
6.101342295304966468e-02 5.120671185395672182e+02
6.111344495789073489e-02 5.120783790996102880e+02
6.121346696273179122e-02 5.120896744779759047e+02
6.131348896757286837e-02 5.121010043808782939e+02
6.141351097241392470e-02 5.121123685129840624e+02
6.151353297725498798e-02 5.121237665774194738e+02
6.161355498209605819e-02 5.121351982757843189e+02
6.171357698693712146e-02 5.121466633081618056e+02
6.181359899177819167e-02 5.121581613731299285e+02
6.191362099661924800e-02 5.121696921677723822e+02
6.201364300146031128e-02 5.121812553876883385e+02
6.211366500630138149e-02 5.121928507270058617e+02
6.221368701114244476e-02 5.122044778783921402e+02
6.231370901598351497e-02 5.122161365330644003e+02
6.241373102082457824e-02 5.122278263808015026e+02
6.251375302566564152e-02 5.122395471099558790e+02
6.261377503050670479e-02 5.122512984074644464e+02
6.271379703534776806e-02 5.122630799588599757e+02
6.281381904018884521e-02 5.122748914482835971e+02
6.291384104502989461e-02 5.122867325584945775e+02
6.301386304987095788e-02 5.122986029708857814e+02
6.311388505471203503e-02 5.123105023654898105e+02
6.321390705955309830e-02 5.123224304209965112e+02
6.331392906439416157e-02 5.123343868147607054e+02
6.341395106923522484e-02 5.123463712228164013e+02
6.351397307407628812e-02 5.123583833198880484e+02
6.361399507891735139e-02 5.123704227794027020e+02
6.371401708375841466e-02 5.123824892735011645e+02
6.381403908859949181e-02 5.123945824730515142e+02
6.391406109344055508e-02 5.124067020476616108e+02
6.401408309828161836e-02 5.124188476656887588e+02
6.411410510312268163e-02 5.124310189942547140e+02
6.421412710796374490e-02 5.124432156992568252e+02
6.431414911280480817e-02 5.124554374453813352e+02
6.441417111764587144e-02 5.124676838961133853e+02
6.451419312248694860e-02 5.124799547137536138e+02
6.461421512732801187e-02 5.124922495594262273e+02
6.471423713216907514e-02 5.125045680930948038e+02
6.481425913701013841e-02 5.125169099735740019e+02
6.491428114185120168e-02 5.125292748585412710e+02
6.501430314669226496e-02 5.125416624045506069e+02
6.511432515153332823e-02 5.125540722670463083e+02
6.521434715637439150e-02 5.125665041003726401e+02
6.531436916121546865e-02 5.125789575577912274e+02
6.541439116605653192e-02 5.125914322914892409e+02
6.551441317089759520e-02 5.126039279525959955e+02
6.561443517573865847e-02 5.126164441911930680e+02
6.571445718057972174e-02 5.126289806563315778e+02
6.581447918542078501e-02 5.126415369960387807e+02
6.591450119026184828e-02 5.126541128573386459e+02
6.601452319510292543e-02 5.126667078862597009e+02
6.611454519994398871e-02 5.126793217278494694e+02
6.621456720478505198e-02 5.126919540261891370e+02
6.631458920962611525e-02 5.127046044244057157e+02
6.641461121446717852e-02 5.127172725646855724e+02
6.651463321930824180e-02 5.127299580882884129e+02
6.661465522414930507e-02 5.127426606355592185e+02
6.671467722899036834e-02 5.127553798459431391e+02
6.681469923383144549e-02 5.127681153579985676e+02
6.691472123867250876e-02 5.127808668094106679e+02
6.701474324351357204e-02 5.127936338370052454e+02
6.711476524835463531e-02 5.128064160767617068e+02
6.721478725319569858e-02 5.128192131638272713e+02
6.731480925803676185e-02 5.128320247325301580e+02
6.741483126287782512e-02 5.128448504163940243e+02
6.751485326771890227e-02 5.128576898481510398e+02
6.761487527255996555e-02 5.128705426597562109e+02
6.771489727740101494e-02 5.128834084824011370e+02
6.781491928224209209e-02 5.128962869465274252e+02
6.791494128708315536e-02 5.129091776818402195e+02
6.801496329192421864e-02 5.129220803173244576e+02
6.811498529676528191e-02 5.129349944812558988e+02
6.821500730160634518e-02 5.129479198012168126e+02
6.831502930644742233e-02 5.129608559041093940e+02
6.841505131128847172e-02 5.129738024161698604e+02
6.851507331612954887e-02 5.129867589629833446e+02
6.861509532097061215e-02 5.129997251694961733e+02
6.871511732581167542e-02 5.130127006600326922e+02
6.881513933065273869e-02 5.130256850583068626e+02
6.891516133549380196e-02 5.130386779874369267e+02
6.901518334033487911e-02 5.130516790699618923e+02
6.911520534517592851e-02 5.130646879278529013e+02
6.921522735001699178e-02 5.130777041825290326e+02
6.931524935485806893e-02 5.130907274548706027e+02
6.941527135969913220e-02 5.131037573652351966e+02
6.951529336454019548e-02 5.131167935334702861e+02
6.961531536938125875e-02 5.131298355789280095e+02
6.971533737422232202e-02 5.131428831204814287e+02
6.981535937906338529e-02 5.131559357765348750e+02
6.991538138390444856e-02 5.131689931650427070e+02
7.001540338874552571e-02 5.131820549035212480e+02
7.011542539358658899e-02 5.131951206090637925e+02
7.021544739842763838e-02 5.132081898983558403e+02
7.031546940326871553e-02 5.132212623876885118e+02
7.041549140810977880e-02 5.132343376929729857e+02
7.051551341295084208e-02 5.132474154297576661e+02
7.061553541779190535e-02 5.132604952132383005e+02
7.071555742263296862e-02 5.132735766582775341e+02
7.081557942747404577e-02 5.132866593794140044e+02
7.091560143231509517e-02 5.132997429908826916e+02
7.101562343715617232e-02 5.133128271066257184e+02
7.111564544199723559e-02 5.133259113403074707e+02
7.121566744683829886e-02 5.133389953053316503e+02
7.131568945167936213e-02 5.133520786148525303e+02
7.141571145652042540e-02 5.133651608817917804e+02
7.151573346136150255e-02 5.133782417188539284e+02
7.161575546620255195e-02 5.133913207385382975e+02
7.171577747104361522e-02 5.134043975531565138e+02
7.181579947588469237e-02 5.134174717748451258e+02
7.191582148072575564e-02 5.134305430155817476e+02
7.201584348556681892e-02 5.134436108871993838e+02
7.211586549040788219e-02 5.134566750014022318e+02
7.221588749524894546e-02 5.134697349697779600e+02
7.231590950009000873e-02 5.134827904038138513e+02
7.241593150493107200e-02 5.134958409149135150e+02
7.251595350977214915e-02 5.135088861144087105e+02
7.261597551461321243e-02 5.135219256135753767e+02
7.271599751945427570e-02 5.135349590236485255e+02
7.281601952429533897e-02 5.135479859558374756e+02
7.291604152913640224e-02 5.135610060213396082e+02
7.301606353397746552e-02 5.135740188313565113e+02
7.311608553881852879e-02 5.135870239971072806e+02
7.321610754365960594e-02 5.136000211298450040e+02
7.331612954850066921e-02 5.136130098408700633e+02
7.341615155334173248e-02 5.136259897415463911e+02
7.351617355818279576e-02 5.136389604433156819e+02
7.361619556302385903e-02 5.136519215577110344e+02
7.371621756786492230e-02 5.136648726963745730e+02
7.381623957270598557e-02 5.136778134710702943e+02
7.391626157754704884e-02 5.136907434936987329e+02
7.401628358238812599e-02 5.137036623763117404e+02
7.411630558722918927e-02 5.137165697311305621e+02
7.421632759207025254e-02 5.137294651705561819e+02
7.431634959691131581e-02 5.137423483071860346e+02
7.441637160175237908e-02 5.137552187538293538e+02
7.451639360659344236e-02 5.137680761235224054e+02
7.461641561143450563e-02 5.137809200295407663e+02
7.471643761627558278e-02 5.137937500854179689e+02
7.481645962111664605e-02 5.138065659049558462e+02
7.491648162595770932e-02 5.138193671022437456e+02
7.501650363079877259e-02 5.138321532916700107e+02
7.511652563563983587e-02 5.138449240879385798e+02
7.521654764048089914e-02 5.138576791060837650e+02
7.531656964532196241e-02 5.138704179614828718e+02
7.541659165016302568e-02 5.138831402698748434e+02
7.551661365500410283e-02 5.138958456473712886e+02
7.561663565984516611e-02 5.139085337104734208e+02
7.571665766468622938e-02 5.139212040760853597e+02
7.581667966952729265e-02 5.139338563615307294e+02
7.591670167436835592e-02 5.139464901845651639e+02
7.601672367920941920e-02 5.139591051633932466e+02
7.611674568405048247e-02 5.139717009166812431e+02
7.621676768889155962e-02 5.139842770635725628e+02
7.631678969373262289e-02 5.139968332237033337e+02
7.641681169857367228e-02 5.140093690172150218e+02
7.651683370341474943e-02 5.140218840647712568e+02
7.661685570825581271e-02 5.140343779875707924e+02
7.671687771309687598e-02 5.140468504073627400e+02
7.681689971793793925e-02 5.140593009464618035e+02
7.691692172277900252e-02 5.140717292277604429e+02
7.701694372762007967e-02 5.140841348747482016e+02
7.711696573246112907e-02 5.140965175115200054e+02
7.721698773730220622e-02 5.141088767627952620e+02
7.731700974214326949e-02 5.141212122539318443e+02
7.741703174698433276e-02 5.141335236109368907e+02
7.751705375182539604e-02 5.141458104604873824e+02
7.761707575666645931e-02 5.141580724299391250e+02
7.771709776150753646e-02 5.141703091473432323e+02
7.781711976634858585e-02 5.141825202414613614e+02
7.791714177118964912e-02 5.141947053417776488e+02
7.801716377603072627e-02 5.142068640785175830e+02
7.811718578087178955e-02 5.142189960826555080e+02
7.821720778571283894e-02 5.142311009859356545e+02
7.831722979055391609e-02 5.142431784208813497e+02
7.841725179539499324e-02 5.142552280208135471e+02
7.851727380023604264e-02 5.142672494198603772e+02
7.861729580507710591e-02 5.142792422529757914e+02
7.871731780991818306e-02 5.142912061559501353e+02
7.881733981475924633e-02 5.143031407654275426e+02
7.891736181960029572e-02 5.143150457189167355e+02
7.901738382444137287e-02 5.143269206548067132e+02
7.911740582928245002e-02 5.143387652123817588e+02
7.921742783412349942e-02 5.143505790318337176e+02
7.931744983896456269e-02 5.143623617542768898e+02
7.941747184380563984e-02 5.143741130217614455e+02
7.951749384864668924e-02 5.143858324772877495e+02
7.961751585348775251e-02 5.143975197648202311e+02
7.971753785832882966e-02 5.144091745293002305e+02
7.981755986316990681e-02 5.144207964166620286e+02
7.991758186801095620e-02 5.144323850738442161e+02
8.001760387285201948e-02 5.144439401488054955e+02
8.011762587769309663e-02 5.144554612905357089e+02
8.021764788253414602e-02 5.144669481490723228e+02
8.031766988737520929e-02 5.144784003755129334e+02
8.041769189221628644e-02 5.144898176220281130e+02
8.051771389705733584e-02 5.145011995418761899e+02
8.061773590189841299e-02 5.145125457894159808e+02
8.071775790673947626e-02 5.145238560201199789e+02
8.081777991158055341e-02 5.145351298905898147e+02
8.091780191642160280e-02 5.145463670585663749e+02
8.101782392126266608e-02 5.145575671829465136e+02
8.111784592610374323e-02 5.145687299237933985e+02
8.121786793094479262e-02 5.145798549423520853e+02
8.131788993578586977e-02 5.145909419010620240e+02
8.141791194062693304e-02 5.146019904635681996e+02
8.151793394546799632e-02 5.146130002947389812e+02
8.161795595030905959e-02 5.146239710606748758e+02
8.171797795515012286e-02 5.146349024287221710e+02
8.181799995999120001e-02 5.146457940674899874e+02
8.191802196483224940e-02 5.146566456468564184e+02
8.201804396967332655e-02 5.146674568379881975e+02
8.211806597451438983e-02 5.146782273133478611e+02
8.221808797935545310e-02 5.146889567467118241e+02
8.231810998419651637e-02 5.146996448131801571e+02
8.241813198903757964e-02 5.147102911891880694e+02
8.251815399387864292e-02 5.147208955525220517e+02
8.261817599871970619e-02 5.147314575823307905e+02
8.271819800356078334e-02 5.147419769591374461e+02
8.281822000840184661e-02 5.147524533648511351e+02
8.291824201324290988e-02 5.147628864827843245e+02
8.301826401808397315e-02 5.147732759976586294e+02
8.311828602292503643e-02 5.147836215956215256e+02
8.321830802776609970e-02 5.147939229642571490e+02
8.331833003260716297e-02 5.148041797926005074e+02
8.341835203744824012e-02 5.148143917711457789e+02
8.351837404228928952e-02 5.148245585918634788e+02
8.361839604713036667e-02 5.148346799482076221e+02
8.371841805197142994e-02 5.148447555351324354e+02
8.381844005681249321e-02 5.148547850491004283e+02
8.391846206165355648e-02 5.148647681880975142e+02
8.401848406649461976e-02 5.148747046516432420e+02
8.411850607133569691e-02 5.148845941408014824e+02
8.421852807617674630e-02 5.148944363581958896e+02
8.431855008101782345e-02 5.149042310080179732e+02
8.441857208585888672e-02 5.149139777960410811e+02
8.451859409069993612e-02 5.149236764296309730e+02
8.461861609554101327e-02 5.149333266177579844e+02
8.471863810038207654e-02 5.149429280710069179e+02
8.481866010522315369e-02 5.149524805015922766e+02
8.491868211006420308e-02 5.149619836233646311e+02
8.501870411490528023e-02 5.149714371518265352e+02
8.511872611974634351e-02 5.149808408041408256e+02
8.521874812458739290e-02 5.149901942991427859e+02
8.531877012942847005e-02 5.149994973573521975e+02
8.541879213426953332e-02 5.150087497009826620e+02
8.551881413911061047e-02 5.150179510539537659e+02
8.561883614395165987e-02 5.150271011419032448e+02
8.571885814879273702e-02 5.150361996921942591e+02
8.581888015363380029e-02 5.150452464339300604e+02
8.591890215847484968e-02 5.150542410979634269e+02
8.601892416331592683e-02 5.150631834169059857e+02
8.611894616815699011e-02 5.150720731251406050e+02
8.621896817299803950e-02 5.150809099588320805e+02
8.631899017783911665e-02 5.150896936559374808e+02
8.641901218268019380e-02 5.150984239562134235e+02
8.651903418752125707e-02 5.151071006012326734e+02
8.661905619236230647e-02 5.151157233343891448e+02
8.671907819720338362e-02 5.151242919009099523e+02
8.681910020204444689e-02 5.151328060478672342e+02
8.691912220688549628e-02 5.151412655241844050e+02
8.701914421172657343e-02 5.151496700806507079e+02
8.711916621656765058e-02 5.151580194699288313e+02
8.721918822140869998e-02 5.151663134465633220e+02
8.731921022624976325e-02 5.151745517669940000e+02
8.741923223109084040e-02 5.151827341895641439e+02
8.751925423593190367e-02 5.151908604745279945e+02
8.761927624077295307e-02 5.151989303840643970e+02
8.771929824561403022e-02 5.152069436822835087e+02
8.781932025045510737e-02 5.152149001352372579e+02
8.791934225529615676e-02 5.152227995109290077e+02
8.801936426013722004e-02 5.152306415793225369e+02
8.811938626497829719e-02 5.152384261123506803e+02
8.821940826981934658e-02 5.152461528839261291e+02
8.831943027466040985e-02 5.152538216699501845e+02
8.841945227950148700e-02 5.152614322483192382e+02
8.851947428434256415e-02 5.152689843989383007e+02
8.861949628918361355e-02 5.152764779037265725e+02
8.871951829402467682e-02 5.152839125466263113e+02
8.881954029886575397e-02 5.152912881136144279e+02
8.891956230370680336e-02 5.152986043927071478e+02
8.901958430854786664e-02 5.153058611739725166e+02
8.911960631338894379e-02 5.153130582495363115e+02
8.921962831822999318e-02 5.153201954135917049e+02
8.931965032307107033e-02 5.153272724624064267e+02
8.941967232791213360e-02 5.153342891943341328e+02
8.951969433275321075e-02 5.153412454098179296e+02
8.961971633759426015e-02 5.153481409114029930e+02
8.971973834243532342e-02 5.153549755037421392e+02
8.981976034727640057e-02 5.153617489936041238e+02
8.991978235211744996e-02 5.153684611898828507e+02
9.001980435695852711e-02 5.153751119036024875e+02
9.011982636179959039e-02 5.153817009479292892e+02
9.021984836664065366e-02 5.153882281381760322e+02
9.031987037148171693e-02 5.153946932918095172e+02
9.041989237632278020e-02 5.154010962284614834e+02
9.051991438116385735e-02 5.154074367699320192e+02
9.061993638600490675e-02 5.154137147401987704e+02
9.071995839084598390e-02 5.154199299654245578e+02
9.081998039568704717e-02 5.154260822739651076e+02
9.092000240052811044e-02 5.154321714963739396e+02
9.102002440536917371e-02 5.154381974654107808e+02
9.112004641021023699e-02 5.154441600160490680e+02
9.122006841505130026e-02 5.154500589854819737e+02
9.132009041989236353e-02 5.154558942131296817e+02
9.142011242473344068e-02 5.154616655406451855e+02
9.152013442957450395e-02 5.154673728119228144e+02
9.162015643441556723e-02 5.154730158731023266e+02
9.172017843925663050e-02 5.154785945725769807e+02
9.182020044409769377e-02 5.154841087610003569e+02
9.192022244893875704e-02 5.154895582912904501e+02
9.202024445377982032e-02 5.154949430186391055e+02
9.212026645862089747e-02 5.155002628005147471e+02
9.222028846346194686e-02 5.155055174966699951e+02
9.232031046830302401e-02 5.155107069691496235e+02
9.242033247314408728e-02 5.155158310822919248e+02
9.252035447798515055e-02 5.155208897027384864e+02
9.262037648282621383e-02 5.155258826994377159e+02
9.272039848766727710e-02 5.155308099436523435e+02
9.282042049250835425e-02 5.155356713089620371e+02
9.292044249734940364e-02 5.155404666712719290e+02
9.302046450219048079e-02 5.155451959088160265e+02
9.312048650703154407e-02 5.155498589021634643e+02
9.322050851187259346e-02 5.155544555342223703e+02
9.332053051671367061e-02 5.155589856902473684e+02
9.342055252155473388e-02 5.155634492578413983e+02
9.352057452639581103e-02 5.155678461269635591e+02
9.362059653123686043e-02 5.155721761899319517e+02
9.372061853607793758e-02 5.155764393414301594e+02
9.382064054091900085e-02 5.155806354785094072e+02
9.392066254576005024e-02 5.155847645005968616e+02
9.402068455060112739e-02 5.155888263094950617e+02
9.412070655544219067e-02 5.155928208093913554e+02
9.422072856028326782e-02 5.155967479068589228e+02
9.432075056512431721e-02 5.156006075108621189e+02
9.442077256996539436e-02 5.156043995327611356e+02
9.452079457480645763e-02 5.156081238863146154e+02
9.462081657964750703e-02 5.156117804876844275e+02
9.472083858448858418e-02 5.156153692554396457e+02
9.482086058932964745e-02 5.156188901105606419e+02
9.492088259417069684e-02 5.156223429764413595e+02
9.502090459901177399e-02 5.156257277788944293e+02
9.512092660385285114e-02 5.156290444461529887e+02
9.522094860869391442e-02 5.156322929088760247e+02
9.532097061353496381e-02 5.156354731001508753e+02
9.542099261837604096e-02 5.156385849554958440e+02
9.552101462321710423e-02 5.156416284128630423e+02
9.562103662805815363e-02 5.156446034126430504e+02
9.572105863289923078e-02 5.156475098976673053e+02
9.582108063774030793e-02 5.156503478132096916e+02
9.592110264258135732e-02 5.156531171069905213e+02
9.602112464742242059e-02 5.156558177291798302e+02
9.612114665226349774e-02 5.156584496323960138e+02
9.622116865710456102e-02 5.156610127717157184e+02
9.632119066194561041e-02 5.156635071046682697e+02
9.642121266678668756e-02 5.156659325912428358e+02
9.652123467162776471e-02 5.156682891938895636e+02
9.662125667646881411e-02 5.156705768775203751e+02
9.672127868130987738e-02 5.156727956095129457e+02
9.682130068615095453e-02 5.156749453597121828e+02
9.692132269099200392e-02 5.156770261004293161e+02
9.702134469583306720e-02 5.156790378064487186e+02
9.712136670067414435e-02 5.156809804550248373e+02
9.722138870551522150e-02 5.156828540258862859e+02
9.732141071035627089e-02 5.156846585012373225e+02
9.742143271519733416e-02 5.156863938657570543e+02
9.752145472003841131e-02 5.156880601066034160e+02
9.762147672487946071e-02 5.156896572134133976e+02
9.772149872972052398e-02 5.156911851783023621e+02
9.782152073456160113e-02 5.156926439958679111e+02
9.792154273940265052e-02 5.156940336631894297e+02
9.802156474424372767e-02 5.156953541798285414e+02
9.812158674908479095e-02 5.156966055478294493e+02
9.822160875392586810e-02 5.156977877717210959e+02
9.832163075876691749e-02 5.156989008585178453e+02
9.842165276360798076e-02 5.156999448177169825e+02
9.852167476844905791e-02 5.157009196613020094e+02
9.862169677329010731e-02 5.157018254037420775e+02
9.872171877813118446e-02 5.157026620619919868e+02
9.882174078297224773e-02 5.157034296554917319e+02
9.892176278781331100e-02 5.157041282061671836e+02
9.902178479265437427e-02 5.157047577384297483e+02
9.912180679749543755e-02 5.157053182791761401e+02
9.922182880233651470e-02 5.157058098577879264e+02
9.932185080717756409e-02 5.157062325061315278e+02
9.942187281201864124e-02 5.157065862585573086e+02
9.952189481685970451e-02 5.157068711518980990e+02
9.962191682170076779e-02 5.157070872254718097e+02
9.972193882654183106e-02 5.157072345210762023e+02
9.982196083138289433e-02 5.157073130829910497e+02
9.992198283622395760e-02 5.157073229579754070e+02
1.000220048410650209e-01 5.157072641952685217e+02
1.001220268459060980e-01 5.157071368465867636e+02
1.002220488507471613e-01 5.157069409661238524e+02
1.003220708555882246e-01 5.157066766105481292e+02
1.004220928604292878e-01 5.157063438390011925e+02
1.005221148652703511e-01 5.157059427130983522e+02
1.006221368701114144e-01 5.157054732969252200e+02
1.007221588749524777e-01 5.157049356570357759e+02
1.008221808797935548e-01 5.157043298624511181e+02
1.009222028846346042e-01 5.157036559846574164e+02
1.010222248894756814e-01 5.157029140976054578e+02
1.011222468943167446e-01 5.157021042777056437e+02
1.012222688991578079e-01 5.157012266038279904e+02
1.013222909039988712e-01 5.157002811572981500e+02
1.014223129088399344e-01 5.156992680218985470e+02
1.015223349136810116e-01 5.156981872838598520e+02
1.016223569185220610e-01 5.156970390318646196e+02
1.017223789233631381e-01 5.156958233570409220e+02
1.018224009282042014e-01 5.156945403529612122e+02
1.019224229330452508e-01 5.156931901156377762e+02
1.020224449378863280e-01 5.156917727435226197e+02
1.021224669427273912e-01 5.156902883375011015e+02
1.022224889475684684e-01 5.156887370008920470e+02
1.023225109524095178e-01 5.156871188394409273e+02
1.024225329572505949e-01 5.156854339613213369e+02
1.025225549620916582e-01 5.156836824771257852e+02
1.026225769669327076e-01 5.156818644998679702e+02
1.027225989717737847e-01 5.156799801449749339e+02
1.028226209766148480e-01 5.156780295302855848e+02
1.029226429814559252e-01 5.156760127760460364e+02
1.030226649862969746e-01 5.156739300049052872e+02
1.031226869911380517e-01 5.156717813419143113e+02
1.032227089959791150e-01 5.156695669145175316e+02
1.033227310008201644e-01 5.156672868525514559e+02
1.034227530056612415e-01 5.156649412882402430e+02
1.035227750105023048e-01 5.156625303561912688e+02
1.036227970153433542e-01 5.156600541933894419e+02
1.037228190201844313e-01 5.156575129391952714e+02
1.038228410250255085e-01 5.156549067353366809e+02
1.039228630298665718e-01 5.156522357259096907e+02
1.040228850347076212e-01 5.156495000573661400e+02
1.041229070395486983e-01 5.156466998785170972e+02
1.042229290443897616e-01 5.156438353405214912e+02
1.043229510492308110e-01 5.156409065968845198e+02
1.044229730540718881e-01 5.156379138034513971e+02
1.045229950589129653e-01 5.156348571184025786e+02
1.046230170637540147e-01 5.156317367022468261e+02
1.047230390685950779e-01 5.156285527178183656e+02
1.048230610734361551e-01 5.156253053302709759e+02
1.049230830782772184e-01 5.156219947070699163e+02
1.050231050831182678e-01 5.156186210179885165e+02
1.051231270879593449e-01 5.156151844351026057e+02
1.052231490928004221e-01 5.156116851327835775e+02
1.053231710976414714e-01 5.156081232876929334e+02
1.054231931024825347e-01 5.156044990787769393e+02
1.055232151073236119e-01 5.156008126872580988e+02
1.056232371121646613e-01 5.155970642966328796e+02
1.057232591170057245e-01 5.155932540926621641e+02
1.058232811218468017e-01 5.155893822633668151e+02
1.059233031266878788e-01 5.155854489990188085e+02
1.060233251315289282e-01 5.155814544921381639e+02
1.061233471363699915e-01 5.155773989374841904e+02
1.062233691412110687e-01 5.155732825320487791e+02
1.063233911460521181e-01 5.155691054750504918e+02
1.064234131508931813e-01 5.155648679679264887e+02
1.065234351557342585e-01 5.155605702143270719e+02
1.066234571605753079e-01 5.155562124201078404e+02
1.067234791654163850e-01 5.155517947933223013e+02
1.068235011702574483e-01 5.155473175442150477e+02
1.069235231750985254e-01 5.155427808852148246e+02
1.070235451799395748e-01 5.155381850309262290e+02
1.071235671847806381e-01 5.155335301981239127e+02
1.072235891896217153e-01 5.155288166057422359e+02
1.073236111944627647e-01 5.155240444748707205e+02
1.074236331993038418e-01 5.155192140287450684e+02
1.075236552041449051e-01 5.155143254927387488e+02
1.076236772089859683e-01 5.155093790943546992e+02
1.077236992138270316e-01 5.155043750632208912e+02
1.078237212186680949e-01 5.154993136310777118e+02
1.079237432235091720e-01 5.154941950317733017e+02
1.080237652283502214e-01 5.154890195012529830e+02
1.081237872331912986e-01 5.154837872775531196e+02
1.082238092380323619e-01 5.154784986007903171e+02
1.083238312428734251e-01 5.154731537131555115e+02
1.084238532477144884e-01 5.154677528589035091e+02
1.085238752525555517e-01 5.154622962843461664e+02
1.086238972573966149e-01 5.154567842378420437e+02
1.087239192622376782e-01 5.154512169697887884e+02
1.088239412670787554e-01 5.154455947326132446e+02
1.089239632719198186e-01 5.154399177807644037e+02
1.090239852767608819e-01 5.154341863707023776e+02
1.091240072816019452e-01 5.154284007608907814e+02
1.092240292864430085e-01 5.154225612117857054e+02
1.093240512912840717e-01 5.154166679858303723e+02
1.094240732961251350e-01 5.154107213474406990e+02
1.095240953009662122e-01 5.154047215630009759e+02
1.096241173058072615e-01 5.153986689008497706e+02
1.097241393106483387e-01 5.153925636312744700e+02
1.098241613154894020e-01 5.153864060264986620e+02
1.099241833203304652e-01 5.153801963606755407e+02
1.100242053251715285e-01 5.153739349098741513e+02
1.101242273300125918e-01 5.153676219520729092e+02
1.102242493348536689e-01 5.153612577671494819e+02
1.103242713396947183e-01 5.153548426368678292e+02
1.104242933445357955e-01 5.153483768448721776e+02
1.105243153493768588e-01 5.153418606766749690e+02
1.106243373542179081e-01 5.153352944196456065e+02
1.107243593590589853e-01 5.153286783630024956e+02
1.108243813639000486e-01 5.153220127978014489e+02
1.109244033687411257e-01 5.153152980169249986e+02
1.110244253735821751e-01 5.153085343150731887e+02
1.111244473784232523e-01 5.153017219887514102e+02
1.112244693832643155e-01 5.152948613362621018e+02
1.113244913881053649e-01 5.152879526576913349e+02
1.114245133929464421e-01 5.152809962549000602e+02
1.115245353977875054e-01 5.152739924315130793e+02
1.116245574026285825e-01 5.152669414929069944e+02
1.117245794074696319e-01 5.152598437461999765e+02
1.118246014123107090e-01 5.152526995002430112e+02
1.119246234171517723e-01 5.152455090656037555e+02
1.120246454219928217e-01 5.152382727545602847e+02
1.121246674268338989e-01 5.152309908810874504e+02
1.122246894316749621e-01 5.152236637608453975e+02
1.123247114365160115e-01 5.152162917111700153e+02
1.124247334413570887e-01 5.152088750510604314e+02
1.125247554461981658e-01 5.152014141011668471e+02
1.126247774510392291e-01 5.151939091837807609e+02
1.127247994558802785e-01 5.151863606228215531e+02
1.128248214607213556e-01 5.151787687438256853e+02
1.129248434655624189e-01 5.151711338739357871e+02
1.130248654704034683e-01 5.151634563418873540e+02
1.131248874752445455e-01 5.151557364779974932e+02
1.132249094800856226e-01 5.151479746141546912e+02
1.133249314849266720e-01 5.151401710838031249e+02
1.134249534897677353e-01 5.151323262219349317e+02
1.135249754946088124e-01 5.151244403650741788e+02
1.136249974994498757e-01 5.151165138512681096e+02
1.137250195042909251e-01 5.151085470200727059e+02
1.138250415091320022e-01 5.151005402125412047e+02
1.139250635139730794e-01 5.150924937712122755e+02
1.140250855188141288e-01 5.150844080400959228e+02
1.141251075236551921e-01 5.150762833646639365e+02
1.142251295284962692e-01 5.150681200918345439e+02
1.143251515333373186e-01 5.150599185699612690e+02
1.144251735381783819e-01 5.150516791488201989e+02
1.145251955430194590e-01 5.150434021795977060e+02
1.146252175478605362e-01 5.150350880148766919e+02
1.147252395527015856e-01 5.150267370086243091e+02
1.148252615575426488e-01 5.150183495161799101e+02
1.149252835623837260e-01 5.150099258942410643e+02
1.150253055672247754e-01 5.150014665008512793e+02
1.151253275720658387e-01 5.149929716953870411e+02
1.152253495769069158e-01 5.149844418385436029e+02
1.153253715817479652e-01 5.149758772923247534e+02
1.154253935865890424e-01 5.149672784200258775e+02
1.155254155914301056e-01 5.149586455862239518e+02
1.156254375962711828e-01 5.149499791567629927e+02
1.157254596011122322e-01 5.149412794987399593e+02
1.158254816059532954e-01 5.149325469804938393e+02
1.159255036107943726e-01 5.149237819715896194e+02
1.160255256156354220e-01 5.149149848428065752e+02
1.161255476204764991e-01 5.149061559661240608e+02
1.162255696253175624e-01 5.148972957147077523e+02
1.163255916301586257e-01 5.148884044628977108e+02
1.164256136349996890e-01 5.148794825861918980e+02
1.165256356398407522e-01 5.148705304612360578e+02
1.166256576446818294e-01 5.148615484658066634e+02
1.167256796495228788e-01 5.148525369787994350e+02
1.168257016543639559e-01 5.148434963802145603e+02
1.169257236592050192e-01 5.148344270511428249e+02
1.170257456640460825e-01 5.148253293737523109e+02
1.171257676688871457e-01 5.148162037312741859e+02
1.172257896737282090e-01 5.148070505079881514e+02
1.173258116785692723e-01 5.147978700892097095e+02
1.174258336834103356e-01 5.147886628612752702e+02
1.175258556882514127e-01 5.147794292115274857e+02
1.176258776930924760e-01 5.147701695283027448e+02
1.177258996979335393e-01 5.147608842009153705e+02
1.178259217027746025e-01 5.147515736196448870e+02
1.179259437076156658e-01 5.147422381757205585e+02
1.180259657124567291e-01 5.147328782613077465e+02
1.181259877172977923e-01 5.147234942694936990e+02
1.182260097221388695e-01 5.147140865942717483e+02
1.183260317269799189e-01 5.147046556305298282e+02
1.184260537318209960e-01 5.146952017740331939e+02
1.185260757366620593e-01 5.146857254214118029e+02
1.186260977415031226e-01 5.146762269701445121e+02
1.187261197463441859e-01 5.146667068185447533e+02
1.188261417511852491e-01 5.146571653657482557e+02
1.189261637560263263e-01 5.146476030116949687e+02
1.190261857608673757e-01 5.146380201571164434e+02
1.191262077657084528e-01 5.146284172035213942e+02
1.192262297705495161e-01 5.146187945531785317e+02
1.193262517753905655e-01 5.146091526091058768e+02
1.194262737802316426e-01 5.145994917750535933e+02
1.195262957850727059e-01 5.145898124554881861e+02
1.196263177899137831e-01 5.145801150555798813e+02
1.197263397947548325e-01 5.145703999811864833e+02
1.198263617995959096e-01 5.145606676388391634e+02
1.199263838044369729e-01 5.145509184357276808e+02
1.200264058092780223e-01 5.145411527796843529e+02
1.201264278141190994e-01 5.145313710791704125e+02
1.202264498189601627e-01 5.145215737432602054e+02
1.203264718238012398e-01 5.145117611816264116e+02
1.204264938286422892e-01 5.145019338045258337e+02
1.205265158334833664e-01 5.144920920227821171e+02
1.206265378383244297e-01 5.144822362477739262e+02
1.207265598431654791e-01 5.144723668914170958e+02
1.208265818480065562e-01 5.144624843661503064e+02
1.209266038528476195e-01 5.144525890849207599e+02
1.210266258576886689e-01 5.144426814611688314e+02
1.211266478625297460e-01 5.144327619088114716e+02
1.212266698673708232e-01 5.144228308422281088e+02
1.213266918722118864e-01 5.144128886762470074e+02
1.214267138770529358e-01 5.144029358261259404e+02
1.215267358818940130e-01 5.143929727075409346e+02
1.216267578867350763e-01 5.143829997365701274e+02
1.217267798915761257e-01 5.143730173296756902e+02
1.218268018964172028e-01 5.143630259036922325e+02
1.219268239012582800e-01 5.143530258758095215e+02
1.220268459060993294e-01 5.143430176635579301e+02
1.221268679109403926e-01 5.143330016847912702e+02
1.222268899157814698e-01 5.143229783576754244e+02
1.223269119206225330e-01 5.143129481006671995e+02
1.224269339254635824e-01 5.143029113325044364e+02
1.225269559303046596e-01 5.142928684721874788e+02
1.226269779351457367e-01 5.142828199389655310e+02
1.227269999399867861e-01 5.142727661523185816e+02
1.228270219448278494e-01 5.142627075319450114e+02
1.229270439496689266e-01 5.142526444977439724e+02
1.230270659545099760e-01 5.142425774698016312e+02
1.231270879593510392e-01 5.142325068683740028e+02
1.232271099641921164e-01 5.142224331138734215e+02
1.233271319690331935e-01 5.142123566268500099e+02
1.234271539738742429e-01 5.142022778279800832e+02
1.235271759787153062e-01 5.141921971380479590e+02
1.236271979835563833e-01 5.141821149779311781e+02
1.237272199883974327e-01 5.141720317685848158e+02
1.238272419932384960e-01 5.141619479310268161e+02
1.239272639980795732e-01 5.141518638863209389e+02
1.240272860029206226e-01 5.141417800555632311e+02
1.241273080077616997e-01 5.141316968598637231e+02
1.242273300126027630e-01 5.141216147203349465e+02
1.243273520174438401e-01 5.141115340580718112e+02
1.244273740222848895e-01 5.141014552941397824e+02
1.245273960271259528e-01 5.140913788495570316e+02
1.246274180319670299e-01 5.140813051452799982e+02
1.247274400368080793e-01 5.140712346021878147e+02
1.248274620416491565e-01 5.140611676410665041e+02
1.249274840464902198e-01 5.140511046825935182e+02
1.250275060513312830e-01 5.140410461473219357e+02
1.251275280561723324e-01 5.140309924556654551e+02
1.252275500610134096e-01 5.140209440278829334e+02
1.253275720658544867e-01 5.140109012840617879e+02
1.254275940706955361e-01 5.140008646441048086e+02
1.255276160755366133e-01 5.139908345277110584e+02
1.256276380803776904e-01 5.139808113543633681e+02
1.257276600852187398e-01 5.139707955433131019e+02
1.258276820900597892e-01 5.139607875135612858e+02
1.259277040949008664e-01 5.139507876838468974e+02
1.260277260997419158e-01 5.139407964726287901e+02
1.261277481045829929e-01 5.139308142980727325e+02
1.262277701094240701e-01 5.139208415780326504e+02
1.263277921142651472e-01 5.139108787300381209e+02
1.264278141191061966e-01 5.139009261712774332e+02
1.265278361239472460e-01 5.138909843185826958e+02
1.266278581287883231e-01 5.138810535884146020e+02
1.267278801336293725e-01 5.138711343968464007e+02
1.268279021384704497e-01 5.138612271595482071e+02
1.269279241433115268e-01 5.138513322917730193e+02
1.270279461481525762e-01 5.138414502083397792e+02
1.271279681529936534e-01 5.138315813236204121e+02
1.272279901578347028e-01 5.138217260515208409e+02
1.273280121626757799e-01 5.138118848054691625e+02
1.274280341675168293e-01 5.138020579983985954e+02
1.275280561723579065e-01 5.137922460427322449e+02
1.276280781771989836e-01 5.137824493503683243e+02
1.277281001820400330e-01 5.137726683326637840e+02
1.278281221868811102e-01 5.137629034004218056e+02
1.279281441917221596e-01 5.137531549638727029e+02
1.280281661965632367e-01 5.137434234326626665e+02
1.281281882014042861e-01 5.137337092158354608e+02
1.282282102062453633e-01 5.137240127218190082e+02
1.283282322110864404e-01 5.137143343584095874e+02
1.284282542159274898e-01 5.137046745327568260e+02
1.285282762207685670e-01 5.136950336513484672e+02
1.286282982256096163e-01 5.136854121199964993e+02
1.287283202304506935e-01 5.136758103438207854e+02
1.288283422352917429e-01 5.136662287272328058e+02
1.289283642401328200e-01 5.136566676739250852e+02
1.290283862449738972e-01 5.136471275868514113e+02
1.291284082498149466e-01 5.136376088682142154e+02
1.292284302546560237e-01 5.136281119194497933e+02
1.293284522594970731e-01 5.136186371412122753e+02
1.294284742643381503e-01 5.136091849333605523e+02
1.295284962691791997e-01 5.135997556949414502e+02
1.296285182740202768e-01 5.135903498241755187e+02
1.297285402788613262e-01 5.135809677184437305e+02
1.298285622837024034e-01 5.135716097742699731e+02
1.299285842885434805e-01 5.135622763873102485e+02
1.300286062933845299e-01 5.135529679523331197e+02
1.301286282982256071e-01 5.135436848632090232e+02
1.302286503030666565e-01 5.135344275128938989e+02
1.303286723079077336e-01 5.135251962934153198e+02
1.304286943127487830e-01 5.135159915958564625e+02
1.305287163175898602e-01 5.135068138103440560e+02
1.306287383224309373e-01 5.134976633260312155e+02
1.307287603272719867e-01 5.134885405310856186e+02
1.308287823321130638e-01 5.134794458126724521e+02
1.309288043369541132e-01 5.134703795569420208e+02
1.310288263417951904e-01 5.134613421490145129e+02
1.311288483466362398e-01 5.134523339729659028e+02
1.312288703514773169e-01 5.134433554118136271e+02
1.313288923563183941e-01 5.134344068475028280e+02
1.314289143611594435e-01 5.134254886608907782e+02
1.315289363660005206e-01 5.134166012317341483e+02
1.316289583708415700e-01 5.134077449386749095e+02
1.317289803756826472e-01 5.133989201592250993e+02
1.318290023805236966e-01 5.133901272697531795e+02
1.319290243853647737e-01 5.133813666454715303e+02
1.320290463902058509e-01 5.133726386604198524e+02
1.321290683950469003e-01 5.133639436874531157e+02
1.322290903998879774e-01 5.133552820982275762e+02
1.323291124047290268e-01 5.133466542631858829e+02
1.324291344095701040e-01 5.133380605515451407e+02
1.325291564144111534e-01 5.133295013312815627e+02
1.326291784192522305e-01 5.133209769691162592e+02
1.327292004240932799e-01 5.133124878305043239e+02
1.328292224289343570e-01 5.133040342796175537e+02
1.329292444337754342e-01 5.132956166793346711e+02
1.330292664386164836e-01 5.132872353912256358e+02
1.331292884434575607e-01 5.132788907755368655e+02
1.332293104482986101e-01 5.132705831911814585e+02
1.333293324531396873e-01 5.132623129957230503e+02
1.334293544579807367e-01 5.132540805453633084e+02
1.335293764628218138e-01 5.132458861949288575e+02
1.336293984676628910e-01 5.132377302978572970e+02
1.337294204725039404e-01 5.132296132061854905e+02
1.338294424773450175e-01 5.132215352705347868e+02
1.339294644821860669e-01 5.132134968400988555e+02
1.340294864870271441e-01 5.132054982626310675e+02
1.341295084918681935e-01 5.131975398844301708e+02
1.342295304967092706e-01 5.131896220503292625e+02
1.343295525015503478e-01 5.131817451036805551e+02
1.344295745063913972e-01 5.131739093863449170e+02
1.345295965112324743e-01 5.131661152386784579e+02
1.346296185160735237e-01 5.131583629995183173e+02
1.347296405209145731e-01 5.131506530061712965e+02
1.348296625257556502e-01 5.131429855944022620e+02
1.349296845305967274e-01 5.131353610984197076e+02
1.350297065354378045e-01 5.131277798508644992e+02
1.351297285402788539e-01 5.131202421827968010e+02
1.352297505451199311e-01 5.131127484236841383e+02
1.353297725499609805e-01 5.131052989013885508e+02
1.354297945548020299e-01 5.130978939421559062e+02
1.355298165596431070e-01 5.130905338706011207e+02
1.356298385644841842e-01 5.130832190096984959e+02
1.357298605693252336e-01 5.130759496807684172e+02
1.358298825741663107e-01 5.130687262034653031e+02
1.359299045790073879e-01 5.130615488957662365e+02
1.360299265838484373e-01 5.130544180739593685e+02
1.361299485886894867e-01 5.130473340526306174e+02
1.362299705935305638e-01 5.130402971446530955e+02
1.363299925983716410e-01 5.130333076611751721e+02
1.364300146032126904e-01 5.130263659116095596e+02
1.365300366080537675e-01 5.130194722036201256e+02
1.366300586128948447e-01 5.130126268431114340e+02
1.367300806177358941e-01 5.130058301342172626e+02
1.368301026225769434e-01 5.129990823792895753e+02
1.369301246274180206e-01 5.129923838788861303e+02
1.370301466322590977e-01 5.129857349317605895e+02
1.371301686371001471e-01 5.129791358348506947e+02
1.372301906419412243e-01 5.129725868832658762e+02
1.373302126467823014e-01 5.129660883702782712e+02
1.374302346516233508e-01 5.129596405873112417e+02
1.375302566564644002e-01 5.129532438239280054e+02
1.376302786613054774e-01 5.129468983678207223e+02
1.377303006661465545e-01 5.129406045048001488e+02
1.378303226709876039e-01 5.129343625187837006e+02
1.379303446758286811e-01 5.129281726917878359e+02
1.380303666806697582e-01 5.129220353039146403e+02
1.381303886855108076e-01 5.129159506333411400e+02
1.382304106903518570e-01 5.129099189563112304e+02
1.383304326951929342e-01 5.129039405471235114e+02
1.384304547000339836e-01 5.128980156781221922e+02
1.385304767048750607e-01 5.128921446196850411e+02
1.386304987097161379e-01 5.128863276402155407e+02
1.387305207145572150e-01 5.128805650061322012e+02
1.388305427193982644e-01 5.128748569818558281e+02
1.389305647242393138e-01 5.128692038298040643e+02
1.390305867290803910e-01 5.128636058103785444e+02
1.391306087339214403e-01 5.128580631819560267e+02
1.392306307387625175e-01 5.128525762008788433e+02
1.393306527436035946e-01 5.128471451214446688e+02
1.394306747484446440e-01 5.128417701958971975e+02
1.395306967532857212e-01 5.128364516744177308e+02
1.396307187581267706e-01 5.128311898051141497e+02
1.397307407629678477e-01 5.128259848340129565e+02
1.398307627678088971e-01 5.128208370050484746e+02
1.399307847726499743e-01 5.128157465600551177e+02
1.400308067774910514e-01 5.128107137387578405e+02
1.401308287823321008e-01 5.128057387787639527e+02
1.402308507871731780e-01 5.128008219155518645e+02
1.403308727920142274e-01 5.127959633824650609e+02
1.404308947968552768e-01 5.127911634107007330e+02
1.405309168016963539e-01 5.127864222293026160e+02
1.406309388065374311e-01 5.127817400651532580e+02
1.407309608113785082e-01 5.127771171429633341e+02
1.408309828162195576e-01 5.127725536852638015e+02
1.409310048210606348e-01 5.127680499123982827e+02
1.410310268259016842e-01 5.127636060425151072e+02
1.411310488307427335e-01 5.127592222915574212e+02
1.412310708355838107e-01 5.127548988732562520e+02
1.413310928404248878e-01 5.127506359991222098e+02
1.414311148452659372e-01 5.127464338784384381e+02
1.415311368501070144e-01 5.127422927182497006e+02
1.416311588549480915e-01 5.127382127233584015e+02
1.417311808597891409e-01 5.127341940963151501e+02
1.418312028646301903e-01 5.127302370374100065e+02
1.419312248694712675e-01 5.127263417446665699e+02
1.420312468743123446e-01 5.127225084138343618e+02
1.421312688791533940e-01 5.127187372383809816e+02
1.422312908839944712e-01 5.127150284094838071e+02
1.423313128888355483e-01 5.127113821160249927e+02
1.424313348936765977e-01 5.127077985445828290e+02
1.425313568985176471e-01 5.127042778794240121e+02
1.426313789033587243e-01 5.127008203025002331e+02
1.427314009081998014e-01 5.126974259934351039e+02
1.428314229130408508e-01 5.126940951295250670e+02
1.429314449178819280e-01 5.126908278857248433e+02
1.430314669227230051e-01 5.126876244346475460e+02
1.431314889275640545e-01 5.126844849465526295e+02
1.432315109324051039e-01 5.126814095893445256e+02
1.433315329372461810e-01 5.126783985285619565e+02
1.434315549420872304e-01 5.126754519273738424e+02
1.435315769469283076e-01 5.126725699465730486e+02
1.436315989517693847e-01 5.126697527445703599e+02
1.437316209566104619e-01 5.126670004773867504e+02
1.438316429614515113e-01 5.126643132986494038e+02
1.439316649662925607e-01 5.126616913595858023e+02
1.440316869711336378e-01 5.126591348090169049e+02
1.441317089759746872e-01 5.126566437933516909e+02
1.442317309808157644e-01 5.126542184565823845e+02
1.443317529856568415e-01 5.126518589402789985e+02
1.444317749904978909e-01 5.126495653835816029e+02
1.445317969953389681e-01 5.126473379231991885e+02
1.446318190001800175e-01 5.126451766934001171e+02
1.447318410050210946e-01 5.126430818260103024e+02
1.448318630098621440e-01 5.126410534504060479e+02
1.449318850147032212e-01 5.126390916935104087e+02
1.450319070195442983e-01 5.126371966797873938e+02
1.451319290243853477e-01 5.126353685312385551e+02
1.452319510292264249e-01 5.126336073673966212e+02
1.453319730340674742e-01 5.126319133053219730e+02
1.454319950389085514e-01 5.126302864595977553e+02
1.455320170437496008e-01 5.126287269423257840e+02
1.456320390485906779e-01 5.126272348631221121e+02
1.457320610534317551e-01 5.126258103291128236e+02
1.458320830582728045e-01 5.126244534449294861e+02
1.459321050631138816e-01 5.126231643127059669e+02
1.460321270679549310e-01 5.126219430320747961e+02
1.461321490727960082e-01 5.126207897001600031e+02
1.462321710776370576e-01 5.126197044115790504e+02
1.463321930824781347e-01 5.126186872584337380e+02
1.464322150873192119e-01 5.126177383303105444e+02
1.465322370921602613e-01 5.126168577142739196e+02
1.466322590970013384e-01 5.126160454948670804e+02
1.467322811018423878e-01 5.126153017541031431e+02
1.468323031066834650e-01 5.126146265714670562e+02
1.469323251115245144e-01 5.126140200239094611e+02
1.470323471163655915e-01 5.126134821858453279e+02
1.471323691212066409e-01 5.126130131291497491e+02
1.472323911260477181e-01 5.126126129231564619e+02
1.473324131308887952e-01 5.126122816346533000e+02
1.474324351357298446e-01 5.126120193278817396e+02
1.475324571405709217e-01 5.126118260645323517e+02
1.476324791454119711e-01 5.126117019037444607e+02
1.477325011502530483e-01 5.126116469021012563e+02
1.478325231550940977e-01 5.126116611136297934e+02
1.479325451599351748e-01 5.126117445897974676e+02
1.480325671647762520e-01 5.126118973795107649e+02
1.481325891696173014e-01 5.126121195291136701e+02
1.482326111744583785e-01 5.126124110823827777e+02
1.483326331792994279e-01 5.126127720805296804e+02
1.484326551841405051e-01 5.126132025621975572e+02
1.485326771889815545e-01 5.126137025634579913e+02
1.486326991938226316e-01 5.126142721178123338e+02
1.487327211986637088e-01 5.126149112561879519e+02
1.488327432035047582e-01 5.126156200069382294e+02
1.489327652083458353e-01 5.126163983958407471e+02
1.490327872131868847e-01 5.126172464460968285e+02
1.491328092180279619e-01 5.126181641783294936e+02
1.492328312228690113e-01 5.126191516105831170e+02
1.493328532277100884e-01 5.126202087583229741e+02
1.494328752325511656e-01 5.126213356344345584e+02
1.495328972373922150e-01 5.126225322492218766e+02
1.496329192422332921e-01 5.126237986104063111e+02
1.497329412470743415e-01 5.126251347231305999e+02
1.498329632519154186e-01 5.126265405899521284e+02
1.499329852567564680e-01 5.126280162108474769e+02
1.500330072615975452e-01 5.126295615832100339e+02
1.501330292664385946e-01 5.126311767018506771e+02
1.502330512712796717e-01 5.126328615589975470e+02
1.503330732761207489e-01 5.126346161442962739e+02
1.504330952809617983e-01 5.126364404448098639e+02
1.505331172858028754e-01 5.126383344450205186e+02
1.506331392906439248e-01 5.126402981268266785e+02
1.507331612954850020e-01 5.126423314695475710e+02
1.508331833003260514e-01 5.126444344499209365e+02
1.509332053051671285e-01 5.126466070421053018e+02
1.510332273100082057e-01 5.126488492176799809e+02
1.511332493148492551e-01 5.126511609456458700e+02
1.512332713196903322e-01 5.126535421924265847e+02
1.513332933245313816e-01 5.126559929218708476e+02
1.514333153293724588e-01 5.126585130952506688e+02
1.515333373342135082e-01 5.126611026712655530e+02
1.516333593390545853e-01 5.126637616060429536e+02
1.517333813438956625e-01 5.126664898531388417e+02
1.518334033487367118e-01 5.126692873635402066e+02
1.519334253535777890e-01 5.126721540856664205e+02
1.520334473584188384e-01 5.126750899653708302e+02
1.521334693632598878e-01 5.126780949459425756e+02
1.522334913681009649e-01 5.126811689681094322e+02
1.523335133729420421e-01 5.126843119700381521e+02
1.524335353777831192e-01 5.126875238873382159e+02
1.525335573826241686e-01 5.126908046530626279e+02
1.526335793874652458e-01 5.126941541977117822e+02
1.527336013923062952e-01 5.126975724492342579e+02
1.528336233971473446e-01 5.127010593330312531e+02
1.529336454019884217e-01 5.127046147719564715e+02
1.530336674068294989e-01 5.127082386863207830e+02
1.531336894116705483e-01 5.127119309938956349e+02
1.532337114165116254e-01 5.127156916099135060e+02
1.533337334213527026e-01 5.127195204470735916e+02
1.534337554261937520e-01 5.127234174155416895e+02
1.535337774310348014e-01 5.127273824229561114e+02
1.536337994358758785e-01 5.127314153744309806e+02
1.537338214407169557e-01 5.127355161725565722e+02
1.538338434455580050e-01 5.127396847174068171e+02
1.539338654503990822e-01 5.127439209065389605e+02
1.540338874552401593e-01 5.127482246349994739e+02
1.541339094600812087e-01 5.127525957953279203e+02
1.542339314649222581e-01 5.127570342775601375e+02
1.543339534697633353e-01 5.127615399692303981e+02
1.544339754746044124e-01 5.127661127553794813e+02
1.545339974794454618e-01 5.127707525185546729e+02
1.546340194842865390e-01 5.127754591388167000e+02
1.547340414891276161e-01 5.127802324937420053e+02
1.548340634939686655e-01 5.127850724584286581e+02
1.549340854988097149e-01 5.127899789054998791e+02
1.550341075036507921e-01 5.127949517051090425e+02
1.551341295084918692e-01 5.127999907249438820e+02
1.552341515133329186e-01 5.128050958302319486e+02
1.553341735181739958e-01 5.128102668837450437e+02
1.554341955230150729e-01 5.128155037458028573e+02
1.555342175278561223e-01 5.128208062742808124e+02
1.556342395326971717e-01 5.128261743246122251e+02
1.557342615375382489e-01 5.128316077497945571e+02
1.558342835423792982e-01 5.128371064003964648e+02
1.559343055472203754e-01 5.128426701245598451e+02
1.560343275520614525e-01 5.128482987680076803e+02
1.561343495569025297e-01 5.128539921740486989e+02
1.562343715617435791e-01 5.128597501835835146e+02
1.563343935665846285e-01 5.128655726351091744e+02
1.564344155714256779e-01 5.128714593647266611e+02
1.565344375762667550e-01 5.128774102061454414e+02
1.566344595811078322e-01 5.128834249906899458e+02
1.567344815859489093e-01 5.128895035473053667e+02
1.568345035907899865e-01 5.128956457025641384e+02
1.569345255956310359e-01 5.129018512806724175e+02
1.570345476004720853e-01 5.129081201034756532e+02
1.571345696053131347e-01 5.129144519904650679e+02
1.572345916101542118e-01 5.129208467587853875e+02
1.573346136149952890e-01 5.129273042232392754e+02
1.574346356198363661e-01 5.129338241962964275e+02
1.575346576246774433e-01 5.129404064880982332e+02
1.576346796295184927e-01 5.129470509064663020e+02
1.577347016343595421e-01 5.129537572569083750e+02
1.578347236392005914e-01 5.129605253426241234e+02
1.579347456440416686e-01 5.129673549645166304e+02
1.580347676488827457e-01 5.129742459211948926e+02
1.581347896537238229e-01 5.129811980089818917e+02
1.582348116585649000e-01 5.129882110219255082e+02
1.583348336634059217e-01 5.129952847518006820e+02
1.584348556682469988e-01 5.130024189881213488e+02
1.585348776730880482e-01 5.130096135181455566e+02
1.586348996779291254e-01 5.130168681268844466e+02
1.587349216827702025e-01 5.130241825971080516e+02
1.588349436876112797e-01 5.130315567093568916e+02
1.589349656924523568e-01 5.130389902419454984e+02
1.590349876972933785e-01 5.130464829709740116e+02
1.591350097021344556e-01 5.130540346703342038e+02
1.592350317069755050e-01 5.130616451117174392e+02
1.593350537118165822e-01 5.130693140646243364e+02
1.594350757166576593e-01 5.130770412963736362e+02
1.595350977214987365e-01 5.130848265721077723e+02
1.596351197263398136e-01 5.130926696548040127e+02
1.597351417311808353e-01 5.131005703052818490e+02
1.598351637360219124e-01 5.131085282822125464e+02
1.599351857408629618e-01 5.131165433421253965e+02
1.600352077457040390e-01 5.131246152394210185e+02
1.601352297505451161e-01 5.131327437263757929e+02
1.602352517553861933e-01 5.131409285531532305e+02
1.603352737602272149e-01 5.131491694678128397e+02
1.604352957650682920e-01 5.131574662163177436e+02
1.605353177699093692e-01 5.131658185425465035e+02
1.606353397747504186e-01 5.131742261883002811e+02
1.607353617795914957e-01 5.131826888933126156e+02
1.608353837844325729e-01 5.131912063952592007e+02
1.609354057892736500e-01 5.131997784297672069e+02
1.610354277941146717e-01 5.132084047304257410e+02
1.611354497989557488e-01 5.132170850287939174e+02
1.612354718037968260e-01 5.132258190544110903e+02
1.613354938086378754e-01 5.132346065348078810e+02
1.614355158134789525e-01 5.132434471955152731e+02
1.615355378183200297e-01 5.132523407600725704e+02
1.616355598231611068e-01 5.132612869500411534e+02
1.617355818280021285e-01 5.132702854850127778e+02
1.618356038328432056e-01 5.132793360826182152e+02
1.619356258376842828e-01 5.132884384585404405e+02
1.620356478425253322e-01 5.132975923265224765e+02
1.621356698473664093e-01 5.133067973983793308e+02
1.622356918522074865e-01 5.133160533840085691e+02
1.623357138570485636e-01 5.133253599913981589e+02
1.624357358618895852e-01 5.133347169266415904e+02
1.625357578667306624e-01 5.133441238939437881e+02
1.626357798715717395e-01 5.133535805956360036e+02
1.627358018764127889e-01 5.133630867321838878e+02
1.628358238812538661e-01 5.133726420021987451e+02
1.629358458860949432e-01 5.133822461024501536e+02
1.630358678909359926e-01 5.133918987278744908e+02
1.631358898957770420e-01 5.134015995715881218e+02
1.632359119006181192e-01 5.134113483248984267e+02
1.633359339054591963e-01 5.134211446773117586e+02
1.634359559103002457e-01 5.134309883165502697e+02
1.635359779151413229e-01 5.134408789285586181e+02
1.636359999199824000e-01 5.134508161975171561e+02
1.637360219248234494e-01 5.134607998058532985e+02
1.638360439296644988e-01 5.134708294342532326e+02
1.639360659345055760e-01 5.134809047616737416e+02
1.640360879393466531e-01 5.134910254653520951e+02
1.641361099441877025e-01 5.135011912208209424e+02
1.642361319490287797e-01 5.135114017019159292e+02
1.643361539538698568e-01 5.135216565807924098e+02
1.644361759587109062e-01 5.135319555279327233e+02
1.645361979635519556e-01 5.135422982121622226e+02
1.646362199683930327e-01 5.135526843006575746e+02
1.647362419732341099e-01 5.135631134589621070e+02
1.648362639780751593e-01 5.135735853509947901e+02
1.649362859829162364e-01 5.135840996390662667e+02
1.650363079877572858e-01 5.135946559838870371e+02
1.651363299925983630e-01 5.136052540445833756e+02
1.652363519974394124e-01 5.136158934787071075e+02
1.653363740022804895e-01 5.136265739422501611e+02
1.654363960071215667e-01 5.136372950896538896e+02
1.655364180119626161e-01 5.136480565738263522e+02
1.656364400168036932e-01 5.136588580461494757e+02
1.657364620216447426e-01 5.136696991564974724e+02
1.658364840264858198e-01 5.136805795532442289e+02
1.659365060313268692e-01 5.136914988832795643e+02
1.660365280361679463e-01 5.137024567920215077e+02
1.661365500410090235e-01 5.137134529234265301e+02
1.662365720458500729e-01 5.137244869200078483e+02
1.663365940506911500e-01 5.137355584228416774e+02
1.664366160555321994e-01 5.137466670715870123e+02
1.665366380603732765e-01 5.137578125044926765e+02
1.666366600652143259e-01 5.137689943584160801e+02
1.667366820700554031e-01 5.137802122688307236e+02
1.668367040748964802e-01 5.137914658698442736e+02
1.669367260797375296e-01 5.138027547942093634e+02
1.670367480845785790e-01 5.138140786733378036e+02
1.671367700894196562e-01 5.138254371373132017e+02
1.672367920942607333e-01 5.138368298149057409e+02
1.673368140991017827e-01 5.138482563335833220e+02
1.674368361039428599e-01 5.138597163195279336e+02
1.675368581087839370e-01 5.138712093976475899e+02
1.676368801136249864e-01 5.138827351915891768e+02
1.677369021184660358e-01 5.138942933237557327e+02
1.678369241233071130e-01 5.139058834153149746e+02
1.679369461281481901e-01 5.139175050862177159e+02
1.680369681329892395e-01 5.139291579552083249e+02
1.681369901378303167e-01 5.139408416398405279e+02
1.682370121426713938e-01 5.139525557564907103e+02
1.683370341475124432e-01 5.139642999203728095e+02
1.684370561523534926e-01 5.139760737455497974e+02
1.685370781571945697e-01 5.139878768449499375e+02
1.686371001620356469e-01 5.139997088303806549e+02
1.687371221668766963e-01 5.140115693125416101e+02
1.688371441717177734e-01 5.140234579010395919e+02
1.689371661765588506e-01 5.140353742044025012e+02
1.690371881813998722e-01 5.140473178300941299e+02
1.691372101862409494e-01 5.140592883845268943e+02
1.692372321910820265e-01 5.140712854730780919e+02
1.693372541959231037e-01 5.140833087001021795e+02
1.694372762007641531e-01 5.140953576689473721e+02
1.695372982056052302e-01 5.141074319819686025e+02
1.696373202104463074e-01 5.141195312405416189e+02
1.697373422152873290e-01 5.141316550450790146e+02
1.698373642201284062e-01 5.141438029950436430e+02
1.699373862249694833e-01 5.141559746889627149e+02
1.700374082298105605e-01 5.141681697244436009e+02
1.701374302346516099e-01 5.141803876981887242e+02
1.702374522394926870e-01 5.141926282060074982e+02
1.703374742443337642e-01 5.142048908428338336e+02
1.704374962491747858e-01 5.142171752027403500e+02
1.705375182540158630e-01 5.142294808789524723e+02
1.706375402588569401e-01 5.142418074638627559e+02
1.707375622636980173e-01 5.142541545490461203e+02
1.708375842685390666e-01 5.142665217252764478e+02
1.709376062733801438e-01 5.142789085825379516e+02
1.710376282782212209e-01 5.142913147100439346e+02
1.711376502830622426e-01 5.143037396962474759e+02
1.712376722879033197e-01 5.143161831288607573e+02
1.713376942927443969e-01 5.143286445948665460e+02
1.714377162975854740e-01 5.143411236805345652e+02
1.715377383024265234e-01 5.143536199714379791e+02
1.716377603072676006e-01 5.143661330524653295e+02
1.717377823121086222e-01 5.143786625078371344e+02
1.718378043169496994e-01 5.143912079211224864e+02
1.719378263217907765e-01 5.144037688752515578e+02
1.720378483266318537e-01 5.144163449525323131e+02
1.721378703314729308e-01 5.144289357346652878e+02
1.722378923363139802e-01 5.144415408027582544e+02
1.723379143411550574e-01 5.144541597373429340e+02
1.724379363459960790e-01 5.144667921183877297e+02
1.725379583508371562e-01 5.144794375253159160e+02
1.726379803556782333e-01 5.144920955370184856e+02
1.727380023605193105e-01 5.145047657318702932e+02
1.728380243653603876e-01 5.145174476877454026e+02
1.729380463702014370e-01 5.145301409820331173e+02
1.730380683750425141e-01 5.145428451916516224e+02
1.731380903798835358e-01 5.145555598930645829e+02
1.732381123847246129e-01 5.145682846622968327e+02
1.733381343895656901e-01 5.145810190749477897e+02
1.734381563944067672e-01 5.145937627062086221e+02
1.735381783992478444e-01 5.146065151308783925e+02
1.736382004040888938e-01 5.146192759233759944e+02
1.737382224089299432e-01 5.146320446577600478e+02
1.738382444137709926e-01 5.146448209077402680e+02
1.739382664186120697e-01 5.146576042466962235e+02
1.740382884234531469e-01 5.146703942476900693e+02
1.741383104282942240e-01 5.146831904834843954e+02
1.742383324331353012e-01 5.146959925265565516e+02
1.743383544379763506e-01 5.147087999491122901e+02
1.744383764428174000e-01 5.147216123231052052e+02
1.745383984476584494e-01 5.147344292202496945e+02
1.746384204524995265e-01 5.147472502120366471e+02
1.747384424573406037e-01 5.147600748697495874e+02
1.748384644621816808e-01 5.147729027644791131e+02
1.749384864670227580e-01 5.147857334671393801e+02
1.750385084718638073e-01 5.147985665484852689e+02
1.751385304767048567e-01 5.148114015791227303e+02
1.752385524815459061e-01 5.148242381295309542e+02
1.753385744863869833e-01 5.148370757700726017e+02
1.754385964912280604e-01 5.148499140710122219e+02
1.755386184960691376e-01 5.148627526025311454e+02
1.756386405009102147e-01 5.148755909347422630e+02
1.757386625057512364e-01 5.148884286377061699e+02
1.758386845105923135e-01 5.149012652814476496e+02
1.759387065154333629e-01 5.149141004359694307e+02
1.760387285202744401e-01 5.149269336712691256e+02
1.761387505251155172e-01 5.149397645573541240e+02
1.762387725299565944e-01 5.149525926642577360e+02
1.763387945347976715e-01 5.149654175620530623e+02
1.764388165396386932e-01 5.149782388208712973e+02
1.765388385444797703e-01 5.149910560109152584e+02
1.766388605493208197e-01 5.150038687024753017e+02
1.767388825541618969e-01 5.150166764659434193e+02
1.768389045590029740e-01 5.150294788718341579e+02
1.769389265638440512e-01 5.150422754907928038e+02
1.770389485686851283e-01 5.150550658936164155e+02
1.771389705735261499e-01 5.150678496512655329e+02
1.772389925783672271e-01 5.150806263348831635e+02
1.773390145832082765e-01 5.150933955158079698e+02
1.774390365880493536e-01 5.151061567655900717e+02
1.775390585928904308e-01 5.151189096560075313e+02
1.776390805977315079e-01 5.151316537590793132e+02
1.777391026025725296e-01 5.151443886470854068e+02
1.778391246074136067e-01 5.151571138925768309e+02
1.779391466122546839e-01 5.151698290683945061e+02
1.780391686170957333e-01 5.151825337476848290e+02
1.781391906219368104e-01 5.151952275039117239e+02
1.782392126267778876e-01 5.152079099108765377e+02
1.783392346316189647e-01 5.152205805427292944e+02
1.784392566364599864e-01 5.152332389739877954e+02
1.785392786413010635e-01 5.152458847795501242e+02
1.786393006461421407e-01 5.152585175347113591e+02
1.787393226509831901e-01 5.152711368151778970e+02
1.788393446558242672e-01 5.152837421970841660e+02
1.789393666606653444e-01 5.152963332570067223e+02
1.790393886655064215e-01 5.153089095719801662e+02
1.791394106703474431e-01 5.153214707195116944e+02
1.792394326751885203e-01 5.153340162775966746e+02
1.793394546800295974e-01 5.153465458247354718e+02
1.794394766848706468e-01 5.153590589399441342e+02
1.795394986897117240e-01 5.153715552027757667e+02
1.796395206945528011e-01 5.153840341933304217e+02
1.797395426993938783e-01 5.153964954922731749e+02
1.798395647042348999e-01 5.154089386808473137e+02
1.799395867090759771e-01 5.154213633408908208e+02
1.800396087139170542e-01 5.154337690548519504e+02
1.801396307187581036e-01 5.154461554058012780e+02
1.802396527235991808e-01 5.154585219774513689e+02
1.803396747284402579e-01 5.154708683541663277e+02
1.804396967332813073e-01 5.154831941209808974e+02
1.805397187381223567e-01 5.154954988636150119e+02
1.806397407429634339e-01 5.155077821684853916e+02
1.807397627478045110e-01 5.155200436227243017e+02
1.808397847526455604e-01 5.155322828141922855e+02
1.809398067574866376e-01 5.155444993314940803e+02
1.810398287623277147e-01 5.155566927639918049e+02
1.811398507671687641e-01 5.155688627018217858e+02
1.812398727720098135e-01 5.155810087359075169e+02
1.813398947768508906e-01 5.155931304579751213e+02
1.814399167816919678e-01 5.156052274605688126e+02
1.815399387865330172e-01 5.156172993370627182e+02
1.816399607913740943e-01 5.156293456816797516e+02
1.817399827962151715e-01 5.156413660895020712e+02
1.818400048010562209e-01 5.156533601564891569e+02
1.819400268058972703e-01 5.156653274794884965e+02
1.820400488107383474e-01 5.156772676562538891e+02
1.821400708155794246e-01 5.156891802854567004e+02
1.822400928204204740e-01 5.157010649667023472e+02
1.823401148252615511e-01 5.157129213005446218e+02
1.824401368301026005e-01 5.157247488884975155e+02
1.825401588349436777e-01 5.157365473330528403e+02
1.826401808397847271e-01 5.157483162376927339e+02
1.827402028446258042e-01 5.157600552069037576e+02
1.828402248494668814e-01 5.157717638461911065e+02
1.829402468543079308e-01 5.157834417620937302e+02
1.830402688591490079e-01 5.157950885621974066e+02
1.831402908639900573e-01 5.158067038551492942e+02
1.832403128688311345e-01 5.158182872506711192e+02
1.833403348736721838e-01 5.158298383595746373e+02
1.834403568785132610e-01 5.158413567937734570e+02
1.835403788833543381e-01 5.158528421662997516e+02
1.836404008881953875e-01 5.158642940913159691e+02
1.837404228930364647e-01 5.158757121841279059e+02
1.838404448978775141e-01 5.158870960612011913e+02
1.839404669027185912e-01 5.158984453401729979e+02
1.840404889075596406e-01 5.159097596398660244e+02
1.841405109124007178e-01 5.159210385803028203e+02
1.842405329172417949e-01 5.159322817827184053e+02
1.843405549220828443e-01 5.159434888695745940e+02
1.844405769269238937e-01 5.159546594645723872e+02
1.845405989317649709e-01 5.159657931926666379e+02
1.846406209366060480e-01 5.159768896800792390e+02
1.847406429414470974e-01 5.159879485543114015e+02
1.848406649462881746e-01 5.159989694441587744e+02
1.849406869511292517e-01 5.160099519797216772e+02
1.850407089559703011e-01 5.160208957924226070e+02
1.851407309608113505e-01 5.160318005150143108e+02
1.852407529656524277e-01 5.160426657815979752e+02
1.853407749704935048e-01 5.160534912276326622e+02
1.854407969753345542e-01 5.160642764899484973e+02
1.855408189801756313e-01 5.160750212067629263e+02
1.856408409850167085e-01 5.160857250176881053e+02
1.857408629898577579e-01 5.160963875637498859e+02
1.858408849946988073e-01 5.161070084873950918e+02
1.859409069995398844e-01 5.161175874325078894e+02
1.860409290043809616e-01 5.161281240444212699e+02
1.861409510092220110e-01 5.161386179699280774e+02
1.862409730140630881e-01 5.161490688572970384e+02
1.863409950189041653e-01 5.161594763562821981e+02
1.864410170237451869e-01 5.161698401181364488e+02
1.865410390285862641e-01 5.161801597956248315e+02
1.866410610334273412e-01 5.161904350430343129e+02
1.867410830382684184e-01 5.162006655161890194e+02
1.868411050431094678e-01 5.162108508724603553e+02
1.869411270479505449e-01 5.162209907707792809e+02
1.870411490527916221e-01 5.162310848716508644e+02
1.871411710576326437e-01 5.162411328371638319e+02
1.872411930624737209e-01 5.162511343310011398e+02
1.873412150673147980e-01 5.162610890184562322e+02
1.874412370721558752e-01 5.162709965664417950e+02
1.875412590769969245e-01 5.162808566435021476e+02
1.876412810818380017e-01 5.162906689198248387e+02
1.877413030866790788e-01 5.163004330672531523e+02
1.878413250915201005e-01 5.163101487592969079e+02
1.879413470963611776e-01 5.163198156711432603e+02
1.880413691012022548e-01 5.163294334796719340e+02
1.881413911060433319e-01 5.163390018634602256e+02
1.882414131108843813e-01 5.163485205027999427e+02
1.883414351157254585e-01 5.163579890797069538e+02
1.884414571205665356e-01 5.163674072779305106e+02
1.885414791254075573e-01 5.163767747829680275e+02
1.886415011302486344e-01 5.163860912820731528e+02
1.887415231350897116e-01 5.163953564642669107e+02
1.888415451399307887e-01 5.164045700203513434e+02
1.889415671447718381e-01 5.164137316429167868e+02
1.890415891496129153e-01 5.164228410263558544e+02
1.891416111544539369e-01 5.164318978668720774e+02
1.892416331592950141e-01 5.164409018624916143e+02
1.893416551641360912e-01 5.164498527130731418e+02
1.894416771689771684e-01 5.164587501203192232e+02
1.895416991738182455e-01 5.164675937877864271e+02
1.896417211786592949e-01 5.164763834208953313e+02
1.897417431835003720e-01 5.164851187269412094e+02
1.898417651883413937e-01 5.164937994151041494e+02
1.899417871931824708e-01 5.165024251964595123e+02
1.900418091980235480e-01 5.165109957839883918e+02
1.901418312028646251e-01 5.165195108925867089e+02
1.902418532077057023e-01 5.165279702390755574e+02
1.903418752125467517e-01 5.165363735422104128e+02
1.904418972173878288e-01 5.165447205226939786e+02
1.905419192222288505e-01 5.165530109031815300e+02
1.906419412270699276e-01 5.165612444082933052e+02
1.907419632319110048e-01 5.165694207646247378e+02
1.908419852367520819e-01 5.165775397007529364e+02
1.909420072415931591e-01 5.165856009472494179e+02
1.910420292464342085e-01 5.165936042366882930e+02
1.911420512512752579e-01 5.166015493036537691e+02
1.912420732561163073e-01 5.166094358847527701e+02
1.913420952609573844e-01 5.166172637186210750e+02
1.914421172657984616e-01 5.166250325459343458e+02
1.915421392706395387e-01 5.166327421094169949e+02
1.916421612754806159e-01 5.166403921538486657e+02
1.917421832803216653e-01 5.166479824260766236e+02
1.918422052851627146e-01 5.166555126750226918e+02
1.919422272900037640e-01 5.166629826516915500e+02
1.920422492948448412e-01 5.166703921091807388e+02
1.921422712996859183e-01 5.166777408026874809e+02
1.922422933045269955e-01 5.166850284895186860e+02
1.923423153093680726e-01 5.166922549290986808e+02
1.924423373142091220e-01 5.166994198829767129e+02
1.925423593190501714e-01 5.167065231148374096e+02
1.926423813238912208e-01 5.167135643905065763e+02
1.927424033287322980e-01 5.167205434779602911e+02
1.928424253335733751e-01 5.167274601473341136e+02
1.929424473384144523e-01 5.167343141709268366e+02
1.930424693432555294e-01 5.167411053232135600e+02
1.931424913480965511e-01 5.167478333808505795e+02
1.932425133529376282e-01 5.167544981226825485e+02
1.933425353577786776e-01 5.167610993297516870e+02
1.934425573626197548e-01 5.167676367853047168e+02
1.935425793674608319e-01 5.167741102748000230e+02
1.936426013723019091e-01 5.167805195859148171e+02
1.937426233771429862e-01 5.167868645085526396e+02
1.938426453819840078e-01 5.167931448348499543e+02
1.939426673868250850e-01 5.167993603591862666e+02
1.940426893916661344e-01 5.168055108781857143e+02
1.941427113965072115e-01 5.168115961907283236e+02
1.942427334013482887e-01 5.168176160979559199e+02
1.943427554061893658e-01 5.168235704032765625e+02
1.944427774110304430e-01 5.168294589123747755e+02
1.945427994158714646e-01 5.168352814332160960e+02
1.946428214207125418e-01 5.168410377760535539e+02
1.947428434255535912e-01 5.168467277534340383e+02
1.948428654303946683e-01 5.168523511802056873e+02
1.949428874352357455e-01 5.168579078735226631e+02
1.950429094400768226e-01 5.168633976528523135e+02
1.951429314449178443e-01 5.168688203399814256e+02
1.952429534497589214e-01 5.168741757590208863e+02
1.953429754545999986e-01 5.168794637364130722e+02
1.954429974594410480e-01 5.168846841009367381e+02
1.955430194642821251e-01 5.168898366837122467e+02
1.956430414691232023e-01 5.168949213182090716e+02
1.957430634739642794e-01 5.168999378402497769e+02
1.958430854788053010e-01 5.169048860880158145e+02
1.959431074836463782e-01 5.169097659020520723e+02
1.960431294884874553e-01 5.169145771252756276e+02
1.961431514933285047e-01 5.169193196029747241e+02
1.962431734981695819e-01 5.169239931828203680e+02
1.963431955030106590e-01 5.169285977148673510e+02
1.964432175078517362e-01 5.169331330515600484e+02
1.965432395126927578e-01 5.169375990477382175e+02
1.966432615175338350e-01 5.169419955606400663e+02
1.967432835223749121e-01 5.169463224499089620e+02
1.968433055272159615e-01 5.169505795775955903e+02
1.969433275320570387e-01 5.169547668081640950e+02
1.970433495368981158e-01 5.169588840084982166e+02
1.971433715417391930e-01 5.169629310479001560e+02
1.972433935465802146e-01 5.169669077981003511e+02
1.973434155514212918e-01 5.169708141332575906e+02
1.974434375562623689e-01 5.169746499299677680e+02
1.975434595611034183e-01 5.169784150672610394e+02
1.976434815659444955e-01 5.169821094266120554e+02
1.977435035707855726e-01 5.169857328919407564e+02
1.978435255756266220e-01 5.169892853496160114e+02
1.979435475804676714e-01 5.169927666884594828e+02
1.980435695853087485e-01 5.169961767997501738e+02
1.981435915901498257e-01 5.169995155772249973e+02
1.982436135949908751e-01 5.170027829170862788e+02
1.983436355998319522e-01 5.170059787180018702e+02
1.984436576046730294e-01 5.170091028811077649e+02
1.985436796095140788e-01 5.170121553100137817e+02
1.986437016143551282e-01 5.170151359108049292e+02
1.987437236191962053e-01 5.170180445920447028e+02
1.988437456240372825e-01 5.170208812647769037e+02
1.989437676288783319e-01 5.170236458425295041e+02
1.990437896337194090e-01 5.170263382413165800e+02
1.991438116385604862e-01 5.170289583796411534e+02
1.992438336434015356e-01 5.170315061784971249e+02
1.993438556482425850e-01 5.170339815613712062e+02
1.994438776530836621e-01 5.170363844542473544e+02
1.995438996579247393e-01 5.170387147856058618e+02
1.996439216627657887e-01 5.170409724864273358e+02
1.997439436676068658e-01 5.170431574901944032e+02
1.998439656724479152e-01 5.170452697328917111e+02
1.999439876772889924e-01 5.170473091530108150e+02
2.000440096821300417e-01 5.170492756915499513e+02
2.001440316869711189e-01 5.170511692920148334e+02
2.002440536918121960e-01 5.170529899004220624e+02
2.003440756966532454e-01 5.170547374652987855e+02
2.004440977014943226e-01 5.170564119376854251e+02
2.005441197063353720e-01 5.170580132711363603e+02
2.006441417111764491e-01 5.170595414217198140e+02
2.007441637160174985e-01 5.170609963480208080e+02
2.008441857208585757e-01 5.170623780111404812e+02
2.009442077256996528e-01 5.170636863746988183e+02
2.010442297305407022e-01 5.170649214048320346e+02
2.011442517353817794e-01 5.170660830701974646e+02
2.012442737402228288e-01 5.170671713419710613e+02
2.013442957450639059e-01 5.170681861938479642e+02
2.014443177499049553e-01 5.170691276020453415e+02
2.015443397547460325e-01 5.170699955452992072e+02
2.016443617595871096e-01 5.170707900048670353e+02
2.017443837644281590e-01 5.170715109645274197e+02
2.018444057692692084e-01 5.170721584105799593e+02
2.019444277741102856e-01 5.170727323318440085e+02
2.020444497789513627e-01 5.170732327196596998e+02
2.021444717837924121e-01 5.170736595678879439e+02
2.022444937886334893e-01 5.170740128729100888e+02
2.023445157934745664e-01 5.170742926336238270e+02
2.024445377983156158e-01 5.170744988514489933e+02
2.025445598031566652e-01 5.170746315303224492e+02
2.026445818079977423e-01 5.170746906766979691e+02
2.027446038128388195e-01 5.170746762995456720e+02
2.028446258176798689e-01 5.170745884103520211e+02
2.029446478225209460e-01 5.170744270231172095e+02
2.030446698273620232e-01 5.170741921543564104e+02
2.031446918322030726e-01 5.170738838230952297e+02
2.032447138370441220e-01 5.170735020508708430e+02
2.033447358418851991e-01 5.170730468617301767e+02
2.034447578467262763e-01 5.170725182822277475e+02
2.035447798515673257e-01 5.170719163414250943e+02
2.036448018564084028e-01 5.170712410708883908e+02
2.037448238612494800e-01 5.170704925046862854e+02
2.038448458660905016e-01 5.170696706793887643e+02
2.039448678709315788e-01 5.170687756340653323e+02
2.040448898757726559e-01 5.170678074102825121e+02
2.041449118806137331e-01 5.170667660521021389e+02
2.042449338854547825e-01 5.170656516060778358e+02
2.043449558902958596e-01 5.170644641212550141e+02
2.044449778951369368e-01 5.170632036491660983e+02
2.045449998999779584e-01 5.170618702438302989e+02
2.046450219048190355e-01 5.170604639617492921e+02
2.047450439096601127e-01 5.170589848619040367e+02
2.048450659145011898e-01 5.170574330057545467e+02
2.049450879193422392e-01 5.170558084572353437e+02
2.050451099241833164e-01 5.170541112827523875e+02
2.051451319290243935e-01 5.170523415511804615e+02
2.052451539338654152e-01 5.170504993338599888e+02
2.053451759387064923e-01 5.170485847045927130e+02
2.054451979435475695e-01 5.170465977396421522e+02
2.055452199483886466e-01 5.170445385177256412e+02
2.056452419532296960e-01 5.170424071200127401e+02
2.057452639580707732e-01 5.170402036301220505e+02
2.058452859629118503e-01 5.170379281341173510e+02
2.059453079677528720e-01 5.170355807205029350e+02
2.060453299725939491e-01 5.170331614802216791e+02
2.061453519774350263e-01 5.170306705066492441e+02
2.062453739822761034e-01 5.170281078955907788e+02
2.063453959871171528e-01 5.170254737452770541e+02
2.064454179919582300e-01 5.170227681563593478e+02
2.065454399967992516e-01 5.170199912319072837e+02
2.066454620016403287e-01 5.170171430774015562e+02
2.067454840064814059e-01 5.170142238007319975e+02
2.068455060113224830e-01 5.170112335121907563e+02
2.069455280161635602e-01 5.170081723244702516e+02
2.070455500210046096e-01 5.170050403526565788e+02
2.071455720258456867e-01 5.170018377142253030e+02
2.072455940306867084e-01 5.169985645290360026e+02
2.073456160355277855e-01 5.169952209193291992e+02
2.074456380403688627e-01 5.169918070097182863e+02
2.075456600452099398e-01 5.169883229271866867e+02
2.076456820500510170e-01 5.169847688010823958e+02
2.077457040548920664e-01 5.169811447631118426e+02
2.078457260597331435e-01 5.169774509473345461e+02
2.079457480645741652e-01 5.169736874901587953e+02
2.080457700694152423e-01 5.169698545303340325e+02
2.081457920742563195e-01 5.169659522089475558e+02
2.082458140790973966e-01 5.169619806694172439e+02
2.083458360839384738e-01 5.169579400574858710e+02
2.084458580887795232e-01 5.169538305212156502e+02
2.085458800936205725e-01 5.169496522109822081e+02
2.086459020984616219e-01 5.169454052794682184e+02
2.087459241033026991e-01 5.169410898816568078e+02
2.088459461081437762e-01 5.169367061748274637e+02
2.089459681129848534e-01 5.169322543185463701e+02
2.090459901178259305e-01 5.169277344746631115e+02
2.091460121226669799e-01 5.169231468073020324e+02
2.092460341275080293e-01 5.169184914828564388e+02
2.093460561323490787e-01 5.169137686699829146e+02
2.094460781371901559e-01 5.169089785395930221e+02
2.095461001420312330e-01 5.169041212648471628e+02
2.096461221468723102e-01 5.168991970211477565e+02
2.097461441517133873e-01 5.168942059861325333e+02
2.098461661565544367e-01 5.168891483396666899e+02
2.099461881613954861e-01 5.168840242638365226e+02
2.100462101662365355e-01 5.168788339429414691e+02
2.101462321710776127e-01 5.168735775634881975e+02
2.102462541759186898e-01 5.168682553141816243e+02
2.103462761807597670e-01 5.168628673859179798e+02
2.104462981856008441e-01 5.168574139717778735e+02
2.105463201904418657e-01 5.168518952670184490e+02
2.106463421952829429e-01 5.168463114690648581e+02
2.107463642001239923e-01 5.168406627775045763e+02
2.108463862049650694e-01 5.168349493940756929e+02
2.109464082098061466e-01 5.168291715226650922e+02
2.110464302146472237e-01 5.168233293692931056e+02
2.111464522194883009e-01 5.168174231421114655e+02
2.112464742243293225e-01 5.168114530513929594e+02
2.113464962291703997e-01 5.168054193095218807e+02
2.114465182340114491e-01 5.167993221309882301e+02
2.115465402388525262e-01 5.167931617323777118e+02
2.116465622436936034e-01 5.167869383323636612e+02
2.117465842485346805e-01 5.167806521516982912e+02
2.118466062533757577e-01 5.167743034132059847e+02
2.119466282582167793e-01 5.167678923417706756e+02
2.120466502630578565e-01 5.167614191643316417e+02
2.121466722678989059e-01 5.167548841098714547e+02
2.122466942727399830e-01 5.167482874094088174e+02
2.123467162775810602e-01 5.167416292959887869e+02
2.124467382824221373e-01 5.167349100046735657e+02
2.125467602872631590e-01 5.167281297725351124e+02
2.126467822921042361e-01 5.167212888386430905e+02
2.127468042969453133e-01 5.167143874440588434e+02
2.128468263017863626e-01 5.167074258318226612e+02
2.129468483066274398e-01 5.167004042469491196e+02
2.130468703114685169e-01 5.166933229364120734e+02
2.131468923163095941e-01 5.166861821491387445e+02
2.132469143211506157e-01 5.166789821359996040e+02
2.133469363259916929e-01 5.166717231497983676e+02
2.134469583308327700e-01 5.166644054452619912e+02
2.135469803356738194e-01 5.166570292790310077e+02
2.136470023405148966e-01 5.166495949096506592e+02
2.137470243453559737e-01 5.166421025975595285e+02
2.138470463501970509e-01 5.166345526050805574e+02
2.139470683550380725e-01 5.166269451964101336e+02
2.140470903598791497e-01 5.166192806376094495e+02
2.141471123647202268e-01 5.166115591965926797e+02
2.142471343695612762e-01 5.166037811431165210e+02
2.143471563744023534e-01 5.165959467487734855e+02
2.144471783792434305e-01 5.165880562869759842e+02
2.145472003840845077e-01 5.165801100329508699e+02
2.146472223889255293e-01 5.165721082637257950e+02
2.147472443937666065e-01 5.165640512581194344e+02
2.148472663986076836e-01 5.165559392967320491e+02
2.149472884034487330e-01 5.165477726619330952e+02
2.150473104082898101e-01 5.165395516378512184e+02
2.151473324131308873e-01 5.165312765103643642e+02
2.152473544179719367e-01 5.165229475670873853e+02
2.153473764228129861e-01 5.165145650973615830e+02
2.154473984276540632e-01 5.165061293922437926e+02
2.155474204324951404e-01 5.164976407444966071e+02
2.156474424373361898e-01 5.164890994485747342e+02
2.157474644421772669e-01 5.164805058006153331e+02
2.158474864470183441e-01 5.164718600984277828e+02
2.159475084518593935e-01 5.164631626414803804e+02
2.160475304567004429e-01 5.164544137308898826e+02
2.161475524615415200e-01 5.164456136694105908e+02
2.162475744663825972e-01 5.164367627614221874e+02
2.163475964712236466e-01 5.164278613129182531e+02
2.164476184760647237e-01 5.164189096314958078e+02
2.165476404809058009e-01 5.164099080263412134e+02
2.166476624857468503e-01 5.164008568082222155e+02
2.167476844905878997e-01 5.163917562894731645e+02
2.168477064954289768e-01 5.163826067839830785e+02
2.169477285002700540e-01 5.163734086071870024e+02
2.170477505051111033e-01 5.163641620760504338e+02
2.171477725099521805e-01 5.163548675090597726e+02
2.172477945147932299e-01 5.163455252262098156e+02
2.173478165196343070e-01 5.163361355489910238e+02
2.174478385244753564e-01 5.163266988003778124e+02
2.175478605293164336e-01 5.163172153048174096e+02
2.176478825341575107e-01 5.163076853882155319e+02
2.177479045389985601e-01 5.162981093779260391e+02
2.178479265438396373e-01 5.162884876027382006e+02
2.179479485486806867e-01 5.162788203928636221e+02
2.180479705535217638e-01 5.162691080799248766e+02
2.181479925583628132e-01 5.162593509969420893e+02
2.182480145632038904e-01 5.162495494783215690e+02
2.183480365680449675e-01 5.162397038598425070e+02
2.184480585728860169e-01 5.162298144786442435e+02
2.185480805777270941e-01 5.162198816732142177e+02
2.186481025825681435e-01 5.162099057833748930e+02
2.187481245874092206e-01 5.161998871502722750e+02
2.188481465922502700e-01 5.161898261163606776e+02
2.189481685970913472e-01 5.161797230253924909e+02
2.190481906019324243e-01 5.161695782224035156e+02
2.191482126067734737e-01 5.161593920537021631e+02
2.192482346116145231e-01 5.161491648668529706e+02
2.193482566164556002e-01 5.161388970106678471e+02
2.194482786212966774e-01 5.161285888351908397e+02
2.195483006261377268e-01 5.161182406916839227e+02
2.196483226309788039e-01 5.161078529326175612e+02
2.197483446358198811e-01 5.160974259116538860e+02
2.198483666406609305e-01 5.160869599836347561e+02
2.199483886455019799e-01 5.160764555045708448e+02
2.200484106503430570e-01 5.160659128316240185e+02
2.201484326551841342e-01 5.160553323230979004e+02
2.202484546600251836e-01 5.160447143384229776e+02
2.203484766648662607e-01 5.160340592381428451e+02
2.204484986697073379e-01 5.160233673839022686e+02
2.205485206745483873e-01 5.160126391384314957e+02
2.206485426793894367e-01 5.160018748655365926e+02
2.207485646842305138e-01 5.159910749300804582e+02
2.208485866890715910e-01 5.159802396979748664e+02
2.209486086939126404e-01 5.159693695361636401e+02
2.210486306987537175e-01 5.159584648126099182e+02
2.211486527035947947e-01 5.159475258962814905e+02
2.212486747084358163e-01 5.159365531571404517e+02
2.213486967132768934e-01 5.159255469661247844e+02
2.214487187181179706e-01 5.159145076951396049e+02
2.215487407229590477e-01 5.159034357170377234e+02
2.216487627278000971e-01 5.158923314056132767e+02
2.217487847326411743e-01 5.158811951355794463e+02
2.218488067374822514e-01 5.158700272825612956e+02
2.219488287423232731e-01 5.158588282230788309e+02
2.220488507471643502e-01 5.158475983345356326e+02
2.221488727520054274e-01 5.158363379951995285e+02
2.222488947568465045e-01 5.158250475841955449e+02
2.223489167616875539e-01 5.158137274814874900e+02
2.224489387665286311e-01 5.158023780678646517e+02
2.225489607713697082e-01 5.157909997249286107e+02
2.226489827762107299e-01 5.157795928350797112e+02
2.227490047810518070e-01 5.157681577815009177e+02
2.228490267858928842e-01 5.157566949481459915e+02
2.229490487907339613e-01 5.157452047197228922e+02
2.230490707955750107e-01 5.157336874816833188e+02
2.231490928004160879e-01 5.157221436202042923e+02
2.232491148052571650e-01 5.157105735221776968e+02
2.233491368100981866e-01 5.156989775751935667e+02
2.234491588149392638e-01 5.156873561675271276e+02
2.235491808197803409e-01 5.156757096881235611e+02
2.236492028246214181e-01 5.156640385265852728e+02
2.237492248294624675e-01 5.156523430731560893e+02
2.238492468343035446e-01 5.156406237187088664e+02
2.239492688391445663e-01 5.156288808547283224e+02
2.240492908439856434e-01 5.156171148732987604e+02
2.241493128488267206e-01 5.156053261670904249e+02
2.242493348536677977e-01 5.155935151293429044e+02
2.243493568585088749e-01 5.155816821538528529e+02
2.244493788633499243e-01 5.155698276349577327e+02
2.245494008681910014e-01 5.155579519675230813e+02
2.246494228730320231e-01 5.155460555469269366e+02
2.247494448778731002e-01 5.155341387690463080e+02
2.248494668827141774e-01 5.155222020302428518e+02
2.249494888875552545e-01 5.155102457273465006e+02
2.250495108923963317e-01 5.154982702576429574e+02
2.251495328972373811e-01 5.154862760188594848e+02
2.252495549020784582e-01 5.154742634091486480e+02
2.253495769069194798e-01 5.154622328270751268e+02
2.254495989117605570e-01 5.154501846716011642e+02
2.255496209166016341e-01 5.154381193420716727e+02
2.256496429214427113e-01 5.154260372381992283e+02
2.257496649262837884e-01 5.154139387600515647e+02
2.258496869311248378e-01 5.154018243080345201e+02
2.259497089359658872e-01 5.153896942828788497e+02
2.260497309408069366e-01 5.153775490856263559e+02
2.261497529456480138e-01 5.153653891176132902e+02
2.262497749504890909e-01 5.153532147804572787e+02
2.263497969553301681e-01 5.153410264760433392e+02
2.264498189601712452e-01 5.153288246065080784e+02
2.265498409650122946e-01 5.153166095742249126e+02
2.266498629698533440e-01 5.153043817817909940e+02
2.267498849746943934e-01 5.152921416320111803e+02
2.268499069795354706e-01 5.152798895278855298e+02
2.269499289843765477e-01 5.152676258725909975e+02
2.270499509892176249e-01 5.152553510694706347e+02
2.271499729940587020e-01 5.152430655220188100e+02
2.272499949988997514e-01 5.152307696338622236e+02
2.273500170037408008e-01 5.152184638087508119e+02
2.274500390085818502e-01 5.152061484505411499e+02
2.275500610134229273e-01 5.151938239631808756e+02
2.276500830182640045e-01 5.151814907506949339e+02
2.277501050231050816e-01 5.151691492171707978e+02
2.278501270279461588e-01 5.151567997667458485e+02
2.279501490327871804e-01 5.151444428035888450e+02
2.280501710376282576e-01 5.151320787318893508e+02
2.281501930424693070e-01 5.151197079558405676e+02
2.282502150473103841e-01 5.151073308796262609e+02
2.283502370521514613e-01 5.150949479074067767e+02
2.284502590569925384e-01 5.150825594433021024e+02
2.285502810618336156e-01 5.150701658913790197e+02
2.286503030666746372e-01 5.150577676556373490e+02
2.287503250715157144e-01 5.150453651399932369e+02
2.288503470763567638e-01 5.150329587482673332e+02
2.289503690811978409e-01 5.150205488841686474e+02
2.290503910860389181e-01 5.150081359512796553e+02
2.291504130908799952e-01 5.149957203530434526e+02
2.292504350957210724e-01 5.149833024927484075e+02
2.293504571005620940e-01 5.149708827735139494e+02
2.294504791054031712e-01 5.149584615982760170e+02
2.295505011102442205e-01 5.149460393697721656e+02
2.296505231150852977e-01 5.149336164905288342e+02
2.297505451199263748e-01 5.149211933628452016e+02
2.298505671247674520e-01 5.149087703887802263e+02
2.299505891296084736e-01 5.148963479701370716e+02
2.300506111344495508e-01 5.148839265084493491e+02
2.301506331392906279e-01 5.148715064049672492e+02
2.302506551441316773e-01 5.148590880606432165e+02
2.303506771489727545e-01 5.148466718761164884e+02
2.304506991538138316e-01 5.148342582517004757e+02
2.305507211586549088e-01 5.148218475873676425e+02
2.306507431634959304e-01 5.148094402827347267e+02
2.307507651683370076e-01 5.147970367370506892e+02
2.308507871731780847e-01 5.147846373491804570e+02
2.309508091780191341e-01 5.147722425175909393e+02
2.310508311828602113e-01 5.147598526403379537e+02
2.311508531877012884e-01 5.147474681150517881e+02
2.312508751925423656e-01 5.147350893389236717e+02
2.313508971973833872e-01 5.147227167086887221e+02
2.314509192022244644e-01 5.147103506206166230e+02
2.315509412070655415e-01 5.146979914704942303e+02
2.316509632119065909e-01 5.146856396536120428e+02
2.317509852167476680e-01 5.146732955647524932e+02
2.318510072215887452e-01 5.146609595981724397e+02
2.319510292264298223e-01 5.146486321475924797e+02
2.320510512312708440e-01 5.146363136061804653e+02
2.321510732361119211e-01 5.146240043665404755e+02
2.322510952409529983e-01 5.146117048206961044e+02
2.323511172457940477e-01 5.145994153600786376e+02
2.324511392506351248e-01 5.145871363755129551e+02
2.325511612554762020e-01 5.145748682572029793e+02
2.326511832603172514e-01 5.145626113947184876e+02
2.327512052651583008e-01 5.145503661769819246e+02
2.328512272699993779e-01 5.145381329922540772e+02
2.329512492748404551e-01 5.145259122281206601e+02
2.330512712796815045e-01 5.145137042714786730e+02
2.331512932845225816e-01 5.145015095085227586e+02
2.332513152893636588e-01 5.144893283247329236e+02
2.333513372942047082e-01 5.144771611048585100e+02
2.334513592990457576e-01 5.144650082329070528e+02
2.335513813038868347e-01 5.144528700921306381e+02
2.336514033087279119e-01 5.144407470650102141e+02
2.337514253135689613e-01 5.144286395332462689e+02
2.338514473184100384e-01 5.144165478777414364e+02
2.339514693232511156e-01 5.144044724785895824e+02
2.340514913280921649e-01 5.143924137150623892e+02
2.341515133329332143e-01 5.143803719655951454e+02
2.342515353377742915e-01 5.143683476077750356e+02
2.343515573426153686e-01 5.143563410183264750e+02
2.344515793474564180e-01 5.143443525730991723e+02
2.345516013522974952e-01 5.143323826470547147e+02
2.346516233571385446e-01 5.143204316142534935e+02
2.347516453619796217e-01 5.143084998478418584e+02
2.348516673668206711e-01 5.142965877200383602e+02
2.349516893716617483e-01 5.142846956021231790e+02
2.350517113765028254e-01 5.142728238644220937e+02
2.351517333813438748e-01 5.142609728762965915e+02
2.352517553861849520e-01 5.142491430061294295e+02
2.353517773910260014e-01 5.142373346213121295e+02
2.354517993958670785e-01 5.142255480882334950e+02
2.355518214007081279e-01 5.142137837722643781e+02
2.356518434055492051e-01 5.142020420377479013e+02
2.357518654103902822e-01 5.141903232479858161e+02
2.358518874152313316e-01 5.141786277652258832e+02
2.359519094200724088e-01 5.141669559506490259e+02
2.360519314249134581e-01 5.141553081643576206e+02
2.361519534297545353e-01 5.141436847653635596e+02
2.362519754345955847e-01 5.141320861115754042e+02
2.363519974394366618e-01 5.141205125597848564e+02
2.364520194442777390e-01 5.141089644656564133e+02
2.365520414491187884e-01 5.140974421837152022e+02
2.366520634539598378e-01 5.140859460673333388e+02
2.367520854588009149e-01 5.140744764687198085e+02
2.368521074636419921e-01 5.140630337389058013e+02
2.369521294684830415e-01 5.140516182277358439e+02
2.370521514733241186e-01 5.140402302838542710e+02
2.371521734781651958e-01 5.140288702546920376e+02
2.372521954830062452e-01 5.140175384864587613e+02
2.373522174878472946e-01 5.140062353241262372e+02
2.374522394926883717e-01 5.139949611114208210e+02
2.375522614975294489e-01 5.139837161908089911e+02
2.376522835023704983e-01 5.139725009034873437e+02
2.377523055072115754e-01 5.139613155893705425e+02
2.378523275120526526e-01 5.139501605870788126e+02
2.379523495168937020e-01 5.139390362339290732e+02
2.380523715217347513e-01 5.139279428659206133e+02
2.381523935265758285e-01 5.139168808177263372e+02
2.382524155314169056e-01 5.139058504226790092e+02
2.383524375362579550e-01 5.138948520127623851e+02
2.384524595410990322e-01 5.138838859185988213e+02
2.385524815459401093e-01 5.138729524694367683e+02
2.386525035507811310e-01 5.138620519931439503e+02
2.387525255556222081e-01 5.138511848161920170e+02
2.388525475604632853e-01 5.138403512636475625e+02
2.389525695653043624e-01 5.138295516591614387e+02
2.390525915701454118e-01 5.138187863249570455e+02
2.391526135749864890e-01 5.138080555818206676e+02
2.392526355798275661e-01 5.137973597490894235e+02
2.393526575846685878e-01 5.137866991446420570e+02
2.394526795895096649e-01 5.137760740848875685e+02
2.395527015943507421e-01 5.137654848847547555e+02
2.396527235991918192e-01 5.137549318576815267e+02
2.397527456040328686e-01 5.137444153156058064e+02
2.398527676088739458e-01 5.137339355689530294e+02
2.399527896137150229e-01 5.137234929266285235e+02
