0.000000000000000000e+00 5.153698656273774077e+02
1.000220048410650341e-04 5.153840841380259690e+02
2.000440096821300682e-04 5.153983238359936649e+02
3.000660145231950752e-04 5.154125845678661335e+02
4.000880193642601364e-04 5.154268661794764057e+02
5.001100242053251434e-04 5.154411685159079752e+02
6.001320290463901504e-04 5.154554914214976407e+02
7.001540338874551574e-04 5.154698347398338001e+02
8.001760387285202728e-04 5.154841983137596344e+02
9.001980435695852798e-04 5.154985819853765179e+02
1.000220048410650287e-03 5.155129855960429950e+02
1.100242053251715294e-03 5.155274089863783047e+02
1.200264058092780301e-03 5.155418519962627215e+02
1.300286062933845308e-03 5.155563144648410798e+02
1.400308067774910315e-03 5.155707962305225465e+02
1.500330072615975322e-03 5.155852971309840314e+02
1.600352077457040546e-03 5.155998170031720065e+02
1.700374082298105553e-03 5.156143556833028470e+02
1.800396087139170560e-03 5.156289130068661279e+02
1.900418091980235567e-03 5.156434888086265573e+02
2.000440096821300574e-03 5.156580829226260221e+02
2.100462101662365581e-03 5.156726951821830198e+02
2.200484106503430588e-03 5.156873254199001622e+02
2.300506111344495595e-03 5.157019734676599683e+02
2.400528116185560602e-03 5.157166391566314587e+02
2.500550121026625609e-03 5.157313223172699281e+02
2.600572125867690616e-03 5.157460227793205831e+02
2.700594130708756056e-03 5.157607403718191108e+02
2.800616135549820630e-03 5.157754749230958851e+02
2.900638140390886070e-03 5.157902262607755119e+02
3.000660145231950644e-03 5.158049942117818318e+02
3.100682150073016084e-03 5.158197786023383742e+02
3.200704154914081091e-03 5.158345792579709723e+02
3.300726159755145665e-03 5.158493960035115151e+02
3.400748164596211105e-03 5.158642286630972649e+02
3.500770169437275679e-03 5.158790770601775648e+02
3.600792174278341119e-03 5.158939410175112243e+02
3.700814179119406126e-03 5.159088203571736813e+02
3.800836183960471133e-03 5.159237149005559786e+02
3.900858188801536140e-03 5.159386244683696532e+02
4.000880193642601147e-03 5.159535488806467356e+02
4.100902198483666154e-03 5.159684879567454345e+02
4.200924203324731161e-03 5.159834415153504779e+02
4.300946208165796168e-03 5.159984093744759548e+02
4.400968213006861175e-03 5.160133913514680444e+02
4.500990217847926182e-03 5.160283872630096766e+02
4.601012222688991189e-03 5.160433969251193957e+02
4.701034227530056196e-03 5.160584201531562485e+02
4.801056232371121203e-03 5.160734567618249002e+02
4.901078237212187078e-03 5.160885065651729064e+02
5.001100242053251217e-03 5.161035693765984433e+02
5.101122246894316224e-03 5.161186450088507627e+02
5.201144251735381231e-03 5.161337332740331476e+02
5.301166256576447106e-03 5.161488339836060959e+02
5.401188261417512113e-03 5.161639469483909579e+02
5.501210266258576252e-03 5.161790719785719830e+02
5.601232271099641259e-03 5.161942088836987068e+02
5.701254275940706266e-03 5.162093574726898169e+02
5.801276280781772141e-03 5.162245175538380408e+02
5.901298285622837148e-03 5.162396889348082141e+02
6.001320290463901287e-03 5.162548714226456923e+02
6.101342295304966294e-03 5.162700648237753285e+02
6.201364300146032169e-03 5.162852689440072709e+02
6.301386304987097176e-03 5.163004835885394641e+02
6.401408309828162183e-03 5.163157085619592408e+02
6.501430314669226322e-03 5.163309436682493470e+02
6.601452319510291329e-03 5.163461887107881694e+02
6.701474324351357204e-03 5.163614434923551926e+02
6.801496329192422211e-03 5.163767078151338410e+02
6.901518334033487218e-03 5.163919814807132980e+02
7.001540338874551357e-03 5.164072642900939627e+02
7.101562343715617232e-03 5.164225560436889282e+02
7.201584348556682239e-03 5.164378565413296656e+02
7.301606353397747246e-03 5.164531655822662515e+02
7.401628358238812253e-03 5.164684829651731661e+02
7.501650363079876392e-03 5.164838084881525901e+02
7.601672367920942266e-03 5.164991419487369058e+02
7.701694372762007273e-03 5.165144831438933579e+02
7.801716377603072280e-03 5.165298318700254185e+02
7.901738382444137287e-03 5.165451879229792667e+02
8.001760387285202294e-03 5.165605510980456074e+02
8.101782392126267301e-03 5.165759211899630827e+02
8.201804396967332308e-03 5.165912979929229323e+02
8.301826401808397315e-03 5.166066813005719496e+02
8.401848406649462322e-03 5.166220709060165746e+02
8.501870411490527329e-03 5.166374666018261905e+02
8.601892416331592336e-03 5.166528681800359664e+02
8.701914421172657343e-03 5.166682754321540187e+02
8.801936426013722350e-03 5.166836881491603890e+02
8.901958430854787357e-03 5.166991061215153422e+02
9.001980435695852364e-03 5.167145291391597084e+02
9.102002440536917371e-03 5.167299569915207940e+02
9.202024445377982378e-03 5.167453894675149968e+02
9.302046450219047385e-03 5.167608263555530357e+02
9.402068455060112392e-03 5.167762674435433610e+02
9.502090459901177399e-03 5.167917125188949967e+02
9.602112464742242406e-03 5.168071613685226566e+02
9.702134469583307413e-03 5.168226137788510641e+02
9.802156474424374155e-03 5.168380695358179082e+02
9.902178479265437427e-03 5.168535284248789594e+02
1.000220048410650243e-02 5.168689902310100024e+02
1.010222248894756918e-02 5.168844547387142256e+02
1.020224449378863245e-02 5.168999217320239268e+02
1.030226649862969746e-02 5.169153909945046053e+02
1.040228850347076246e-02 5.169308623092604194e+02
1.050231050831182747e-02 5.169463354589385062e+02
1.060233251315289421e-02 5.169618102257303462e+02
1.070235451799395748e-02 5.169772863913804031e+02
1.080237652283502423e-02 5.169927637371861238e+02
1.090239852767608750e-02 5.170082420440049873e+02
1.100242053251715250e-02 5.170237210922579152e+02
1.110244253735821925e-02 5.170392006619333642e+02
1.120246454219928252e-02 5.170546805325916466e+02
1.130248654704034753e-02 5.170701604833694773e+02
1.140250855188141253e-02 5.170856402929852038e+02
1.150253055672247754e-02 5.171011197397414207e+02
1.160255256156354428e-02 5.171165986015312228e+02
1.170257456640460755e-02 5.171320766558402511e+02
1.180259657124567430e-02 5.171475536797540826e+02
1.190261857608673930e-02 5.171630294499609590e+02
1.200264058092780257e-02 5.171785037427564475e+02
1.210266258576886932e-02 5.171939763340479885e+02
1.220268459060993259e-02 5.172094469993597841e+02
1.230270659545099760e-02 5.172249155138374590e+02
1.240272860029206434e-02 5.172403816522519264e+02
1.250275060513312761e-02 5.172558451890045035e+02
1.260277260997419435e-02 5.172713058981316863e+02
1.270279461481525762e-02 5.172867635533098110e+02
1.280281661965632437e-02 5.173022179278584645e+02
1.290283862449738937e-02 5.173176687947475330e+02
1.300286062933845264e-02 5.173331159265992483e+02
1.310288263417951939e-02 5.173485590956954638e+02
1.320290463902058266e-02 5.173639980739803832e+02
1.330292664386164767e-02 5.173794326330663580e+02
1.340294864870271441e-02 5.173948625442393450e+02
1.350297065354377768e-02 5.174102875784608386e+02
1.360299265838484442e-02 5.174257075063762841e+02
1.370301466322590769e-02 5.174411220983175781e+02
1.380303666806697444e-02 5.174565311243097767e+02
1.390305867290803944e-02 5.174719343540723457e+02
1.400308067774910271e-02 5.174873315570297336e+02
1.410310268259016946e-02 5.175027225023109168e+02
1.420312468743123446e-02 5.175181069587566753e+02
1.430314669227229774e-02 5.175334846949263010e+02
1.440316869711336448e-02 5.175488554790983926e+02
1.450319070195442775e-02 5.175642190792790416e+02
1.460321270679549449e-02 5.175795752632066069e+02
1.470323471163655950e-02 5.175949237983548983e+02
1.480325671647762451e-02 5.176102644519401110e+02
1.490327872131868951e-02 5.176255969909252599e+02
1.500330072615975278e-02 5.176409211820241580e+02
1.510332273100081953e-02 5.176562367917088068e+02
1.520334473584188453e-02 5.176715435862128061e+02
1.530336674068294781e-02 5.176868413315362432e+02
1.540338874552401455e-02 5.177021297934519453e+02
1.550341075036507782e-02 5.177174087375108229e+02
1.560343275520614456e-02 5.177326779290445984e+02
1.570345476004721130e-02 5.177479371331749007e+02
1.580347676488827457e-02 5.177631861148148573e+02
1.590349876972933785e-02 5.177784246386767109e+02
1.600352077457040459e-02 5.177936524692751163e+02
1.610354277941146786e-02 5.178088693709352128e+02
1.620356478425253460e-02 5.178240751077939876e+02
1.630358678909359788e-02 5.178392694438093713e+02
1.640360879393466462e-02 5.178544521427628524e+02
1.650363079877573136e-02 5.178696229682664125e+02
1.660365280361679463e-02 5.178847816837673008e+02
1.670367480845786137e-02 5.178999280525522408e+02
1.680369681329892464e-02 5.179150618377553883e+02
1.690371881813999139e-02 5.179301828023612870e+02
1.700374082298105466e-02 5.179452907092112355e+02
1.710376282782211793e-02 5.179603853210084026e+02
1.720378483266318467e-02 5.179754664003240805e+02
1.730380683750424795e-02 5.179905337096021185e+02
1.740382884234531469e-02 5.180055870111641525e+02
1.750385084718638143e-02 5.180206260672172220e+02
1.760387285202744470e-02 5.180356506398555894e+02
1.770389485686851144e-02 5.180506604910694932e+02
1.780391686170957471e-02 5.180656553827493553e+02
1.790393886655063799e-02 5.180806350766906689e+02
1.800396087139170473e-02 5.180955993346013884e+02
1.810398287623276800e-02 5.181105479181044302e+02
1.820400488107383474e-02 5.181254805887464272e+02
1.830402688591490148e-02 5.181403971080025030e+02
1.840404889075596476e-02 5.181552972372790009e+02
1.850407089559703150e-02 5.181701807379231468e+02
1.860409290043809477e-02 5.181850473712258918e+02
1.870411490527916151e-02 5.181998968984288467e+02
1.880413691012022478e-02 5.182147290807286026e+02
1.890415891496129153e-02 5.182295436792844612e+02
1.900418091980235480e-02 5.182443404552221864e+02
1.910420292464341807e-02 5.182591191696392343e+02
1.920422492948448481e-02 5.182738795836131658e+02
1.930424693432555155e-02 5.182886214582038065e+02
1.940426893916661483e-02 5.183033445544621145e+02
1.950429094400768157e-02 5.183180486334334773e+02
1.960431294884874831e-02 5.183327334561653288e+02
1.970433495368981158e-02 5.183473987837103323e+02
1.980435695853087485e-02 5.183620443771347936e+02
1.990437896337193813e-02 5.183766699975222991e+02
2.000440096821300487e-02 5.183912754059808776e+02
2.010442297305407161e-02 5.184058603636484577e+02
2.020444497789513835e-02 5.184204246316979834e+02
2.030446698273619816e-02 5.184349679713432124e+02
2.040448898757726490e-02 5.184494901438454235e+02
2.050451099241833164e-02 5.184639909105181914e+02
2.060453299725939491e-02 5.184784700327328437e+02
2.070455500210046165e-02 5.184929272719259643e+02
2.080457700694152492e-02 5.185073623896043955e+02
2.090459901178259167e-02 5.185217751473492171e+02
2.100462101662365494e-02 5.185361653068239320e+02
2.110464302146472168e-02 5.185505326297802640e+02
2.120466502630578842e-02 5.185648768780617957e+02
2.130468703114684823e-02 5.185791978136115858e+02
2.140470903598791497e-02 5.185934951984780810e+02
2.150473104082898171e-02 5.186077687948202311e+02
2.160475304567004845e-02 5.186220183649128330e+02
2.170477505051111172e-02 5.186362436711540340e+02
2.180479705535217499e-02 5.186504444760694241e+02
2.190481906019323827e-02 5.186646205423195397e+02
2.200484106503430501e-02 5.186787716327044109e+02
2.210486306987537175e-02 5.186928975101692458e+02
2.220488507471643849e-02 5.187069979378122753e+02
2.230490707955749830e-02 5.187210726788885040e+02
2.240492908439856504e-02 5.187351214968173281e+02
2.250495108923963178e-02 5.187491441551857179e+02
2.260497309408069505e-02 5.187631404177571994e+02
2.270499509892176179e-02 5.187771100484768567e+02
2.280501710376282506e-02 5.187910528114756517e+02
2.290503910860389181e-02 5.188049684710775864e+02
2.300506111344495508e-02 5.188188567918070930e+02
2.310508311828602182e-02 5.188327175383910799e+02
2.320510512312708856e-02 5.188465504757689359e+02
2.330512712796814837e-02 5.188603553690957142e+02
2.340514913280921511e-02 5.188741319837486117e+02
2.350517113765028185e-02 5.188878800853348139e+02
2.360519314249134859e-02 5.189015994396944507e+02
2.370521514733241186e-02 5.189152898129078721e+02
2.380523715217347860e-02 5.189289509713023563e+02
2.390525915701453841e-02 5.189425826814572247e+02
2.400528116185560515e-02 5.189561847102089587e+02
2.410530316669667189e-02 5.189697568246582478e+02
2.420532517153773863e-02 5.189832987921769245e+02
2.430534717637880537e-02 5.189968103804110342e+02
2.440536918121986518e-02 5.190102913572893613e+02
2.450539118606093192e-02 5.190237414910279767e+02
2.460541319090199519e-02 5.190371605501361501e+02
2.470543519574306193e-02 5.190505483034235112e+02
2.480545720058412867e-02 5.190639045200048258e+02
2.490547920542519195e-02 5.190772289693057928e+02
2.500550121026625522e-02 5.190905214210696386e+02
2.510552321510732196e-02 5.191037816453633695e+02
2.520554521994838870e-02 5.191170094125825472e+02
2.530556722478945197e-02 5.191302044934578817e+02
2.540558922963051525e-02 5.191433666590614848e+02
2.550561123447158199e-02 5.191564956808120996e+02
2.560563323931264873e-02 5.191695913304808983e+02
2.570565524415371200e-02 5.191826533801988717e+02
2.580567724899477874e-02 5.191956816024606951e+02
2.590569925383583855e-02 5.192086757701318902e+02
2.600572125867690529e-02 5.192216356564553053e+02
2.610574326351797203e-02 5.192345610350550942e+02
2.620576526835903877e-02 5.192474516799441062e+02
2.630578727320010551e-02 5.192603073655291155e+02
2.640580927804116532e-02 5.192731278666178696e+02
2.650583128288223206e-02 5.192859129584232960e+02
2.660585328772329533e-02 5.192986624165704370e+02
2.670587529256436207e-02 5.193113760171028161e+02
2.680589729740542881e-02 5.193240535364864172e+02
2.690591930224649209e-02 5.193366947516168466e+02
2.700594130708755536e-02 5.193492994398262681e+02
2.710596331192862210e-02 5.193618673788874958e+02
2.720598531676968884e-02 5.193743983470201329e+02
2.730600732161075211e-02 5.193868921228969384e+02
2.740602932645181539e-02 5.193993484856498526e+02
2.750605133129288213e-02 5.194117672148753400e+02
2.760607333613394887e-02 5.194241480906401875e+02
2.770609534097501214e-02 5.194364908934880987e+02
2.780611734581607888e-02 5.194487954044438993e+02
2.790613935065714563e-02 5.194610614050216100e+02
2.800616135549820543e-02 5.194732886772280835e+02
2.810618336033927217e-02 5.194854770035713045e+02
2.820620536518033891e-02 5.194976261670624353e+02
2.830622737002140565e-02 5.195097359512259345e+02
2.840624937486246893e-02 5.195218061401016030e+02
2.850627137970353220e-02 5.195338365182536791e+02
2.860629338454459547e-02 5.195458268707740217e+02
2.870631538938566221e-02 5.195577769832890453e+02
2.880633739422672895e-02 5.195696866419639264e+02
2.890635939906779570e-02 5.195815556335122665e+02
2.900638140390885550e-02 5.195933837451967747e+02
2.910640340874992224e-02 5.196051707648393858e+02
2.920642541359098898e-02 5.196169164808235337e+02
2.930644741843205225e-02 5.196286206821018823e+02
2.940646942327311900e-02 5.196402831582017825e+02
2.950649142811418227e-02 5.196519036992303882e+02
2.960651343295524901e-02 5.196634820958807950e+02
2.970653543779631228e-02 5.196750181394369292e+02
2.980655744263737902e-02 5.196865116217809373e+02
2.990657944747844577e-02 5.196979623353971647e+02
3.000660145231950557e-02 5.197093700733777268e+02
3.010662345716057231e-02 5.197207346294297849e+02
3.020664546200163905e-02 5.197320557978798661e+02
3.030666746684270579e-02 5.197433333736787517e+02
3.040668947168376907e-02 5.197545671524094359e+02
3.050671147652483234e-02 5.197657569302911043e+02
3.060673348136589561e-02 5.197769025041841360e+02
3.070675548620696235e-02 5.197880036715969254e+02
3.080677749104802909e-02 5.197990602306909977e+02
3.090679949588909584e-02 5.198100719802871481e+02
3.100682150073015564e-02 5.198210387198688522e+02
3.110684350557122238e-02 5.198319602495897698e+02
3.120686551041228912e-02 5.198428363702798833e+02
3.130688751525335239e-02 5.198536668834485681e+02
3.140690952009442261e-02 5.198644515912908446e+02
3.150693152493547894e-02 5.198751902966953367e+02
3.160695352977654915e-02 5.198858828032460906e+02
3.170697553461761242e-02 5.198965289152297373e+02
3.180699753945867569e-02 5.199071284376407220e+02
3.190701954429974591e-02 5.199176811761868748e+02
3.200704154914080918e-02 5.199281869372956635e+02
3.210706355398187245e-02 5.199386455281166945e+02
3.220708555882293572e-02 5.199490567565301262e+02
3.230710756366400593e-02 5.199594204311503063e+02
3.240712956850506921e-02 5.199697363613323660e+02
3.250715157334613248e-02 5.199800043571751758e+02
3.260717357818719575e-02 5.199902242295304404e+02
3.270719558302826596e-02 5.200003957900039495e+02
3.280721758786932923e-02 5.200105188509629670e+02
3.290723959271039251e-02 5.200205932255420294e+02
3.300726159755146272e-02 5.200306187276466972e+02
3.310728360239252599e-02 5.200405951719587847e+02
3.320730560723358926e-02 5.200505223739434086e+02
3.330732761207465253e-02 5.200604001498519438e+02
3.340734961691572275e-02 5.200702283167285032e+02
3.350737162175678602e-02 5.200800066924149405e+02
3.360739362659784929e-02 5.200897350955549427e+02
3.370741563143891256e-02 5.200994133456001691e+02
3.380743763627998277e-02 5.201090412628165041e+02
3.390745964112104605e-02 5.201186186682854213e+02
3.400748164596210932e-02 5.201281453839136475e+02
3.410750365080317259e-02 5.201376212324341850e+02
3.420752565564423586e-02 5.201470460374141567e+02
3.430754766048530607e-02 5.201564196232574204e+02
3.440756966532636935e-02 5.201657418152128685e+02
3.450759167016743956e-02 5.201750124393753367e+02
3.460761367500849589e-02 5.201842313226933356e+02
3.470763567984956610e-02 5.201933982929735976e+02
3.480765768469062937e-02 5.202025131788851695e+02
3.490767968953169265e-02 5.202115758099638470e+02
3.500770169437276286e-02 5.202205860166202456e+02
3.510772369921381919e-02 5.202295436301395739e+02
3.520774570405488940e-02 5.202384484826910693e+02
3.530776770889595267e-02 5.202473004073291349e+02
3.540778971373702289e-02 5.202560992380023208e+02
3.550781171857808616e-02 5.202648448095528693e+02
3.560783372341914943e-02 5.202735369577267193e+02
3.570785572826021270e-02 5.202821755191738475e+02
3.580787773310127597e-02 5.202907603314556582e+02
3.590789973794234619e-02 5.202992912330489617e+02
3.600792174278340946e-02 5.203077680633494992e+02
3.610794374762447273e-02 5.203161906626788777e+02
3.620796575246553600e-02 5.203245588722869570e+02
3.630798775730660621e-02 5.203328725343575343e+02
3.640800976214766949e-02 5.203411314920128916e+02
3.650803176698873276e-02 5.203493355893183434e+02
3.660805377182980297e-02 5.203574846712859880e+02
3.670807577667086624e-02 5.203655785838794827e+02
3.680809778151192951e-02 5.203736171740202963e+02
3.690811978635299279e-02 5.203816002895890733e+02
3.700814179119406300e-02 5.203895277794320009e+02
3.710816379603512627e-02 5.203973994933661515e+02
3.720818580087618954e-02 5.204052152821801656e+02
3.730820780571725281e-02 5.204129749976430048e+02
3.740822981055832303e-02 5.204206784925054308e+02
3.750825181539938630e-02 5.204283256205051202e+02
3.760827382024044957e-02 5.204359162363707583e+02
3.770829582508151284e-02 5.204434501958277224e+02
3.780831782992258305e-02 5.204509273555991058e+02
3.790833983476364633e-02 5.204583475734136755e+02
3.800836183960470960e-02 5.204657107080070091e+02
3.810838384444577981e-02 5.204730166191275202e+02
3.820840584928683614e-02 5.204802651675397556e+02
3.830842785412790635e-02 5.204874562150295105e+02
3.840844985896896963e-02 5.204945896244055348e+02
3.850847186381003984e-02 5.205016652595061259e+02
3.860849386865110311e-02 5.205086829852020855e+02
3.870851587349216638e-02 5.205156426674009253e+02
3.880853787833322965e-02 5.205225441730500506e+02
3.890855988317429293e-02 5.205293873701426719e+02
3.900858188801536314e-02 5.205361721277183733e+02
3.910860389285641947e-02 5.205428983158719802e+02
3.920862589769749662e-02 5.205495658057512856e+02
3.930864790253855295e-02 5.205561744695661446e+02
3.940866990737962317e-02 5.205627241805902941e+02
3.950869191222068644e-02 5.205692148131632848e+02
3.960871391706174971e-02 5.205756462426976441e+02
3.970873592190281992e-02 5.205820183456806944e+02
3.980875792674387625e-02 5.205883309996783055e+02
3.990877993158495340e-02 5.205945840833387592e+02
4.000880193642600974e-02 5.206007774763966154e+02
4.010882394126707301e-02 5.206069110596757810e+02
4.020884594610814322e-02 5.206129847150939440e+02
4.030886795094920649e-02 5.206189983256655296e+02
4.040888995579027670e-02 5.206249517755048828e+02
4.050891196063133304e-02 5.206308449498303617e+02
4.060893396547239631e-02 5.206366777349686572e+02
4.070895597031346652e-02 5.206424500183559303e+02
4.080897797515452979e-02 5.206481616885430412e+02
4.090899997999560000e-02 5.206538126351985056e+02
4.100902198483666328e-02 5.206594027491115639e+02
4.110904398967772655e-02 5.206649319221959331e+02
4.120906599451878982e-02 5.206704000474926488e+02
4.130908799935985309e-02 5.206758070191743855e+02
4.140911000420092331e-02 5.206811527325460247e+02
4.150913200904198658e-02 5.206864370840515903e+02
4.160915401388304985e-02 5.206916599712745892e+02
4.170917601872412006e-02 5.206968212929427864e+02
4.180919802356518333e-02 5.207019209489292280e+02
4.190922002840624661e-02 5.207069588402579257e+02
4.200924203324730988e-02 5.207119348691056757e+02
4.210926403808837315e-02 5.207168489388044463e+02
4.220928604292944336e-02 5.207217009538458115e+02
4.230930804777050663e-02 5.207264908198824287e+02
4.240933005261157684e-02 5.207312184437316773e+02
4.250935205745264012e-02 5.207358837333788415e+02
4.260937406229369645e-02 5.207404865979801798e+02
4.270939606713476666e-02 5.207450269478633800e+02
4.280941807197582993e-02 5.207495046945348349e+02
4.290944007681690014e-02 5.207539197506778237e+02
4.300946208165796342e-02 5.207582720301574000e+02
4.310948408649901975e-02 5.207625614480236891e+02
4.320950609134009690e-02 5.207667879205141617e+02
4.330952809618115323e-02 5.207709513650536337e+02
4.340955010102222345e-02 5.207750517002616562e+02
4.350957210586328672e-02 5.207790888459520602e+02
4.360959411070434999e-02 5.207830627231343215e+02
4.370961611554542020e-02 5.207869732540193581e+02
4.380963812038647653e-02 5.207908203620197582e+02
4.390966012522755368e-02 5.207946039717537587e+02
4.400968213006861002e-02 5.207983240090461550e+02
4.410970413490967329e-02 5.208019804009302334e+02
4.420972613975074350e-02 5.208055730756526600e+02
4.430974814459180677e-02 5.208091019626740490e+02
4.440977014943287698e-02 5.208125669926706678e+02
4.450979215427393332e-02 5.208159680975384163e+02
4.460981415911499659e-02 5.208193052103940772e+02
4.470983616395606680e-02 5.208225782655761122e+02
4.480985816879713007e-02 5.208257871986506871e+02
4.490988017363820028e-02 5.208289319464090568e+02
4.500990217847926356e-02 5.208320124468730228e+02
4.510992418332032683e-02 5.208350286392957287e+02
4.520994618816139010e-02 5.208379804641638202e+02
4.530996819300245337e-02 5.208408678631988096e+02
4.540999019784352358e-02 5.208436907793607133e+02
4.551001220268458686e-02 5.208464491568474841e+02
4.561003420752565013e-02 5.208491429410992168e+02
4.571005621236672034e-02 5.208517720787987173e+02
4.581007821720778361e-02 5.208543365178729800e+02
4.591010022204884689e-02 5.208568362074970537e+02
4.601012222688991016e-02 5.208592710980930178e+02
4.611014423173097343e-02 5.208616411413327114e+02
4.621016623657204364e-02 5.208639462901405750e+02
4.631018824141310691e-02 5.208661864986936507e+02
4.641021024625417712e-02 5.208683617224241971e+02
4.651023225109524040e-02 5.208704719180200300e+02
4.661025425593629673e-02 5.208725170434287293e+02
4.671027626077736694e-02 5.208744970578549101e+02
4.681029826561843021e-02 5.208764119217660209e+02
4.691032027045950042e-02 5.208782615968900700e+02
4.701034227530056370e-02 5.208800460462204001e+02
4.711036428014163391e-02 5.208817652340146651e+02
4.721038628498269718e-02 5.208834191257958537e+02
4.731040828982375351e-02 5.208850076883555857e+02
4.741043029466482372e-02 5.208865308897539990e+02
4.751045229950588700e-02 5.208879886993212267e+02
4.761047430434695721e-02 5.208893810876587622e+02
4.771049630918802048e-02 5.208907080266400271e+02
4.781051831402907681e-02 5.208919694894112808e+02
4.791054031887015396e-02 5.208931654503940081e+02
4.801056232371121030e-02 5.208942958852858283e+02
4.811058432855228051e-02 5.208953607710586766e+02
4.821060633339334378e-02 5.208963600859642611e+02
4.831062833823440705e-02 5.208972938095297422e+02
4.841065034307547726e-02 5.208981619225643271e+02
4.851067234791653360e-02 5.208989644071547218e+02
4.861069435275761075e-02 5.208997012466703609e+02
4.871071635759866708e-02 5.209003724257611339e+02
4.881073836243973035e-02 5.209009779303599998e+02
4.891076036728080056e-02 5.209015177476806002e+02
4.901078237212186384e-02 5.209019918662238524e+02
4.911080437696293405e-02 5.209024002757716971e+02
4.921082638180399038e-02 5.209027429673925553e+02
4.931084838664505365e-02 5.209030199334391682e+02
4.941087039148612386e-02 5.209032311675509845e+02
4.951089239632718714e-02 5.209033766646535923e+02
4.961091440116825735e-02 5.209034564209588325e+02
4.971093640600932062e-02 5.209034704339657083e+02
4.981095841085038389e-02 5.209034187024616358e+02
4.991098041569144717e-02 5.209033012265208527e+02
5.001100242053251044e-02 5.209031180075058955e+02
5.011102442537358065e-02 5.209028690480679415e+02
5.021104643021464392e-02 5.209025543521463533e+02
5.031106843505570719e-02 5.209021739249700431e+02
5.041109043989677740e-02 5.209017277730549722e+02
5.051111244473784068e-02 5.209012159042082430e+02
5.061113444957890395e-02 5.209006383275243479e+02
5.071115645441996722e-02 5.208999950533874426e+02
5.081117845926103049e-02 5.208992860934710052e+02
5.091120046410210070e-02 5.208985114607364721e+02
5.101122246894316398e-02 5.208976711694359665e+02
5.111124447378423419e-02 5.208967652351086599e+02
5.121126647862529746e-02 5.208957936745824782e+02
5.131128848346635379e-02 5.208947565059741009e+02
5.141131048830742400e-02 5.208936537486890757e+02
5.151133249314848728e-02 5.208924854234198847e+02
5.161135449798955749e-02 5.208912515521471960e+02
5.171137650283062076e-02 5.208899521581371346e+02
5.181139850767167709e-02 5.208885872659457164e+02
5.191142051251275424e-02 5.208871569014135048e+02
5.201144251735381058e-02 5.208856610916661793e+02
5.211146452219488079e-02 5.208840998651162408e+02
5.221148652703594406e-02 5.208824732514610787e+02
5.231150853187700733e-02 5.208807812816821752e+02
5.241153053671807754e-02 5.208790239880440822e+02
5.251155254155913388e-02 5.208772014040951035e+02
5.261157454640021103e-02 5.208753135646662713e+02
5.271159655124126736e-02 5.208733605058691865e+02
5.281161855608233063e-02 5.208713422650971552e+02
5.291164056092340084e-02 5.208692588810235975e+02
5.301166256576446412e-02 5.208671103936000009e+02
5.311168457060553433e-02 5.208648968440588760e+02
5.321170657544659066e-02 5.208626182749067084e+02
5.331172858028765393e-02 5.208602747299295288e+02
5.341175058512872414e-02 5.208578662541873427e+02
5.351177258996978742e-02 5.208553928940149262e+02
5.361179459481085763e-02 5.208528546970203479e+02
5.371181659965192090e-02 5.208502517120850825e+02
5.381183860449298417e-02 5.208475839893604871e+02
5.391186060933404744e-02 5.208448515802692782e+02
5.401188261417511072e-02 5.208420545375010988e+02
5.411190461901618093e-02 5.208391929150151327e+02
5.421192662385724420e-02 5.208362667680358982e+02
5.431194862869830747e-02 5.208332761530531343e+02
5.441197063353937768e-02 5.208302211278200957e+02
5.451199263838044096e-02 5.208271017513530978e+02
5.461201464322150423e-02 5.208239180839274240e+02
5.471203664806256750e-02 5.208206701870797133e+02
5.481205865290363077e-02 5.208173581236031850e+02
5.491208065774470098e-02 5.208139819575479805e+02
5.501210266258576426e-02 5.208105417542183204e+02
5.511212466742683447e-02 5.208070375801720502e+02
5.521214667226789774e-02 5.208034695032183663e+02
5.531216867710895407e-02 5.207998375924163383e+02
5.541219068195002428e-02 5.207961419180724079e+02
5.551221268679108756e-02 5.207923825517397063e+02
5.561223469163215777e-02 5.207885595662162359e+02
5.571225669647322104e-02 5.207846730355423688e+02
5.581227870131429125e-02 5.207807230349984593e+02
5.591230070615535452e-02 5.207767096411047305e+02
5.601232271099641086e-02 5.207726329316176361e+02
5.611234471583748107e-02 5.207684929855290648e+02
5.621236672067854434e-02 5.207642898830631566e+02
5.631238872551961455e-02 5.207600237056757351e+02
5.641241073036067782e-02 5.207556945360507825e+02
5.651243273520173416e-02 5.207513024580981664e+02
5.661245474004281131e-02 5.207468475569538668e+02
5.671247674488386764e-02 5.207423299189753152e+02
5.681249874972493785e-02 5.207377496317388932e+02
5.691252075456600112e-02 5.207331067840403875e+02
5.701254275940706440e-02 5.207284014658903288e+02
5.711256476424813461e-02 5.207236337685119452e+02
5.721258676908919094e-02 5.207188037843400252e+02
5.731260877393026809e-02 5.207139116070165983e+02
5.741263077877132442e-02 5.207089573313899109e+02
5.751265278361238770e-02 5.207039410535123807e+02
5.761267478845345791e-02 5.206988628706358213e+02
5.771269679329452118e-02 5.206937228812113290e+02
5.781271879813559139e-02 5.206885211848849622e+02
5.791274080297664772e-02 5.206832578824966049e+02
5.801276280781771100e-02 5.206779330760765561e+02
5.811278481265878121e-02 5.206725468688412093e+02
5.821280681749984448e-02 5.206670993651931667e+02
5.831282882234091469e-02 5.206615906707174872e+02
5.841285082718197796e-02 5.206560208921782760e+02
5.851287283202304124e-02 5.206503901375145915e+02
5.861289483686410451e-02 5.206446985158420375e+02
5.871291684170516778e-02 5.206389461374445773e+02
5.881293884654623799e-02 5.206331331137747611e+02
5.891296085138730126e-02 5.206272595574499746e+02
5.901298285622836454e-02 5.206213255822498240e+02
5.911300486106943475e-02 5.206153313031113612e+02
5.921302686591049802e-02 5.206092768361287426e+02
5.931304887075156129e-02 5.206031622985477725e+02
5.941307087559262456e-02 5.205969878087637426e+02
5.951309288043368784e-02 5.205907534863181354e+02
5.961311488527475805e-02 5.205844594518956683e+02
5.971313689011582132e-02 5.205781058273211102e+02
5.981315889495689153e-02 5.205716927355548478e+02
5.991318089979795480e-02 5.205652203006907257e+02
6.001320290463901114e-02 5.205586886479521809e+02
6.011322490948008135e-02 5.205520979036894005e+02
6.021324691432114462e-02 5.205454481953759114e+02
6.031326891916221483e-02 5.205387396516032368e+02
6.041329092400327810e-02 5.205319724020799868e+02
6.051331292884433444e-02 5.205251465776276518e+02
6.061333493368541159e-02 5.205182623101756008e+02
6.071335693852646792e-02 5.205113197327593753e+02
6.081337894336753813e-02 5.205043189795159151e+02
6.091340094820860140e-02 5.204972601856799201e+02
6.101342295304966468e-02 5.204901434875814630e+02
6.111344495789073489e-02 5.204829690226398498e+02
6.121346696273179122e-02 5.204757369293628244e+02
6.131348896757286837e-02 5.204684473473403159e+02
6.141351097241392470e-02 5.204611004172418234e+02
6.151353297725498798e-02 5.204536962808126646e+02
6.161355498209605819e-02 5.204462350808688598e+02
6.171357698693712146e-02 5.204387169612949720e+02
6.181359899177819167e-02 5.204311420670391044e+02
6.191362099661924800e-02 5.204235105441093765e+02
6.201364300146031128e-02 5.204158225395689215e+02
6.211366500630138149e-02 5.204080782015336126e+02
6.221368701114244476e-02 5.204002776791662654e+02
6.231370901598351497e-02 5.203924211226736816e+02
6.241373102082457824e-02 5.203845086833017604e+02
6.251375302566564152e-02 5.203765405133324293e+02
6.261377503050670479e-02 5.203685167660776187e+02
6.271379703534776806e-02 5.203604375958768742e+02
6.281381904018884521e-02 5.203523031580925817e+02
6.291384104502989461e-02 5.203441136091043973e+02
6.301386304987095788e-02 5.203358691063082233e+02
6.311388505471203503e-02 5.203275698081065457e+02
6.321390705955309830e-02 5.203192158739101387e+02
6.331392906439416157e-02 5.203108074641290841e+02
6.341395106923522484e-02 5.203023447401698149e+02
6.351397307407628812e-02 5.202938278644321599e+02
6.361399507891735139e-02 5.202852570003019537e+02
6.371401708375841466e-02 5.202766323121492178e+02
6.381403908859949181e-02 5.202679539653222491e+02
6.391406109344055508e-02 5.202592221261426175e+02
6.401408309828161836e-02 5.202504369619018689e+02
6.411410510312268163e-02 5.202415986408564095e+02
6.421412710796374490e-02 5.202327073322212527e+02
6.431414911280480817e-02 5.202237632061689965e+02
6.441417111764587144e-02 5.202147664338206141e+02
6.451419312248694860e-02 5.202057171872448862e+02
6.461421512732801187e-02 5.201966156394498739e+02
6.471423713216907514e-02 5.201874619643815549e+02
6.481425913701013841e-02 5.201782563369166610e+02
6.491428114185120168e-02 5.201689989328579031e+02
6.501430314669226496e-02 5.201596899289305611e+02
6.511432515153332823e-02 5.201503295027770264e+02
6.521434715637439150e-02 5.201409178329505494e+02
6.531436916121546865e-02 5.201314550989120562e+02
6.541439116605653192e-02 5.201219414810241233e+02
6.551441317089759520e-02 5.201123771605459751e+02
6.561443517573865847e-02 5.201027623196289369e+02
6.571445718057972174e-02 5.200930971413123416e+02
6.581447918542078501e-02 5.200833818095145489e+02
6.591450119026184828e-02 5.200736165090326040e+02
6.601452319510292543e-02 5.200638014255349617e+02
6.611454519994398871e-02 5.200539367455547790e+02
6.621456720478505198e-02 5.200440226564879822e+02
6.631458920962611525e-02 5.200340593465849679e+02
6.641461121446717852e-02 5.200240470049478745e+02
6.651463321930824180e-02 5.200139858215235336e+02
6.661465522414930507e-02 5.200038759870990361e+02
6.671467722899036834e-02 5.199937176932952525e+02
6.681469923383144549e-02 5.199835111325643311e+02
6.691472123867250876e-02 5.199732564981802625e+02
6.701474324351357204e-02 5.199629539842369468e+02
6.711476524835463531e-02 5.199526037856414860e+02
6.721478725319569858e-02 5.199422060981081586e+02
6.731480925803676185e-02 5.199317611181531902e+02
6.741483126287782512e-02 5.199212690430906605e+02
6.751485326771890227e-02 5.199107300710252275e+02
6.761487527255996555e-02 5.199001444008465569e+02
6.771489727740101494e-02 5.198895122322265934e+02
6.781491928224209209e-02 5.198788337656098975e+02
6.791494128708315536e-02 5.198681092022102348e+02
6.801496329192421864e-02 5.198573387440059150e+02
6.811498529676528191e-02 5.198465225937316063e+02
6.821500730160634518e-02 5.198356609548748111e+02
6.831502930644742233e-02 5.198247540316700679e+02
6.841505131128847172e-02 5.198138020290900840e+02
6.851507331612954887e-02 5.198028051528450533e+02
6.861509532097061215e-02 5.197917636093731062e+02
6.871511732581167542e-02 5.197806776058366722e+02
6.881513933065273869e-02 5.197695473501140668e+02
6.891516133549380196e-02 5.197583730507967630e+02
6.901518334033487911e-02 5.197471549171822289e+02
6.911520534517592851e-02 5.197358931592669933e+02
6.921522735001699178e-02 5.197245879877427797e+02
6.931524935485806893e-02 5.197132396139891171e+02
6.941527135969913220e-02 5.197018482500676555e+02
6.951529336454019548e-02 5.196904141087170501e+02
6.961531536938125875e-02 5.196789374033462536e+02
6.971533737422232202e-02 5.196674183480291731e+02
6.981535937906338529e-02 5.196558571574973939e+02
6.991538138390444856e-02 5.196442540471349503e+02
7.001540338874552571e-02 5.196326092329736639e+02
7.011542539358658899e-02 5.196209229316842766e+02
7.021544739842763838e-02 5.196091953605734943e+02
7.031546940326871553e-02 5.195974267375745512e+02
7.041549140810977880e-02 5.195856172812440263e+02
7.051551341295084208e-02 5.195737672107545677e+02
7.061553541779190535e-02 5.195618767458878438e+02
7.071555742263296862e-02 5.195499461070309053e+02
7.081557942747404577e-02 5.195379755151662948e+02
7.091560143231509517e-02 5.195259651918697728e+02
7.101562343715617232e-02 5.195139153593016772e+02
7.111564544199723559e-02 5.195018262402010123e+02
7.121566744683829886e-02 5.194896980578803323e+02
7.131568945167936213e-02 5.194775310362177834e+02
7.141571145652042540e-02 5.194653253996519879e+02
7.151573346136150255e-02 5.194530813731769285e+02
7.161575546620255195e-02 5.194407991823321709e+02
7.171577747104361522e-02 5.194284790531999079e+02
7.181579947588469237e-02 5.194161212123965470e+02
7.191582148072575564e-02 5.194037258870680489e+02
7.201584348556681892e-02 5.193912933048818559e+02
7.211586549040788219e-02 5.193788236940225715e+02
7.221588749524894546e-02 5.193663172831834345e+02
7.231590950009000873e-02 5.193537743015604065e+02
7.241593150493107200e-02 5.193411949788470565e+02
7.251595350977214915e-02 5.193285795452277398e+02
7.261597551461321243e-02 5.193159282313697531e+02
7.271599751945427570e-02 5.193032412684178780e+02
7.281601952429533897e-02 5.192905188879880143e+02
7.291604152913640224e-02 5.192777613221614956e+02
7.301606353397746552e-02 5.192649688034762221e+02
7.311608553881852879e-02 5.192521415649224537e+02
7.321610754365960594e-02 5.192392798399356479e+02
7.331612954850066921e-02 5.192263838623889569e+02
7.341615155334173248e-02 5.192134538665877699e+02
7.351617355818279576e-02 5.192004900872643702e+02
7.361619556302385903e-02 5.191874927595665667e+02
7.371621756786492230e-02 5.191744621190581483e+02
7.381623957270598557e-02 5.191613984017059238e+02
7.391626157754704884e-02 5.191483018438772206e+02
7.401628358238812599e-02 5.191351726823309036e+02
7.411630558722918927e-02 5.191220111542129416e+02
7.421632759207025254e-02 5.191088174970476530e+02
7.431634959691131581e-02 5.190955919487319079e+02
7.441637160175237908e-02 5.190823347475294440e+02
7.451639360659344236e-02 5.190690461320627946e+02
7.461641561143450563e-02 5.190557263413071496e+02
7.471643761627558278e-02 5.190423756145842162e+02
7.481645962111664605e-02 5.190289941915542613e+02
7.491648162595770932e-02 5.190155823122108814e+02
7.501650363079877259e-02 5.190021402168738405e+02
7.511652563563983587e-02 5.189886681461811122e+02
7.521654764048089914e-02 5.189751663410854690e+02
7.531656964532196241e-02 5.189616350428432270e+02
7.541659165016302568e-02 5.189480744930106084e+02
7.551661365500410283e-02 5.189344849334371474e+02
7.561663565984516611e-02 5.189208666062576185e+02
7.571665766468622938e-02 5.189072197538848741e+02
7.581667966952729265e-02 5.188935446190052971e+02
7.591670167436835592e-02 5.188798414445702747e+02
7.601672367920941920e-02 5.188661104737898313e+02
7.611674568405048247e-02 5.188523519501256942e+02
7.621676768889155962e-02 5.188385661172856089e+02
7.631678969373262289e-02 5.188247532192151539e+02
7.641681169857367228e-02 5.188109135000914875e+02
7.651683370341474943e-02 5.187970472043174368e+02
7.661685570825581271e-02 5.187831545765125156e+02
7.671687771309687598e-02 5.187692358615092871e+02
7.681689971793793925e-02 5.187552913043431317e+02
7.691692172277900252e-02 5.187413211502480408e+02
7.701694372762007967e-02 5.187273256446495679e+02
7.711696573246112907e-02 5.187133050331563027e+02
7.721698773730220622e-02 5.186992595615538448e+02
7.731700974214326949e-02 5.186851894757998025e+02
7.741703174698433276e-02 5.186710950220137875e+02
7.751705375182539604e-02 5.186569764464740047e+02
7.761707575666645931e-02 5.186428339956071341e+02
7.771709776150753646e-02 5.186286679159841242e+02
7.781711976634858585e-02 5.186144784543123478e+02
7.791714177118964912e-02 5.186002658574268480e+02
7.801716377603072627e-02 5.185860303722892013e+02
7.811718578087178955e-02 5.185717722459731931e+02
7.821720778571283894e-02 5.185574917256643630e+02
7.831722979055391609e-02 5.185431890586482950e+02
7.841725179539499324e-02 5.185288644923087986e+02
7.851727380023604264e-02 5.185145182741149483e+02
7.861729580507710591e-02 5.185001506516213112e+02
7.871731780991818306e-02 5.184857618724548729e+02
7.881733981475924633e-02 5.184713521843118542e+02
7.891736181960029572e-02 5.184569218349489574e+02
7.901738382444137287e-02 5.184424710721791598e+02
7.911740582928245002e-02 5.184280001438610270e+02
7.921742783412349942e-02 5.184135092978958710e+02
7.931744983896456269e-02 5.183989987822175181e+02
7.941747184380563984e-02 5.183844688447890121e+02
7.951749384864668924e-02 5.183699197335919280e+02
7.961751585348775251e-02 5.183553516966226198e+02
7.971753785832882966e-02 5.183407649818832397e+02
7.981755986316990681e-02 5.183261598373773040e+02
7.991758186801095620e-02 5.183115365111011670e+02
8.001760387285201948e-02 5.182968952510369718e+02
8.011762587769309663e-02 5.182822363051467391e+02
8.021764788253414602e-02 5.182675599213666828e+02
8.031766988737520929e-02 5.182528663475972053e+02
8.041769189221628644e-02 5.182381558316983501e+02
8.051771389705733584e-02 5.182234286214838903e+02
8.061773590189841299e-02 5.182086849647124609e+02
8.071775790673947626e-02 5.181939251090813059e+02
8.081777991158055341e-02 5.181791493022208215e+02
8.091780191642160280e-02 5.181643577916855747e+02
8.101782392126266608e-02 5.181495508249511204e+02
8.111784592610374323e-02 5.181347286494025184e+02
8.121786793094479262e-02 5.181198915123308097e+02
8.131788993578586977e-02 5.181050396609268773e+02
8.141791194062693304e-02 5.180901733422704183e+02
8.151793394546799632e-02 5.180752928033292619e+02
8.161795595030905959e-02 5.180603982909485694e+02
8.171797795515012286e-02 5.180454900518440127e+02
8.181799995999120001e-02 5.180305683325971131e+02
8.191802196483224940e-02 5.180156333796477384e+02
8.201804396967332655e-02 5.180006854392872810e+02
8.211806597451438983e-02 5.179857247576514965e+02
8.221808797935545310e-02 5.179707515807145910e+02
8.231810998419651637e-02 5.179557661542827418e+02
8.241813198903757964e-02 5.179407687239867073e+02
8.251815399387864292e-02 5.179257595352744374e+02
8.261817599871970619e-02 5.179107388334082316e+02
8.271819800356078334e-02 5.178957068634529151e+02
8.281822000840184661e-02 5.178806638702716327e+02
8.291824201324290988e-02 5.178656100985217563e+02
8.301826401808397315e-02 5.178505457926438567e+02
8.311828602292503643e-02 5.178354711968570427e+02
8.321830802776609970e-02 5.178203865551535046e+02
8.331833003260716297e-02 5.178052921112903277e+02
8.341835203744824012e-02 5.177901881087838092e+02
8.351837404228928952e-02 5.177750747909027496e+02
8.361839604713036667e-02 5.177599524006608362e+02
8.371841805197142994e-02 5.177448211808119822e+02
8.381844005681249321e-02 5.177296813738435048e+02
8.391846206165355648e-02 5.177145332219679403e+02
8.401848406649461976e-02 5.176993769671184964e+02
8.411850607133569691e-02 5.176842128509414351e+02
8.421852807617674630e-02 5.176690411147899340e+02
8.431855008101782345e-02 5.176538619997179467e+02
8.441857208585888672e-02 5.176386757464737229e+02
8.451859409069993612e-02 5.176234825954920780e+02
8.461861609554101327e-02 5.176082827868915501e+02
8.471863810038207654e-02 5.175930765604623502e+02
8.481866010522315369e-02 5.175778641556657931e+02
8.491868211006420308e-02 5.175626458116239519e+02
8.501870411490528023e-02 5.175474217671155657e+02
8.511872611974634351e-02 5.175321922605684222e+02
8.521874812458739290e-02 5.175169575300534461e+02
8.531877012942847005e-02 5.175017178132791287e+02
8.541879213426953332e-02 5.174864733475833418e+02
8.551881413911061047e-02 5.174712243699293595e+02
8.561883614395165987e-02 5.174559711168983540e+02
8.571885814879273702e-02 5.174407138246829163e+02
8.581888015363380029e-02 5.174254527290812575e+02
8.591890215847484968e-02 5.174101880654917522e+02
8.601892416331592683e-02 5.173949200689053214e+02
8.611894616815699011e-02 5.173796489738997479e+02
8.621896817299803950e-02 5.173643750146345610e+02
8.631899017783911665e-02 5.173490984248436462e+02
8.641901218268019380e-02 5.173338194378291064e+02
8.651903418752125707e-02 5.173185382864561461e+02
8.661905619236230647e-02 5.173032552031467048e+02
8.671907819720338362e-02 5.172879704198716126e+02
8.681910020204444689e-02 5.172726841681482028e+02
8.691912220688549628e-02 5.172573966790300801e+02
8.701914421172657343e-02 5.172421081831050742e+02
8.711916621656765058e-02 5.172268189104858038e+02
8.721918822140869998e-02 5.172115290908053566e+02
8.731921022624976325e-02 5.171962389532121733e+02
8.741923223109084040e-02 5.171809487263627716e+02
8.751925423593190367e-02 5.171656586384156071e+02
8.761927624077295307e-02 5.171503689170259577e+02
8.771929824561403022e-02 5.171350797893405797e+02
8.781932025045510737e-02 5.171197914819904327e+02
8.791934225529615676e-02 5.171045042210857900e+02
8.801936426013722004e-02 5.170892182322101007e+02
8.811938626497829719e-02 5.170739337404144180e+02
8.821940826981934658e-02 5.170586509702109197e+02
8.831943027466040985e-02 5.170433701455685878e+02
8.841945227950148700e-02 5.170280914899060463e+02
8.851947428434256415e-02 5.170128152260863317e+02
8.861949628918361355e-02 5.169975415764118907e+02
8.871951829402467682e-02 5.169822707626177589e+02
8.881954029886575397e-02 5.169670030058667862e+02
8.891956230370680336e-02 5.169517385267428153e+02
8.901958430854786664e-02 5.169364775452470440e+02
8.911960631338894379e-02 5.169212202807916583e+02
8.921962831822999318e-02 5.169059669521921023e+02
8.931965032307107033e-02 5.168907177776653725e+02
8.941967232791213360e-02 5.168754729748221735e+02
8.951969433275321075e-02 5.168602327606605513e+02
8.961971633759426015e-02 5.168449973515633928e+02
8.971973834243532342e-02 5.168297669632903535e+02
8.981976034727640057e-02 5.168145418109729690e+02
8.991978235211744996e-02 5.167993221091116993e+02
9.001980435695852711e-02 5.167841080715653561e+02
9.011982636179959039e-02 5.167688999115523529e+02
9.021984836664065366e-02 5.167536978416401325e+02
9.031987037148171693e-02 5.167385020737409604e+02
9.041989237632278020e-02 5.167233128191099922e+02
9.051991438116385735e-02 5.167081302883350418e+02
9.061993638600490675e-02 5.166929546913354443e+02
9.071995839084598390e-02 5.166777862373534163e+02
9.081998039568704717e-02 5.166626251349529184e+02
9.092000240052811044e-02 5.166474715920107883e+02
9.102002440536917371e-02 5.166323258157140117e+02
9.112004641021023699e-02 5.166171880125519920e+02
9.122006841505130026e-02 5.166020583883157542e+02
9.132009041989236353e-02 5.165869371480894188e+02
9.142011242473344068e-02 5.165718244962449717e+02
9.152013442957450395e-02 5.165567206364402182e+02
9.162015643441556723e-02 5.165416257716112796e+02
9.172017843925663050e-02 5.165265401039682729e+02
9.182020044409769377e-02 5.165114638349919005e+02
9.192022244893875704e-02 5.164963971654252646e+02
9.202024445377982032e-02 5.164813402952731849e+02
9.212026645862089747e-02 5.164662934237941272e+02
9.222028846346194686e-02 5.164512567494962241e+02
9.232031046830302401e-02 5.164362304701337507e+02
9.242033247314408728e-02 5.164212147827010995e+02
9.252035447798515055e-02 5.164062098834284598e+02
9.262037648282621383e-02 5.163912159677772706e+02
9.272039848766727710e-02 5.163762332304349911e+02
9.282042049250835425e-02 5.163612618653118034e+02
9.292044249734940364e-02 5.163463020655342461e+02
9.302046450219048079e-02 5.163313540234424863e+02
9.312048650703154407e-02 5.163164179305842936e+02
9.322050851187259346e-02 5.163014939777106065e+02
9.332053051671367061e-02 5.162865823547729178e+02
9.342055252155473388e-02 5.162716832509166807e+02
9.352057452639581103e-02 5.162567968544775567e+02
9.362059653123686043e-02 5.162419233529772100e+02
9.372061853607793758e-02 5.162270629331196687e+02
9.382064054091900085e-02 5.162122157807856411e+02
9.392066254576005024e-02 5.161973820810289908e+02
9.402068455060112739e-02 5.161825620180719625e+02
9.412070655544219067e-02 5.161677557753023393e+02
9.422072856028326782e-02 5.161529635352667356e+02
9.432075056512431721e-02 5.161381854796695734e+02
9.442077256996539436e-02 5.161234217893662617e+02
9.452079457480645763e-02 5.161086726443602402e+02
9.462081657964750703e-02 5.160939382237994550e+02
9.472083858448858418e-02 5.160792187059694243e+02
9.482086058932964745e-02 5.160645142682953974e+02
9.492088259417069684e-02 5.160498250873308734e+02
9.502090459901177399e-02 5.160351513387594196e+02
9.512092660385285114e-02 5.160204931973869407e+02
9.522094860869391442e-02 5.160058508371400876e+02
9.532097061353496381e-02 5.159912244310627329e+02
9.542099261837604096e-02 5.159766141513096045e+02
9.552101462321710423e-02 5.159620201691448074e+02
9.562103662805815363e-02 5.159474426549365944e+02
9.572105863289923078e-02 5.159328817781560019e+02
9.582108063774030793e-02 5.159183377073699148e+02
9.592110264258135732e-02 5.159038106102395886e+02
9.602112464742242059e-02 5.158893006535172390e+02
9.612114665226349774e-02 5.158748080030392202e+02
9.622116865710456102e-02 5.158603328237281858e+02
9.632119066194561041e-02 5.158458752795838791e+02
9.642121266678668756e-02 5.158314355336835888e+02
9.652123467162776471e-02 5.158170137481763504e+02
9.662125667646881411e-02 5.158026100842801043e+02
9.672127868130987738e-02 5.157882247022793081e+02
9.682130068615095453e-02 5.157738577615212989e+02
9.692132269099200392e-02 5.157595094204101542e+02
9.702134469583306720e-02 5.157451798364088518e+02
9.712136670067414435e-02 5.157308691660308568e+02
9.722138870551522150e-02 5.157165775648394401e+02
9.732141071035627089e-02 5.157023051874449493e+02
9.742143271519733416e-02 5.156880521874993519e+02
9.752145472003841131e-02 5.156738187176954398e+02
9.762147672487946071e-02 5.156596049297629634e+02
9.772149872972052398e-02 5.156454109744653351e+02
9.782152073456160113e-02 5.156312370015953093e+02
9.792154273940265052e-02 5.156170831599762323e+02
9.802156474424372767e-02 5.156029495974545398e+02
9.812158674908479095e-02 5.155888364608980510e+02
9.822160875392586810e-02 5.155747438961957414e+02
9.832163075876691749e-02 5.155606720482516039e+02
9.842165276360798076e-02 5.155466210609833979e+02
9.852167476844905791e-02 5.155325910773187843e+02
9.862169677329010731e-02 5.155185822391950978e+02
9.872171877813118446e-02 5.155045946875537766e+02
9.882174078297224773e-02 5.154906285623394524e+02
9.892176278781331100e-02 5.154766840024965404e+02
9.902178479265437427e-02 5.154627611459675336e+02
9.912180679749543755e-02 5.154488601296886827e+02
9.922182880233651470e-02 5.154349810895901101e+02
9.932185080717756409e-02 5.154211241605906935e+02
9.942187281201864124e-02 5.154072894765976116e+02
9.952189481685970451e-02 5.153934771705030471e+02
9.962191682170076779e-02 5.153796873741817990e+02
9.972193882654183106e-02 5.153659202184891228e+02
9.982196083138289433e-02 5.153521758332585705e+02
9.992198283622395760e-02 5.153384543472993755e+02
1.000220048410650209e-01 5.153247558883948614e+02
1.001220268459060980e-01 5.153110805832992583e+02
1.002220488507471613e-01 5.152974285577374758e+02
1.003220708555882246e-01 5.152837999363996460e+02
1.004220928604292878e-01 5.152701948429427148e+02
1.005221148652703511e-01 5.152566133999863496e+02
1.006221368701114144e-01 5.152430557291114610e+02
1.007221588749524777e-01 5.152295219508584978e+02
1.008221808797935548e-01 5.152160121847239225e+02
1.009222028846346042e-01 5.152025265491608934e+02
1.010222248894756814e-01 5.151890651615759680e+02
1.011222468943167446e-01 5.151756281383273972e+02
1.012222688991578079e-01 5.151622155947231931e+02
1.013222909039988712e-01 5.151488276450193098e+02
1.014223129088399344e-01 5.151354644024202116e+02
1.015223349136810116e-01 5.151221259790723934e+02
1.016223569185220610e-01 5.151088124860677908e+02
1.017223789233631381e-01 5.150955240334391192e+02
1.018224009282042014e-01 5.150822607301602147e+02
1.019224229330452508e-01 5.150690226841422827e+02
1.020224449378863280e-01 5.150558100022343524e+02
1.021224669427273912e-01 5.150426227902217988e+02
1.022224889475684684e-01 5.150294611528235009e+02
1.023225109524095178e-01 5.150163251936915003e+02
1.024225329572505949e-01 5.150032150154107740e+02
1.025225549620916582e-01 5.149901307194944593e+02
1.026225769669327076e-01 5.149770724063865828e+02
1.027225989717737847e-01 5.149640401754589902e+02
1.028226209766148480e-01 5.149510341250104375e+02
1.029226429814559252e-01 5.149380543522646576e+02
1.030226649862969746e-01 5.149251009533697925e+02
1.031226869911380517e-01 5.149121740233991886e+02
1.032227089959791150e-01 5.148992736563470771e+02
1.033227310008201644e-01 5.148863999451301652e+02
1.034227530056612415e-01 5.148735529815852487e+02
1.035227750105023048e-01 5.148607328564695536e+02
1.036227970153433542e-01 5.148479396594584614e+02
1.037228190201844313e-01 5.148351734791460785e+02
1.038228410250255085e-01 5.148224344030422799e+02
1.039228630298665718e-01 5.148097225175764606e+02
1.040228850347076212e-01 5.147970379080906014e+02
1.041229070395486983e-01 5.147843806588437019e+02
1.042229290443897616e-01 5.147717508530090527e+02
1.043229510492308110e-01 5.147591485726730980e+02
1.044229730540718881e-01 5.147465738988366866e+02
1.045229950589129653e-01 5.147340269114133662e+02
1.046230170637540147e-01 5.147215076892277921e+02
1.047230390685950779e-01 5.147090163100181144e+02
1.048230610734361551e-01 5.146965528504334770e+02
1.049230830782772184e-01 5.146841173860345862e+02
1.050231050831182678e-01 5.146717099912918911e+02
1.051231270879593449e-01 5.146593307395871761e+02
1.052231490928004221e-01 5.146469797032134466e+02
1.053231710976414714e-01 5.146346569533718593e+02
1.054231931024825347e-01 5.146223625601755884e+02
1.055232151073236119e-01 5.146100965926451636e+02
1.056232371121646613e-01 5.145978591187138136e+02
1.057232591170057245e-01 5.145856502052217820e+02
1.058232811218468017e-01 5.145734699179214431e+02
1.059233031266878788e-01 5.145613183214716173e+02
1.060233251315289282e-01 5.145491954794443927e+02
1.061233471363699915e-01 5.145371014543188721e+02
1.062233691412110687e-01 5.145250363074858342e+02
1.063233911460521181e-01 5.145130000992452324e+02
1.064234131508931813e-01 5.145009928888081276e+02
1.065234351557342585e-01 5.144890147342955515e+02
1.066234571605753079e-01 5.144770656927402115e+02
1.067234791654163850e-01 5.144651458200839897e+02
1.068235011702574483e-01 5.144532551711834003e+02
1.069235231750985254e-01 5.144413937998045867e+02
1.070235451799395748e-01 5.144295617586261642e+02
1.071235671847806381e-01 5.144177590992418345e+02
1.072235891896217153e-01 5.144059858721557248e+02
1.073236111944627647e-01 5.143942421267880718e+02
1.074236331993038418e-01 5.143825279114731757e+02
1.075236552041449051e-01 5.143708432734597409e+02
1.076236772089859683e-01 5.143591882589128090e+02
1.077236992138270316e-01 5.143475629129140998e+02
1.078237212186680949e-01 5.143359672794622384e+02
1.079237432235091720e-01 5.143244014014745744e+02
1.080237652283502214e-01 5.143128653207871821e+02
1.081237872331912986e-01 5.143013590781548601e+02
1.082238092380323619e-01 5.142898827132539736e+02
1.083238312428734251e-01 5.142784362646827958e+02
1.084238532477144884e-01 5.142670197699603705e+02
1.085238752525555517e-01 5.142556332655314009e+02
1.086238972573966149e-01 5.142442767867639759e+02
1.087239192622376782e-01 5.142329503679517302e+02
1.088239412670787554e-01 5.142216540423157767e+02
1.089239632719198186e-01 5.142103878420043657e+02
1.090239852767608819e-01 5.141991517980953859e+02
1.091240072816019452e-01 5.141879459405970465e+02
1.092240292864430085e-01 5.141767702984478774e+02
1.093240512912840717e-01 5.141656248995215037e+02
1.094240732961251350e-01 5.141545097706240313e+02
1.095240953009662122e-01 5.141434249374981391e+02
1.096241173058072615e-01 5.141323704248226250e+02
1.097241393106483387e-01 5.141213462562158156e+02
1.098241613154894020e-01 5.141103524542342029e+02
1.099241833203304652e-01 5.140993890403781279e+02
1.100242053251715285e-01 5.140884560350889387e+02
1.101242273300125918e-01 5.140775534577536519e+02
1.102242493348536689e-01 5.140666813267056341e+02
1.103242713396947183e-01 5.140558396592246027e+02
1.104242933445357955e-01 5.140450284715420821e+02
1.105243153493768588e-01 5.140342477788390170e+02
1.106243373542179081e-01 5.140234975952505465e+02
1.107243593590589853e-01 5.140127779338669143e+02
1.108243813639000486e-01 5.140020888067342639e+02
1.109244033687411257e-01 5.139914302248572540e+02
1.110244253735821751e-01 5.139808021982024684e+02
1.111244473784232523e-01 5.139702047356975072e+02
1.112244693832643155e-01 5.139596378452354202e+02
1.113244913881053649e-01 5.139491015336750479e+02
1.114245133929464421e-01 5.139385958068446598e+02
1.115245353977875054e-01 5.139281206695425226e+02
1.116245574026285825e-01 5.139176761255397423e+02
1.117245794074696319e-01 5.139072621775819698e+02
1.118246014123107090e-01 5.138968788273937207e+02
1.119246234171517723e-01 5.138865260756772386e+02
1.120246454219928217e-01 5.138762039221165878e+02
1.121246674268338989e-01 5.138659123653807228e+02
1.122246894316749621e-01 5.138556514031229199e+02
1.123247114365160115e-01 5.138454210319882804e+02
1.124247334413570887e-01 5.138352212476096383e+02
1.125247554461981658e-01 5.138250520446150631e+02
1.126247774510392291e-01 5.138149134166291105e+02
1.127247994558802785e-01 5.138048053562732775e+02
1.128248214607213556e-01 5.137947278551712316e+02
1.129248434655624189e-01 5.137846809039494929e+02
1.130248654704034683e-01 5.137746644922415271e+02
1.131248874752445455e-01 5.137646786086886550e+02
1.132249094800856226e-01 5.137547232409451681e+02
1.133249314849266720e-01 5.137447983756781014e+02
1.134249534897677353e-01 5.137349039985724630e+02
1.135249754946088124e-01 5.137250400943319164e+02
1.136249974994498757e-01 5.137152066466844644e+02
1.137250195042909251e-01 5.137054036383814264e+02
1.138250415091320022e-01 5.136956310512040318e+02
1.139250635139730794e-01 5.136858888659638751e+02
1.140250855188141288e-01 5.136761770625063264e+02
1.141251075236551921e-01 5.136664956197150786e+02
1.142251295284962692e-01 5.136568445155128302e+02
1.143251515333373186e-01 5.136472237268654908e+02
1.144251735381783819e-01 5.136376332297853651e+02
1.145251955430194590e-01 5.136280729993346768e+02
1.146252175478605362e-01 5.136185430096268192e+02
1.147252395527015856e-01 5.136090432338316987e+02
1.148252615575426488e-01 5.135995736441775534e+02
1.149252835623837260e-01 5.135901342119550463e+02
1.150253055672247754e-01 5.135807249075194250e+02
1.151253275720658387e-01 5.135713457002947280e+02
1.152253495769069158e-01 5.135619965587770821e+02
1.153253715817479652e-01 5.135526774505383401e+02
1.154253935865890424e-01 5.135433883422275585e+02
1.155254155914301056e-01 5.135341291995766824e+02
1.156254375962711828e-01 5.135248999874032734e+02
1.157254596011122322e-01 5.135157006696131248e+02
1.158254816059532954e-01 5.135065312092049226e+02
1.159255036107943726e-01 5.134973915682735424e+02
1.160255256156354220e-01 5.134882817080127779e+02
1.161255476204764991e-01 5.134792015887194339e+02
1.162255696253175624e-01 5.134701511697975320e+02
1.163255916301586257e-01 5.134611304097616085e+02
1.164256136349996890e-01 5.134521392662391008e+02
1.165256356398407522e-01 5.134431776959767149e+02
1.166256576446818294e-01 5.134342456548424707e+02
1.167256796495228788e-01 5.134253430978279766e+02
1.168257016543639559e-01 5.134164699790555915e+02
1.169257236592050192e-01 5.134076262517797886e+02
1.170257456640460825e-01 5.133988118683921584e+02
1.171257676688871457e-01 5.133900267804243640e+02
1.172257896737282090e-01 5.133812709385531434e+02
1.173258116785692723e-01 5.133725442926034930e+02
1.174258336834103356e-01 5.133638467915529873e+02
1.175258556882514127e-01 5.133551783835351898e+02
1.176258776930924760e-01 5.133465390158442005e+02
1.177258996979335393e-01 5.133379286349388622e+02
1.178259217027746025e-01 5.133293471864461708e+02
1.179259437076156658e-01 5.133207946151660508e+02
1.180259657124567291e-01 5.133122708650754475e+02
1.181259877172977923e-01 5.133037758793315106e+02
1.182260097221388695e-01 5.132953096002771645e+02
1.183260317269799189e-01 5.132868719694439505e+02
1.184260537318209960e-01 5.132784629275573707e+02
1.185260757366620593e-01 5.132700824145409797e+02
1.186260977415031226e-01 5.132617303695201372e+02
1.187261197463441859e-01 5.132534067308256454e+02
1.188261417511852491e-01 5.132451114360010251e+02
1.189261637560263263e-01 5.132368444218034256e+02
1.190261857608673757e-01 5.132286056242099903e+02
1.191262077657084528e-01 5.132203949784210408e+02
1.192262297705495161e-01 5.132122124188659882e+02
1.193262517753905655e-01 5.132040578792064025e+02
1.194262737802316426e-01 5.131959312923422658e+02
1.195262957850727059e-01 5.131878325904135636e+02
1.196263177899137831e-01 5.131797617048081293e+02
1.197263397947548325e-01 5.131717185661634630e+02
1.198263617995959096e-01 5.131637031043734396e+02
1.199263838044369729e-01 5.131557152485912638e+02
1.200264058092780223e-01 5.131477549272348142e+02
1.201264278141190994e-01 5.131398220679917586e+02
1.202264498189601627e-01 5.131319165978239880e+02
1.203264718238012398e-01 5.131240384429704591e+02
1.204264938286422892e-01 5.131161875289552654e+02
1.205265158334833664e-01 5.131083637805893432e+02
1.206265378383244297e-01 5.131005671219782016e+02
1.207265598431654791e-01 5.130927974765222643e+02
1.208265818480065562e-01 5.130850547669273283e+02
1.209266038528476195e-01 5.130773389152047912e+02
1.210266258576886689e-01 5.130696498426784729e+02
1.211266478625297460e-01 5.130619874699893899e+02
1.212266698673708232e-01 5.130543517170999621e+02
1.213266918722118864e-01 5.130467425033008340e+02
1.214267138770529358e-01 5.130391597472122385e+02
1.215267358818940130e-01 5.130316033667933198e+02
1.216267578867350763e-01 5.130240732793431562e+02
1.217267798915761257e-01 5.130165694015083773e+02
1.218268018964172028e-01 5.130090916492865745e+02
1.219268239012582800e-01 5.130016399380326675e+02
1.220268459060993294e-01 5.129942141824641340e+02
1.221268679109403926e-01 5.129868142966628284e+02
1.222268899157814698e-01 5.129794401940857824e+02
1.223269119206225330e-01 5.129720917875631585e+02
1.224269339254635824e-01 5.129647689893110964e+02
1.225269559303046596e-01 5.129574717109302355e+02
1.226269779351457367e-01 5.129501998634154916e+02
1.227269999399867861e-01 5.129429533571585580e+02
1.228270219448278494e-01 5.129357321019535902e+02
1.229270439496689266e-01 5.129285360070039133e+02
1.230270659545099760e-01 5.129213649809255458e+02
1.231270879593510392e-01 5.129142189317525435e+02
1.232271099641921164e-01 5.129070977669438207e+02
1.233271319690331935e-01 5.129000013933864466e+02
1.234271539738742429e-01 5.128929297174024668e+02
1.235271759787153062e-01 5.128858826447536785e+02
1.236271979835563833e-01 5.128788600806467457e+02
1.237272199883974327e-01 5.128718619297384294e+02
1.238272419932384960e-01 5.128648880961422947e+02
1.239272639980795732e-01 5.128579384834314396e+02
1.240272860029206226e-01 5.128510129946475899e+02
1.241273080077616997e-01 5.128441115323023496e+02
1.242273300126027630e-01 5.128372339983866368e+02
1.243273520174438401e-01 5.128303802943721621e+02
1.244273740222848895e-01 5.128235503212214326e+02
1.245273960271259528e-01 5.128167439793886615e+02
1.246274180319670299e-01 5.128099611688278401e+02
1.247274400368080793e-01 5.128032017889984218e+02
1.248274620416491565e-01 5.127964657388693013e+02
1.249274840464902198e-01 5.127897529169262043e+02
1.250275060513312830e-01 5.127830632211747570e+02
1.251275280561723324e-01 5.127763965491486715e+02
1.252275500610134096e-01 5.127697527979138385e+02
1.253275720658544867e-01 5.127631318640740119e+02
1.254275940706955361e-01 5.127565336437770611e+02
1.255276160755366133e-01 5.127499580327196327e+02
1.256276380803776904e-01 5.127434049261523796e+02
1.257276600852187398e-01 5.127368742188889428e+02
1.258276820900597892e-01 5.127303658053067466e+02
1.259277040949008664e-01 5.127238795793558666e+02
1.260277260997419158e-01 5.127174154345639181e+02
1.261277481045829929e-01 5.127109732640416269e+02
1.262277701094240701e-01 5.127045529604886269e+02
1.263277921142651472e-01 5.126981544161983493e+02
1.264278141191061966e-01 5.126917775230649568e+02
1.265278361239472460e-01 5.126854221725884599e+02
1.266278581287883231e-01 5.126790882558810836e+02
1.267278801336293725e-01 5.126727756636714730e+02
1.268279021384704497e-01 5.126664842863124250e+02
1.269279241433115268e-01 5.126602140137839569e+02
1.270279461481525762e-01 5.126539647357021749e+02
1.271279681529936534e-01 5.126477363413238209e+02
1.272279901578347028e-01 5.126415287195502515e+02
1.273280121626757799e-01 5.126353417589361925e+02
1.274280341675168293e-01 5.126291753476936037e+02
1.275280561723579065e-01 5.126230293736980457e+02
1.276280781771989836e-01 5.126169037244948186e+02
1.277281001820400330e-01 5.126107982873033961e+02
1.278281221868811102e-01 5.126047129490251564e+02
1.279281441917221596e-01 5.125986475962481563e+02
1.280281661965632367e-01 5.125926021152536123e+02
1.281281882014042861e-01 5.125865763920198788e+02
1.282282102062453633e-01 5.125805703122313162e+02
1.283282322110864404e-01 5.125745837612819287e+02
1.284282542159274898e-01 5.125686166242804802e+02
1.285282762207685670e-01 5.125626687860603852e+02
1.286282982256096163e-01 5.125567401311799358e+02
1.287283202304506935e-01 5.125508305439338983e+02
1.288283422352917429e-01 5.125449399083552180e+02
1.289283642401328200e-01 5.125390681082218407e+02
1.290283862449738972e-01 5.125332150270644433e+02
1.291284082498149466e-01 5.125273805481699583e+02
1.292284302546560237e-01 5.125215645545890766e+02
1.293284522594970731e-01 5.125157669291406819e+02
1.294284742643381503e-01 5.125099875544208317e+02
1.295284962691791997e-01 5.125042263128035529e+02
1.296285182740202768e-01 5.124984830864518699e+02
1.297285402788613262e-01 5.124927577573208737e+02
1.298285622837024034e-01 5.124870502071636338e+02
1.299285842885434805e-01 5.124813603175394974e+02
1.300286062933845299e-01 5.124756879698164767e+02
1.301286282982256071e-01 5.124700330451801165e+02
1.302286503030666565e-01 5.124643954246380417e+02
1.303286723079077336e-01 5.124587749890264377e+02
1.304286943127487830e-01 5.124531716190147108e+02
1.305287163175898602e-01 5.124475851951141294e+02
1.306287383224309373e-01 5.124420155976805518e+02
1.307287603272719867e-01 5.124364627069227254e+02
1.308287823321130638e-01 5.124309264029068345e+02
1.309288043369541132e-01 5.124254065655634349e+02
1.310288263417951904e-01 5.124199030746921153e+02
1.311288483466362398e-01 5.124144158099694550e+02
1.312288703514773169e-01 5.124089446509523214e+02
1.313288923563183941e-01 5.124034894770868505e+02
1.314289143611594435e-01 5.123980501677109487e+02
1.315289363660005206e-01 5.123926266020629328e+02
1.316289583708415700e-01 5.123872186592874414e+02
1.317289803756826472e-01 5.123818262184389596e+02
1.318290023805236966e-01 5.123764491584890948e+02
1.319290243853647737e-01 5.123710873583349894e+02
1.320290463902058509e-01 5.123657406968001169e+02
1.321290683950469003e-01 5.123604090526439450e+02
1.322290903998879774e-01 5.123550923045679610e+02
1.323291124047290268e-01 5.123497903312186281e+02
1.324291344095701040e-01 5.123445030111970482e+02
1.325291564144111534e-01 5.123392302230622590e+02
1.326291784192522305e-01 5.123339718453370324e+02
1.327292004240932799e-01 5.123287277565159457e+02
1.328292224289343570e-01 5.123234978350690199e+02
1.329292444337754342e-01 5.123182819594487682e+02
1.330292664386164836e-01 5.123130800080963354e+02
1.331292884434575607e-01 5.123078918594467268e+02
1.332293104482986101e-01 5.123027173919341521e+02
1.333293324531396873e-01 5.122975564839990739e+02
1.334293544579807367e-01 5.122924090140937778e+02
1.335293764628218138e-01 5.122872748606879441e+02
1.336293984676628910e-01 5.122821539022742172e+02
1.337294204725039404e-01 5.122770460173746869e+02
1.338294424773450175e-01 5.122719510845472541e+02
1.339294644821860669e-01 5.122668689823892691e+02
1.340294864870271441e-01 5.122617995895454897e+02
1.341295084918681935e-01 5.122567427847133104e+02
1.342295304967092706e-01 5.122516984466481063e+02
1.343295525015503478e-01 5.122466664541700538e+02
1.344295745063913972e-01 5.122416466861683375e+02
1.345295965112324743e-01 5.122366390216085392e+02
1.346296185160735237e-01 5.122316433395376407e+02
1.347296405209145731e-01 5.122266595190892531e+02
1.348296625257556502e-01 5.122216874394906654e+02
1.349296845305967274e-01 5.122167269800676195e+02
1.350297065354378045e-01 5.122117780202514723e+02
1.351297285402788539e-01 5.122068404395819243e+02
1.352297505451199311e-01 5.122019141177166830e+02
1.353297725499609805e-01 5.121969989344331680e+02
1.354297945548020299e-01 5.121920947696382882e+02
1.355298165596431070e-01 5.121872015033702610e+02
1.356298385644841842e-01 5.121823190158073658e+02
1.357298605693252336e-01 5.121774471872716958e+02
1.358298825741663107e-01 5.121725858982357522e+02
1.359299045790073879e-01 5.121677350293282416e+02
1.360299265838484373e-01 5.121628944613382828e+02
1.361299485886894867e-01 5.121580640752231375e+02
1.362299705935305638e-01 5.121532437521121892e+02
1.363299925983716410e-01 5.121484333733134235e+02
1.364300146032126904e-01 5.121436328203185440e+02
1.365300366080537675e-01 5.121388419748087699e+02
1.366300586128948447e-01 5.121340607186606348e+02
1.367300806177358941e-01 5.121292889339513295e+02
1.368301026225769434e-01 5.121245265029634766e+02
1.369301246274180206e-01 5.121197733081921797e+02
1.370301466322590977e-01 5.121150292323499116e+02
1.371301686371001471e-01 5.121102941583715165e+02
1.372301906419412243e-01 5.121055679694196670e+02
1.373302126467823014e-01 5.121008505488914579e+02
1.374302346516233508e-01 5.120961417804230678e+02
1.375302566564644002e-01 5.120914415478952151e+02
1.376302786613054774e-01 5.120867497354383886e+02
1.377303006661465545e-01 5.120820662274394408e+02
1.378303226709876039e-01 5.120773909085443165e+02
1.379303446758286811e-01 5.120727236636674888e+02
1.380303666806697582e-01 5.120680643779938919e+02
1.381303886855108076e-01 5.120634129369857419e+02
1.382304106903518570e-01 5.120587692263874260e+02
1.383304326951929342e-01 5.120541331322309588e+02
1.384304547000339836e-01 5.120495045408422357e+02
1.385304767048750607e-01 5.120448833388436469e+02
1.386304987097161379e-01 5.120402694131636281e+02
1.387305207145572150e-01 5.120356626510383649e+02
1.388305427193982644e-01 5.120310629400166818e+02
1.389305647242393138e-01 5.120264701679690234e+02
1.390305867290803910e-01 5.120218842230895007e+02
1.391306087339214403e-01 5.120173049939013481e+02
1.392306307387625175e-01 5.120127323692636310e+02
1.393306527436035946e-01 5.120081662383753383e+02
1.394306747484446440e-01 5.120036064907801574e+02
1.395306967532857212e-01 5.119990530163728408e+02
1.396307187581267706e-01 5.119945057054033555e+02
1.397307407629678477e-01 5.119899644484814871e+02
1.398307627678088971e-01 5.119854291365837753e+02
1.399307847726499743e-01 5.119808996610561280e+02
1.400308067774910514e-01 5.119763759136213821e+02
1.401308287823321008e-01 5.119718577863826567e+02
1.402308507871731780e-01 5.119673451718285833e+02
1.403308727920142274e-01 5.119628379628386483e+02
1.404308947968552768e-01 5.119583360526870592e+02
1.405309168016963539e-01 5.119538393350500769e+02
1.406309388065374311e-01 5.119493477040084031e+02
1.407309608113785082e-01 5.119448610540532627e+02
1.408309828162195576e-01 5.119403792800910082e+02
1.409310048210606348e-01 5.119359022774480650e+02
1.410310268259016842e-01 5.119314299418757628e+02
1.411310488307427335e-01 5.119269621695553951e+02
1.412310708355838107e-01 5.119224988571022550e+02
1.413310928404248878e-01 5.119180399015706371e+02
1.414311148452659372e-01 5.119135852004599769e+02
1.415311368501070144e-01 5.119091346517171246e+02
1.416311588549480915e-01 5.119046881537423701e+02
1.417311808597891409e-01 5.119002456053956394e+02
1.418312028646301903e-01 5.118958069059968352e+02
1.419312248694712675e-01 5.118913719553357851e+02
1.420312468743123446e-01 5.118869406536728093e+02
1.421312688791533940e-01 5.118825129017450877e+02
1.422312908839944712e-01 5.118780886007705817e+02
1.423313128888355483e-01 5.118736676524537188e+02
1.424313348936765977e-01 5.118692499589879503e+02
1.425313568985176471e-01 5.118648354230618907e+02
1.426313789033587243e-01 5.118604239478632962e+02
1.427314009081998014e-01 5.118560154370827604e+02
1.428314229130408508e-01 5.118516097949205914e+02
1.429314449178819280e-01 5.118472069260869830e+02
1.430314669227230051e-01 5.118428067358106546e+02
1.431314889275640545e-01 5.118384091298397607e+02
1.432315109324051039e-01 5.118340140144496786e+02
1.433315329372461810e-01 5.118296212964439746e+02
1.434315549420872304e-01 5.118252308831606570e+02
1.435315769469283076e-01 5.118208426824756998e+02
1.436315989517693847e-01 5.118164566028078752e+02
1.437316209566104619e-01 5.118120725531219364e+02
1.438316429614515113e-01 5.118076904429333354e+02
1.439316649662925607e-01 5.118033101823134530e+02
1.440316869711336378e-01 5.117989316818910197e+02
1.441317089759746872e-01 5.117945548528585960e+02
1.442317309808157644e-01 5.117901796069760394e+02
1.443317529856568415e-01 5.117858058565749957e+02
1.444317749904978909e-01 5.117814335145604332e+02
1.445317969953389681e-01 5.117770624944179758e+02
1.446318190001800175e-01 5.117726927102156651e+02
1.447318410050210946e-01 5.117683240766089625e+02
1.448318630098621440e-01 5.117639565088434779e+02
1.449318850147032212e-01 5.117595899227608811e+02
1.450319070195442983e-01 5.117552242347999822e+02
1.451319290243853477e-01 5.117508593620038937e+02
1.452319510292264249e-01 5.117464952220199166e+02
1.453319730340674742e-01 5.117421317331067030e+02
1.454319950389085514e-01 5.117377688141363024e+02
1.455320170437496008e-01 5.117334063845977994e+02
1.456320390485906779e-01 5.117290443646019185e+02
1.457320610534317551e-01 5.117246826748840931e+02
1.458320830582728045e-01 5.117203212368079903e+02
1.459321050631138816e-01 5.117159599723684096e+02
1.460321270679549310e-01 5.117115988041975925e+02
1.461321490727960082e-01 5.117072376555646542e+02
1.462321710776370576e-01 5.117028764503834282e+02
1.463321930824781347e-01 5.116985151132116698e+02
1.464322150873192119e-01 5.116941535692586740e+02
1.465322370921602613e-01 5.116897917443842516e+02
1.466322590970013384e-01 5.116854295651064604e+02
1.467322811018423878e-01 5.116810669586029121e+02
1.468323031066834650e-01 5.116767038527129330e+02
1.469323251115245144e-01 5.116723401759425087e+02
1.470323471163655915e-01 5.116679758574676953e+02
1.471323691212066409e-01 5.116636108271367220e+02
1.472323911260477181e-01 5.116592450154743688e+02
1.473324131308887952e-01 5.116548783536830456e+02
1.474324351357298446e-01 5.116505107736500122e+02
1.475324571405709217e-01 5.116461422079456725e+02
1.476324791454119711e-01 5.116417725898298272e+02
1.477325011502530483e-01 5.116374018532525838e+02
1.478325231550940977e-01 5.116330299328607225e+02
1.479325451599351748e-01 5.116286567639968439e+02
1.480325671647762520e-01 5.116242822827044847e+02
1.481325891696173014e-01 5.116199064257309601e+02
1.482326111744583785e-01 5.116155291305289552e+02
1.483326331792994279e-01 5.116111503352606178e+02
1.484326551841405051e-01 5.116067699788015375e+02
1.485326771889815545e-01 5.116023880007390972e+02
1.486326991938226316e-01 5.115980043413808858e+02
1.487327211986637088e-01 5.115936189417536752e+02
1.488327432035047582e-01 5.115892317436075132e+02
1.489327652083458353e-01 5.115848426894174281e+02
1.490327872131868847e-01 5.115804517223875791e+02
1.491328092180279619e-01 5.115760587864521085e+02
1.492328312228690113e-01 5.115716638262794049e+02
1.493328532277100884e-01 5.115672667872729562e+02
1.494328752325511656e-01 5.115628676155760104e+02
1.495328972373922150e-01 5.115584662580723148e+02
1.496329192422332921e-01 5.115540626623877642e+02
1.497329412470743415e-01 5.115496567768959153e+02
1.498329632519154186e-01 5.115452485507172469e+02
1.499329852567564680e-01 5.115408379337231395e+02
1.500330072615975452e-01 5.115364248765380921e+02
1.501330292664385946e-01 5.115320093305419960e+02
1.502330512712796717e-01 5.115275912478706459e+02
1.503330732761207489e-01 5.115231705814210272e+02
1.504330952809617983e-01 5.115187472848505763e+02
1.505331172858028754e-01 5.115143213125822967e+02
1.506331392906439248e-01 5.115098926198029972e+02
1.507331612954850020e-01 5.115054611624693734e+02
1.508331833003260514e-01 5.115010268973067582e+02
1.509332053051671285e-01 5.114965897818145208e+02
1.510332273100082057e-01 5.114921497742638508e+02
1.511332493148492551e-01 5.114877068337036121e+02
1.512332713196903322e-01 5.114832609199594344e+02
1.513332933245313816e-01 5.114788119936380326e+02
1.514333153293724588e-01 5.114743600161266954e+02
1.515333373342135082e-01 5.114699049495960708e+02
1.516333593390545853e-01 5.114654467570031215e+02
1.517333813438956625e-01 5.114609854020906710e+02
1.518334033487367118e-01 5.114565208493903583e+02
1.519334253535777890e-01 5.114520530642242306e+02
1.520334473584188384e-01 5.114475820127064480e+02
1.521334693632598878e-01 5.114431076617445342e+02
1.522334913681009649e-01 5.114386299790408543e+02
1.523335133729420421e-01 5.114341489330944910e+02
1.524335353777831192e-01 5.114296644932024947e+02
1.525335573826241686e-01 5.114251766294618733e+02
1.526335793874652458e-01 5.114206853127702743e+02
1.527336013923062952e-01 5.114161905148278606e+02
1.528336233971473446e-01 5.114116922081377652e+02
1.529336454019884217e-01 5.114071903660098428e+02
1.530336674068294989e-01 5.114026849625579416e+02
1.531336894116705483e-01 5.113981759727046210e+02
1.532337114165116254e-01 5.113936633721817202e+02
1.533337334213527026e-01 5.113891471375307560e+02
1.534337554261937520e-01 5.113846272461025819e+02
1.535337774310348014e-01 5.113801036760624470e+02
1.536337994358758785e-01 5.113755764063877791e+02
1.537338214407169557e-01 5.113710454168704018e+02
1.538338434455580050e-01 5.113665106881173870e+02
1.539338654503990822e-01 5.113619722015521347e+02
1.540338874552401593e-01 5.113574299394147147e+02
1.541339094600812087e-01 5.113528838847634006e+02
1.542339314649222581e-01 5.113483340214762620e+02
1.543339534697633353e-01 5.113437803342496295e+02
1.544339754746044124e-01 5.113392228086013347e+02
1.545339974794454618e-01 5.113346614308696871e+02
1.546340194842865390e-01 5.113300961882159754e+02
1.547340414891276161e-01 5.113255270686231597e+02
1.548340634939686655e-01 5.113209540608979751e+02
1.549340854988097149e-01 5.113163771546709881e+02
1.550341075036507921e-01 5.113117963403962563e+02
1.551341295084918692e-01 5.113072116093541695e+02
1.552341515133329186e-01 5.113026229536503138e+02
1.553341735181739958e-01 5.112980303662153005e+02
1.554341955230150729e-01 5.112934338408073813e+02
1.555342175278561223e-01 5.112888333720105720e+02
1.556342395326971717e-01 5.112842289552372677e+02
1.557342615375382489e-01 5.112796205867248887e+02
1.558342835423792982e-01 5.112750082635412241e+02
1.559343055472203754e-01 5.112703919835806232e+02
1.560343275520614525e-01 5.112657717455653028e+02
1.561343495569025297e-01 5.112611475490471662e+02
1.562343715617435791e-01 5.112565193944058706e+02
1.563343935665846285e-01 5.112518872828492249e+02
1.564344155714256779e-01 5.112472512164140994e+02
1.565344375762667550e-01 5.112426111979663119e+02
1.566344595811078322e-01 5.112379672312010825e+02
1.567344815859489093e-01 5.112333193206401347e+02
1.568345035907899865e-01 5.112286674716353332e+02
1.569345255956310359e-01 5.112240116903670923e+02
1.570345476004720853e-01 5.112193519838442626e+02
1.571345696053131347e-01 5.112146883599024250e+02
1.572345916101542118e-01 5.112100208272073587e+02
1.573346136149952890e-01 5.112053493952502663e+02
1.574346356198363661e-01 5.112006740743512978e+02
1.575346576246774433e-01 5.111959948756571634e+02
1.576346796295184927e-01 5.111913118111409631e+02
1.577347016343595421e-01 5.111866248936033230e+02
1.578347236392005914e-01 5.111819341366684171e+02
1.579347456440416686e-01 5.111772395547889687e+02
1.580347676488827457e-01 5.111725411632405667e+02
1.581347896537238229e-01 5.111678389781234273e+02
1.582348116585649000e-01 5.111631330163621669e+02
1.583348336634059217e-01 5.111584232957040967e+02
1.584348556682469988e-01 5.111537098347197343e+02
1.585348776730880482e-01 5.111489926528003593e+02
1.586348996779291254e-01 5.111442717701600031e+02
1.587349216827702025e-01 5.111395472078316402e+02
1.588349436876112797e-01 5.111348189876687798e+02
1.589349656924523568e-01 5.111300871323434194e+02
1.590349876972933785e-01 5.111253516653462157e+02
1.591350097021344556e-01 5.111206126109840397e+02
1.592350317069755050e-01 5.111158699943805459e+02
1.593350537118165822e-01 5.111111238414736704e+02
1.594350757166576593e-01 5.111063741790172799e+02
1.595350977214987365e-01 5.111016210345761124e+02
1.596351197263398136e-01 5.110968644365292448e+02
1.597351417311808353e-01 5.110921044140654317e+02
1.598351637360219124e-01 5.110873409971841284e+02
1.599351857408629618e-01 5.110825742166924783e+02
1.600352077457040390e-01 5.110778041042062227e+02
1.601352297505451161e-01 5.110730306921465171e+02
1.602352517553861933e-01 5.110682540137406136e+02
1.603352737602272149e-01 5.110634741030184500e+02
1.604352957650682920e-01 5.110586909948117409e+02
1.605353177699093692e-01 5.110539047247553981e+02
1.606353397747504186e-01 5.110491153292820172e+02
1.607353617795914957e-01 5.110443228456234124e+02
1.608353837844325729e-01 5.110395273118066939e+02
1.609354057892736500e-01 5.110347287666552347e+02
1.610354277941146717e-01 5.110299272497858851e+02
1.611354497989557488e-01 5.110251228016076084e+02
1.612354718037968260e-01 5.110203154633184113e+02
1.613354938086378754e-01 5.110155052769068789e+02
1.614355158134789525e-01 5.110106922851482523e+02
1.615355378183200297e-01 5.110058765316018707e+02
1.616355598231611068e-01 5.110010580606113422e+02
1.617355818280021285e-01 5.109962369173037473e+02
1.618356038328432056e-01 5.109914131475825911e+02
1.619356258376842828e-01 5.109865867981329757e+02
1.620356478425253322e-01 5.109817579164142671e+02
1.621356698473664093e-01 5.109769265506611191e+02
1.622356918522074865e-01 5.109720927498801757e+02
1.623357138570485636e-01 5.109672565638473998e+02
1.624357358618895852e-01 5.109624180431098353e+02
1.625357578667306624e-01 5.109575772389780468e+02
1.626357798715717395e-01 5.109527342035287347e+02
1.627358018764127889e-01 5.109478889895995053e+02
1.628358238812538661e-01 5.109430416507885298e+02
1.629358458860949432e-01 5.109381922414516453e+02
1.630358678909359926e-01 5.109333408167002517e+02
1.631358898957770420e-01 5.109284874323995496e+02
1.632359119006181192e-01 5.109236321451650156e+02
1.633359339054591963e-01 5.109187750123611522e+02
1.634359559103002457e-01 5.109139160920993277e+02
1.635359779151413229e-01 5.109090554432343652e+02
1.636359999199824000e-01 5.109041931253626672e+02
1.637360219248234494e-01 5.108993291988202827e+02
1.638360439296644988e-01 5.108944637246794969e+02
1.639360659345055760e-01 5.108895967647472389e+02
1.640360879393466531e-01 5.108847283815618425e+02
1.641361099441877025e-01 5.108798586383910560e+02
1.642361319490287797e-01 5.108749875992281204e+02
1.643361539538698568e-01 5.108701153287912575e+02
1.644361759587109062e-01 5.108652418925193501e+02
1.645361979635519556e-01 5.108603673565708050e+02
1.646362199683930327e-01 5.108554917878182664e+02
1.647362419732341099e-01 5.108506152538485594e+02
1.648362639780751593e-01 5.108457378229580286e+02
1.649362859829162364e-01 5.108408595641512875e+02
1.650363079877572858e-01 5.108359805471366144e+02
1.651363299925983630e-01 5.108311008423247017e+02
1.652363519974394124e-01 5.108262205208254727e+02
1.653363740022804895e-01 5.108213396544439320e+02
1.654363960071215667e-01 5.108164583156775507e+02
1.655364180119626161e-01 5.108115765777159822e+02
1.656364400168036932e-01 5.108066945144326496e+02
1.657364620216447426e-01 5.108018122003874169e+02
1.658364840264858198e-01 5.107969297108201090e+02
1.659365060313268692e-01 5.107920471216474425e+02
1.660365280361679463e-01 5.107871645094618316e+02
1.661365500410090235e-01 5.107822819515262154e+02
1.662365720458500729e-01 5.107773995257721822e+02
1.663365940506911500e-01 5.107725173107952514e+02
1.664366160555321994e-01 5.107676353858549874e+02
1.665366380603732765e-01 5.107627538308668136e+02
1.666366600652143259e-01 5.107578727264025815e+02
1.667366820700554031e-01 5.107529921536844881e+02
1.668367040748964802e-01 5.107481121945849623e+02
1.669367260797375296e-01 5.107432329316197865e+02
1.670367480845785790e-01 5.107383544479478701e+02
1.671367700894196562e-01 5.107334768273645409e+02
1.672367920942607333e-01 5.107286001543005796e+02
1.673368140991017827e-01 5.107237245138182971e+02
1.674368361039428599e-01 5.107188499916059072e+02
1.675368581087839370e-01 5.107139766739776974e+02
1.676368801136249864e-01 5.107091046478658996e+02
1.677369021184660358e-01 5.107042340008222823e+02
1.678369241233071130e-01 5.106993648210096808e+02
1.679369461281481901e-01 5.106944971972015423e+02
1.680369681329892395e-01 5.106896312187764693e+02
1.681369901378303167e-01 5.106847669757144104e+02
1.682370121426713938e-01 5.106799045585951262e+02
1.683370341475124432e-01 5.106750440585922775e+02
1.684370561523534926e-01 5.106701855674696731e+02
1.685370781571945697e-01 5.106653291775787693e+02
1.686371001620356469e-01 5.106604749818529285e+02
1.687371221668766963e-01 5.106556230738060549e+02
1.688371441717177734e-01 5.106507735475264553e+02
1.689371661765588506e-01 5.106459264976732584e+02
1.690371881813998722e-01 5.106410820194749363e+02
1.691372101862409494e-01 5.106362402087209489e+02
1.692372321910820265e-01 5.106314011617611186e+02
1.693372541959231037e-01 5.106265649755007416e+02
1.694372762007641531e-01 5.106217317473960406e+02
1.695372982056052302e-01 5.106169015754513794e+02
1.696373202104463074e-01 5.106120745582128393e+02
1.697373422152873290e-01 5.106072507947662302e+02
1.698373642201284062e-01 5.106024303847327701e+02
1.699373862249694833e-01 5.105976134282626617e+02
1.700374082298105605e-01 5.105928000260340127e+02
1.701374302346516099e-01 5.105879902792470375e+02
1.702374522394926870e-01 5.105831842896195099e+02
1.703374742443337642e-01 5.105783821593823859e+02
1.704374962491747858e-01 5.105735839912777010e+02
1.705375182540158630e-01 5.105687898885514642e+02
1.706375402588569401e-01 5.105639999549506456e+02
1.707375622636980173e-01 5.105592142947187426e+02
1.708375842685390666e-01 5.105544330125918009e+02
1.709376062733801438e-01 5.105496562137919909e+02
1.710376282782212209e-01 5.105448840040274945e+02
1.711376502830622426e-01 5.105401164894820454e+02
1.712376722879033197e-01 5.105353537768169190e+02
1.713376942927443969e-01 5.105305959731604162e+02
1.714377162975854740e-01 5.105258431861084318e+02
1.715377383024265234e-01 5.105210955237170651e+02
1.716377603072676006e-01 5.105163530944979584e+02
1.717377823121086222e-01 5.105116160074148866e+02
1.718378043169496994e-01 5.105068843718792095e+02
1.719378263217907765e-01 5.105021582977452681e+02
1.720378483266318537e-01 5.104974378953035057e+02
1.721378703314729308e-01 5.104927232752795589e+02
1.722378923363139802e-01 5.104880145488269250e+02
1.723379143411550574e-01 5.104833118275226980e+02
1.724379363459960790e-01 5.104786152233637608e+02
1.725379583508371562e-01 5.104739248487614987e+02
1.726379803556782333e-01 5.104692408165372512e+02
1.727380023605193105e-01 5.104645632399159467e+02
1.728380243653603876e-01 5.104598922325245667e+02
1.729380463702014370e-01 5.104552279083851545e+02
1.730380683750425141e-01 5.104505703819096425e+02
1.731380903798835358e-01 5.104459197678961573e+02
1.732381123847246129e-01 5.104412761815245290e+02
1.733381343895656901e-01 5.104366397383493563e+02
1.734381563944067672e-01 5.104320105542971078e+02
1.735381783992478444e-01 5.104273887456611192e+02
1.736382004040888938e-01 5.104227744290947726e+02
1.737382224089299432e-01 5.104181677216092794e+02
1.738382444137709926e-01 5.104135687405669159e+02
1.739382664186120697e-01 5.104089776036764761e+02
1.740382884234531469e-01 5.104043944289877004e+02
1.741383104282942240e-01 5.103998193348881500e+02
1.742383324331353012e-01 5.103952524400959874e+02
1.743383544379763506e-01 5.103906938636567929e+02
1.744383764428174000e-01 5.103861437249358346e+02
1.745383984476584494e-01 5.103816021436177266e+02
1.746384204524995265e-01 5.103770692396959703e+02
1.747384424573406037e-01 5.103725451334711352e+02
1.748384644621816808e-01 5.103680299455451177e+02
1.749384864670227580e-01 5.103635237968154570e+02
1.750385084718638073e-01 5.103590268084724926e+02
1.751385304767048567e-01 5.103545391019889621e+02
1.752385524815459061e-01 5.103500607991217635e+02
1.753385744863869833e-01 5.103455920219006430e+02
1.754385964912280604e-01 5.103411328926268880e+02
1.755386184960691376e-01 5.103366835338671308e+02
1.756386405009102147e-01 5.103322440684470394e+02
1.757386625057512364e-01 5.103278146194472811e+02
1.758386845105923135e-01 5.103233953101976681e+02
1.759387065154333629e-01 5.103189862642732919e+02
1.760387285202744401e-01 5.103145876054868495e+02
1.761387505251155172e-01 5.103101994578861991e+02
1.762387725299565944e-01 5.103058219457453788e+02
1.763387945347976715e-01 5.103014551935635268e+02
1.764388165396386932e-01 5.102970993260569799e+02
1.765388385444797703e-01 5.102927544681542713e+02
1.766388605493208197e-01 5.102884207449913561e+02
1.767388825541618969e-01 5.102840982819053011e+02
1.768389045590029740e-01 5.102797872044308178e+02
1.769389265638440512e-01 5.102754876382929865e+02
1.770389485686851283e-01 5.102711997094031631e+02
1.771389705735261499e-01 5.102669235438521582e+02
1.772389925783672271e-01 5.102626592679068835e+02
1.773390145832082765e-01 5.102584070080029619e+02
1.774390365880493536e-01 5.102541668907408052e+02
1.775390585928904308e-01 5.102499390428796460e+02
1.776390805977315079e-01 5.102457235913312843e+02
1.777391026025725296e-01 5.102415206631566207e+02
1.778391246074136067e-01 5.102373303855580957e+02
1.779391466122546839e-01 5.102331528858755973e+02
1.780391686170957333e-01 5.102289882915815724e+02
1.781391906219368104e-01 5.102248367302728411e+02
1.782392126267778876e-01 5.102206983296680392e+02
1.783392346316189647e-01 5.102165732176003985e+02
1.784392566364599864e-01 5.102124615220139958e+02
1.785392786413010635e-01 5.102083633709560218e+02
1.786393006461421407e-01 5.102042788925737113e+02
1.787393226509831901e-01 5.102002082151057039e+02
1.788393446558242672e-01 5.101961514668799396e+02
1.789393666606653444e-01 5.101921087763066680e+02
1.790393886655064215e-01 5.101880802718716836e+02
1.791394106703474431e-01 5.101840660821329720e+02
1.792394326751885203e-01 5.101800663357133772e+02
1.793394546800295974e-01 5.101760811612977591e+02
1.794394766848706468e-01 5.101721106876233875e+02
1.795394986897117240e-01 5.101681550434778956e+02
1.796395206945528011e-01 5.101642143576924582e+02
1.797395426993938783e-01 5.101602887591355966e+02
1.798395647042348999e-01 5.101563783767084601e+02
1.799395867090759771e-01 5.101524833393397103e+02
1.800396087139170542e-01 5.101486037759793817e+02
1.801396307187581036e-01 5.101447398155915494e+02
1.802396527235991808e-01 5.101408915871538170e+02
1.803396747284402579e-01 5.101370592196450389e+02
1.804396967332813073e-01 5.101332428420445240e+02
1.805397187381223567e-01 5.101294425833260675e+02
1.806397407429634339e-01 5.101256585724503907e+02
1.807397627478045110e-01 5.101218909383601954e+02
1.808397847526455604e-01 5.101181398099757871e+02
1.809398067574866376e-01 5.101144053161883676e+02
1.810398287623277147e-01 5.101106875858549188e+02
1.811398507671687641e-01 5.101069867477925754e+02
1.812398727720098135e-01 5.101033029307725428e+02
1.813398947768508906e-01 5.100996362635152082e+02
1.814399167816919678e-01 5.100959868746843995e+02
1.815399387865330172e-01 5.100923548928814171e+02
1.816399607913740943e-01 5.100887404466401449e+02
1.817399827962151715e-01 5.100851436644198316e+02
1.818400048010562209e-01 5.100815646746026459e+02
1.819400268058972703e-01 5.100780036054852644e+02
1.820400488107383474e-01 5.100744605852741529e+02
1.821400708155794246e-01 5.100709357420793140e+02
1.822400928204204740e-01 5.100674292039103648e+02
1.823401148252615511e-01 5.100639410986707389e+02
1.824401368301026005e-01 5.100604715541496716e+02
1.825401588349436777e-01 5.100570206980198122e+02
1.826401808397847271e-01 5.100535886578296072e+02
1.827402028446258042e-01 5.100501755609986958e+02
1.828402248494668814e-01 5.100467815348114868e+02
1.829402468543079308e-01 5.100434067064124406e+02
1.830402688591490079e-01 5.100400512028006119e+02
1.831402908639900573e-01 5.100367151508233974e+02
1.832403128688311345e-01 5.100333986771709078e+02
1.833403348736721838e-01 5.100301019083719325e+02
1.834403568785132610e-01 5.100268249707847872e+02
1.835403788833543381e-01 5.100235679905979396e+02
1.836404008881953875e-01 5.100203310938181858e+02
1.837404228930364647e-01 5.100171144062678650e+02
1.838404448978775141e-01 5.100139180535803121e+02
1.839404669027185912e-01 5.100107421611929226e+02
1.840404889075596406e-01 5.100075868543417528e+02
1.841405109124007178e-01 5.100044522580561761e+02
1.842405329172417949e-01 5.100013384971534833e+02
1.843405549220828443e-01 5.099982456962341075e+02
1.844405769269238937e-01 5.099951739796742913e+02
1.845405989317649709e-01 5.099921234716225626e+02
1.846406209366060480e-01 5.099890942959926861e+02
1.847406429414470974e-01 5.099860865764601954e+02
1.848406649462881746e-01 5.099831004364539808e+02
1.849406869511292517e-01 5.099801359991538448e+02
1.850407089559703011e-01 5.099771933874835099e+02
1.851407309608113505e-01 5.099742727241043099e+02
1.852407529656524277e-01 5.099713741314132562e+02
1.853407749704935048e-01 5.099684977315332617e+02
1.854407969753345542e-01 5.099656436463097293e+02
1.855408189801756313e-01 5.099628119973065168e+02
1.856408409850167085e-01 5.099600029057976371e+02
1.857408629898577579e-01 5.099572164927651556e+02
1.858408849946988073e-01 5.099544528788903790e+02
1.859409069995398844e-01 5.099517121845504448e+02
1.860409290043809616e-01 5.099489945298145130e+02
1.861409510092220110e-01 5.099463000344344437e+02
1.862409730140630881e-01 5.099436288178425798e+02
1.863409950189041653e-01 5.099409809991453812e+02
1.864410170237451869e-01 5.099383566971183086e+02
1.865410390285862641e-01 5.099357560302009347e+02
1.866410610334273412e-01 5.099331791164898959e+02
1.867410830382684184e-01 5.099306260737365619e+02
1.868411050431094678e-01 5.099280970193382245e+02
1.869411270479505449e-01 5.099255920703353695e+02
1.870411490527916221e-01 5.099231113434075269e+02
1.871411710576326437e-01 5.099206549548639487e+02
1.872411930624737209e-01 5.099182230206413919e+02
1.873412150673147980e-01 5.099158156562988324e+02
1.874412370721558752e-01 5.099134329770114391e+02
1.875412590769969245e-01 5.099110750975654582e+02
1.876412810818380017e-01 5.099087421323524723e+02
1.877413030866790788e-01 5.099064341953670692e+02
1.878413250915201005e-01 5.099041514001981454e+02
1.879413470963611776e-01 5.099018938600252113e+02
1.880413691012022548e-01 5.098996616876137864e+02
1.881413911060433319e-01 5.098974549953097721e+02
1.882414131108843813e-01 5.098952738950337675e+02
1.883414351157254585e-01 5.098931184982791365e+02
1.884414571205665356e-01 5.098909889161009232e+02
1.885414791254075573e-01 5.098888852591168188e+02
1.886415011302486344e-01 5.098868076374997145e+02
1.887415231350897116e-01 5.098847561609713921e+02
1.888415451399307887e-01 5.098827309387997957e+02
1.889415671447718381e-01 5.098807320797919829e+02
1.890415891496129153e-01 5.098787596922926468e+02
1.891416111544539369e-01 5.098768138841738846e+02
1.892416331592950141e-01 5.098748947628351402e+02
1.893416551641360912e-01 5.098730024351954171e+02
1.894416771689771684e-01 5.098711370076897538e+02
1.895416991738182455e-01 5.098692985862636533e+02
1.896417211786592949e-01 5.098674872763684789e+02
1.897417431835003720e-01 5.098657031829570769e+02
1.898417651883413937e-01 5.098639464104771264e+02
1.899417871931824708e-01 5.098622170628689219e+02
1.900418091980235480e-01 5.098605152435590071e+02
1.901418312028646251e-01 5.098588410554555708e+02
1.902418532077057023e-01 5.098571946009440126e+02
1.903418752125467517e-01 5.098555759818814863e+02
1.904418972173878288e-01 5.098539852995936599e+02
1.905419192222288505e-01 5.098524226548682918e+02
1.906419412270699276e-01 5.098508881479514798e+02
1.907419632319110048e-01 5.098493818785431131e+02
1.908419852367520819e-01 5.098479039457918134e+02
1.909420072415931591e-01 5.098464544482905580e+02
1.910420292464342085e-01 5.098450334840720188e+02
1.911420512512752579e-01 5.098436411506035029e+02
1.912420732561163073e-01 5.098422775447838831e+02
1.913420952609573844e-01 5.098409427629366633e+02
1.914421172657984616e-01 5.098396369008078750e+02
1.915421392706395387e-01 5.098383600535601659e+02
1.916421612754806159e-01 5.098371123157683087e+02
1.917421832803216653e-01 5.098358937814154501e+02
1.918422052851627146e-01 5.098347045438887335e+02
1.919422272900037640e-01 5.098335446959732167e+02
1.920422492948448412e-01 5.098324143298507920e+02
1.921422712996859183e-01 5.098313135370915461e+02
1.922422933045269955e-01 5.098302424086526230e+02
1.923423153093680726e-01 5.098292010348731083e+02
1.924423373142091220e-01 5.098281895054691972e+02
1.925423593190501714e-01 5.098272079095298750e+02
1.926423813238912208e-01 5.098262563355136194e+02
1.927424033287322980e-01 5.098253348712433990e+02
1.928424253335733751e-01 5.098244436039027505e+02
1.929424473384144523e-01 5.098235826200303791e+02
1.930424693432555294e-01 5.098227520055183959e+02
1.931424913480965511e-01 5.098219518456055539e+02
1.932425133529376282e-01 5.098211822248758835e+02
1.933425353577786776e-01 5.098204432272513031e+02
1.934425573626197548e-01 5.098197349359913915e+02
1.935425793674608319e-01 5.098190574336855434e+02
1.936426013723019091e-01 5.098184108022512646e+02
1.937426233771429862e-01 5.098177951229299083e+02
1.938426453819840078e-01 5.098172104762807066e+02
1.939426673868250850e-01 5.098166569421824192e+02
1.940426893916661344e-01 5.098161345998207139e+02
1.941427113965072115e-01 5.098156435276922025e+02
1.942427334013482887e-01 5.098151838035961987e+02
1.943427554061893658e-01 5.098147555046316484e+02
1.944427774110304430e-01 5.098143587071947422e+02
1.945427994158714646e-01 5.098139934869735725e+02
1.946428214207125418e-01 5.098136599189451204e+02
1.947428434255535912e-01 5.098133580773703102e+02
1.948428654303946683e-01 5.098130880357921910e+02
1.949428874352357455e-01 5.098128498670310478e+02
1.950429094400768226e-01 5.098126436431803086e+02
1.951429314449178443e-01 5.098124694356044984e+02
1.952429534497589214e-01 5.098123273149337820e+02
1.953429754545999986e-01 5.098122173510621451e+02
1.954429974594410480e-01 5.098121396131425058e+02
1.955430194642821251e-01 5.098120941695826787e+02
1.956430414691232023e-01 5.098120810880441240e+02
1.957430634739642794e-01 5.098121004354365482e+02
1.958430854788053010e-01 5.098121522779151746e+02
1.959431074836463782e-01 5.098122366808767083e+02
1.960431294884874553e-01 5.098123537089572892e+02
1.961431514933285047e-01 5.098125034260273196e+02
1.962431734981695819e-01 5.098126858951893041e+02
1.963431955030106590e-01 5.098129011787745526e+02
1.964432175078517362e-01 5.098131493383392012e+02
1.965432395126927578e-01 5.098134304346614840e+02
1.966432615175338350e-01 5.098137445277385496e+02
1.967432835223749121e-01 5.098140916767828230e+02
1.968433055272159615e-01 5.098144719402193914e+02
1.969433275320570387e-01 5.098148853756808876e+02
1.970433495368981158e-01 5.098153320400099915e+02
1.971433715417391930e-01 5.098158119892480613e+02
1.972433935465802146e-01 5.098163252786384305e+02
1.973434155514212918e-01 5.098168719626210077e+02
1.974434375562623689e-01 5.098174520948306849e+02
1.975434595611034183e-01 5.098180657280912556e+02
1.976434815659444955e-01 5.098187129144162668e+02
1.977435035707855726e-01 5.098193937050037903e+02
1.978435255756266220e-01 5.098201081502336365e+02
1.979435475804676714e-01 5.098208562996654223e+02
1.980435695853087485e-01 5.098216382020362971e+02
1.981435915901498257e-01 5.098224539052550313e+02
1.982436135949908751e-01 5.098233034564034369e+02
1.983436355998319522e-01 5.098241869017310819e+02
1.984436576046730294e-01 5.098251042866523335e+02
1.985436796095140788e-01 5.098260556557447671e+02
1.986437016143551282e-01 5.098270410527472905e+02
1.987437236191962053e-01 5.098280605205555958e+02
1.988437456240372825e-01 5.098291141012206822e+02
1.989437676288783319e-01 5.098302018359458430e+02
1.990437896337194090e-01 5.098313237650852443e+02
1.991438116385604862e-01 5.098324799281397759e+02
1.992438336434015356e-01 5.098336703637564824e+02
1.993438556482425850e-01 5.098348951097238455e+02
1.994438776530836621e-01 5.098361542029718976e+02
1.995438996579247393e-01 5.098374476795681858e+02
1.996439216627657887e-01 5.098387755747162373e+02
1.997439436676068658e-01 5.098401379227528878e+02
1.998439656724479152e-01 5.098415347571453822e+02
1.999439876772889924e-01 5.098429661104906927e+02
2.000440096821300417e-01 5.098444320145131314e+02
2.001440316869711189e-01 5.098459325000602007e+02
2.002440536918121960e-01 5.098474675971024226e+02
2.003440756966532454e-01 5.098490373347314630e+02
2.004440977014943226e-01 5.098506417411562097e+02
2.005441197063353720e-01 5.098522808437029425e+02
2.006441417111764491e-01 5.098539546688104451e+02
2.007441637160174985e-01 5.098556632420319943e+02
2.008441857208585757e-01 5.098574065880300736e+02
2.009442077256996528e-01 5.098591847305760894e+02
2.010442297305407022e-01 5.098609976925469596e+02
2.011442517353817794e-01 5.098628454959264786e+02
2.012442737402228288e-01 5.098647281618004286e+02
2.013442957450639059e-01 5.098666457103552148e+02
2.014443177499049553e-01 5.098685981608777524e+02
2.015443397547460325e-01 5.098705855317522264e+02
2.016443617595871096e-01 5.098726078404594659e+02
2.017443837644281590e-01 5.098746651035745572e+02
2.018444057692692084e-01 5.098767573367659907e+02
2.019444277741102856e-01 5.098788845547932169e+02
2.020444497789513627e-01 5.098810467715053392e+02
2.021444717837924121e-01 5.098832439998407153e+02
2.022444937886334893e-01 5.098854762518245707e+02
2.023445157934745664e-01 5.098877435385658146e+02
2.024445377983156158e-01 5.098900458702603942e+02
2.025445598031566652e-01 5.098923832561850986e+02
2.026445818079977423e-01 5.098947557046984684e+02
2.027446038128388195e-01 5.098971632232390903e+02
2.028446258176798689e-01 5.098996058183258242e+02
2.029446478225209460e-01 5.099020834955530859e+02
2.030446698273620232e-01 5.099045962595935180e+02
2.031446918322030726e-01 5.099071441141945797e+02
2.032447138370441220e-01 5.099097270621775806e+02
2.033447358418851991e-01 5.099123451054374527e+02
2.034447578467262763e-01 5.099149982449413869e+02
2.035447798515673257e-01 5.099176864807275251e+02
2.036448018564084028e-01 5.099204098119038235e+02
2.037448238612494800e-01 5.099231682366478253e+02
2.038448458660905016e-01 5.099259617522056374e+02
2.039448678709315788e-01 5.099287903548897702e+02
2.040448898757726559e-01 5.099316540400804456e+02
2.041449118806137331e-01 5.099345528022237204e+02
2.042449338854547825e-01 5.099374866348294404e+02
2.043449558902958596e-01 5.099404555304730025e+02
2.044449778951369368e-01 5.099434594807921712e+02
2.045449998999779584e-01 5.099464984764899782e+02
2.046450219048190355e-01 5.099495725073290942e+02
2.047450439096601127e-01 5.099526815621350124e+02
2.048450659145011898e-01 5.099558256287948552e+02
2.049450879193422392e-01 5.099590046942556114e+02
2.050451099241833164e-01 5.099622187445253871e+02
2.051451319290243935e-01 5.099654677646713026e+02
2.052451539338654152e-01 5.099687517388198330e+02
2.053451759387064923e-01 5.099720706501559562e+02
2.054451979435475695e-01 5.099754244809242323e+02
2.055452199483886466e-01 5.099788132124275535e+02
2.056452419532296960e-01 5.099822368250261206e+02
2.057452639580707732e-01 5.099856952981370455e+02
2.058452859629118503e-01 5.099891886102374201e+02
2.059453079677528720e-01 5.099927167388594853e+02
2.060453299725939491e-01 5.099962796605939275e+02
2.061453519774350263e-01 5.099998773510885144e+02
2.062453739822761034e-01 5.100035097850472425e+02
2.063453959871171528e-01 5.100071769362331793e+02
2.064454179919582300e-01 5.100108787774640291e+02
2.065454399967992516e-01 5.100146152806166810e+02
2.066454620016403287e-01 5.100183864166235708e+02
2.067454840064814059e-01 5.100221921554759774e+02
2.068455060113224830e-01 5.100260324662218068e+02
2.069455280161635602e-01 5.100299073169665007e+02
2.070455500210046096e-01 5.100338166748745152e+02
2.071455720258456867e-01 5.100377605061675581e+02
2.072455940306867084e-01 5.100417387761256691e+02
2.073456160355277855e-01 5.100457514490881294e+02
2.074456380403688627e-01 5.100497984884535754e+02
2.075456600452099398e-01 5.100538798566795435e+02
2.076456820500510170e-01 5.100579955152837783e+02
2.077457040548920664e-01 5.100621454248451982e+02
2.078457260597331435e-01 5.100663295450027590e+02
2.079457480645741652e-01 5.100705478344575567e+02
2.080457700694152423e-01 5.100748002509722596e+02
2.081457920742563195e-01 5.100790867513725289e+02
2.082458140790973966e-01 5.100834072915477577e+02
2.083458360839384738e-01 5.100877618264509010e+02
2.084458580887795232e-01 5.100921503101000667e+02
2.085458800936205725e-01 5.100965726955780042e+02
2.086459020984616219e-01 5.101010289350350035e+02
2.087459241033026991e-01 5.101055189796870764e+02
2.088459461081437762e-01 5.101100427798197643e+02
2.089459681129848534e-01 5.101146002847868317e+02
2.090459901178259305e-01 5.101191914430114593e+02
2.091460121226669799e-01 5.101238162019881202e+02
2.092460341275080293e-01 5.101284745082825793e+02
2.093460561323490787e-01 5.101331663075342249e+02
2.094460781371901559e-01 5.101378915444552717e+02
2.095461001420312330e-01 5.101426501628341157e+02
2.096461221468723102e-01 5.101474421055349353e+02
2.097461441517133873e-01 5.101522673144980899e+02
2.098461661565544367e-01 5.101571257307443830e+02
2.099461881613954861e-01 5.101620172943727880e+02
2.100462101662365355e-01 5.101669419445634048e+02
2.101462321710776127e-01 5.101718996195802447e+02
2.102462541759186898e-01 5.101768902567699797e+02
2.103462761807597670e-01 5.101819137925638188e+02
2.104462981856008441e-01 5.101869701624802929e+02
2.105463201904418657e-01 5.101920593011259371e+02
2.106463421952829429e-01 5.101971811421962002e+02
2.107463642001239923e-01 5.102023356184782870e+02
2.108463862049650694e-01 5.102075226618505894e+02
2.109464082098061466e-01 5.102127422032874051e+02
2.110464302146472237e-01 5.102179941728579706e+02
2.111464522194883009e-01 5.102232784997283943e+02
2.112464742243293225e-01 5.102285951121644985e+02
2.113464962291703997e-01 5.102339439375331267e+02
2.114465182340114491e-01 5.102393249023035082e+02
2.115465402388525262e-01 5.102447379320486220e+02
2.116465622436936034e-01 5.102501829514487781e+02
2.117465842485346805e-01 5.102556598842916173e+02
2.118466062533757577e-01 5.102611686534750675e+02
2.119466282582167793e-01 5.102667091810089914e+02
2.120466502630578565e-01 5.102722813880171771e+02
2.121466722678989059e-01 5.102778851947384737e+02
2.122466942727399830e-01 5.102835205205312832e+02
2.123467162775810602e-01 5.102891872838728773e+02
2.124467382824221373e-01 5.102948854023625245e+02
2.125467602872631590e-01 5.103006147927238771e+02
2.126467822921042361e-01 5.103063753708079275e+02
2.127468042969453133e-01 5.103121670515921551e+02
2.128468263017863626e-01 5.103179897491867223e+02
2.129468483066274398e-01 5.103238433768347022e+02
2.130468703114685169e-01 5.103297278469134994e+02
2.131468923163095941e-01 5.103356430709387723e+02
2.132469143211506157e-01 5.103415889595665362e+02
2.133469363259916929e-01 5.103475654225948119e+02
2.134469583308327700e-01 5.103535723689675478e+02
2.135469803356738194e-01 5.103596097067737674e+02
2.136470023405148966e-01 5.103656773432545606e+02
2.137470243453559737e-01 5.103717751848028570e+02
2.138470463501970509e-01 5.103779031369662675e+02
2.139470683550380725e-01 5.103840611044497564e+02
2.140470903598791497e-01 5.103902489911183693e+02
2.141471123647202268e-01 5.103964667000006443e+02
2.142471343695612762e-01 5.104027141332894644e+02
2.143471563744023534e-01 5.104089911923474574e+02
2.144471783792434305e-01 5.104152977777069964e+02
2.145472003840845077e-01 5.104216337890743489e+02
2.146472223889255293e-01 5.104279991253329172e+02
2.147472443937666065e-01 5.104343936845451708e+02
2.148472663986076836e-01 5.104408173639554320e+02
2.149472884034487330e-01 5.104472700599937980e+02
2.150473104082898101e-01 5.104537516682778460e+02
2.151473324131308873e-01 5.104602620836168398e+02
2.152473544179719367e-01 5.104668012000141744e+02
2.153473764228129861e-01 5.104733689106697057e+02
2.154473984276540632e-01 5.104799651079839009e+02
2.155474204324951404e-01 5.104865896835606236e+02
2.156474424373361898e-01 5.104932425282095210e+02
2.157474644421772669e-01 5.104999235319500599e+02
2.158474864470183441e-01 5.105066325840152217e+02
2.159475084518593935e-01 5.105133695728526959e+02
2.160475304567004429e-01 5.105201343861298255e+02
2.161475524615415200e-01 5.105269269107367336e+02
2.162475744663825972e-01 5.105337470327883125e+02
2.163475964712236466e-01 5.105405946376297948e+02
2.164476184760647237e-01 5.105474696098377763e+02
2.165476404809058009e-01 5.105543718332252183e+02
2.166476624857468503e-01 5.105613011908443468e+02
2.167476844905878997e-01 5.105682575649905175e+02
2.168477064954289768e-01 5.105752408372036371e+02
2.169477285002700540e-01 5.105822508882747002e+02
2.170477505051111033e-01 5.105892875982475516e+02
2.171477725099521805e-01 5.105963508464226948e+02
2.172477945147932299e-01 5.106034405113611001e+02
2.173478165196343070e-01 5.106105564708880706e+02
2.174478385244753564e-01 5.106176986020954587e+02
2.175478605293164336e-01 5.106248667813476914e+02
2.176478825341575107e-01 5.106320608842832485e+02
2.177479045389985601e-01 5.106392807858198353e+02
2.178479265438396373e-01 5.106465263601575089e+02
2.179479485486806867e-01 5.106537974807823730e+02
2.180479705535217638e-01 5.106610940204714097e+02
2.181479925583628132e-01 5.106684158512948102e+02
2.182480145632038904e-01 5.106757628446209196e+02
2.183480365680449675e-01 5.106831348711192504e+02
2.184480585728860169e-01 5.106905318007656547e+02
2.185480805777270941e-01 5.106979535028446548e+02
2.186481025825681435e-01 5.107053998459553554e+02
2.187481245874092206e-01 5.107128706980140578e+02
2.188481465922502700e-01 5.107203659262582391e+02
2.189481685970913472e-01 5.107278853972513275e+02
2.190481906019324243e-01 5.107354289768864533e+02
2.191482126067734737e-01 5.107429965303908830e+02
2.192482346116145231e-01 5.107505879223288048e+02
2.193482566164556002e-01 5.107582030166075242e+02
2.194482786212966774e-01 5.107658416764805338e+02
2.195483006261377268e-01 5.107735037645510374e+02
2.196483226309788039e-01 5.107811891427776914e+02
2.197483446358198811e-01 5.107888976724777876e+02
2.198483666406609305e-01 5.107966292143324836e+02
2.199483886455019799e-01 5.108043836283897008e+02
2.200484106503430570e-01 5.108121607740693548e+02
2.201484326551841342e-01 5.108199605101681868e+02
2.202484546600251836e-01 5.108277826948631741e+02
2.203484766648662607e-01 5.108356271857166462e+02
2.204484986697073379e-01 5.108434938396794678e+02
2.205485206745483873e-01 5.108513825130970645e+02
2.206485426793894367e-01 5.108592930617145385e+02
2.207485646842305138e-01 5.108672253406768391e+02
2.208485866890715910e-01 5.108751792045392222e+02
2.209486086939126404e-01 5.108831545072670224e+02
2.210486306987537175e-01 5.108911511022434411e+02
2.211486527035947947e-01 5.108991688422714219e+02
2.212486747084358163e-01 5.109072075795805858e+02
2.213486967132768934e-01 5.109152671658305280e+02
2.214487187181179706e-01 5.109233474521163316e+02
2.215487407229590477e-01 5.109314482889714668e+02
2.216487627278000971e-01 5.109395695263754078e+02
2.217487847326411743e-01 5.109477110137552813e+02
2.218488067374822514e-01 5.109558725999928015e+02
2.219488287423232731e-01 5.109640541334277941e+02
2.220488507471643502e-01 5.109722554618648473e+02
2.221488727520054274e-01 5.109804764325747328e+02
2.222488947568465045e-01 5.109887168923021363e+02
2.223489167616875539e-01 5.109969766872700347e+02
2.224489387665286311e-01 5.110052556631833340e+02
2.225489607713697082e-01 5.110135536652346673e+02
2.226489827762107299e-01 5.110218705381100790e+02
2.227490047810518070e-01 5.110302061259913557e+02
2.228490267858928842e-01 5.110385602725644389e+02
2.229490487907339613e-01 5.110469328210208459e+02
2.230490707955750107e-01 5.110553236140664239e+02
2.231490928004160879e-01 5.110637324939223163e+02
2.232491148052571650e-01 5.110721593023330911e+02
2.233491368100981866e-01 5.110806038805705498e+02
2.234491588149392638e-01 5.110890660694390704e+02
2.235491808197803409e-01 5.110975457092798706e+02
2.236492028246214181e-01 5.111060426399778862e+02
2.237492248294624675e-01 5.111145567009647266e+02
2.238492468343035446e-01 5.111230877312250414e+02
2.239492688391445663e-01 5.111316355693024320e+02
2.240492908439856434e-01 5.111402000533020100e+02
2.241493128488267206e-01 5.111487810208988094e+02
2.242493348536677977e-01 5.111573783093400607e+02
2.243493568585088749e-01 5.111659917554528647e+02
2.244493788633499243e-01 5.111746211956481147e+02
2.245494008681910014e-01 5.111832664659250440e+02
2.246494228730320231e-01 5.111919274018781607e+02
2.247494448778731002e-01 5.112006038387015110e+02
2.248494668827141774e-01 5.112092956111946478e+02
2.249494888875552545e-01 5.112180025537671781e+02
2.250495108923963317e-01 5.112267245004441065e+02
2.251495328972373811e-01 5.112354612848718602e+02
2.252495549020784582e-01 5.112442127403235190e+02
2.253495769069194798e-01 5.112529786997033057e+02
2.254495989117605570e-01 5.112617589955531230e+02
2.255496209166016341e-01 5.112705534600574993e+02
2.256496429214427113e-01 5.112793619250481925e+02
2.257496649262837884e-01 5.112881842220118074e+02
2.258496869311248378e-01 5.112970201820923535e+02
2.259497089359658872e-01 5.113058696360985209e+02
2.260497309408069366e-01 5.113147324145099901e+02
2.261497529456480138e-01 5.113236083474802172e+02
2.262497749504890909e-01 5.113324972648441076e+02
2.263497969553301681e-01 5.113413989961225070e+02
2.264498189601712452e-01 5.113503133705286245e+02
2.265498409650122946e-01 5.113592402169722959e+02
2.266498629698533440e-01 5.113681793640668047e+02
2.267498849746943934e-01 5.113771306401336574e+02
2.268499069795354706e-01 5.113860938732092905e+02
2.269499289843765477e-01 5.113950688910472877e+02
2.270499509892176249e-01 5.114040555211289529e+02
2.271499729940587020e-01 5.114130535906656974e+02
2.272499949988997514e-01 5.114220629266043829e+02
2.273500170037408008e-01 5.114310833556345983e+02
2.274500390085818502e-01 5.114401147041946274e+02
2.275500610134229273e-01 5.114491567984742346e+02
2.276500830182640045e-01 5.114582094644230210e+02
2.277501050231050816e-01 5.114672725277546874e+02
2.278501270279461588e-01 5.114763458139552199e+02
2.279501490327871804e-01 5.114854291482841404e+02
2.280501710376282576e-01 5.114945223557837721e+02
2.281501930424693070e-01 5.115036252612836734e+02
2.282502150473103841e-01 5.115127376894062081e+02
2.283502370521514613e-01 5.115218594645745611e+02
2.284502590569925384e-01 5.115309904110133061e+02
2.285502810618336156e-01 5.115401303527594337e+02
2.286503030666746372e-01 5.115492791136655910e+02
2.287503250715157144e-01 5.115584365174054255e+02
2.288503470763567638e-01 5.115676023874818270e+02
2.289503690811978409e-01 5.115767765472295423e+02
2.290503910860389181e-01 5.115859588198222241e+02
2.291504130908799952e-01 5.115951490282801046e+02
2.292504350957210724e-01 5.116043469954727243e+02
2.293504571005620940e-01 5.116135525441269465e+02
2.294504791054031712e-01 5.116227654968306524e+02
2.295505011102442205e-01 5.116319856760403582e+02
2.296505231150852977e-01 5.116412129040878654e+02
2.297505451199263748e-01 5.116504470031829896e+02
2.298505671247674520e-01 5.116596877954214051e+02
2.299505891296084736e-01 5.116689351027905559e+02
2.300506111344495508e-01 5.116781887471752270e+02
2.301506331392906279e-01 5.116874485503627739e+02
2.302506551441316773e-01 5.116967143340498296e+02
2.303506771489727545e-01 5.117059859198474783e+02
2.304506991538138316e-01 5.117152631292878482e+02
2.305507211586549088e-01 5.117245457838286029e+02
2.306507431634959304e-01 5.117338337048608423e+02
2.307507651683370076e-01 5.117431267137131385e+02
2.308507871731780847e-01 5.117524246316586414e+02
2.309508091780191341e-01 5.117617272799193415e+02
2.310508311828602113e-01 5.117710344796743129e+02
2.311508531877012884e-01 5.117803460520638055e+02
2.312508751925423656e-01 5.117896618181957820e+02
2.313508971973833872e-01 5.117989815991503519e+02
2.314509192022244644e-01 5.118083052159890940e+02
2.315509412070655415e-01 5.118176324897575000e+02
2.316509632119065909e-01 5.118269632414916828e+02
2.317509852167476680e-01 5.118362972922259360e+02
2.318510072215887452e-01 5.118456344629964860e+02
2.319510292264298223e-01 5.118549745748488249e+02
2.320510512312708440e-01 5.118643174488428258e+02
2.321510732361119211e-01 5.118736629060585415e+02
2.322510952409529983e-01 5.118830107676034231e+02
2.323511172457940477e-01 5.118923608546161859e+02
2.324511392506351248e-01 5.119017129882741415e+02
2.325511612554762020e-01 5.119110669897988828e+02
2.326511832603172514e-01 5.119204226804611153e+02
2.327512052651583008e-01 5.119297798815890701e+02
2.328512272699993779e-01 5.119391384145710617e+02
2.329512492748404551e-01 5.119484981008630484e+02
2.330512712796815045e-01 5.119578587619959649e+02
2.331512932845225816e-01 5.119672202195787918e+02
2.332513152893636588e-01 5.119765822953064571e+02
2.333513372942047082e-01 5.119859448109642699e+02
2.334513592990457576e-01 5.119953075884353098e+02
2.335513813038868347e-01 5.120046704497055998e+02
2.336514033087279119e-01 5.120140332168687110e+02
2.337514253135689613e-01 5.120233957121346293e+02
2.338514473184100384e-01 5.120327577578326554e+02
2.339514693232511156e-01 5.120421191764182822e+02
2.340514913280921649e-01 5.120514797904799025e+02
2.341515133329332143e-01 5.120608394227429017e+02
2.342515353377742915e-01 5.120701978960788665e+02
2.343515573426153686e-01 5.120795550335061534e+02
2.344515793474564180e-01 5.120889106582002341e+02
2.345516013522974952e-01 5.120982645934981292e+02
2.346516233571385446e-01 5.121076166629040927e+02
2.347516453619796217e-01 5.121169666900943866e+02
2.348516673668206711e-01 5.121263144989256944e+02
2.349516893716617483e-01 5.121356599134379621e+02
2.350517113765028254e-01 5.121450027578621302e+02
2.351517333813438748e-01 5.121543428566261582e+02
2.352517553861849520e-01 5.121636800343588902e+02
2.353517773910260014e-01 5.121730141158978995e+02
2.354517993958670785e-01 5.121823449262943768e+02
2.355518214007081279e-01 5.121916722908177917e+02
2.356518434055492051e-01 5.122009960349647599e+02
2.357518654103902822e-01 5.122103159844616584e+02
2.358518874152313316e-01 5.122196319652708780e+02
2.359519094200724088e-01 5.122289438035987814e+02
2.360519314249134581e-01 5.122382513258985455e+02
2.361519534297545353e-01 5.122475543588784603e+02
2.362519754345955847e-01 5.122568527295059084e+02
2.363519974394366618e-01 5.122661462650136173e+02
2.364520194442777390e-01 5.122754347929044343e+02
2.365520414491187884e-01 5.122847181409596260e+02
2.366520634539598378e-01 5.122939961372416064e+02
2.367520854588009149e-01 5.123032686101012132e+02
2.368521074636419921e-01 5.123125353881835053e+02
2.369521294684830415e-01 5.123217963004320836e+02
2.370521514733241186e-01 5.123310511760964800e+02
2.371521734781651958e-01 5.123402998447354548e+02
2.372521954830062452e-01 5.123495421362263187e+02
2.373522174878472946e-01 5.123587778807656150e+02
2.374522394926883717e-01 5.123680069088799200e+02
2.375522614975294489e-01 5.123772290514268661e+02
2.376522835023704983e-01 5.123864441396037819e+02
2.377523055072115754e-01 5.123956520049524670e+02
2.378523275120526526e-01 5.124048524793633987e+02
2.379523495168937020e-01 5.124140453950838037e+02
2.380523715217347513e-01 5.124232305847201587e+02
2.381523935265758285e-01 5.124324078812470589e+02
2.382524155314169056e-01 5.124415771180090360e+02
2.383524375362579550e-01 5.124507381287296539e+02
2.384524595410990322e-01 5.124598907475152600e+02
2.385524815459401093e-01 5.124690348088587371e+02
2.386525035507811310e-01 5.124781701476487115e+02
2.387525255556222081e-01 5.124872965991718274e+02
2.388525475604632853e-01 5.124964139991200227e+02
2.389525695653043624e-01 5.125055221835945076e+02
2.390525915701454118e-01 5.125146209891130411e+02
2.391526135749864890e-01 5.125237102526132276e+02
2.392526355798275661e-01 5.125327898114585423e+02
2.393526575846685878e-01 5.125418595034458349e+02
2.394526795895096649e-01 5.125509191668072617e+02
2.395527015943507421e-01 5.125599686402168800e+02
2.396527235991918192e-01 5.125690077627970140e+02
2.397527456040328686e-01 5.125780363741231440e+02
2.398527676088739458e-01 5.125870543142276574e+02
2.399527896137150229e-01 5.125960614236075799e+02
