0.000000000000000000e+00 5.148806427591403008e+02
1.000240057613827342e-04 5.148635402428957377e+02
2.000480115227654685e-04 5.148463540707177799e+02
3.000720172841482027e-04 5.148290845780408063e+02
4.000960230455309369e-04 5.148117321026443278e+02
5.001200288069136170e-04 5.147942969846455981e+02
6.001440345682964054e-04 5.147767795664855157e+02
7.001680403296790854e-04 5.147591801929218036e+02
8.001920460910618739e-04 5.147414992110147978e+02
9.002160518524445539e-04 5.147237369701198304e+02
1.000240057613827234e-03 5.147058938218752928e+02
1.100264063375209914e-03 5.146879701201905846e+02
1.200288069136592811e-03 5.146699662212382691e+02
1.300312074897975491e-03 5.146518824834396355e+02
1.400336080659358171e-03 5.146337192674560583e+02
1.500360086420741068e-03 5.146154769361768331e+02
1.600384092182123748e-03 5.145971558547086033e+02
1.700408097943506211e-03 5.145787563903635373e+02
1.800432103704889108e-03 5.145602789126476182e+02
1.900456109466271788e-03 5.145417237932510943e+02
2.000480115227654468e-03 5.145230914060344958e+02
2.100504120989037365e-03 5.145043821270185163e+02
2.200528126750419828e-03 5.144855963343730991e+02
2.300552132511802725e-03 5.144667344084034539e+02
2.400576138273185622e-03 5.144477967315403930e+02
2.500600144034568085e-03 5.144287836883277123e+02
2.600624149795950982e-03 5.144096956654095720e+02
2.700648155557333879e-03 5.143905330515199239e+02
2.800672161318716342e-03 5.143712962374698918e+02
2.900696167080099239e-03 5.143519856161343569e+02
3.000720172841482136e-03 5.143326015824422939e+02
3.100744178602864165e-03 5.143131445333622196e+02
3.200768184364247496e-03 5.142936148678903692e+02
3.300792190125629959e-03 5.142740129870400096e+02
3.400816195887012422e-03 5.142543392938262059e+02
3.500840201648395319e-03 5.142345941932563846e+02
3.600864207409778216e-03 5.142147780923139635e+02
3.700888213171160679e-03 5.141948913999493698e+02
3.800912218932543576e-03 5.141749345270652611e+02
3.900936224693926473e-03 5.141549078865048159e+02
4.000960230455308936e-03 5.141348118930362716e+02
4.100984236216691399e-03 5.141146469633447396e+02
4.201008241978074730e-03 5.140944135160145834e+02
4.301032247739457193e-03 5.140741119715189598e+02
4.401056253500839656e-03 5.140537427522056078e+02
4.501080259262222986e-03 5.140333062822846841e+02
4.601104265023605450e-03 5.140128029878145526e+02
4.701128270784987913e-03 5.139922332966884824e+02
4.801152276546371243e-03 5.139715976386225975e+02
4.901176282307753707e-03 5.139508964451409838e+02
5.001200288069136170e-03 5.139301301495625012e+02
5.101224293830518633e-03 5.139092991869881644e+02
5.201248299591901963e-03 5.138884039942863637e+02
5.301272305353285294e-03 5.138674450100797912e+02
5.401296311114667757e-03 5.138464226747327075e+02
5.501320316876049353e-03 5.138253374303344572e+02
5.601344322637432684e-03 5.138041897206884414e+02
5.701368328398815147e-03 5.137829799912968838e+02
5.801392334160198477e-03 5.137617086893478699e+02
5.901416339921580941e-03 5.137403762636984084e+02
6.001440345682964271e-03 5.137189831648656764e+02
6.101464351444345867e-03 5.136975298450079208e+02
6.201488357205728330e-03 5.136760167579126346e+02
6.301512362967111661e-03 5.136544443589818911e+02
6.401536368728494991e-03 5.136328131052189292e+02
6.501560374489877454e-03 5.136111234552120095e+02
6.601584380251259918e-03 5.135893758691216817e+02
6.701608386012643248e-03 5.135675708086660052e+02
6.801632391774024844e-03 5.135457087371055422e+02
6.901656397535408174e-03 5.135237901192291474e+02
7.001680403296790638e-03 5.135018154213398702e+02
7.101704409058173968e-03 5.134797851112398348e+02
7.201728414819556431e-03 5.134576996582155743e+02
7.301752420580939762e-03 5.134355595330226834e+02
7.401776426342321358e-03 5.134133652078739942e+02
7.501800432103704688e-03 5.133911171564196820e+02
7.601824437865087152e-03 5.133688158537377149e+02
7.701848443626469615e-03 5.133464617763156639e+02
7.801872449387852945e-03 5.133240554020361515e+02
7.901896455149236276e-03 5.133015972101632087e+02
8.001920460910617872e-03 5.132790876813261320e+02
8.101944466672001202e-03 5.132565272975050448e+02
8.201968472433382798e-03 5.132339165420144127e+02
8.301992478194766129e-03 5.132112558994903111e+02
8.402016483956149459e-03 5.131885458558724622e+02
8.502040489717532790e-03 5.131657868983924118e+02
8.602064495478914385e-03 5.131429795155528382e+02
8.702088501240295981e-03 5.131201241971195941e+02
8.802112507001679312e-03 5.130972214340990831e+02
8.902136512763062642e-03 5.130742717187281414e+02
9.002160518524445973e-03 5.130512755444550521e+02
9.102184524285829303e-03 5.130282334059272671e+02
9.202208530047210899e-03 5.130051457989731034e+02
9.302232535808592495e-03 5.129820132205866230e+02
9.402256541569975826e-03 5.129588361689151270e+02
9.502280547331359156e-03 5.129356151432389197e+02
9.602304553092742487e-03 5.129123506439583480e+02
9.702328558854124083e-03 5.128890431725783401e+02
9.802352564615507413e-03 5.128656932316912389e+02
9.902376570376889009e-03 5.128423013249624773e+02
1.000240057613827234e-02 5.128188679571128432e+02
1.010242458189965567e-02 5.127953936339048369e+02
1.020244858766103727e-02 5.127718788621258454e+02
1.030247259342242060e-02 5.127483241495717721e+02
1.040249659918380393e-02 5.127247300050315744e+02
1.050252060494518726e-02 5.127010969382720305e+02
1.060254461070657059e-02 5.126774254600205722e+02
1.070256861646795218e-02 5.126537160819491419e+02
1.080259262222933551e-02 5.126299693166598672e+02
1.090261662799071538e-02 5.126061856776674404e+02
1.100264063375209871e-02 5.125823656793830878e+02
1.110266463951348204e-02 5.125585098370993364e+02
1.120268864527486537e-02 5.125346186669730741e+02
1.130271265103624870e-02 5.125106926860092926e+02
1.140273665679763029e-02 5.124867324120461944e+02
1.150276066255901362e-02 5.124627383637375715e+02
1.160278466832039695e-02 5.124387110605365478e+02
1.170280867408177855e-02 5.124146510226800046e+02
1.180283267984316188e-02 5.123905587711726639e+02
1.190285668560454521e-02 5.123664348277694671e+02
1.200288069136592854e-02 5.123422797149601138e+02
1.210290469712731187e-02 5.123180939559523495e+02
1.220292870288869173e-02 5.122938780746558223e+02
1.230295270865007506e-02 5.122696325956658256e+02
1.240297671441145666e-02 5.122453580442468137e+02
1.250300072017283999e-02 5.122210549463146663e+02
1.260302472593422332e-02 5.121967238284228188e+02
1.270304873169560665e-02 5.121723652177437316e+02
1.280307273745698998e-02 5.121479796420524053e+02
1.290309674321837158e-02 5.121235676297119426e+02
1.300312074897975491e-02 5.120991297096542212e+02
1.310314475474113824e-02 5.120746664113652287e+02
1.320316876050251984e-02 5.120501782648675544e+02
1.330319276626390317e-02 5.120256658007048145e+02
1.340321677202528650e-02 5.120011295499248263e+02
1.350324077778666809e-02 5.119765700440616456e+02
1.360326478354804969e-02 5.119519878151198782e+02
1.370328878930943302e-02 5.119273833955599002e+02
1.380331279507081635e-02 5.119027573182781907e+02
1.390333680083219794e-02 5.118781101165914720e+02
1.400336080659358128e-02 5.118534423242223852e+02
1.410338481235496461e-02 5.118287544752795384e+02
1.420340881811634794e-02 5.118040471042430681e+02
1.430343282387773127e-02 5.117793207459469613e+02
1.440345682963911286e-02 5.117545759355628547e+02
1.450348083540049619e-02 5.117298132085830957e+02
1.460350484116187952e-02 5.117050331008045987e+02
1.470352884692326112e-02 5.116802361483099162e+02
1.480355285268464272e-02 5.116554228874550176e+02
1.490357685844602605e-02 5.116305938548476888e+02
1.500360086420740938e-02 5.116057495873337189e+02
1.510362486996879097e-02 5.115808906219789947e+02
1.520364887573017430e-02 5.115560174960544373e+02
1.530367288149155763e-02 5.115311307470162774e+02
1.540369688725293923e-02 5.115062309124925832e+02
1.550372089301432256e-02 5.114813185302645024e+02
1.560374489877570589e-02 5.114563941382498911e+02
1.570376890453708749e-02 5.114314582744873974e+02
1.580379291029847255e-02 5.114065114771181015e+02
1.590381691605985415e-02 5.113815542843715320e+02
1.600384092182123574e-02 5.113565872345450316e+02
1.610386492758261734e-02 5.113316108659917063e+02
1.620388893334400240e-02 5.113066257170987683e+02
1.630391293910538400e-02 5.112816323262750302e+02
1.640393694486676560e-02 5.112566312319321469e+02
1.650396095062815066e-02 5.112316229724680738e+02
1.660398495638953226e-02 5.112066080862506965e+02
1.670400896215091385e-02 5.111815871115995265e+02
1.680403296791229892e-02 5.111565605867737077e+02
1.690405697367368051e-02 5.111315290499490516e+02
1.700408097943506558e-02 5.111064930392058159e+02
1.710410498519644718e-02 5.110814530925101735e+02
1.720412899095782877e-02 5.110564097476986944e+02
1.730415299671921037e-02 5.110313635424603262e+02
1.740417700248059196e-02 5.110063150143209896e+02
1.750420100824197703e-02 5.109812647006266388e+02
1.760422501400335862e-02 5.109562131385252428e+02
1.770424901976474369e-02 5.109311608649533127e+02
1.780427302552612528e-02 5.109061084166154387e+02
1.790429703128750688e-02 5.108810563299715568e+02
1.800432103704889195e-02 5.108560051412175085e+02
1.810434504281027354e-02 5.108309553862694656e+02
1.820436904857165861e-02 5.108059076007479007e+02
1.830439305433304020e-02 5.107808623199606473e+02
1.840441706009442180e-02 5.107558200788862450e+02
1.850444106585580686e-02 5.107307814121575120e+02
1.860446507161718499e-02 5.107057468540453442e+02
1.870448907737857006e-02 5.106807169384418899e+02
1.880451308313995165e-02 5.106556921988453155e+02
1.890453708890133672e-02 5.106306731683411044e+02
1.900456109466271831e-02 5.106056603795876754e+02
1.910458510042409991e-02 5.105806543647996705e+02
1.920460910618548497e-02 5.105556556557308454e+02
1.930463311194686657e-02 5.105306647836576417e+02
1.940465711770824817e-02 5.105056822793651463e+02
1.950468112346963323e-02 5.104807086731269123e+02
1.960470512923101483e-02 5.104557444946932492e+02
1.970472913499239642e-02 5.104307902732705315e+02
1.980475314075377802e-02 5.104058465375081255e+02
1.990477714651516308e-02 5.103809138154806533e+02
2.000480115227654468e-02 5.103559926346734983e+02
2.010482515803792974e-02 5.103310835219639330e+02
2.020484916379931134e-02 5.103061870036084429e+02
2.030487316956069641e-02 5.102813036052228881e+02
2.040489717532207453e-02 5.102564338517696569e+02
2.050492118108345613e-02 5.102315782675401579e+02
2.060494518684484119e-02 5.102067373761386193e+02
2.070496919260622279e-02 5.101819117004662303e+02
2.080499319836760785e-02 5.101571017627072706e+02
2.090501720412898945e-02 5.101323080843096136e+02
2.100504120989037452e-02 5.101075311859713111e+02
2.110506521565175264e-02 5.100827715876239381e+02
2.120508922141314118e-02 5.100580298084177002e+02
2.130511322717451930e-02 5.100333063667034139e+02
2.140513723293590437e-02 5.100086017800210243e+02
2.150516123869728596e-02 5.099839165650781752e+02
2.160518524445867103e-02 5.099592512377385560e+02
2.170520925022005262e-02 5.099346063130054176e+02
2.180523325598143075e-02 5.099099823050066220e+02
2.190525726174281929e-02 5.098853797269764527e+02
2.200528126750419741e-02 5.098607990912431660e+02
2.210530527326558248e-02 5.098362409092108010e+02
2.220532927902696407e-02 5.098117056913470719e+02
2.230535328478834914e-02 5.097871939471646101e+02
2.240537729054973073e-02 5.097627061852066390e+02
2.250540129631111580e-02 5.097382429130329911e+02
2.260542530207249740e-02 5.097138046372030544e+02
2.270544930783387899e-02 5.096893918632612781e+02
2.280547331359526059e-02 5.096650050957222788e+02
2.290549731935664565e-02 5.096406448380541292e+02
2.300552132511802725e-02 5.096163115926659657e+02
2.310554533087940884e-02 5.095920058608902536e+02
2.320556933664079391e-02 5.095677281429685763e+02
2.330559334240217551e-02 5.095434789380374809e+02
2.340561734816355710e-02 5.095192587441122214e+02
2.350564135392493870e-02 5.094950680580726043e+02
2.360566535968632376e-02 5.094709073756483235e+02
2.370568936544770536e-02 5.094467771914028162e+02
2.380571337120909042e-02 5.094226779987209284e+02
2.390573737697047202e-02 5.093986102897914634e+02
2.400576138273185708e-02 5.093745745555933695e+02
2.410578538849323521e-02 5.093505712858824950e+02
2.420580939425462375e-02 5.093266009691749900e+02
2.430583340001600187e-02 5.093026640927349717e+02
2.440585740577738347e-02 5.092787611425572436e+02
2.450588141153876853e-02 5.092548926033549037e+02
2.460590541730015013e-02 5.092310589585443381e+02
2.470592942306153519e-02 5.092072606902316920e+02
2.480595342882291332e-02 5.091834982791961011e+02
2.490597743458430186e-02 5.091597722048787205e+02
2.500600144034567998e-02 5.091360829453658425e+02
2.510602544610706505e-02 5.091124309773764480e+02
2.520604945186844664e-02 5.090888167762477678e+02
2.530607345762983171e-02 5.090652408159199922e+02
2.540609746339121330e-02 5.090417035689243903e+02
2.550612146915259837e-02 5.090182055063674511e+02
2.560614547491397996e-02 5.089947470979182071e+02
2.570616948067535809e-02 5.089713288117940237e+02
2.580619348643674316e-02 5.089479511147469566e+02
2.590621749219812475e-02 5.089246144720496545e+02
2.600624149795950982e-02 5.089013193474826267e+02
2.610626550372089141e-02 5.088780662033195199e+02
2.620628950948227648e-02 5.088548555003139882e+02
2.630631351524365807e-02 5.088316876976868457e+02
2.640633752100503967e-02 5.088085632531117426e+02
2.650636152676642127e-02 5.087854826227022045e+02
2.660638553252780633e-02 5.087624462609986722e+02
2.670640953828918793e-02 5.087394546209548025e+02
2.680643354405057299e-02 5.087165081539239964e+02
2.690645754981195459e-02 5.086936073096472342e+02
2.700648155557333618e-02 5.086707525362391493e+02
2.710650556133471778e-02 5.086479442801761479e+02
2.720652956709609938e-02 5.086251829862810041e+02
2.730655357285748444e-02 5.086024690977132536e+02
2.740657757861886604e-02 5.085798030559542440e+02
2.750660158438025110e-02 5.085571853007958794e+02
2.760662559014163270e-02 5.085346162703247046e+02
2.770664959590301776e-02 5.085120964009145155e+02
2.780667360166439589e-02 5.084896261272086235e+02
2.790669760742578442e-02 5.084672058821111591e+02
2.800672161318716255e-02 5.084448360967720077e+02
2.810674561894854762e-02 5.084225172005770332e+02
2.820676962470992921e-02 5.084002496211330140e+02
2.830679363047131081e-02 5.083780337842572976e+02
2.840681763623269587e-02 5.083558701139648974e+02
2.850684164199407400e-02 5.083337590324574649e+02
2.860686564775546253e-02 5.083117009601098744e+02
2.870688965351684066e-02 5.082896963154588548e+02
2.880691365927822573e-02 5.082677455151907111e+02
2.890693766503960732e-02 5.082458489741311496e+02
2.900696167080099239e-02 5.082240071052307258e+02
2.910698567656237398e-02 5.082022203195561474e+02
2.920700968232375905e-02 5.081804890262763479e+02
2.930703368808514064e-02 5.081588136326529366e+02
2.940705769384652224e-02 5.081371945440267837e+02
2.950708169960790384e-02 5.081156321638073905e+02
2.960710570536928543e-02 5.080941268934630557e+02
2.970712971113067050e-02 5.080726791325068916e+02
2.980715371689205209e-02 5.080512892784880137e+02
2.990717772265343716e-02 5.080299577269796600e+02
3.000720172841481875e-02 5.080086848715671977e+02
3.010722573417620035e-02 5.079874711038380610e+02
3.020724973993758194e-02 5.079663168133723730e+02
3.030727374569896701e-02 5.079452223877286201e+02
3.040729775146034861e-02 5.079241882124360927e+02
3.050732175722173367e-02 5.079032146709836866e+02
3.060734576298311527e-02 5.078823021448067720e+02
3.070736976874450033e-02 5.078614510132803161e+02
3.080739377450587846e-02 5.078406616537063201e+02
3.090741778026726005e-02 5.078199344413042695e+02
3.100744178602864512e-02 5.077992697491991976e+02
3.110746579179002672e-02 5.077786679484145225e+02
3.120748979755141178e-02 5.077581294078597693e+02
3.130751380331279338e-02 5.077376544943208501e+02
3.140753780907417497e-02 5.077172435724500588e+02
3.150756181483555657e-02 5.076968970047574317e+02
3.160758582059694510e-02 5.076766151515989804e+02
3.170760982635832670e-02 5.076563983711685637e+02
3.180763383211970829e-02 5.076362470194874277e+02
3.190765783788108989e-02 5.076161614503943724e+02
3.200768184364247149e-02 5.075961420155379642e+02
3.210770584940385308e-02 5.075761890643650531e+02
3.220772985516523468e-02 5.075563029441127014e+02
3.230775386092662321e-02 5.075364839997985769e+02
3.240777786668800481e-02 5.075167325742115736e+02
3.250780187244938640e-02 5.074970490079034562e+02
3.260782587821076800e-02 5.074774336391796510e+02
3.270784988397215653e-02 5.074578868040893553e+02
3.280787388973353119e-02 5.074384088364177501e+02
3.290789789549491973e-02 5.074190000676773025e+02
3.300792190125630132e-02 5.073996608270983870e+02
3.310794590701768292e-02 5.073803914416217822e+02
3.320796991277906451e-02 5.073611922358886659e+02
3.330799391854044611e-02 5.073420635322333965e+02
3.340801792430182771e-02 5.073230056506760093e+02
3.350804193006320930e-02 5.073040189089107344e+02
3.360806593582459784e-02 5.072851036223019605e+02
3.370808994158597943e-02 5.072662601038715593e+02
3.380811394734736103e-02 5.072474886642972933e+02
3.390813795310874262e-02 5.072287896118980370e+02
3.400816195887013116e-02 5.072101632526301387e+02
3.410818596463151275e-02 5.071916098900790075e+02
3.420820997039289435e-02 5.071731298254499052e+02
3.430823397615427595e-02 5.071547233575628297e+02
3.440825798191565754e-02 5.071363907828437050e+02
3.450828198767703914e-02 5.071181323953161382e+02
3.460830599343842073e-02 5.070999484865963609e+02
3.470832999919980927e-02 5.070818393458836226e+02
3.480835400496118393e-02 5.070638052599551884e+02
3.490837801072257246e-02 5.070458465131573007e+02
3.500840201648395406e-02 5.070279633874009733e+02
3.510842602224533565e-02 5.070101561621517590e+02
3.520845002800671725e-02 5.069924251144254868e+02
3.530847403376810578e-02 5.069747705187804172e+02
3.540849803952948738e-02 5.069571926473125814e+02
3.550852204529086897e-02 5.069396917696444689e+02
3.560854605105225057e-02 5.069222681529259376e+02
3.570857005681363217e-02 5.069049220618205140e+02
3.580859406257501376e-02 5.068876537585045980e+02
3.590861806833639536e-02 5.068704635026583105e+02
3.600864207409778389e-02 5.068533515514604915e+02
3.610866607985916549e-02 5.068363181595832430e+02
3.620869008562054708e-02 5.068193635791842553e+02
3.630871409138192868e-02 5.068024880599032826e+02
3.640873809714331721e-02 5.067856918488554925e+02
3.650876210290469187e-02 5.067689751906248148e+02
3.660878610866608041e-02 5.067523383272610999e+02
3.670881011442746200e-02 5.067357814982706259e+02
3.680883412018884360e-02 5.067193049406153591e+02
3.690885812595022519e-02 5.067029088887055082e+02
3.700888213171161373e-02 5.066865935743918499e+02
3.710890613747298838e-02 5.066703592269668093e+02
3.720893014323436998e-02 5.066542060731534320e+02
3.730895414899575852e-02 5.066381343371041339e+02
3.740897815475714011e-02 5.066221442403948458e+02
3.750900216051852171e-02 5.066062360020202959e+02
3.760902616627990330e-02 5.065904098383887799e+02
3.770905017204129184e-02 5.065746659633198306e+02
3.780907417780267343e-02 5.065590045880370553e+02
3.790909818356405503e-02 5.065434259211658059e+02
3.800912218932543662e-02 5.065279301687285169e+02
3.810914619508681822e-02 5.065125175341397608e+02
3.820917020084819982e-02 5.064971882182030072e+02
3.830919420660958835e-02 5.064819424191067014e+02
3.840921821237096995e-02 5.064667803324209672e+02
3.850924221813234460e-02 5.064517021510912969e+02
3.860926622389373314e-02 5.064367080654387223e+02
3.870929022965511473e-02 5.064217982631533346e+02
3.880931423541649633e-02 5.064069729292915554e+02
3.890933824117787793e-02 5.063922322462738066e+02
3.900936224693926646e-02 5.063775763938798491e+02
3.910938625270064806e-02 5.063630055492463384e+02
3.920941025846202965e-02 5.063485198868633574e+02
3.930943426422341125e-02 5.063341195785717446e+02
3.940945826998479284e-02 5.063198047935608770e+02
3.950948227574618138e-02 5.063055756983632705e+02
3.960950628150755604e-02 5.062914324568557731e+02
3.970953028726894457e-02 5.062773752302533126e+02
3.980955429303032617e-02 5.062634041771078728e+02
3.990957829879170082e-02 5.062495194533074709e+02
4.000960230455308936e-02 5.062357212120715531e+02
4.010962631031447789e-02 5.062220096039494592e+02
4.020965031607585949e-02 5.062083847768188321e+02
4.030967432183723415e-02 5.061948468758828881e+02
4.040969832759862268e-02 5.061813960436693378e+02
4.050972233336000428e-02 5.061680324200269752e+02
4.060974633912139281e-02 5.061547561421265868e+02
4.070977034488276747e-02 5.061415673444560070e+02
4.080979435064414906e-02 5.061284661588205154e+02
4.090981835640553760e-02 5.061154527143414157e+02
4.100984236216691226e-02 5.061025271374535350e+02
4.110986636792830079e-02 5.060896895519053942e+02
4.120989037368968239e-02 5.060769400787561949e+02
4.130991437945107092e-02 5.060642788363770705e+02
4.140993838521244558e-02 5.060517059404475049e+02
4.150996239097383411e-02 5.060392215039560710e+02
4.160998639673521571e-02 5.060268256371993516e+02
4.171001040249659730e-02 5.060145184477811426e+02
4.181003440825797890e-02 5.060023000406109190e+02
4.191005841401936050e-02 5.059901705179047440e+02
4.201008241978074903e-02 5.059781299791848141e+02
4.211010642554213063e-02 5.059661785212770724e+02
4.221013043130350528e-02 5.059543162383135950e+02
4.231015443706489382e-02 5.059425432217300340e+02
4.241017844282628235e-02 5.059308595602677201e+02
4.251020244858765701e-02 5.059192653399724122e+02
4.261022645434903861e-02 5.059077606441946955e+02
4.271025046011042714e-02 5.058963455535896401e+02
4.281027446587180874e-02 5.058850201461187339e+02
4.291029847163319033e-02 5.058737844970485185e+02
4.301032247739457193e-02 5.058626386789513845e+02
4.311034648315595352e-02 5.058515827617074478e+02
4.321037048891734206e-02 5.058406168125048907e+02
4.331039449467871671e-02 5.058297408958379719e+02
4.341041850044010525e-02 5.058189550735121429e+02
4.351044250620148685e-02 5.058082594046430813e+02
4.361046651196286150e-02 5.057976539456562932e+02
4.371049051772425004e-02 5.057871387502905236e+02
4.381051452348563857e-02 5.057767138695979270e+02
4.391053852924702017e-02 5.057663793519464548e+02
4.401056253500839482e-02 5.057561352430195711e+02
4.411058654076978336e-02 5.057459815858186403e+02
4.421061054653116495e-02 5.057359184206649161e+02
4.431063455229255349e-02 5.057259457852006790e+02
4.441065855805392815e-02 5.057160637143916233e+02
4.451068256381530974e-02 5.057062722405286763e+02
4.461070656957669828e-02 5.056965713932291919e+02
4.471073057533808681e-02 5.056869611994395086e+02
4.481075458109946147e-02 5.056774416834376780e+02
4.491077858686084306e-02 5.056680128668350562e+02
4.501080259262223160e-02 5.056586747685784644e+02
4.511082659838360626e-02 5.056494274049540536e+02
4.521085060414499479e-02 5.056402707895874755e+02
4.531087460990637639e-02 5.056312049334488847e+02
4.541089861566775798e-02 5.056222298448551555e+02
4.551092262142913958e-02 5.056133455294700525e+02
4.561094662719052117e-02 5.056045519903116201e+02
4.571097063295190971e-02 5.055958492277518417e+02
4.581099463871329130e-02 5.055872372395202206e+02
4.591101864447466596e-02 5.055787160207088959e+02
4.601104265023605450e-02 5.055702855637736093e+02
4.611106665599744303e-02 5.055619458585375696e+02
4.621109066175881769e-02 5.055536968921954895e+02
4.631111466752019928e-02 5.055455386493183028e+02
4.641113867328158782e-02 5.055374711118537334e+02
4.651116267904296941e-02 5.055294942591323206e+02
4.661118668480435101e-02 5.055216080678710568e+02
4.671121069056573261e-02 5.055138125121756048e+02
4.681123469632711420e-02 5.055061075635475163e+02
4.691125870208850274e-02 5.054984931908840622e+02
4.701128270784987739e-02 5.054909693604866447e+02
4.711130671361126593e-02 5.054835360360622190e+02
4.721133071937264752e-02 5.054761931787280105e+02
4.731135472513403606e-02 5.054689407470172000e+02
4.741137873089541072e-02 5.054617786968825612e+02
4.751140273665679925e-02 5.054547069817004967e+02
4.761142674241818085e-02 5.054477255522778023e+02
4.771145074817955550e-02 5.054408343568537134e+02
4.781147475394094404e-02 5.054340333411066126e+02
4.791149875970232563e-02 5.054273224481583497e+02
4.801152276546371417e-02 5.054207016185802104e+02
4.811154677122508883e-02 5.054141707903959855e+02
4.821157077698647042e-02 5.054077298990896452e+02
4.831159478274785896e-02 5.054013788776080105e+02
4.841161878850924749e-02 5.053951176563693366e+02
4.851164279427062215e-02 5.053889461632658708e+02
4.861166680003200374e-02 5.053828643236705602e+02
4.871169080579339228e-02 5.053768720604432474e+02
4.881171481155476694e-02 5.053709692939359002e+02
4.891173881731615547e-02 5.053651559419967612e+02
4.901176282307753707e-02 5.053594319199804659e+02
4.911178682883891866e-02 5.053537971407495775e+02
4.921181083460030026e-02 5.053482515146828291e+02
4.931183484036168185e-02 5.053427949496801261e+02
4.941185884612307039e-02 5.053374273511713000e+02
4.951188285188445198e-02 5.053321486221196892e+02
4.961190685764582664e-02 5.053269586630287904e+02
4.971193086340721518e-02 5.053218573719503297e+02
4.981195486916860371e-02 5.053168446444904021e+02
4.991197887492998531e-02 5.053119203738140186e+02
5.001200288069135996e-02 5.053070844506547701e+02
5.011202688645274850e-02 5.053023367633201133e+02
5.021205089221413009e-02 5.052976771976973396e+02
5.031207489797551169e-02 5.052931056372631815e+02
5.041209890373689329e-02 5.052886219630874507e+02
5.051212290949827488e-02 5.052842260538437813e+02
5.061214691525966342e-02 5.052799177858145185e+02
5.071217092102103807e-02 5.052756970328968578e+02
5.081219492678242661e-02 5.052715636666145542e+02
5.091221893254380820e-02 5.052675175561209358e+02
5.101224293830519674e-02 5.052635585682081114e+02
5.111226694406657139e-02 5.052596865673150432e+02
5.121229094982795993e-02 5.052559014155347654e+02
5.131231495558934153e-02 5.052522029726213191e+02
5.141233896135071618e-02 5.052485910959994158e+02
5.151236296711210472e-02 5.052450656407710881e+02
5.161238697287348631e-02 5.052416264597229087e+02
5.171241097863487485e-02 5.052382734033355405e+02
5.181243498439624950e-02 5.052350063197923191e+02
5.191245899015763110e-02 5.052318250549841423e+02
5.201248299591901963e-02 5.052287294525216339e+02
5.211250700168040817e-02 5.052257193537417947e+02
5.221253100744178283e-02 5.052227945977161312e+02
5.231255501320316442e-02 5.052199550212595227e+02
5.241257901896455296e-02 5.052172004589392031e+02
5.251260302472592761e-02 5.052145307430819230e+02
5.261262703048731615e-02 5.052119457037849770e+02
5.271265103624869774e-02 5.052094451689234802e+02
5.281267504201007934e-02 5.052070289641585532e+02
5.291269904777146094e-02 5.052046969129480658e+02
5.301272305353284253e-02 5.052024488365544812e+02
5.311274705929423107e-02 5.052002845540544058e+02
5.321277106505561266e-02 5.051982038823465473e+02
5.331279507081698732e-02 5.051962066361638790e+02
5.341281907657837585e-02 5.051942926280790971e+02
5.351284308233976439e-02 5.051924616685162732e+02
5.361286708810114598e-02 5.051907135657597223e+02
5.371289109386252064e-02 5.051890481259646322e+02
5.381291509962390918e-02 5.051874651531637141e+02
5.391293910538529077e-02 5.051859644492811299e+02
5.401296311114667237e-02 5.051845458141367544e+02
5.411298711690805396e-02 5.051832090454610693e+02
5.421301112266943556e-02 5.051819539389016995e+02
5.431303512843082409e-02 5.051807802880355780e+02
5.441305913419219875e-02 5.051796878843763352e+02
5.451308313995358729e-02 5.051786765173869753e+02
5.461310714571496888e-02 5.051777459744878342e+02
5.471313115147635742e-02 5.051768960410674367e+02
5.481315515723773207e-02 5.051761265004940924e+02
5.491317916299912061e-02 5.051754371341235696e+02
5.501320316876050220e-02 5.051748277213118854e+02
5.511322717452187686e-02 5.051742980394230926e+02
5.521325118028326540e-02 5.051738478638428660e+02
5.531327518604464699e-02 5.051734769679876536e+02
5.541329919180603553e-02 5.051731851233131465e+02
5.551332319756741018e-02 5.051729720993283195e+02
5.561334720332879178e-02 5.051728376636040139e+02
5.571337120909018031e-02 5.051727815817851592e+02
5.581339521485156885e-02 5.051728036175995271e+02
5.591341922061294351e-02 5.051729035328707482e+02
5.601344322637432510e-02 5.051730810875284305e+02
5.611346723213571364e-02 5.051733360396183912e+02
5.621349123789709523e-02 5.051736681453148776e+02
5.631351524365847683e-02 5.051740771589315386e+02
5.641353924941985842e-02 5.051745628329318833e+02
5.651356325518124002e-02 5.051751249179408774e+02
5.661358726094262162e-02 5.051757631627563683e+02
5.671361126670400321e-02 5.051764773143605680e+02
5.681363527246539175e-02 5.051772671179310237e+02
5.691365927822677334e-02 5.051781323168522704e+02
5.701368328398814800e-02 5.051790726527274273e+02
5.711370728974953653e-02 5.051800878653892823e+02
5.721373129551092507e-02 5.051811776929137068e+02
5.731375530127230666e-02 5.051823418716276137e+02
5.741377930703368132e-02 5.051835801361245331e+02
5.751380331279506986e-02 5.051848922192749569e+02
5.761382731855645145e-02 5.051862778522367989e+02
5.771385132431783305e-02 5.051877367644701735e+02
5.781387533007921464e-02 5.051892686837458086e+02
5.791389933584059624e-02 5.051908733361599388e+02
5.801392334160198477e-02 5.051925504461460150e+02
5.811394734736335943e-02 5.051942997364837993e+02
5.821397135312474796e-02 5.051961209283160201e+02
5.831399535888612956e-02 5.051980137411565011e+02
5.841401936464751810e-02 5.051999778929047693e+02
5.851404337040889275e-02 5.052020130998574245e+02
5.861406737617028129e-02 5.052041190767218950e+02
5.871409138193166288e-02 5.052062955366253050e+02
5.881411538769304448e-02 5.052085421911306184e+02
5.891413939345442607e-02 5.052108587502474961e+02
5.901416339921580767e-02 5.052132449224449147e+02
5.911418740497719621e-02 5.052157004146629902e+02
5.921421141073857086e-02 5.052182249323268479e+02
5.931423541649995246e-02 5.052208181793587300e+02
5.941425942226134099e-02 5.052234798581901032e+02
5.951428342802272953e-02 5.052262096697749030e+02
5.961430743378410418e-02 5.052290073136026649e+02
5.971433143954548578e-02 5.052318724877104046e+02
5.981435544530687431e-02 5.052348048886962602e+02
5.991437945106825591e-02 5.052378042117313726e+02
6.001440345682963751e-02 5.052408701505739259e+02
6.011442746259101910e-02 5.052440023975816530e+02
6.021445146835240070e-02 5.052472006437249661e+02
6.031447547411378229e-02 5.052504645785987236e+02
6.041449947987516389e-02 5.052537938904370094e+02
6.051452348563655242e-02 5.052571882661258087e+02
6.061454749139793402e-02 5.052606473912157981e+02
6.071457149715930868e-02 5.052641709499352487e+02
6.081459550292069721e-02 5.052677586252046922e+02
6.091461950868208575e-02 5.052714100986470385e+02
6.101464351444346734e-02 5.052751250506041174e+02
6.111466752020484200e-02 5.052789031601497527e+02
6.121469152596623053e-02 5.052827441051003916e+02
6.131471553172761213e-02 5.052866475620305096e+02
6.141473953748900066e-02 5.052906132062872189e+02
6.151476354325037532e-02 5.052946407120006143e+02
6.161478754901175692e-02 5.052987297520984953e+02
6.171481155477314545e-02 5.053028799983218846e+02
6.181483556053452011e-02 5.053070911212354304e+02
6.191485956629590864e-02 5.053113627902436065e+02
6.201488357205729024e-02 5.053156946736016835e+02
6.211490757781867877e-02 5.053200864384326678e+02
6.221493158358005343e-02 5.053245377507370790e+02
6.231495558934144197e-02 5.053290482754094910e+02
6.241497959510282356e-02 5.053336176762521177e+02
6.251500360086420516e-02 5.053382456159863523e+02
6.261502760662558675e-02 5.053429317562690244e+02
6.271505161238696835e-02 5.053476757577044509e+02
6.281507561814834995e-02 5.053524772798588742e+02
6.291509962390973154e-02 5.053573359812749572e+02
6.301512362967111314e-02 5.053622515194849711e+02
6.311514763543249473e-02 5.053672235510234714e+02
6.321517164119389021e-02 5.053722517314440665e+02
6.331519564695525792e-02 5.053773357153303323e+02
6.341521965271665340e-02 5.053824751563116138e+02
6.351524365847803499e-02 5.053876697070766113e+02
6.361526766423941659e-02 5.053929190193878753e+02
6.371529167000079819e-02 5.053982227440931183e+02
6.381531567576217978e-02 5.054035805311437457e+02
6.391533968152356138e-02 5.054089920296054288e+02
6.401536368728494297e-02 5.054144568876718608e+02
6.411538769304632457e-02 5.054199747526826627e+02
6.421541169880770616e-02 5.054255452711325347e+02
6.431543570456910164e-02 5.054311680886903559e+02
6.441545971033046936e-02 5.054368428502081088e+02
6.451548371609186483e-02 5.054425691997396370e+02
6.461550772185324643e-02 5.054483467805520718e+02
6.471553172761462802e-02 5.054541752351410651e+02
6.481555573337600962e-02 5.054600542052441483e+02
6.491557973913739121e-02 5.054659833318560231e+02
6.501560374489877281e-02 5.054719622552417491e+02
6.511562775066015440e-02 5.054779906149530575e+02
6.521565175642153600e-02 5.054840680498379015e+02
6.531567576218291760e-02 5.054901941980610900e+02
6.541569976794431307e-02 5.054963686971130414e+02
6.551572377370568079e-02 5.055025911838276329e+02
6.561574777946706238e-02 5.055088612943935118e+02
6.571577178522845786e-02 5.055151786643723426e+02
6.581579579098983945e-02 5.055215429287079587e+02
6.591581979675120717e-02 5.055279537217461439e+02
6.601584380251260264e-02 5.055344106772447503e+02
6.611586780827398424e-02 5.055409134283891603e+02
6.621589181403536584e-02 5.055474616078086569e+02
6.631591581979674743e-02 5.055540548475871105e+02
6.641593982555812903e-02 5.055606927792811689e+02
6.651596383131951062e-02 5.055673750339313415e+02
6.661598783708089222e-02 5.055741012420789389e+02
6.671601184284227382e-02 5.055808710337776688e+02
6.681603584860365541e-02 5.055876840386108029e+02
6.691605985436505089e-02 5.055945398857035116e+02
6.701608386012641860e-02 5.056014382037387236e+02
6.711610786588781408e-02 5.056083786209706545e+02
6.721613187164919567e-02 5.056153607652385062e+02
6.731615587741057727e-02 5.056223842639822124e+02
6.741617988317195886e-02 5.056294487442555692e+02
6.751620388893334046e-02 5.056365538327430613e+02
6.761622789469472206e-02 5.056436991557684451e+02
6.771625190045610365e-02 5.056508843393178267e+02
6.781627590621748525e-02 5.056581090090460293e+02
6.791629991197886684e-02 5.056653727902943274e+02
6.801632391774026232e-02 5.056726753081058519e+02
6.811634792350163004e-02 5.056800161872379249e+02
6.821637192926302551e-02 5.056873950521772940e+02
6.831639593502440710e-02 5.056948115271543998e+02
6.841641994078578870e-02 5.057022652361567339e+02
6.851644394654717030e-02 5.057097558029452671e+02
6.861646795230855189e-02 5.057172828510675231e+02
6.871649195806993349e-02 5.057248460038704252e+02
6.881651596383131508e-02 5.057324448845182587e+02
6.891653996959269668e-02 5.057400791160026756e+02
6.901656397535407828e-02 5.057477483211603158e+02
6.911658798111547375e-02 5.057554521226861084e+02
6.921661198687684147e-02 5.057631901431460619e+02
6.931663599263822306e-02 5.057709620049938053e+02
6.941665999839961854e-02 5.057787673305826956e+02
6.951668400416100013e-02 5.057866057421823598e+02
6.961670800992236785e-02 5.057944768619908587e+02
6.971673201568376332e-02 5.058023803121507171e+02
6.981675602144514492e-02 5.058103157147601792e+02
6.991678002720652652e-02 5.058182826918907722e+02
7.001680403296790811e-02 5.058262808656000402e+02
7.011682803872928971e-02 5.058343098579447314e+02
7.021685204449067130e-02 5.058423692909973965e+02
7.031687605025206678e-02 5.058504587868569615e+02
7.041690005601343449e-02 5.058585779676660650e+02
7.051692406177481609e-02 5.058667264556244731e+02
7.061694806753621156e-02 5.058749038730009033e+02
7.071697207329757928e-02 5.058831098421505885e+02
7.081699607905897476e-02 5.058913439855257366e+02
7.091702008482035635e-02 5.058996059256927538e+02
7.101704409058173795e-02 5.059078952853441820e+02
7.111706809634311954e-02 5.059162116873130230e+02
7.121709210210450114e-02 5.059245547545872910e+02
7.131711610786588273e-02 5.059329241103235972e+02
7.141714011362726433e-02 5.059413193778606228e+02
7.151716411938864593e-02 5.059497401807345227e+02
7.161718812515002752e-02 5.059581861426902947e+02
7.171721213091142300e-02 5.059666568876976953e+02
7.181723613667279071e-02 5.059751520399643141e+02
7.191726014243418619e-02 5.059836712239498411e+02
7.201728414819556778e-02 5.059922140643783450e+02
7.211730815395694938e-02 5.060007801862553833e+02
7.221733215971833098e-02 5.060093692148764148e+02
7.231735616547971257e-02 5.060179807758457855e+02
7.241738017124109417e-02 5.060266144950868465e+02
7.251740417700247576e-02 5.060352699988579843e+02
7.261742818276385736e-02 5.060439469137647848e+02
7.271745218852523895e-02 5.060526448667730506e+02
7.281747619428663443e-02 5.060613634852243194e+02
7.291750020004801602e-02 5.060701023968481422e+02
7.301752420580938374e-02 5.060788612297749864e+02
7.311754821157077922e-02 5.060876396125515271e+02
7.321757221733216081e-02 5.060964371741529249e+02
7.331759622309352853e-02 5.061052535439955022e+02
7.341762022885492400e-02 5.061140883519515796e+02
7.351764423461630560e-02 5.061229412283626061e+02
7.361766824037768719e-02 5.061318118040507557e+02
7.371769224613906879e-02 5.061406997103344452e+02
7.381771625190045039e-02 5.061496045790408971e+02
7.391774025766183198e-02 5.061585260425183606e+02
7.401776426342322746e-02 5.061674637336495834e+02
7.411778826918459517e-02 5.061764172858667621e+02
7.421781227494597677e-02 5.061853863331625689e+02
7.431783628070737224e-02 5.061943705101027149e+02
7.441786028646873996e-02 5.062033694518421498e+02
7.451788429223013543e-02 5.062123827941347827e+02
7.461790829799151703e-02 5.062214101733480902e+02
7.471793230375289863e-02 5.062304512264760206e+02
7.481795630951428022e-02 5.062395055911492818e+02
7.491798031527566182e-02 5.062485729056537025e+02
7.501800432103704341e-02 5.062576528089370527e+02
7.511802832679842501e-02 5.062667449406259834e+02
7.521805233255980661e-02 5.062758489410369975e+02
7.531807633832118820e-02 5.062849644511883298e+02
7.541810034408258367e-02 5.062940911128146126e+02
7.551812434984396527e-02 5.063032285683784721e+02
7.561814835560534687e-02 5.063123764610825219e+02
7.571817236136672846e-02 5.063215344348822669e+02
7.581819636712811006e-02 5.063307021344992904e+02
7.591822037288949165e-02 5.063398792054329078e+02
7.601824437865087325e-02 5.063490652939727283e+02
7.611826838441225485e-02 5.063582600472109903e+02
7.621829239017363644e-02 5.063674631130546686e+02
7.631831639593501804e-02 5.063766741402382081e+02
7.641834040169639963e-02 5.063858927783350623e+02
7.651836440745779511e-02 5.063951186777704834e+02
7.661838841321917670e-02 5.064043514898335161e+02
7.671841241898054442e-02 5.064135908666884802e+02
7.681843642474193989e-02 5.064228364613873055e+02
7.691846043050332149e-02 5.064320879278815255e+02
7.701848443626468921e-02 5.064413449210355793e+02
7.711850844202608468e-02 5.064506070966356219e+02
7.721853244778746628e-02 5.064598741114035079e+02
7.731855645354884787e-02 5.064691456230090694e+02
7.741858045931022947e-02 5.064784212900794387e+02
7.751860446507161106e-02 5.064877007722129747e+02
7.761862847083299266e-02 5.064969837299901769e+02
7.771865247659438813e-02 5.065062698249847131e+02
7.781867648235575585e-02 5.065155587197758109e+02
7.791870048811713745e-02 5.065248500779574101e+02
7.801872449387853292e-02 5.065341435641555563e+02
7.811874849963990064e-02 5.065434388440309021e+02
7.821877250540129611e-02 5.065527355842980910e+02
7.831879651116266383e-02 5.065620334527310433e+02
7.841882051692405931e-02 5.065713321181792708e+02
7.851884452268544090e-02 5.065806312505745268e+02
7.861886852844682250e-02 5.065899305209451313e+02
7.871889253420820409e-02 5.065992296014246676e+02
7.881891653996958569e-02 5.066085281652651702e+02
7.891894054573098116e-02 5.066178258868455373e+02
7.901896455149236276e-02 5.066271224416852306e+02
7.911898855725373048e-02 5.066364175064521760e+02
7.921901256301511207e-02 5.066457107589755537e+02
7.931903656877650755e-02 5.066550018782562574e+02
7.941906057453788914e-02 5.066642905444763301e+02
7.951908458029927074e-02 5.066735764390112422e+02
7.961910858606065233e-02 5.066828592444385322e+02
7.971913259182203393e-02 5.066921386445494591e+02
7.981915659758340165e-02 5.067014143243599733e+02
7.991918060334479712e-02 5.067106859701192434e+02
8.001920460910617872e-02 5.067199532693214792e+02
8.011922861486756031e-02 5.067292159107154248e+02
8.021925262062895579e-02 5.067384735843148178e+02
8.031927662639033738e-02 5.067477259814086210e+02
8.041930063215171898e-02 5.067569727945697196e+02
8.051932463791310057e-02 5.067662137176669148e+02
8.061934864367446829e-02 5.067754484458744173e+02
8.071937264943584989e-02 5.067846766756790657e+02
8.081939665519724536e-02 5.067938981048947653e+02
8.091942066095862696e-02 5.068031124326675467e+02
8.101944466672000855e-02 5.068123193594893792e+02
8.111946867248140403e-02 5.068215185872030588e+02
8.121949267824278562e-02 5.068307098190169313e+02
8.131951668400415334e-02 5.068398927595108034e+02
8.141954068976553494e-02 5.068490671146446971e+02
8.151956469552691653e-02 5.068582325917731168e+02
8.161958870128829813e-02 5.068673888996489723e+02
8.171961270704969360e-02 5.068765357484343212e+02
8.181963671281107520e-02 5.068856728497122504e+02
8.191966071857245679e-02 5.068947999164912517e+02
8.201968472433382451e-02 5.069039166632185243e+02
8.211970873009521998e-02 5.069130228057856584e+02
8.221973273585660158e-02 5.069221180615401749e+02
8.231975674161798318e-02 5.069312021492924032e+02
8.241978074737936477e-02 5.069402747893245760e+02
8.251980475314074637e-02 5.069493357034006635e+02
8.261982875890214184e-02 5.069583846147736494e+02
8.271985276466352344e-02 5.069674212481946824e+02
8.281987677042489115e-02 5.069764453299205798e+02
8.291990077618627275e-02 5.069854565877243999e+02
8.301992478194766822e-02 5.069944547509014114e+02
8.311994878770904982e-02 5.070034395502780171e+02
8.321997279347043142e-02 5.070124107182215312e+02
8.331999679923181301e-02 5.070213679886456930e+02
8.342002080499319461e-02 5.070303110970201033e+02
8.352004481075456233e-02 5.070392397803793187e+02
8.362006881651595780e-02 5.070481537773277978e+02
8.372009282227733939e-02 5.070570528280505869e+02
8.382011682803872099e-02 5.070659366743190049e+02
8.392014083380011646e-02 5.070748050595008181e+02
8.402016483956149806e-02 5.070836577285641624e+02
8.412018884532287966e-02 5.070924944280890259e+02
8.422021285108426125e-02 5.071013149062713410e+02
8.432023685684562897e-02 5.071101189129333306e+02
8.442026086260701057e-02 5.071189061995279985e+02
8.452028486836840604e-02 5.071276765191490767e+02
8.462030887412978764e-02 5.071364296265364260e+02
8.472033287989116923e-02 5.071451652780818904e+02
8.482035688565256470e-02 5.071538832318416326e+02
8.492038089141394630e-02 5.071625832475360198e+02
8.502040489717531402e-02 5.071712650865619025e+02
8.512042890293669561e-02 5.071799285119965930e+02
8.522045290869807721e-02 5.071885732886055962e+02
8.532047691445945881e-02 5.071971991828498290e+02
8.542050092022085428e-02 5.072058059628902242e+02
8.552052492598223588e-02 5.072143933985959734e+02
8.562054893174361747e-02 5.072229612615517453e+02
8.572057293750501294e-02 5.072315093250603582e+02
8.582059694326638066e-02 5.072400373641532383e+02
8.592062094902776226e-02 5.072485451555939449e+02
8.602064495478914385e-02 5.072570324778855593e+02
8.612066896055052545e-02 5.072654991112759717e+02
8.622069296631190705e-02 5.072739448377643612e+02
8.632071697207330252e-02 5.072823694411077327e+02
8.642074097783468412e-02 5.072907727068236454e+02
8.652076498359605183e-02 5.072991544222004450e+02
8.662078898935743343e-02 5.073075143762994799e+02
8.672081299511882890e-02 5.073158523599622640e+02
8.682083700088021050e-02 5.073241681658156494e+02
8.692086100664159209e-02 5.073324615882762600e+02
8.702088501240297369e-02 5.073407324235580518e+02
8.712090901816435529e-02 5.073489804696754959e+02
8.722093302392572300e-02 5.073572055264492064e+02
8.732095702968711848e-02 5.073654073955120225e+02
8.742098103544850007e-02 5.073735858803136693e+02
8.752100504120988167e-02 5.073817407861240554e+02
8.762102904697127714e-02 5.073898719200404344e+02
8.772105305273265874e-02 5.073979790909910434e+02
8.782107705849404033e-02 5.074060621097403896e+02
8.792110106425542193e-02 5.074141207888926033e+02
8.802112507001678965e-02 5.074221549428983735e+02
8.812114907577817124e-02 5.074301643880558004e+02
8.822117308153956672e-02 5.074381489425184100e+02
8.832119708730094831e-02 5.074461084262982808e+02
8.842122109306232991e-02 5.074540426612685451e+02
8.852124509882372538e-02 5.074619514711703232e+02
8.862126910458510698e-02 5.074698346816145431e+02
8.872129311034647470e-02 5.074776921200868287e+02
8.882131711610785629e-02 5.074855236159522178e+02
8.892134112186923789e-02 5.074933290004568676e+02
8.902136512763061948e-02 5.075011081067341934e+02
8.912138913339201496e-02 5.075088607698074838e+02
8.922141313915339655e-02 5.075165868265921176e+02
8.932143714491477815e-02 5.075242861159014183e+02
8.942146115067617362e-02 5.075319584784493827e+02
8.952148515643754134e-02 5.075396037568528982e+02
8.962150916219892294e-02 5.075472217956361192e+02
8.972153316796030453e-02 5.075548124412329685e+02
8.982155717372168613e-02 5.075623755419909457e+02
8.992158117948306773e-02 5.075699109481744813e+02
9.002160518524446320e-02 5.075774185119647086e+02
9.012162919100584479e-02 5.075848980874678205e+02
9.022165319676721251e-02 5.075923495307137046e+02
9.032167720252859411e-02 5.075997726996578763e+02
9.042170120828998958e-02 5.076071674541892094e+02
9.052172521405137118e-02 5.076145336561262411e+02
9.062174921981275277e-02 5.076218711692242778e+02
9.072177322557413437e-02 5.076291798591756219e+02
9.082179723133551597e-02 5.076364595936121304e+02
9.092182123709688368e-02 5.076437102421081136e+02
9.102184524285827916e-02 5.076509316761810169e+02
9.112186924861966075e-02 5.076581237692947184e+02
9.122189325438104235e-02 5.076652863968610063e+02
9.132191726014243782e-02 5.076724194362424782e+02
9.142194126590381942e-02 5.076795227667521431e+02
9.152196527166520101e-02 5.076865962696568317e+02
9.162198927742658261e-02 5.076936398281784477e+02
9.172201328318795033e-02 5.077006533274959565e+02
9.182203728894933192e-02 5.077076366547452153e+02
9.192206129471072740e-02 5.077145896990215306e+02
9.202208530047210899e-02 5.077215123513830122e+02
9.212210930623349059e-02 5.077284045048473899e+02
9.222213331199488606e-02 5.077352660543956517e+02
9.232215731775626766e-02 5.077420968969737487e+02
9.242218132351763538e-02 5.077488969314927090e+02
9.252220532927901697e-02 5.077556660588284672e+02
9.262222933504039857e-02 5.077624041818244223e+02
9.272225334080178016e-02 5.077691112052920062e+02
9.282227734656317564e-02 5.077757870360101151e+02
9.292230135232455723e-02 5.077824315827259625e+02
9.302232535808593883e-02 5.077890447561563860e+02
9.312234936384733430e-02 5.077956264689884733e+02
9.322237336960870202e-02 5.078021766358775153e+02
9.332239737537008362e-02 5.078086951734504169e+02
9.342242138113146521e-02 5.078151820003045600e+02
9.352244538689284681e-02 5.078216370370053028e+02
9.362246939265422840e-02 5.078280602060915498e+02
9.372249339841562388e-02 5.078344514320700114e+02
9.382251740417700547e-02 5.078408106414183862e+02
9.392254140993837319e-02 5.078471377625844525e+02
9.402256541569975479e-02 5.078534327259851011e+02
9.412258942146115026e-02 5.078596954640060517e+02
9.422261342722253186e-02 5.078659259110020798e+02
9.432263743298391345e-02 5.078721240032955393e+02
9.442266143874529505e-02 5.078782896791765324e+02
9.452268544450667664e-02 5.078844228789017166e+02
9.462270945026807212e-02 5.078905235446934512e+02
9.472273345602943984e-02 5.078965916207375813e+02
9.482275746179082143e-02 5.079026270531865066e+02
9.492278146755220303e-02 5.079086297901539524e+02
9.502280547331359850e-02 5.079145997817149123e+02
9.512282947907498010e-02 5.079205369799049095e+02
9.522285348483636169e-02 5.079264413387203376e+02
9.532287749059774329e-02 5.079323128141131747e+02
9.542290149635911101e-02 5.079381513639930290e+02
9.552292550212049260e-02 5.079439569482239563e+02
9.562294950788188808e-02 5.079497295286226404e+02
9.572297351364326967e-02 5.079554690689580525e+02
9.582299751940465127e-02 5.079611755349482110e+02
9.592302152516604674e-02 5.079668488942595559e+02
9.602304553092742834e-02 5.079724891165035388e+02
9.612306953668879606e-02 5.079780961732363949e+02
9.622309354245017765e-02 5.079836700379556760e+02
9.632311754821155925e-02 5.079892106860980903e+02
9.642314155397294084e-02 5.079947180950387065e+02
9.652316555973433632e-02 5.080001922440865769e+02
9.662318956549571791e-02 5.080056331144836577e+02
9.672321357125709951e-02 5.080110406894022503e+02
9.682323757701849498e-02 5.080164149539427285e+02
9.692326158277986270e-02 5.080217558951279671e+02
9.702328558854124430e-02 5.080270635019068095e+02
9.712330959430262589e-02 5.080323377651433816e+02
9.722333360006400749e-02 5.080375786776216387e+02
9.732335760582538908e-02 5.080427862340374645e+02
9.742338161158678456e-02 5.080479604309969659e+02
9.752340561734816615e-02 5.080531012670140285e+02
9.762342962310953387e-02 5.080582087425079862e+02
9.772345362887091547e-02 5.080632828597971979e+02
9.782347763463231094e-02 5.080683236230981947e+02
9.792350164039369254e-02 5.080733310385232926e+02
9.802352564615507413e-02 5.080783051140727480e+02
9.812354965191645573e-02 5.080832458596366905e+02
9.822357365767783732e-02 5.080881532869865396e+02
9.832359766343923280e-02 5.080930274097754591e+02
9.842362166920060051e-02 5.080978682435311384e+02
9.852364567496198211e-02 5.081026758056531776e+02
9.862366968072336371e-02 5.081074501154118366e+02
9.872369368648475918e-02 5.081121911939386564e+02
9.882371769224614078e-02 5.081168990642271979e+02
9.892374169800752237e-02 5.081215737511262773e+02
9.902376570376890397e-02 5.081262152813357034e+02
9.912378970953027169e-02 5.081308236834041168e+02
9.922381371529165328e-02 5.081353989877223398e+02
9.932383772105304875e-02 5.081399412265201363e+02
9.942386172681443035e-02 5.081444504338610955e+02
9.952388573257581195e-02 5.081489266456378573e+02
9.962390973833720742e-02 5.081533698995685313e+02
9.972393374409858902e-02 5.081577802351908986e+02
9.982395774985997061e-02 5.081621576938583189e+02
9.992398175562133833e-02 5.081665023187335350e+02
1.000240057613827199e-01 5.081708141547856599e+02
1.001240297671441015e-01 5.081750932487839805e+02
1.002240537729054970e-01 5.081793396492926718e+02
1.003240777786668786e-01 5.081835534066660784e+02
1.004241017844282602e-01 5.081877345730430875e+02
1.005241257901896557e-01 5.081918832023425239e+02
1.006241497959510234e-01 5.081959993502578641e+02
1.007241738017124050e-01 5.082000830742502444e+02
1.008241978074737866e-01 5.082041344335443114e+02
1.009242218132351682e-01 5.082081534891214005e+02
1.010242458189965498e-01 5.082121403037167511e+02
1.011242698247579452e-01 5.082160949418105247e+02
1.012242938305193268e-01 5.082200174696237127e+02
1.013243178362806945e-01 5.082239079551101781e+02
1.014243418420420761e-01 5.082277664679560303e+02
1.015243658478034716e-01 5.082315930795656413e+02
1.016243898535648532e-01 5.082353878630628401e+02
1.017244138593262348e-01 5.082391508932806801e+02
1.018244378650876164e-01 5.082428822467574037e+02
1.019244618708489980e-01 5.082465820017279157e+02
1.020244858766103935e-01 5.082502502381197473e+02
1.021245098823717612e-01 5.082538870375448141e+02
1.022245338881331428e-01 5.082574924832949819e+02
1.023245578938945244e-01 5.082610666603326877e+02
1.024245818996559199e-01 5.082646096552879271e+02
1.025246059054173015e-01 5.082681215564475679e+02
1.026246299111786831e-01 5.082716024537526209e+02
1.027246539169400646e-01 5.082750524387889186e+02
1.028246779227014324e-01 5.082784716047813163e+02
1.029247019284628140e-01 5.082818600465850523e+02
1.030247259342242094e-01 5.082852178606815414e+02
1.031247499399855910e-01 5.082885451451696781e+02
1.032247739457469726e-01 5.082918419997586170e+02
1.033247979515083681e-01 5.082951085257613499e+02
1.034248219572697497e-01 5.082983448260866908e+02
1.035248459630311313e-01 5.083015510052332502e+02
1.036248699687924990e-01 5.083047271692808522e+02
1.037248939745538806e-01 5.083078734258835993e+02
1.038249179803152622e-01 5.083109898842616872e+02
1.039249419860766577e-01 5.083140766551966863e+02
1.040249659918380393e-01 5.083171338510192072e+02
1.041249899975994209e-01 5.083201615856055469e+02
1.042250140033608163e-01 5.083231599743684228e+02
1.043250380091221841e-01 5.083261291342487880e+02
1.044250620148835657e-01 5.083290691837082704e+02
1.045250860206449472e-01 5.083319802427225795e+02
1.046251100264063288e-01 5.083348624327697962e+02
1.047251340321677104e-01 5.083377158768281561e+02
1.048251580379291059e-01 5.083405406993631459e+02
1.049251820436904875e-01 5.083433370263221605e+02
1.050252060494518552e-01 5.083461049851233611e+02
1.051252300552132368e-01 5.083488447046520378e+02
1.052252540609746323e-01 5.083515563152484447e+02
1.053252780667360139e-01 5.083542399487006946e+02
1.054253020724973955e-01 5.083568957382371991e+02
1.055253260782587771e-01 5.083595238185167773e+02
1.056253500840201587e-01 5.083621243256218918e+02
1.057253740897815542e-01 5.083646973970484737e+02
1.058253980955429219e-01 5.083672431716986466e+02
1.059254221013043035e-01 5.083697617898703243e+02
1.060254461070656851e-01 5.083722533932514125e+02
1.061254701128270805e-01 5.083747181249080995e+02
1.062254941185884621e-01 5.083771561292782053e+02
1.063255181243498437e-01 5.083795675521608359e+02
1.064255421301112253e-01 5.083819525407082551e+02
1.065255661358725930e-01 5.083843112434170166e+02
1.066255901416339746e-01 5.083866438101190397e+02
1.067256141473953701e-01 5.083889503919713206e+02
1.068256381531567517e-01 5.083912311414499641e+02
1.069256621589181333e-01 5.083934862123364269e+02
1.070256861646795288e-01 5.083957157597121181e+02
1.071257101704409104e-01 5.083979199399483946e+02
1.072257341762022920e-01 5.084000989106956467e+02
1.073257581819636597e-01 5.084022528308755682e+02
1.074257821877250413e-01 5.084043818606724585e+02
1.075258061934864229e-01 5.084064861615208883e+02
1.076258301992478184e-01 5.084085658960987075e+02
1.077258542050091999e-01 5.084106212283178365e+02
1.078258782107705815e-01 5.084126523233119315e+02
1.079259022165319770e-01 5.084146593474312681e+02
1.080259262222933447e-01 5.084166424682279057e+02
1.081259502280547263e-01 5.084186018544494345e+02
1.082259742338161079e-01 5.084205376760295962e+02
1.083259982395774895e-01 5.084224501040748692e+02
1.084260222453388711e-01 5.084243393108592386e+02
1.085260462511002666e-01 5.084262054698119186e+02
1.086260702568616482e-01 5.084280487555068362e+02
1.087260942626230298e-01 5.084298693436542180e+02
1.088261182683843975e-01 5.084316674110896770e+02
1.089261422741457930e-01 5.084334431357655149e+02
1.090261662799071746e-01 5.084351966967388989e+02
1.091261902856685562e-01 5.084369282741625966e+02
1.092262142914299378e-01 5.084386380492748003e+02
1.093262382971913194e-01 5.084403262043898053e+02
1.094262623029527148e-01 5.084419929228863566e+02
1.095262863087140826e-01 5.084436383891979290e+02
1.096263103144754641e-01 5.084452627888030065e+02
1.097263343202368457e-01 5.084468663082147373e+02
1.098263583259982412e-01 5.084484491349685982e+02
1.099263823317596228e-01 5.084500114576160286e+02
1.100264063375210044e-01 5.084515534657095941e+02
1.101264303432823860e-01 5.084530753497955402e+02
1.102264543490437537e-01 5.084545773014025372e+02
1.103264783548051353e-01 5.084560595130294587e+02
1.104265023605665308e-01 5.084575221781381060e+02
1.105265263663279124e-01 5.084589654911404750e+02
1.106265503720892940e-01 5.084603896473878422e+02
1.107265743778506895e-01 5.084617948431611580e+02
1.108265983836120711e-01 5.084631812756600198e+02
1.109266223893734526e-01 5.084645491429920412e+02
1.110266463951348204e-01 5.084658986441614843e+02
1.111266704008962020e-01 5.084672299790599936e+02
1.112266944066575836e-01 5.084685433484539203e+02
1.113267184124189790e-01 5.084698389539743744e+02
1.114267424181803606e-01 5.084711169981078456e+02
1.115267664239417422e-01 5.084723776841822200e+02
1.116267904297031377e-01 5.084736212163579694e+02
1.117268144354645054e-01 5.084748477996164411e+02
1.118268384412258870e-01 5.084760576397513887e+02
1.119268624469872686e-01 5.084772509433527716e+02
1.120268864527486502e-01 5.084784279178001043e+02
1.121269104585100318e-01 5.084795887712515423e+02
1.122269344642714273e-01 5.084807337126280800e+02
1.123269584700328089e-01 5.084818629516089459e+02
1.124269824757941905e-01 5.084829766986156301e+02
1.125270064815555582e-01 5.084840751648026185e+02
1.126270304873169537e-01 5.084851585620468768e+02
1.127270544930783353e-01 5.084862271029346061e+02
1.128270784988397168e-01 5.084872810007516364e+02
1.129271025046010984e-01 5.084883204694729670e+02
1.130271265103624800e-01 5.084893457237484427e+02
1.131271505161238755e-01 5.084903569788950790e+02
1.132271745218852432e-01 5.084913544508831933e+02
1.133271985276466248e-01 5.084923383563263997e+02
1.134272225334080064e-01 5.084933089124701837e+02
1.135272465391694019e-01 5.084942663371796243e+02
1.136272705449307835e-01 5.084952108489291049e+02
1.137272945506921651e-01 5.084961426667909450e+02
1.138273185564535467e-01 5.084970620104229511e+02
1.139273425622149283e-01 5.084979691000581283e+02
1.140273665679762960e-01 5.084988641564918908e+02
1.141273905737376915e-01 5.084997474010730230e+02
1.142274145794990731e-01 5.085006190556900947e+02
1.143274385852604547e-01 5.085014793427595805e+02
1.144274625910218501e-01 5.085023284852169922e+02
1.145274865967832317e-01 5.085031667065032934e+02
1.146275106025446133e-01 5.085039942305534737e+02
1.147275346083059810e-01 5.085048112817854644e+02
1.148275586140673626e-01 5.085056180850896226e+02
1.149275826198287442e-01 5.085064148658149179e+02
1.150276066255901397e-01 5.085072018497591557e+02
1.151276306313515213e-01 5.085079792631571536e+02
1.152276546371129029e-01 5.085087473326680083e+02
1.153276786428742984e-01 5.085095062853660011e+02
1.154277026486356661e-01 5.085102563487254201e+02
1.155277266543970477e-01 5.085109977506116365e+02
1.156277506601584293e-01 5.085117307192699627e+02
1.157277746659198109e-01 5.085124554833111006e+02
1.158277986716811925e-01 5.085131722717023877e+02
1.159278226774425880e-01 5.085138813137548368e+02
1.160278466832039695e-01 5.085145828391111991e+02
1.161278706889653511e-01 5.085152770777351634e+02
1.162278946947267189e-01 5.085159642598990217e+02
1.163279187004881143e-01 5.085166446161732665e+02
1.164279427062494959e-01 5.085173183774128347e+02
1.165279667120108775e-01 5.085179857747476717e+02
1.166279907177722591e-01 5.085186470395692595e+02
1.167280147235336407e-01 5.085193024035197027e+02
1.168280387292950362e-01 5.085199520984805872e+02
1.169280627350564039e-01 5.085205963565601905e+02
1.170280867408177855e-01 5.085212354100831362e+02
1.171281107465791671e-01 5.085218694915765809e+02
1.172281347523405626e-01 5.085224988337614604e+02
1.173281587581019442e-01 5.085231236695387906e+02
1.174281827638633258e-01 5.085237442319779007e+02
1.175282067696247074e-01 5.085243607543060307e+02
1.176282307753860890e-01 5.085249734698952579e+02
1.177282547811474567e-01 5.085255826122526059e+02
1.178282787869088521e-01 5.085261884150058336e+02
1.179283027926702337e-01 5.085267911118945108e+02
1.180283267984316153e-01 5.085273909367566603e+02
1.181283508041930108e-01 5.085279881235175594e+02
1.182283748099543924e-01 5.085285829061778600e+02
1.183283988157157740e-01 5.085291755188019920e+02
1.184284228214771417e-01 5.085297661955071362e+02
1.185284468272385233e-01 5.085303551704512302e+02
1.186284708329999049e-01 5.085309426778210877e+02
1.187284948387613004e-01 5.085315289518192117e+02
1.188285188445226820e-01 5.085321142266574270e+02
1.189285428502840636e-01 5.085326987365385207e+02
1.190285668560454591e-01 5.085332827156494204e+02
1.191285908618068268e-01 5.085338663981477225e+02
1.192286148675682084e-01 5.085344500181499825e+02
1.193286388733295900e-01 5.085350338097209715e+02
1.194286628790909716e-01 5.085356180068625918e+02
1.195286868848523532e-01 5.085362028434998933e+02
1.196287108906137486e-01 5.085367885534722632e+02
1.197287348963751302e-01 5.085373753705196123e+02
1.198287589021365118e-01 5.085379635282736217e+02
1.199287829078978795e-01 5.085385532602434751e+02
1.200288069136592750e-01 5.085391447998054559e+02
1.201288309194206566e-01 5.085397383801919773e+02
1.202288549251820382e-01 5.085403342344799285e+02
1.203288789309434198e-01 5.085409325955782833e+02
1.204289029367048014e-01 5.085415336962179254e+02
1.205289269424661969e-01 5.085421377689390283e+02
1.206289509482275646e-01 5.085427450460816772e+02
1.207289749539889462e-01 5.085433557597711456e+02
1.208289989597503278e-01 5.085439701419102221e+02
1.209290229655117233e-01 5.085445884241651697e+02
1.210290469712731048e-01 5.085452108379561196e+02
1.211290709770344864e-01 5.085458376144441672e+02
1.212290949827958680e-01 5.085464689845217094e+02
1.213291189885572496e-01 5.085471051787995975e+02
1.214291429943186174e-01 5.085477464275975876e+02
1.215291670000800128e-01 5.085483929609314941e+02
1.216291910058413944e-01 5.085490450085030716e+02
1.217292150116027760e-01 5.085497027996882480e+02
1.218292390173641715e-01 5.085503665635257562e+02
1.219292630231255531e-01 5.085510365287072432e+02
1.220292870288869347e-01 5.085517129235653897e+02
1.221293110346483024e-01 5.085523959760609500e+02
1.222293350404096840e-01 5.085530859137761581e+02
1.223293590461710656e-01 5.085537829638977882e+02
1.224293830519324611e-01 5.085544873532119823e+02
1.225294070576938427e-01 5.085551993080890725e+02
1.226294310634552243e-01 5.085559190544748844e+02
1.227294550692166197e-01 5.085566468178781179e+02
1.228294790749780013e-01 5.085573828233611380e+02
1.229295030807393690e-01 5.085581272955275267e+02
1.230295270865007506e-01 5.085588804585120783e+02
1.231295510922621322e-01 5.085596425359703403e+02
1.232295750980235138e-01 5.085604137510661076e+02
1.233295991037849093e-01 5.085611943264625552e+02
1.234296231095462909e-01 5.085619844843105284e+02
1.235296471153076725e-01 5.085627844462383678e+02
1.236296711210690402e-01 5.085635944333396878e+02
1.237296951268304357e-01 5.085644146661646801e+02
1.238297191325918173e-01 5.085652453647085736e+02
1.239297431383531989e-01 5.085660867484004939e+02
1.240297671441145805e-01 5.085669390360944817e+02
1.241297911498759621e-01 5.085678024460562483e+02
1.242298151556373575e-01 5.085686771959561838e+02
1.243298391613987253e-01 5.085695635028554875e+02
1.244298631671601069e-01 5.085704615831986644e+02
1.245298871729214885e-01 5.085713716528002806e+02
1.246299111786828839e-01 5.085722939268367213e+02
1.247299351844442655e-01 5.085732286198347651e+02
1.248299591902056471e-01 5.085741759456625459e+02
1.249299831959670287e-01 5.085751361175172747e+02
1.250300072017284103e-01 5.085761093479161445e+02
1.251300312074897780e-01 5.085770958486869517e+02
1.252300552132511735e-01 5.085780958309564426e+02
1.253300792190125690e-01 5.085791095051400816e+02
1.254301032247739367e-01 5.085801370809344917e+02
1.255301272305353322e-01 5.085811787673030722e+02
1.256301512362966999e-01 5.085822347724705992e+02
1.257301752420580954e-01 5.085833053039103220e+02
1.258301992478194631e-01 5.085843905683343564e+02
1.259302232535808586e-01 5.085854907716849311e+02
1.260302472593422263e-01 5.085866061191228482e+02
1.261302712651036217e-01 5.085877368150204916e+02
1.262302952708649895e-01 5.085888830629485255e+02
1.263303192766263849e-01 5.085900450656677094e+02
1.264303432823877804e-01 5.085912230251200299e+02
1.265303672881491481e-01 5.085924171424185829e+02
1.266303912939105158e-01 5.085936276178375692e+02
1.267304152996719113e-01 5.085948546508019490e+02
1.268304393054333068e-01 5.085960984398798814e+02
1.269304633111946745e-01 5.085973591827711857e+02
1.270304873169560700e-01 5.085986370762994966e+02
1.271305113227174655e-01 5.085999323164023735e+02
1.272305353284788332e-01 5.086012450981211259e+02
1.273305593342402009e-01 5.086025756155931958e+02
1.274305833400015964e-01 5.086039240620407327e+02
1.275306073457629641e-01 5.086052906297638856e+02
1.276306313515243596e-01 5.086066755101288663e+02
1.277306553572857550e-01 5.086080788935610144e+02
1.278306793630471228e-01 5.086095009695344515e+02
1.279307033688085182e-01 5.086109419265637257e+02
1.280307273745698859e-01 5.086124019521953983e+02
1.281307513803312537e-01 5.086138812329971302e+02
1.282307753860926491e-01 5.086153799545505763e+02
1.283307993918540446e-01 5.086168983014417222e+02
1.284308233976154123e-01 5.086184364572519598e+02
1.285308474033768078e-01 5.086199946045513798e+02
1.286308714091382033e-01 5.086215729248859247e+02
1.287308954148995710e-01 5.086231715987729558e+02
1.288309194206609387e-01 5.086247908056903952e+02
1.289309434264223342e-01 5.086264307240682569e+02
1.290309674321837297e-01 5.086280915312814841e+02
1.291309914379450974e-01 5.086297734036395468e+02
1.292310154437064929e-01 5.086314765163799620e+02
1.293310394494678606e-01 5.086332010436585165e+02
1.294310634552292560e-01 5.086349471585421043e+02
1.295310874609906238e-01 5.086367150329996321e+02
1.296311114667520192e-01 5.086385048378936631e+02
1.297311354725133870e-01 5.086403167429735390e+02
1.298311594782747824e-01 5.086421509168657735e+02
1.299311834840361501e-01 5.086440075270679699e+02
1.300312074897975456e-01 5.086458867399383621e+02
1.301312314955589411e-01 5.086477887206893342e+02
1.302312555013203088e-01 5.086497136333800881e+02
1.303312795070816765e-01 5.086516616409080598e+02
1.304313035128430720e-01 5.086536329050006771e+02
1.305313275186044675e-01 5.086556275862089365e+02
1.306313515243658352e-01 5.086576458438983082e+02
1.307313755301272307e-01 5.086596878362427105e+02
1.308313995358886261e-01 5.086617537202156427e+02
1.309314235416499939e-01 5.086638436515837611e+02
1.310314475474113616e-01 5.086659577848980121e+02
1.311314715531727570e-01 5.086680962734882314e+02
1.312314955589341248e-01 5.086702592694542773e+02
1.313315195646955202e-01 5.086724469236597770e+02
1.314315435704569157e-01 5.086746593857241692e+02
1.315315675762182834e-01 5.086768968040153709e+02
1.316315915819796789e-01 5.086791593256452870e+02
1.317316155877410466e-01 5.086814470964581574e+02
1.318316395935024143e-01 5.086837602610277713e+02
1.319316635992638098e-01 5.086860989626492824e+02
1.320316876050252053e-01 5.086884633433305680e+02
1.321317116107865730e-01 5.086908535437887053e+02
1.322317356165479685e-01 5.086932697034405351e+02
1.323317596223093640e-01 5.086957119603974888e+02
1.324317836280707317e-01 5.086981804514581995e+02
1.325318076338320994e-01 5.087006753121032148e+02
1.326318316395934949e-01 5.087031966764865274e+02
1.327318556453548903e-01 5.087057446774306868e+02
1.328318796511162581e-01 5.087083194464207736e+02
1.329319036568776535e-01 5.087109211135961004e+02
1.330319276626390212e-01 5.087135498077461762e+02
1.331319516684004167e-01 5.087162056563039982e+02
1.332319756741617844e-01 5.087188887853382653e+02
1.333319996799231799e-01 5.087215993195505348e+02
1.334320236856845476e-01 5.087243373822659578e+02
1.335320476914459431e-01 5.087271030954294702e+02
1.336320716972073108e-01 5.087298965795988011e+02
1.337320957029687063e-01 5.087327179539403801e+02
1.338321197087301018e-01 5.087355673362216635e+02
1.339321437144914695e-01 5.087384448428059045e+02
1.340321677202528372e-01 5.087413505886474923e+02
1.341321917260142327e-01 5.087442846872862674e+02
1.342322157317756282e-01 5.087472472508408146e+02
1.343322397375369959e-01 5.087502383900048244e+02
1.344322637432983913e-01 5.087532582140398176e+02
1.345322877490597868e-01 5.087563068307728713e+02
1.346323117548211545e-01 5.087593843465875239e+02
1.347323357605825223e-01 5.087624908664207624e+02
1.348323597663439177e-01 5.087656264937594983e+02
1.349323837721052854e-01 5.087687913306323821e+02
1.350324077778666809e-01 5.087719854776075863e+02
1.351324317836280764e-01 5.087752090337850746e+02
1.352324557893894441e-01 5.087784620967953515e+02
1.353324797951508396e-01 5.087817447627916749e+02
1.354325038009122073e-01 5.087850571264476685e+02
1.355325278066735750e-01 5.087883992809501024e+02
1.356325518124349705e-01 5.087917713179971884e+02
1.357325758181963660e-01 5.087951733277930089e+02
1.358325998239577337e-01 5.087986053990412074e+02
1.359326238297191292e-01 5.088020676189447613e+02
1.360326478354805246e-01 5.088055600731976824e+02
1.361326718412418924e-01 5.088090828459838804e+02
1.362326958470032601e-01 5.088126360199702276e+02
1.363327198527646555e-01 5.088162196763051952e+02
1.364327438585260510e-01 5.088198338946133390e+02
1.365327678642874187e-01 5.088234787529911500e+02
1.366327918700488142e-01 5.088271543280044398e+02
1.367328158758101819e-01 5.088308606946836790e+02
1.368328398815715774e-01 5.088345979265206438e+02
1.369328638873329729e-01 5.088383660954642096e+02
1.370328878930943406e-01 5.088421652719175086e+02
1.371329118988557083e-01 5.088459955247350308e+02
1.372329359046171038e-01 5.088498569212162579e+02
1.373329599103784715e-01 5.088537495271061744e+02
1.374329839161398670e-01 5.088576734065895835e+02
1.375330079219012624e-01 5.088616286222880376e+02
1.376330319276626302e-01 5.088656152352579056e+02
1.377330559334239979e-01 5.088696333049863938e+02
1.378330799391853934e-01 5.088736828893873962e+02
1.379331039449467888e-01 5.088777640448016655e+02
1.380331279507081566e-01 5.088818768259914691e+02
1.381331519564695520e-01 5.088860212861374634e+02
1.382331759622309475e-01 5.088901974768382388e+02
1.383331999679923152e-01 5.088944054481056014e+02
1.384332239737536829e-01 5.088986452483632092e+02
1.385332479795150784e-01 5.089029169244431614e+02
1.386332719852764461e-01 5.089072205215841223e+02
1.387332959910378416e-01 5.089115560834295593e+02
1.388333199967992371e-01 5.089159236520230820e+02
1.389333440025606048e-01 5.089203232678099198e+02
1.390333680083220003e-01 5.089247549696307829e+02
1.391333920140833680e-01 5.089292187947229422e+02
1.392334160198447357e-01 5.089337147787166487e+02
1.393334400256061312e-01 5.089382429556334273e+02
1.394334640313675266e-01 5.089428033578841450e+02
1.395334880371288944e-01 5.089473960162673620e+02
1.396335120428902898e-01 5.089520209599684222e+02
1.397335360486516853e-01 5.089566782165557015e+02
1.398335600544130530e-01 5.089613678119811766e+02
1.399335840601744207e-01 5.089660897705773550e+02
1.400336080659358162e-01 5.089708441150572753e+02
1.401336320716972117e-01 5.089756308665124607e+02
1.402336560774585794e-01 5.089804500444105884e+02
1.403336800832199749e-01 5.089853016665964560e+02
1.404337040889813426e-01 5.089901857492884005e+02
1.405337280947427381e-01 5.089951023070789233e+02
1.406337521005041336e-01 5.090000513529338377e+02
1.407337761062655013e-01 5.090050328981895973e+02
1.408338001120268690e-01 5.090100469525542053e+02
1.409338241177882645e-01 5.090150935241055095e+02
1.410338481235496322e-01 5.090201726192906335e+02
1.411338721293110277e-01 5.090252842429255224e+02
1.412338961350724231e-01 5.090304283981946583e+02
1.413339201408337908e-01 5.090356050866487294e+02
1.414339441465951586e-01 5.090408143082081551e+02
1.415339681523565540e-01 5.090460560611575715e+02
1.416339921581179495e-01 5.090513303421494129e+02
1.417340161638793172e-01 5.090566371462028883e+02
1.418340401696407127e-01 5.090619764667018785e+02
1.419340641754021082e-01 5.090673482953985172e+02
1.420340881811634759e-01 5.090727526224086432e+02
1.421341121869248436e-01 5.090781894362169169e+02
1.422341361926862391e-01 5.090836587236717037e+02
1.423341601984476068e-01 5.090891604699897925e+02
1.424341842042090023e-01 5.090946946587544062e+02
1.425342082099703978e-01 5.091002612719152012e+02
1.426342322157317655e-01 5.091058602897909395e+02
1.427342562214931609e-01 5.091114916910666466e+02
1.428342802272545287e-01 5.091171554527983858e+02
1.429343042330158964e-01 5.091228515504094503e+02
1.430343282387772919e-01 5.091285799576947397e+02
1.431343522445386873e-01 5.091343406468185435e+02
1.432343762503000550e-01 5.091401335883189176e+02
1.433344002560614505e-01 5.091459587511043310e+02
1.434344242618228460e-01 5.091518161024586107e+02
1.435344482675842137e-01 5.091577056080400325e+02
1.436344722733455814e-01 5.091636272318821739e+02
1.437344962791069769e-01 5.091695809363962439e+02
1.438345202848683724e-01 5.091755666823717661e+02
1.439345442906297401e-01 5.091815844289782831e+02
1.440345682963911356e-01 5.091876341337660961e+02
1.441345923021525033e-01 5.091937157526677424e+02
1.442346163079138988e-01 5.091998292400016339e+02
1.443346403136752942e-01 5.092059745484716018e+02
1.444346643194366620e-01 5.092121516291675789e+02
1.445346883251980297e-01 5.092183604315706589e+02
1.446347123309594251e-01 5.092246009035525276e+02
1.447347363367207929e-01 5.092308729913783054e+02
1.448347603424821883e-01 5.092371766397080250e+02
1.449347843482435838e-01 5.092435117915991327e+02
1.450348083540049515e-01 5.092498783885084208e+02
1.451348323597663192e-01 5.092562763702945858e+02
1.452348563655277147e-01 5.092627056752199337e+02
1.453348803712891102e-01 5.092691662399528809e+02
1.454349043770504779e-01 5.092756579995713082e+02
1.455349283828118734e-01 5.092821808875628449e+02
1.456349523885732689e-01 5.092887348358290751e+02
1.457349763943346366e-01 5.092953197746896876e+02
1.458350004000960320e-01 5.093019356328806566e+02
1.459350244058573998e-01 5.093085823375614041e+02
1.460350484116187675e-01 5.093152598143162209e+02
1.461350724173801630e-01 5.093219679871550625e+02
1.462350964231415584e-01 5.093287067785201430e+02
1.463351204289029261e-01 5.093354761092854801e+02
1.464351444346643216e-01 5.093422758987637735e+02
1.465351684404256893e-01 5.093491060647055519e+02
1.466351924461870571e-01 5.093559665233049145e+02
1.467352164519484525e-01 5.093628571892026002e+02
1.468352404577098480e-01 5.093697779754884323e+02
1.469352644634712157e-01 5.093767287937054107e+02
1.470352884692326112e-01 5.093837095538535777e+02
1.471353124749940067e-01 5.093907201643924054e+02
1.472353364807553744e-01 5.093977605322457407e+02
1.473353604865167421e-01 5.094048305628044773e+02
1.474353844922781376e-01 5.094119301599309892e+02
1.475354084980395331e-01 5.094190592259632240e+02
1.476354325038009008e-01 5.094262176617169189e+02
1.477354565095622962e-01 5.094334053664916269e+02
1.478354805153236640e-01 5.094406222380736722e+02
1.479355045210850594e-01 5.094478681727410958e+02
1.480355285268464549e-01 5.094551430652664408e+02
1.481355525326078226e-01 5.094624468089218681e+02
1.482355765383691903e-01 5.094697792954831925e+02
1.483356005441305858e-01 5.094771404152346008e+02
1.484356245498919535e-01 5.094845300569731421e+02
1.485356485556533490e-01 5.094919481080123660e+02
1.486356725614147445e-01 5.094993944541878363e+02
1.487356965671761122e-01 5.095068689798612809e+02
1.488357205729374799e-01 5.095143715679251954e+02
1.489357445786988754e-01 5.095219020998077895e+02
1.490357685844602709e-01 5.095294604554776470e+02
1.491357925902216386e-01 5.095370465134487858e+02
1.492358165959830341e-01 5.095446601507850346e+02
1.493358406017444295e-01 5.095523012431056600e+02
1.494358646075057973e-01 5.095599696645912786e+02
1.495358886132671927e-01 5.095676652879867561e+02
1.496359126190285604e-01 5.095753879846072891e+02
1.497359366247899282e-01 5.095831376243452269e+02
1.498359606305513236e-01 5.095909140756729130e+02
1.499359846363127191e-01 5.095987172056494501e+02
1.500360086420740868e-01 5.096065468799260998e+02
1.501360326478354823e-01 5.096144029627513987e+02
1.502360566535968500e-01 5.096222853169771270e+02
1.503360806593582177e-01 5.096301938040628556e+02
1.504361046651196132e-01 5.096381282840828248e+02
1.505361286708810087e-01 5.096460886157324239e+02
1.506361526766423764e-01 5.096540746563301809e+02
1.507361766824037719e-01 5.096620862618283354e+02
1.508362006881651673e-01 5.096701232868152829e+02
1.509362246939265351e-01 5.096781855845240443e+02
1.510362486996879305e-01 5.096862730068361884e+02
1.511362727054492983e-01 5.096943854042896760e+02
1.512362967112106937e-01 5.097025226260824411e+02
1.513363207169720615e-01 5.097106845200821681e+02
1.514363447227334569e-01 5.097188709328293612e+02
1.515363687284948246e-01 5.097270817095453594e+02
1.516363927342562201e-01 5.097353166941389304e+02
1.517364167400176156e-01 5.097435757292103631e+02
1.518364407457789833e-01 5.097518586560614153e+02
1.519364647515403510e-01 5.097601653146986109e+02
1.520364887573017465e-01 5.097684955438415955e+02
1.521365127630631142e-01 5.097768491809299576e+02
1.522365367688245097e-01 5.097852260621287996e+02
1.523365607745859052e-01 5.097936260223364684e+02
1.524365847803472729e-01 5.098020488951902394e+02
1.525366087861086406e-01 5.098104945130742749e+02
1.526366327918700361e-01 5.098189627071266159e+02
1.527366567976314315e-01 5.098274533072450367e+02
1.528366808033927993e-01 5.098359661420943780e+02
1.529367048091541947e-01 5.098445010391153005e+02
1.530367288149155902e-01 5.098530578245276956e+02
1.531367528206769579e-01 5.098616363233428501e+02
1.532367768264383534e-01 5.098702363593660039e+02
1.533368008321997211e-01 5.098788577552068091e+02
1.534368248379610888e-01 5.098875003322845600e+02
1.535368488437224843e-01 5.098961639108366626e+02
1.536368728494838798e-01 5.099048483099265354e+02
1.537368968552452475e-01 5.099135533474500335e+02
1.538369208610066430e-01 5.099222788401425532e+02
1.539369448667680107e-01 5.099310246035890941e+02
1.540369688725293784e-01 5.099397904522281806e+02
1.541369928782907739e-01 5.099485761993629467e+02
1.542370168840521694e-01 5.099573816571679572e+02
1.543370408898135371e-01 5.099662066366944941e+02
1.544370648955749326e-01 5.099750509478819822e+02
1.545370889013363280e-01 5.099839143995635595e+02
1.546371129070976957e-01 5.099927967994753999e+02
1.547371369128590912e-01 5.100016979542626814e+02
1.548371609186204589e-01 5.100106176694895339e+02
1.549371849243818544e-01 5.100195557496471110e+02
1.550372089301432221e-01 5.100285119981591606e+02
1.551372329359046176e-01 5.100374862173937345e+02
1.552372569416659853e-01 5.100464782086682476e+02
1.553372809474273808e-01 5.100554877722606761e+02
1.554373049531887763e-01 5.100645147074142756e+02
1.555373289589501440e-01 5.100735588123494040e+02
1.556373529647115117e-01 5.100826198842694907e+02
1.557373769704729072e-01 5.100916977193697903e+02
1.558374009762342749e-01 5.101007921128482963e+02
1.559374249819956704e-01 5.101099028589098907e+02
1.560374489877570658e-01 5.101190297507785090e+02
1.561374729935184336e-01 5.101281725807040743e+02
1.562374969992798013e-01 5.101373311399717068e+02
1.563375210050411968e-01 5.101465052189100788e+02
1.564375450108025922e-01 5.101556946068988054e+02
1.565375690165639599e-01 5.101648990923811198e+02
1.566375930223253277e-01 5.101741184628682504e+02
1.567376170280867509e-01 5.101833525049497098e+02
1.568376410338481186e-01 5.101926010043035831e+02
1.569376650396095141e-01 5.102018637457039745e+02
1.570376890453708818e-01 5.102111405130306707e+02
1.571377130511322773e-01 5.102204310892758485e+02
1.572377370568936450e-01 5.102297352565574329e+02
1.573377610626550405e-01 5.102390527961232465e+02
1.574377850684164082e-01 5.102483834883648797e+02
1.575378090741777759e-01 5.102577271128222947e+02
1.576378330799391714e-01 5.102670834481958764e+02
1.577378570857005391e-01 5.102764522723551863e+02
1.578378810914619623e-01 5.102858333623466365e+02
1.579379050972233300e-01 5.102952264944056537e+02
1.580379291029847255e-01 5.103046314439624211e+02
1.581379531087460932e-01 5.103140479856544971e+02
1.582379771145074610e-01 5.103234758933331250e+02
1.583380011202688564e-01 5.103329149400751135e+02
1.584380251260302241e-01 5.103423648981915903e+02
1.585380491317916474e-01 5.103518255392356764e+02
1.586380731375530151e-01 5.103612966340156163e+02
1.587380971433144106e-01 5.103707779525996102e+02
1.588381211490757783e-01 5.103802692643299110e+02
1.589381451548371460e-01 5.103897703378291908e+02
1.590381691605985415e-01 5.103992809410120230e+02
1.591381931663599092e-01 5.104088008410935799e+02
1.592382171721213047e-01 5.104183298045987840e+02
1.593382411778826724e-01 5.104278675973727104e+02
1.594382651836440679e-01 5.104374139845926379e+02
1.595382891894054356e-01 5.104469687307720278e+02
1.596383131951668033e-01 5.104565315997766106e+02
1.597383372009282265e-01 5.104661023548294452e+02
1.598383612066895942e-01 5.104756807585237084e+02
1.599383852124509897e-01 5.104852665728304828e+02
1.600384092182123574e-01 5.104948595591105232e+02
1.601384332239737529e-01 5.105044594781226124e+02
1.602384572297351206e-01 5.105140660900352714e+02
1.603384812354964883e-01 5.105236791544340917e+02
1.604385052412579116e-01 5.105332984303333888e+02
1.605385292470192793e-01 5.105429236761874563e+02
1.606385532527806748e-01 5.105525546498973881e+02
1.607385772585420425e-01 5.105621911088239244e+02
1.608386012643034380e-01 5.105718328097960921e+02
1.609386252700648057e-01 5.105814795091217775e+02
1.610386492758262011e-01 5.105911309625981858e+02
1.611386732815875689e-01 5.106007869255204241e+02
1.612386972873489366e-01 5.106104471526937800e+02
1.613387212931103321e-01 5.106201113984428162e+02
1.614387452988716998e-01 5.106297794166213748e+02
1.615387693046331230e-01 5.106394509606227530e+02
1.616387933103944907e-01 5.106491257833907298e+02
1.617388173161558862e-01 5.106588036374294006e+02
1.618388413219172539e-01 5.106684842748124993e+02
1.619388653276786216e-01 5.106781674471957331e+02
1.620388893334400171e-01 5.106878529058254799e+02
1.621389133392013848e-01 5.106975404015487925e+02
1.622389373449628081e-01 5.107072296848263022e+02
1.623389613507241758e-01 5.107169205057380168e+02
1.624389853564855712e-01 5.107266126139995777e+02
1.625390093622469390e-01 5.107363057589666369e+02
1.626390333680083067e-01 5.107459996896501480e+02
1.627390573737697022e-01 5.107556941547242104e+02
1.628390813795310699e-01 5.107653889025357898e+02
1.629391053852924653e-01 5.107750836811182467e+02
1.630391293910538331e-01 5.107847782381983848e+02
1.631391533968152285e-01 5.107944723212096960e+02
1.632391774025765963e-01 5.108041656773011709e+02
1.633392014083379640e-01 5.108138580533473601e+02
1.634392254140993872e-01 5.108235491959609362e+02
1.635392494198607549e-01 5.108332388515017897e+02
1.636392734256221504e-01 5.108429267660868049e+02
1.637392974313835181e-01 5.108526126856021961e+02
1.638393214371449136e-01 5.108622963557126013e+02
1.639393454429062813e-01 5.108719775218733048e+02
1.640393694486676490e-01 5.108816559293379100e+02
1.641393934544290722e-01 5.108913313231728353e+02
1.642394174601904400e-01 5.109010034482630545e+02
1.643394414659518354e-01 5.109106720493272746e+02
1.644394654717132032e-01 5.109203368709263486e+02
1.645394894774745986e-01 5.109299976574741322e+02
1.646395134832359664e-01 5.109396541532471474e+02
1.647395374889973618e-01 5.109493061023962355e+02
1.648395614947587295e-01 5.109589532489577550e+02
1.649395855005200973e-01 5.109685953368630180e+02
1.650396095062814927e-01 5.109782321099489195e+02
1.651396335120428605e-01 5.109878633119693632e+02
1.652396575178042837e-01 5.109974886866052657e+02
1.653396815235656514e-01 5.110071079774755276e+02
1.654397055293270469e-01 5.110167209281465830e+02
1.655397295350884146e-01 5.110263272821458713e+02
1.656397535408497823e-01 5.110359267829674081e+02
1.657397775466111778e-01 5.110455191740888949e+02
1.658398015523725455e-01 5.110551041989760392e+02
1.659398255581339687e-01 5.110646816010979592e+02
1.660398495638953364e-01 5.110742511239350279e+02
1.661398735696567319e-01 5.110838125109899579e+02
1.662398975754180996e-01 5.110933655058000227e+02
1.663399215811794674e-01 5.111029098519454692e+02
1.664399455869408628e-01 5.111124452930619668e+02
1.665399695927022305e-01 5.111219715728495885e+02
1.666399935984636260e-01 5.111314884350844636e+02
1.667400176042249937e-01 5.111409956236289531e+02
1.668400416099863892e-01 5.111504928824426770e+02
1.669400656157477569e-01 5.111599799555926893e+02
1.670400896215091247e-01 5.111694565872647900e+02
1.671401136272705479e-01 5.111789225217722219e+02
1.672401376330319156e-01 5.111883775035689723e+02
1.673401616387933111e-01 5.111978212772579013e+02
1.674401856445546788e-01 5.112072535876020538e+02
1.675402096503160743e-01 5.112166741795371081e+02
1.676402336560774420e-01 5.112260827981778561e+02
1.677402576618388097e-01 5.112354791888339491e+02
1.678402816676002329e-01 5.112448630970152408e+02
1.679403056733616006e-01 5.112542342684461119e+02
1.680403296791229961e-01 5.112635924490734283e+02
1.681403536848843638e-01 5.112729373850794445e+02
1.682403776906457593e-01 5.112822688228894776e+02
1.683404016964071270e-01 5.112915865091857199e+02
1.684404257021685225e-01 5.113008901909143447e+02
1.685404497079298902e-01 5.113101796152983525e+02
1.686404737136912579e-01 5.113194545298469507e+02
1.687404977194526534e-01 5.113287146823653870e+02
1.688405217252140211e-01 5.113379598209678534e+02
1.689405457309754444e-01 5.113471896940843067e+02
1.690405697367368121e-01 5.113564040504746799e+02
1.691405937424982076e-01 5.113656026392351350e+02
1.692406177482595753e-01 5.113747852098121598e+02
1.693406417540209430e-01 5.113839515120107535e+02
1.694406657597823385e-01 5.113931012960053408e+02
1.695406897655437062e-01 5.114022343123506289e+02
1.696407137713051294e-01 5.114113503119896222e+02
1.697407377770664971e-01 5.114204490462678336e+02
1.698407617828278926e-01 5.114295302669400485e+02
1.699407857885892603e-01 5.114385937261811819e+02
1.700408097943506280e-01 5.114476391765979884e+02
1.701408338001120235e-01 5.114566663712390664e+02
1.702408578058733912e-01 5.114656750636031006e+02
1.703408818116347867e-01 5.114746650076498327e+02
1.704409058173961544e-01 5.114836359578125098e+02
1.705409298231575499e-01 5.114925876690048199e+02
1.706409538289189176e-01 5.115015198966324306e+02
1.707409778346802853e-01 5.115104323966024822e+02
1.708410018404417086e-01 5.115193249253356385e+02
1.709410258462030763e-01 5.115281972397721688e+02
1.710410498519644718e-01 5.115370490973871824e+02
1.711410738577258395e-01 5.115458802561942093e+02
1.712410978634872349e-01 5.115546904747624239e+02
1.713411218692486027e-01 5.115634795122196010e+02
1.714411458750100259e-01 5.115722471282683728e+02
1.715411698807713936e-01 5.115809930831902648e+02
1.716411938865327613e-01 5.115897171378597932e+02
1.717412178922941568e-01 5.115984190537521954e+02
1.718412418980555245e-01 5.116070985929540598e+02
1.719412659038169200e-01 5.116157555181733869e+02
1.720412899095782877e-01 5.116243895927478320e+02
1.721413139153396832e-01 5.116330005806561871e+02
1.722413379211010509e-01 5.116415882465269647e+02
1.723413619268624186e-01 5.116501523556488564e+02
1.724413859326238141e-01 5.116586926739791465e+02
1.725414099383851818e-01 5.116672089681546822e+02
1.726414339441466050e-01 5.116757010055015371e+02
1.727414579499079728e-01 5.116841685540420599e+02
1.728414819556693682e-01 5.116926113825077778e+02
1.729415059614307359e-01 5.117010292603476387e+02
1.730415299671921037e-01 5.117094219577352874e+02
1.731415539729534991e-01 5.117177892455825940e+02
1.732415779787148669e-01 5.117261308955449408e+02
1.733416019844762901e-01 5.117344466800344662e+02
1.734416259902376578e-01 5.117427363722248401e+02
1.735416499959990533e-01 5.117509997460657019e+02
1.736416740017604210e-01 5.117592365762876625e+02
1.737416980075217887e-01 5.117674466384141283e+02
1.738417220132831842e-01 5.117756297087693156e+02
1.739417460190445519e-01 5.117837855644868910e+02
1.740417700248059474e-01 5.117919139835216242e+02
1.741417940305673151e-01 5.118000147446549022e+02
1.742418180363287106e-01 5.118080876275068363e+02
1.743418420420900783e-01 5.118161324125434248e+02
1.744418660478514460e-01 5.118241488810859892e+02
1.745418900536128692e-01 5.118321368153214053e+02
1.746419140593742370e-01 5.118400959983096072e+02
1.747419380651356324e-01 5.118480262139909769e+02
1.748419620708970001e-01 5.118559272471988493e+02
1.749419860766583956e-01 5.118637988836656518e+02
1.750420100824197633e-01 5.118716409100335341e+02
1.751420340881811866e-01 5.118794531138593129e+02
1.752420580939425543e-01 5.118872352836290247e+02
1.753420820997039220e-01 5.118949872087606536e+02
1.754421061054653175e-01 5.119027086796169215e+02
1.755421301112266852e-01 5.119103994875120520e+02
1.756421541169880807e-01 5.119180594247202407e+02
1.757421781227494484e-01 5.119256882844841243e+02
1.758422021285108439e-01 5.119332858610239896e+02
1.759422261342722116e-01 5.119408519495455039e+02
1.760422501400335793e-01 5.119483863462486397e+02
1.761422741457949748e-01 5.119558888483355190e+02
1.762422981515563425e-01 5.119633592540173481e+02
1.763423221573177657e-01 5.119707973625259001e+02
1.764423461630791334e-01 5.119782029741189149e+02
1.765423701688405289e-01 5.119855758900887395e+02
1.766423941746018966e-01 5.119929159127718776e+02
1.767424181803632643e-01 5.120002228455539353e+02
1.768424421861246598e-01 5.120074964928822965e+02
1.769424661918860275e-01 5.120147366602690227e+02
1.770424901976474508e-01 5.120219431543027895e+02
1.771425142034088185e-01 5.120291157826528661e+02
1.772425382091702140e-01 5.120362543540820752e+02
1.773425622149315817e-01 5.120433586784492945e+02
1.774425862206929494e-01 5.120504285667205977e+02
1.775426102264543449e-01 5.120574638309749389e+02
1.776426342322157126e-01 5.120644642844127929e+02
1.777426582379771081e-01 5.120714297413650229e+02
1.778426822437384758e-01 5.120783600172965180e+02
1.779427062494998713e-01 5.120852549288179034e+02
1.780427302552612390e-01 5.120921142936911110e+02
1.781427542610226067e-01 5.120989379308351772e+02
1.782427782667840299e-01 5.121057256603370433e+02
1.783428022725453976e-01 5.121124773034550799e+02
1.784428262783067931e-01 5.121191926826304552e+02
1.785428502840681608e-01 5.121258716214902051e+02
1.786428742898295563e-01 5.121325139448576920e+02
1.787428982955909240e-01 5.121391194787564700e+02
1.788429223013523472e-01 5.121456880504200626e+02
1.789429463071137150e-01 5.121522194882983285e+02
1.790429703128750827e-01 5.121587136220631464e+02
1.791429943186364782e-01 5.121651702826162591e+02
1.792430183243978459e-01 5.121715893020960948e+02
1.793430423301592413e-01 5.121779705138843610e+02
1.794430663359206091e-01 5.121843137526125247e+02
1.795430903416820045e-01 5.121906188541684060e+02
1.796431143474433723e-01 5.121968856557043637e+02
1.797431383532047400e-01 5.122031139956404786e+02
1.798431623589661355e-01 5.122093037136752400e+02
1.799431863647275032e-01 5.122154546507879331e+02
1.800432103704889264e-01 5.122215666492484161e+02
1.801432343762502941e-01 5.122276395526209853e+02
1.802432583820116896e-01 5.122336732057724475e+02
1.803432823877730573e-01 5.122396674548763258e+02
1.804433063935344250e-01 5.122456221474213862e+02
1.805433303992958205e-01 5.122515371322158444e+02
1.806433544050571882e-01 5.122574122593947550e+02
1.807433784108186114e-01 5.122632473804245592e+02
1.808434024165799792e-01 5.122690423481102471e+02
1.809434264223413746e-01 5.122747970166012692e+02
1.810434504281027424e-01 5.122805112413959705e+02
1.811434744338641101e-01 5.122861848793489798e+02
1.812434984396255055e-01 5.122918177886760986e+02
1.813435224453868733e-01 5.122974098289600988e+02
1.814435464511482687e-01 5.123029608611560661e+02
1.815435704569096365e-01 5.123084707475971982e+02
1.816435944626710319e-01 5.123139393520006024e+02
1.817436184684323996e-01 5.123193665394716163e+02
1.818436424741937674e-01 5.123247521765108559e+02
1.819436664799551906e-01 5.123300961310179673e+02
1.820436904857165583e-01 5.123353982722978799e+02
1.821437144914779538e-01 5.123406584710638754e+02
1.822437384972393215e-01 5.123458765994467967e+02
1.823437625030007170e-01 5.123510525309961849e+02
1.824437865087620847e-01 5.123561861406866456e+02
1.825438105145235079e-01 5.123612773049239877e+02
1.826438345202848756e-01 5.123663259015477252e+02
1.827438585260462434e-01 5.123713318098383525e+02
1.828438825318076388e-01 5.123762949105196185e+02
1.829439065375690066e-01 5.123812150857659162e+02
1.830439305433304020e-01 5.123860922192042153e+02
1.831439545490917697e-01 5.123909261959207697e+02
1.832439785548531652e-01 5.123957169024646419e+02
1.833440025606145329e-01 5.124004642268519092e+02
1.834440265663759007e-01 5.124051680585699842e+02
1.835440505721372961e-01 5.124098282885831850e+02
1.836440745778986638e-01 5.124144448093366009e+02
1.837440985836600871e-01 5.124190175147585933e+02
1.838441225894214548e-01 5.124235463002660254e+02
1.839441465951828503e-01 5.124280310627701738e+02
1.840441706009442180e-01 5.124324717006772971e+02
1.841441946067055857e-01 5.124368681138951160e+02
1.842442186124669812e-01 5.124412202038354280e+02
1.843442426182283489e-01 5.124455278734189960e+02
1.844442666239897721e-01 5.124497910270778220e+02
1.845442906297511398e-01 5.124540095707602632e+02
1.846443146355125353e-01 5.124581834119338737e+02
1.847443386412739030e-01 5.124623124595885884e+02
1.848443626470352708e-01 5.124663966242422930e+02
1.849443866527966662e-01 5.124704358179402561e+02
1.850444106585580339e-01 5.124744299542634280e+02
1.851444346643194294e-01 5.124783789483273040e+02
1.852444586700807971e-01 5.124822827167886317e+02
1.853444826758421926e-01 5.124861411778463207e+02
1.854445066816035603e-01 5.124899542512442849e+02
1.855445306873649836e-01 5.124937218582775813e+02
1.856445546931263513e-01 5.124974439217905910e+02
1.857445786988877190e-01 5.125011203661854324e+02
1.858446027046491145e-01 5.125047511174191186e+02
1.859446267104104822e-01 5.125083361030114020e+02
1.860446507161718777e-01 5.125118752520442058e+02
1.861446747219332454e-01 5.125153684951648074e+02
1.862446987276946686e-01 5.125188157645899310e+02
1.863447227334560363e-01 5.125222169941062020e+02
1.864447467392174040e-01 5.125255721190737859e+02
1.865447707449787995e-01 5.125288810764295704e+02
1.866447947507401672e-01 5.125321438046865978e+02
1.867448187565015627e-01 5.125353602439400902e+02
1.868448427622629304e-01 5.125385303358659712e+02
1.869448667680243259e-01 5.125416540237250729e+02
1.870448907737856936e-01 5.125447312523656365e+02
1.871449147795470613e-01 5.125477619682242221e+02
1.872449387853084568e-01 5.125507461193265044e+02
1.873449627910698245e-01 5.125536836552912519e+02
1.874449867968312478e-01 5.125565745273315770e+02
1.875450108025926155e-01 5.125594186882565282e+02
1.876450348083540109e-01 5.125622160924706350e+02
1.877450588141153787e-01 5.125649666959795923e+02
1.878450828198767464e-01 5.125676704563879866e+02
1.879451068256381419e-01 5.125703273329028207e+02
1.880451308313995096e-01 5.125729372863345361e+02
1.881451548371609328e-01 5.125755002790972412e+02
1.882451788429223005e-01 5.125780162752107572e+02
1.883452028486836960e-01 5.125804852403032328e+02
1.884452268544450637e-01 5.125829071416083025e+02
1.885452508602064314e-01 5.125852819479712252e+02
1.886452748659678269e-01 5.125876096298455877e+02
1.887452988717291946e-01 5.125898901592963739e+02
1.888453228774905901e-01 5.125921235099990554e+02
1.889453468832519578e-01 5.125943096572426612e+02
1.890453708890133533e-01 5.125964485779292090e+02
1.891453948947747210e-01 5.125985402505737056e+02
1.892454189005361442e-01 5.126005846553064202e+02
1.893454429062975120e-01 5.126025817738707246e+02
1.894454669120588797e-01 5.126045315896268448e+02
1.895454909178202751e-01 5.126064340875490188e+02
1.896455149235816429e-01 5.126082892542276568e+02
1.897455389293430383e-01 5.126100970778702504e+02
1.898455629351044061e-01 5.126118575482978486e+02
1.899455869408658293e-01 5.126135706569497188e+02
1.900456109466271970e-01 5.126152363968802774e+02
1.901456349523885647e-01 5.126168547627606813e+02
1.902456589581499602e-01 5.126184257508771225e+02
1.903456829639113279e-01 5.126199493591318515e+02
1.904457069696727234e-01 5.126214255870430634e+02
1.905457309754340911e-01 5.126228544357433066e+02
1.906457549811954866e-01 5.126242359079798234e+02
1.907457789869568543e-01 5.126255700081144369e+02
1.908458029927182220e-01 5.126268567421226408e+02
1.909458269984796175e-01 5.126280961175922357e+02
1.910458510042409852e-01 5.126292881437248070e+02
1.911458750100024084e-01 5.126304328313317455e+02
1.912458990157637762e-01 5.126315301928366353e+02
1.913459230215251716e-01 5.126325802422725246e+02
1.914459470272865393e-01 5.126335829952803351e+02
1.915459710330479071e-01 5.126345384691113622e+02
1.916459950388093025e-01 5.126354466826207954e+02
1.917460190445706703e-01 5.126363076562721517e+02
1.918460430503320935e-01 5.126371214121314779e+02
1.919460670560934612e-01 5.126378879738688283e+02
1.920460910618548567e-01 5.126386073667558776e+02
1.921461150676162244e-01 5.126392796176651245e+02
1.922461390733775921e-01 5.126399047550667092e+02
1.923461630791389876e-01 5.126404828090295496e+02
1.924461870849003553e-01 5.126410138112171353e+02
1.925462110906617508e-01 5.126414977948875276e+02
1.926462350964231185e-01 5.126419347948908580e+02
1.927462591021845140e-01 5.126423248476673962e+02
1.928462831079458817e-01 5.126426679912474356e+02
1.929463071137073049e-01 5.126429642652444727e+02
1.930463311194686726e-01 5.126432137108597544e+02
1.931463551252300404e-01 5.126434163708753431e+02
1.932463791309914358e-01 5.126435722896542302e+02
1.933464031367528035e-01 5.126436815131368121e+02
1.934464271425141990e-01 5.126437440888392985e+02
1.935464511482755667e-01 5.126437600658518932e+02
1.936464751540369900e-01 5.126437294948350427e+02
1.937464991597983577e-01 5.126436524280172762e+02
1.938465231655597254e-01 5.126435289191932725e+02
1.939465471713211209e-01 5.126433590237219278e+02
1.940465711770824886e-01 5.126431427985215805e+02
1.941465951828438841e-01 5.126428803020686473e+02
1.942466191886052518e-01 5.126425715943943260e+02
1.943466431943666473e-01 5.126422167370817533e+02
1.944466672001280150e-01 5.126418157932637314e+02
1.945466912058893827e-01 5.126413688276187486e+02
1.946467152116507782e-01 5.126408759063688194e+02
1.947467392174121459e-01 5.126403370972745961e+02
1.948467632231735691e-01 5.126397524696346863e+02
1.949467872289349368e-01 5.126391220942801965e+02
1.950468112346963323e-01 5.126384460435722303e+02
1.951468352404577000e-01 5.126377243913998427e+02
1.952468592462190677e-01 5.126369572131727637e+02
1.953468832519804632e-01 5.126361445858229899e+02
1.954469072577418309e-01 5.126352865877967133e+02
1.955469312635032542e-01 5.126343832990523879e+02
1.956469552692646219e-01 5.126334348010590247e+02
1.957469792750260174e-01 5.126324411767874381e+02
1.958470032807873851e-01 5.126314025107128600e+02
1.959470272865487528e-01 5.126303188888040268e+02
1.960470512923101483e-01 5.126291903985257932e+02
1.961470752980715160e-01 5.126280171288299243e+02
1.962470993038329115e-01 5.126267991701542996e+02
1.963471233095942792e-01 5.126255366144170011e+02
1.964471473153556746e-01 5.126242295550126755e+02
1.965471713211170424e-01 5.126228780868086687e+02
1.966471953268784656e-01 5.126214823061395691e+02
1.967472193326398333e-01 5.126200423108037967e+02
1.968472433384012010e-01 5.126185582000590557e+02
1.969472673441625965e-01 5.126170300746155135e+02
1.970472913499239642e-01 5.126154580366376194e+02
1.971473153556853597e-01 5.126138421897301214e+02
1.972473393614467274e-01 5.126121826389409080e+02
1.973473633672081506e-01 5.126104794907530504e+02
1.974473873729695184e-01 5.126087328530808236e+02
1.975474113787308861e-01 5.126069428352636805e+02
1.976474353844922816e-01 5.126051095480626145e+02
1.977474593902536493e-01 5.126032331036550431e+02
1.978474833960150447e-01 5.126013136156279870e+02
1.979475074017764125e-01 5.125993511989752278e+02
1.980475314075378079e-01 5.125973459700917374e+02
1.981475554132991757e-01 5.125952980467662883e+02
1.982475794190605434e-01 5.125932075481784977e+02
1.983476034248219388e-01 5.125910745948933709e+02
1.984476274305833066e-01 5.125888993088533425e+02
1.985476514363447298e-01 5.125866818133756624e+02
1.986476754421060975e-01 5.125844222331461424e+02
1.987476994478674930e-01 5.125821206942126764e+02
1.988477234536288607e-01 5.125797773239801245e+02
1.989477474593902284e-01 5.125773922512047420e+02
1.990477714651516239e-01 5.125749656059876997e+02
1.991477954709129916e-01 5.125724975197707636e+02
1.992478194766744148e-01 5.125699881253286776e+02
1.993478434824357826e-01 5.125674375567639345e+02
1.994478674881971780e-01 5.125648459495016596e+02
1.995478914939585457e-01 5.125622134402815391e+02
1.996479154997199412e-01 5.125595401671542959e+02
1.997479395054813089e-01 5.125568262694732766e+02
1.998479635112426767e-01 5.125540718878889948e+02
1.999479875170040721e-01 5.125512771643434462e+02
2.000480115227654399e-01 5.125484422420632882e+02
2.001480355285268353e-01 5.125455672655533590e+02
2.002480595342882030e-01 5.125426523805904253e+02
2.003480835400496263e-01 5.125396977342168157e+02
2.004481075458109940e-01 5.125367034747331445e+02
2.005481315515723617e-01 5.125336697516936511e+02
2.006481555573337572e-01 5.125305967158967633e+02
2.007481795630951249e-01 5.125274845193806641e+02
2.008482035688565204e-01 5.125243333154155607e+02
2.009482275746178881e-01 5.125211432584976592e+02
2.010482515803793113e-01 5.125179145043402968e+02
2.011482755861406790e-01 5.125146472098703043e+02
2.012482995919020468e-01 5.125113415332186833e+02
2.013483235976634422e-01 5.125079976337133303e+02
2.014483476034248099e-01 5.125046156718735801e+02
2.015483716091862054e-01 5.125011958094028159e+02
2.016483956149475731e-01 5.124977382091797153e+02
2.017484196207089686e-01 5.124942430352529072e+02
2.018484436264703363e-01 5.124907104528339232e+02
2.019484676322317040e-01 5.124871406282877615e+02
2.020484916379930995e-01 5.124835337291267479e+02
2.021485156437544672e-01 5.124798899240045102e+02
2.022485396495158905e-01 5.124762093827068838e+02
2.023485636552772582e-01 5.124724922761429298e+02
2.024485876610386537e-01 5.124687387763420929e+02
2.025486116668000214e-01 5.124649490564424923e+02
2.026486356725613891e-01 5.124611232906847818e+02
2.027486596783227846e-01 5.124572616544036237e+02
2.028486836840841523e-01 5.124533643240223455e+02
2.029487076898455755e-01 5.124494314770416850e+02
2.030487316956069432e-01 5.124454632920354697e+02
2.031487557013683387e-01 5.124414599486404995e+02
2.032487797071297064e-01 5.124374216275485878e+02
2.033488037128911019e-01 5.124333485105007640e+02
2.034488277186524696e-01 5.124292407802767002e+02
2.035488517244138373e-01 5.124250986206889138e+02
2.036488757301752328e-01 5.124209222165725350e+02
2.037488997359366005e-01 5.124167117537785998e+02
2.038489237416979960e-01 5.124124674191668873e+02
2.039489477474593637e-01 5.124081894005947788e+02
2.040489717532207870e-01 5.124038778869121415e+02
2.041489957589821547e-01 5.123995330679505287e+02
2.042490197647435224e-01 5.123951551345164717e+02
2.043490437705049179e-01 5.123907442783830675e+02
2.044490677762662856e-01 5.123863006922802015e+02
2.045490917820276811e-01 5.123818245698886358e+02
2.046491157877890488e-01 5.123773161058284131e+02
2.047491397935504720e-01 5.123727754956518083e+02
2.048491637993118397e-01 5.123682029358369618e+02
2.049491878050732074e-01 5.123635986237753741e+02
2.050492118108346029e-01 5.123589627577655392e+02
2.051492358165959706e-01 5.123542955370045320e+02
2.052492598223573661e-01 5.123495971615780036e+02
2.053492838281187338e-01 5.123448678324513139e+02
2.054493078338801293e-01 5.123401077514637336e+02
2.055493318396414970e-01 5.123353171213165069e+02
2.056493558454028647e-01 5.123304961455637567e+02
2.057493798511642602e-01 5.123256450286060044e+02
2.058494038569256279e-01 5.123207639756805065e+02
2.059494278626870511e-01 5.123158531928504544e+02
2.060494518684484189e-01 5.123109128869988353e+02
2.061494758742098143e-01 5.123059432658172909e+02
2.062494998799711821e-01 5.123009445377973634e+02
2.063495238857325498e-01 5.122959169122233334e+02
2.064495478914939453e-01 5.122908605991602826e+02
2.065495718972553130e-01 5.122857758094461360e+02
2.066495959030167362e-01 5.122806627546835898e+02
2.067496199087781039e-01 5.122755216472296524e+02
2.068496439145394994e-01 5.122703527001862085e+02
2.069496679203008671e-01 5.122651561273917196e+02
2.070496919260622626e-01 5.122599321434113335e+02
2.071497159318236303e-01 5.122546809635281306e+02
2.072497399375849980e-01 5.122494028037318685e+02
2.073497639433463935e-01 5.122440978807132979e+02
2.074497879491077612e-01 5.122387664118502926e+02
2.075498119548691567e-01 5.122334086152018244e+02
2.076498359606305244e-01 5.122280247094970491e+02
2.077498599663919476e-01 5.122226149141262113e+02
2.078498839721533153e-01 5.122171794491301853e+02
2.079499079779146831e-01 5.122117185351930857e+02
2.080499319836760785e-01 5.122062323936293069e+02
2.081499559894374463e-01 5.122007212463779524e+02
2.082499799951988417e-01 5.121951853159898747e+02
2.083500040009602094e-01 5.121896248256200579e+02
2.084500280067216327e-01 5.121840399990167043e+02
2.085500520124830004e-01 5.121784310605119117e+02
2.086500760182443681e-01 5.121727982350125785e+02
2.087501000240057636e-01 5.121671417479892625e+02
2.088501240297671313e-01 5.121614618254686775e+02
2.089501480355285268e-01 5.121557586940215288e+02
2.090501720412898945e-01 5.121500325807539866e+02
2.091501960470512900e-01 5.121442837132971135e+02
2.092502200528126577e-01 5.121385123197974281e+02
2.093502440585740254e-01 5.121327186289089468e+02
2.094502680643354209e-01 5.121269028697778367e+02
2.095502920700967886e-01 5.121210652720396865e+02
2.096503160758582118e-01 5.121152060658035907e+02
2.097503400816195795e-01 5.121093254816452145e+02
2.098503640873809750e-01 5.121034237505962210e+02
2.099503880931423427e-01 5.120975011041344942e+02
2.100504120989037105e-01 5.120915577741724292e+02
2.101504361046651059e-01 5.120855939930505656e+02
2.102504601104264736e-01 5.120796099935236043e+02
2.103504841161878969e-01 5.120736060087519945e+02
2.104505081219492646e-01 5.120675822722934072e+02
2.105505321277106601e-01 5.120615390180890927e+02
2.106505561334720278e-01 5.120554764804576280e+02
2.107505801392334233e-01 5.120493948940819564e+02
2.108506041449947910e-01 5.120432944939998379e+02
2.109506281507561587e-01 5.120371755155960045e+02
2.110506521565175542e-01 5.120310381945879499e+02
2.111506761622789219e-01 5.120248827670193350e+02
2.112507001680403174e-01 5.120187094692477103e+02
2.113507241738016851e-01 5.120125185379356481e+02
2.114507481795631083e-01 5.120063102100390324e+02
2.115507721853244760e-01 5.120000847227986469e+02
2.116507961910858437e-01 5.119938423137280097e+02
2.117508201968472392e-01 5.119875832206048472e+02
2.118508442026086069e-01 5.119813076814596684e+02
2.119508682083700024e-01 5.119750159345658744e+02
2.120508922141313701e-01 5.119687082184304927e+02
2.121509162198927934e-01 5.119623847717816716e+02
2.122509402256541611e-01 5.119560458335602675e+02
2.123509642314155288e-01 5.119496916429089310e+02
2.124509882371769243e-01 5.119433224391617046e+02
2.125510122429382920e-01 5.119369384618336198e+02
2.126510362486996875e-01 5.119305399506117169e+02
2.127510602544610552e-01 5.119241271453412310e+02
2.128510842602224507e-01 5.119177002860200218e+02
2.129511082659838184e-01 5.119112596127852726e+02
2.130511322717451861e-01 5.119048053659029733e+02
2.131511562775065816e-01 5.118983377857585424e+02
2.132511802832679493e-01 5.118918571128461963e+02
2.133512042890293725e-01 5.118853635877594570e+02
2.134512282947907402e-01 5.118788574511793854e+02
2.135512523005521357e-01 5.118723389438645768e+02
2.136512763063135034e-01 5.118658083066413269e+02
2.137513003120748989e-01 5.118592657803938550e+02
2.138513243178362666e-01 5.118527116060517983e+02
2.139513483235976343e-01 5.118461460245815715e+02
2.140513723293590576e-01 5.118395692769763059e+02
2.141513963351204253e-01 5.118329816042440825e+02
2.142514203408818207e-01 5.118263832473976436e+02
2.143514443466431885e-01 5.118197744474460364e+02
2.144514683524045839e-01 5.118131554453830176e+02
2.145514923581659517e-01 5.118065264821749452e+02
2.146515163639273194e-01 5.117998877987537867e+02
2.147515403696887148e-01 5.117932396360035341e+02
2.148515643754500826e-01 5.117865822347517906e+02
2.149515883812114780e-01 5.117799158357598799e+02
2.150516123869728458e-01 5.117732406797107387e+02
2.151516363927342690e-01 5.117665570072002197e+02
2.152516603984956367e-01 5.117598650587248130e+02
2.153516844042570044e-01 5.117531650746738023e+02
2.154517084100183999e-01 5.117464572953168727e+02
2.155517324157797676e-01 5.117397419607950155e+02
2.156517564215411631e-01 5.117330193111091603e+02
2.157517804273025308e-01 5.117262895861114202e+02
2.158518044330639540e-01 5.117195530254933828e+02
2.159518284388253218e-01 5.117128098687767874e+02
2.160518524445866895e-01 5.117060603553022702e+02
2.161518764503480849e-01 5.116993047242202124e+02
2.162519004561094527e-01 5.116925432144792580e+02
2.163519244618708481e-01 5.116857760648173326e+02
2.164519484676322159e-01 5.116790035137506720e+02
2.165519724733936113e-01 5.116722257995637619e+02
2.166519964791549790e-01 5.116654431602988211e+02
2.167520204849163468e-01 5.116586558337468205e+02
2.168520444906777422e-01 5.116518640574353185e+02
2.169520684964391100e-01 5.116450680686197643e+02
2.170520925022005332e-01 5.116382681042729814e+02
2.171521165079619009e-01 5.116314644010749930e+02
2.172521405137232964e-01 5.116246571954030742e+02
2.173521645194846641e-01 5.116178467233204401e+02
2.174521885252460596e-01 5.116110332205687996e+02
2.175522125310074273e-01 5.116042169225549401e+02
2.176522365367687950e-01 5.115973980643434516e+02
2.177522605425302182e-01 5.115905768806447895e+02
2.178522845482915860e-01 5.115837536058062369e+02
2.179523085540529814e-01 5.115769284738018996e+02
2.180523325598143491e-01 5.115701017182218493e+02
2.181523565655757446e-01 5.115632735722635402e+02
2.182523805713371123e-01 5.115564442687197015e+02
2.183524045770984801e-01 5.115496140399711749e+02
2.184524285828598755e-01 5.115427831179741816e+02
2.185524525886212432e-01 5.115359517342528193e+02
2.186524765943826387e-01 5.115291201198868976e+02
2.187525006001440064e-01 5.115222885055045481e+02
2.188525246059054297e-01 5.115154571212700034e+02
2.189525486116667974e-01 5.115086261968751273e+02
2.190525726174281651e-01 5.115017959615296945e+02
2.191525966231895606e-01 5.114949666439507041e+02
2.192526206289509283e-01 5.114881384723532278e+02
2.193526446347123238e-01 5.114813116744408603e+02
2.194526686404736915e-01 5.114744864773954873e+02
2.195526926462351147e-01 5.114676631078673950e+02
2.196527166519964824e-01 5.114608417919668000e+02
2.197527406577578502e-01 5.114540227552527085e+02
2.198527646635192456e-01 5.114472062227243896e+02
2.199527886692806133e-01 5.114403924188113137e+02
2.200528126750420088e-01 5.114335815673636034e+02
2.201528366808033765e-01 5.114267738916426538e+02
2.202528606865647720e-01 5.114199696143109577e+02
2.203528846923261397e-01 5.114131689574243183e+02
2.204529086980875074e-01 5.114063721424196274e+02
2.205529327038489029e-01 5.113995793901080447e+02
2.206529567096102706e-01 5.113927909206657318e+02
2.207529807153716939e-01 5.113860069536198125e+02
2.208530047211330616e-01 5.113792277078464394e+02
2.209530287268944571e-01 5.113724534015547079e+02
2.210530527326558248e-01 5.113656842522821648e+02
2.211530767384172202e-01 5.113589204768819627e+02
2.212531007441785880e-01 5.113521622915167200e+02
2.213531247499399557e-01 5.113454099116464704e+02
2.214531487557013789e-01 5.113386635520222399e+02
2.215531727614627466e-01 5.113319234266740523e+02
2.216531967672241421e-01 5.113251897489051316e+02
2.217532207729855098e-01 5.113184627312797375e+02
2.218532447787469053e-01 5.113117425856156046e+02
2.219532687845082730e-01 5.113050295229742801e+02
2.220532927902696407e-01 5.112983237536547563e+02
2.221533167960310362e-01 5.112916254871794877e+02
2.222533408017924039e-01 5.112849349322906392e+02
2.223533648075537994e-01 5.112782522969380352e+02
2.224533888133151671e-01 5.112715777882710313e+02
2.225534128190765903e-01 5.112649116126299873e+02
2.226534368248379581e-01 5.112582539755388211e+02
2.227534608305993258e-01 5.112516050816932989e+02
2.228534848363607213e-01 5.112449651349546116e+02
2.229535088421220890e-01 5.112383343383399961e+02
2.230535328478834844e-01 5.112317128940146631e+02
2.231535568536448522e-01 5.112251010032820204e+02
2.232535808594062754e-01 5.112184988665767946e+02
2.233536048651676431e-01 5.112119066834543446e+02
2.234536288709290108e-01 5.112053246525849772e+02
2.235536528766904063e-01 5.111987529717434882e+02
2.236536768824517740e-01 5.111921918378008627e+02
2.237537008882131695e-01 5.111856414467167724e+02
2.238537248939745372e-01 5.111791019935308782e+02
2.239537488997359327e-01 5.111725736723552131e+02
2.240537729054973004e-01 5.111660566763637803e+02
2.241537969112586681e-01 5.111595511977878346e+02
2.242538209170200636e-01 5.111530574279041730e+02
2.243538449227814313e-01 5.111465755570304736e+02
2.244538689285428545e-01 5.111401057745142680e+02
2.245538929343042223e-01 5.111336482687258922e+02
2.246539169400656177e-01 5.111272032270518935e+02
2.247539409458269855e-01 5.111207708358852528e+02
2.248539649515883809e-01 5.111143512806189619e+02
2.249539889573497486e-01 5.111079447456370417e+02
2.250540129631111164e-01 5.111015514143068685e+02
2.251540369688725396e-01 5.110951714689722394e+02
2.252540609746339073e-01 5.110888050909454705e+02
2.253540849803953028e-01 5.110824524604987573e+02
2.254541089861566705e-01 5.110761137568581489e+02
2.255541329919180660e-01 5.110697891581941690e+02
2.256541569976794337e-01 5.110634788416161882e+02
2.257541810034408014e-01 5.110571829831637842e+02
2.258542050092021969e-01 5.110509017577990107e+02
2.259542290149635646e-01 5.110446353394005428e+02
2.260542530207249601e-01 5.110383839007544111e+02
2.261542770264863278e-01 5.110321476135486591e+02
2.262543010322477510e-01 5.110259266483641909e+02
2.263543250380091187e-01 5.110197211746698827e+02
2.264543490437704865e-01 5.110135313608134311e+02
2.265543730495318819e-01 5.110073573740140773e+02
2.266543970552932497e-01 5.110011993803580594e+02
2.267544210610546451e-01 5.109950575447891197e+02
2.268544450668160128e-01 5.109889320311035590e+02
2.269544690725774361e-01 5.109828230019404032e+02
2.270544930783388038e-01 5.109767306187785607e+02
2.271545170841001715e-01 5.109706550419272162e+02
2.272545410898615670e-01 5.109645964305191796e+02
2.273545650956229347e-01 5.109585549425051454e+02
2.274545891013843302e-01 5.109525307346482350e+02
2.275546131071456979e-01 5.109465239625147888e+02
2.276546371129070934e-01 5.109405347804685107e+02
2.277546611186684611e-01 5.109345633416659211e+02
2.278546851244298566e-01 5.109286097980479440e+02
2.279547091301912243e-01 5.109226743003345064e+02
2.280547331359525920e-01 5.109167569980173198e+02
2.281547571417140152e-01 5.109108580393548777e+02
2.282547811474753829e-01 5.109049775713652934e+02
2.283548051532367784e-01 5.108991157398211840e+02
2.284548291589981461e-01 5.108932726892417122e+02
2.285548531647595416e-01 5.108874485628888920e+02
2.286548771705209093e-01 5.108816435027598004e+02
2.287549011762822770e-01 5.108758576495814623e+02
2.288549251820437003e-01 5.108700911428052223e+02
2.289549491878050680e-01 5.108643441206002649e+02
2.290549731935664635e-01 5.108586167198480439e+02
2.291549971993278312e-01 5.108529090761368252e+02
2.292550212050892267e-01 5.108472213237564006e+02
2.293550452108505944e-01 5.108415535956920053e+02
2.294550692166119621e-01 5.108359060236176674e+02
2.295550932223733576e-01 5.108302787378930248e+02
2.296551172281347253e-01 5.108246718675571287e+02
2.297551412338961208e-01 5.108190855403218507e+02
2.298551652396574885e-01 5.108135198825681869e+02
2.299551892454189117e-01 5.108079750193401765e+02
2.300552132511802794e-01 5.108024510743397286e+02
2.301552372569416471e-01 5.107969481699217340e+02
2.302552612627030426e-01 5.107914664270896878e+02
2.303552852684644103e-01 5.107860059654892666e+02
2.304553092742258058e-01 5.107805669034037237e+02
2.305553332799871735e-01 5.107751493577509336e+02
2.306553572857485968e-01 5.107697534440757181e+02
2.307553812915099645e-01 5.107643792765466628e+02
2.308554052972713322e-01 5.107590269679516837e+02
2.309554293030327277e-01 5.107536966296926835e+02
2.310554533087940954e-01 5.107483883717807771e+02
2.311554773145554909e-01 5.107431023028328809e+02
2.312555013203168586e-01 5.107378385300667105e+02
2.313555253260782540e-01 5.107325971592947553e+02
2.314555493318396218e-01 5.107273782949239376e+02
2.315555733376010172e-01 5.107221820399463468e+02
2.316555973433623850e-01 5.107170084959395240e+02
2.317556213491237527e-01 5.107118577630599248e+02
2.318556453548851759e-01 5.107067299400384286e+02
2.319556693606465436e-01 5.107016251241785199e+02
2.320556933664079391e-01 5.106965434113488413e+02
2.321557173721693068e-01 5.106914848959845585e+02
2.322557413779307023e-01 5.106864496710784351e+02
2.323557653836920700e-01 5.106814378281792983e+02
2.324557893894534377e-01 5.106764494573879460e+02
2.325558133952148610e-01 5.106714846473552143e+02
2.326558374009762287e-01 5.106665434852750423e+02
2.327558614067376241e-01 5.106616260568841881e+02
2.328558854124989919e-01 5.106567324464567150e+02
2.329559094182603873e-01 5.106518627368009220e+02
2.330559334240217551e-01 5.106470170092578655e+02
2.331559574297831228e-01 5.106421953436953345e+02
2.332559814355445182e-01 5.106373978185069973e+02
2.333560054413058860e-01 5.106326245106072861e+02
2.334560294470672814e-01 5.106278754954303167e+02
2.335560534528286492e-01 5.106231508469257392e+02
2.336560774585900724e-01 5.106184506375556111e+02
2.337561014643514401e-01 5.106137749382925790e+02
2.338561254701128078e-01 5.106091238186158421e+02
2.339561494758742033e-01 5.106044973465098451e+02
2.340561734816355710e-01 5.105998955884597308e+02
2.341561974873969665e-01 5.105953186094506577e+02
2.342562214931583342e-01 5.105907664729647877e+02
2.343562454989197574e-01 5.105862392409781023e+02
2.344562695046811251e-01 5.105817369739575042e+02
2.345562935104424929e-01 5.105772597308612717e+02
2.346563175162038883e-01 5.105728075691337153e+02
2.347563415219652561e-01 5.105683805447042687e+02
2.348563655277266515e-01 5.105639787119852144e+02
2.349563895334880193e-01 5.105596021238702633e+02
2.350564135392494147e-01 5.105552508317318825e+02
2.351564375450107824e-01 5.105509248854189082e+02
2.352564615507721779e-01 5.105466243332558065e+02
2.353564855565335456e-01 5.105423492220406843e+02
2.354565095622949134e-01 5.105380995970427307e+02
2.355565335680563366e-01 5.105338755020008534e+02
2.356565575738177043e-01 5.105296769791223710e+02
2.357565815795790998e-01 5.105255040690823307e+02
2.358566055853404675e-01 5.105213568110200413e+02
2.359566295911018630e-01 5.105172352425393001e+02
2.360566535968632307e-01 5.105131393997060059e+02
2.361566776026245984e-01 5.105090693170488976e+02
2.362567016083860216e-01 5.105050250275556323e+02
2.363567256141473893e-01 5.105010065626735241e+02
2.364567496199087848e-01 5.104970139523073840e+02
2.365567736256701525e-01 5.104930472248199749e+02
2.366567976314315480e-01 5.104891064070299080e+02
2.367568216371929157e-01 5.104851915242107907e+02
2.368568456429542834e-01 5.104813026000913396e+02
2.369568696487156789e-01 5.104774396568539601e+02
2.370568936544770466e-01 5.104736027151344615e+02
2.371569176602384421e-01 5.104697917940206366e+02
2.372569416659998098e-01 5.104660069110537393e+02
2.373569656717612331e-01 5.104622480822253578e+02
2.374569896775226008e-01 5.104585153219796894e+02
2.375570136832839685e-01 5.104548086432109244e+02
2.376570376890453640e-01 5.104511280572646683e+02
2.377570616948067317e-01 5.104474735739384528e+02
2.378570857005681272e-01 5.104438452014772452e+02
2.379571097063294949e-01 5.104402429465804403e+02
2.380571337120909181e-01 5.104366668143952097e+02
2.381571577178522858e-01 5.104331168085212767e+02
2.382571817236136535e-01 5.104295929310079032e+02
2.383572057293750490e-01 5.104260951823566757e+02
2.384572297351364167e-01 5.104226235615205951e+02
2.385572537408978122e-01 5.104191780659039068e+02
2.386572777466591799e-01 5.104157586913641467e+02
2.387573017524205754e-01 5.104123654322110610e+02
2.388573257581819431e-01 5.104089982812085964e+02
2.389573497639433386e-01 5.104056572295742171e+02
2.390573737697047063e-01 5.104023422669808951e+02
2.391573977754660740e-01 5.103990533815572803e+02
2.392574217812274973e-01 5.103957905598873594e+02
2.393574457869888650e-01 5.103925537870151743e+02
2.394574697927502605e-01 5.103893430464417520e+02
2.395574937985116282e-01 5.103861583201272083e+02
2.396575178042730236e-01 5.103829995884939876e+02
2.397575418100343914e-01 5.103798668304260104e+02
2.398575658157957591e-01 5.103767600232692985e+02
2.399575898215571823e-01 5.103736791428361812e+02
