0.000000000000000000e+00 5.120099389517366717e+02
1.000300090027008229e-04 5.120183676804757624e+02
2.000600180054016458e-04 5.120267654645143693e+02
3.000900270081024415e-04 5.120351322535985901e+02
4.001200360108032915e-04 5.120434679985156663e+02
5.001500450135040873e-04 5.120517726510935290e+02
6.001800540162048831e-04 5.120600461641998891e+02
7.002100630189056788e-04 5.120682884917417823e+02
8.002400720216065830e-04 5.120764995886660245e+02
9.002700810243073788e-04 5.120846794109589837e+02
1.000300090027008175e-03 5.120928279156444205e+02
1.100330099029708970e-03 5.121009450607856479e+02
1.200360108032409766e-03 5.121090308054831439e+02
1.300390117035110562e-03 5.121170851098743242e+02
1.400420126037811358e-03 5.121251079351337694e+02
1.500450135040512153e-03 5.121330992434722020e+02
1.600480144043213166e-03 5.121410589981358044e+02
1.700510153045913962e-03 5.121489871634054225e+02
1.800540162048614758e-03 5.121568837045961118e+02
1.900570171051315553e-03 5.121647485880571367e+02
2.000600180054016349e-03 5.121725817811694697e+02
2.100630189056716928e-03 5.121803832523463598e+02
2.200660198059417941e-03 5.121881529710326504e+02
2.300690207062118520e-03 5.121958909077037561e+02
2.400720216064819532e-03 5.122035970338625930e+02
2.500750225067520545e-03 5.122112713220427622e+02
2.600780234070221124e-03 5.122189137458035475e+02
2.700810243072922136e-03 5.122265242797328710e+02
2.800840252075622715e-03 5.122341028994421777e+02
2.900870261078323728e-03 5.122416495815680264e+02
3.000900270081024307e-03 5.122491643037706126e+02
3.100930279083725753e-03 5.122566470447318352e+02
3.200960288086426332e-03 5.122640977841545009e+02
3.300990297089126911e-03 5.122715165027620969e+02
3.401020306091827924e-03 5.122789031822957213e+02
3.501050315094528503e-03 5.122862578055144240e+02
3.601080324097229515e-03 5.122935803561929333e+02
3.701110333099930094e-03 5.123008708191210872e+02
3.801140342102631107e-03 5.123081291801009911e+02
3.901170351105331686e-03 5.123153554259486100e+02
4.001200360108032698e-03 5.123225495444879698e+02
4.101230369110733277e-03 5.123297115245541136e+02
4.201260378113433856e-03 5.123368413559879855e+02
4.301290387116135303e-03 5.123439390296379088e+02
4.401320396118835881e-03 5.123510045373552657e+02
4.501350405121536460e-03 5.123580378719956343e+02
4.601380414124237039e-03 5.123650390274143547e+02
4.701410423126938486e-03 5.123720079984668700e+02
4.801440432129639065e-03 5.123789447810065667e+02
4.901470441132340511e-03 5.123858493718825002e+02
5.001500450135041090e-03 5.123927217689378040e+02
5.101530459137741669e-03 5.123995619710090068e+02
5.201560468140442248e-03 5.124063699779225090e+02
5.301590477143143694e-03 5.124131457904928766e+02
5.401620486145844273e-03 5.124198894105226145e+02
5.501650495148544852e-03 5.124266008407987556e+02
5.601680504151245431e-03 5.124332800850909280e+02
5.701710513153946010e-03 5.124399271481502183e+02
5.801740522156647456e-03 5.124465420357064431e+02
5.901770531159348035e-03 5.124531247544661028e+02
6.001800540162048614e-03 5.124596753121107895e+02
6.101830549164749193e-03 5.124661937172944590e+02
6.201860558167451506e-03 5.124726799796414980e+02
6.301890567170152085e-03 5.124791341097447912e+02
6.401920576172852664e-03 5.124855561191633342e+02
6.501950585175553243e-03 5.124919460204196184e+02
6.601980594178253822e-03 5.124983038269982671e+02
6.702010603180955269e-03 5.125046295533420562e+02
6.802040612183655847e-03 5.125109232148519141e+02
6.902070621186356426e-03 5.125171848278827156e+02
7.002100630189057005e-03 5.125234144097411217e+02
7.102130639191758452e-03 5.125296119786835334e+02
7.202160648194459031e-03 5.125357775539146132e+02
7.302190657197159609e-03 5.125419111555817153e+02
7.402220666199860188e-03 5.125480128047764765e+02
7.502250675202560767e-03 5.125540825235285638e+02
7.602280684205262214e-03 5.125601203348055606e+02
7.702310693207962793e-03 5.125661262625095560e+02
7.802340702210663372e-03 5.125721003314731661e+02
7.902370711213364818e-03 5.125780425674593062e+02
8.002400720216065397e-03 5.125839529971570983e+02
8.102430729218765976e-03 5.125898316481789152e+02
8.202460738221466555e-03 5.125956785490579932e+02
8.302490747224167134e-03 5.126014937292459308e+02
8.402520756226867713e-03 5.126072772191096192e+02
8.502550765229570026e-03 5.126130290499288549e+02
8.602580774232270605e-03 5.126187492538903143e+02
8.702610783234971184e-03 5.126244378640913055e+02
8.802640792237671763e-03 5.126300949145294226e+02
8.902670801240372342e-03 5.126357204401053878e+02
9.002700810243072921e-03 5.126413144766155483e+02
9.102730819245775234e-03 5.126468770607521037e+02
9.202760828248474079e-03 5.126524082300991267e+02
9.302790837251176392e-03 5.126579080231279022e+02
9.402820846253876971e-03 5.126633764791971544e+02
9.502850855256577550e-03 5.126688136385462258e+02
9.602880864259278129e-03 5.126742195422939403e+02
9.702910873261978708e-03 5.126795942324361022e+02
9.802940882264681022e-03 5.126849377518392430e+02
9.902970891267381601e-03 5.126902501442419862e+02
1.000300090027008218e-02 5.126955314542464066e+02
1.010303090927278276e-02 5.127007817273196224e+02
1.020306091827548334e-02 5.127060010097875420e+02
1.030309092727818392e-02 5.127111893488323631e+02
1.040312093628088450e-02 5.127163467924889346e+02
1.050315094528358507e-02 5.127214733896419148e+02
1.060318095428628739e-02 5.127265691900220190e+02
1.070321096328898797e-02 5.127316342442022687e+02
1.080324097229168855e-02 5.127366686035950352e+02
1.090327098129438912e-02 5.127416723204482878e+02
1.100330099029708970e-02 5.127466454478418427e+02
1.110333099929979028e-02 5.127515880396842931e+02
1.120336100830249086e-02 5.127565001507082343e+02
1.130339101730519144e-02 5.127613818364692406e+02
1.140342102630789202e-02 5.127662331533394990e+02
1.150345103531059433e-02 5.127710541585051942e+02
1.160348104431329491e-02 5.127758449099636664e+02
1.170351105331599549e-02 5.127806054665174997e+02
1.180354106231869607e-02 5.127853358877737264e+02
1.190357107132139665e-02 5.127900362341373466e+02
1.200360108032409723e-02 5.127947065668098503e+02
1.210363108932679781e-02 5.127993469477833059e+02
1.220366109832949839e-02 5.128039574398378591e+02
1.230369110733219896e-02 5.128085381065379806e+02
1.240372111633490301e-02 5.128130890122276924e+02
1.250375112533760186e-02 5.128176102220273833e+02
1.260378113434030417e-02 5.128221018018298309e+02
1.270381114334300302e-02 5.128265638182959947e+02
1.280384115234570533e-02 5.128309963388511505e+02
1.290387116134840417e-02 5.128353994316807984e+02
1.300390117035110649e-02 5.128397731657266831e+02
1.310393117935380533e-02 5.128441176106836110e+02
1.320396118835650764e-02 5.128484328369936520e+02
1.330399119735920996e-02 5.128527189158439796e+02
1.340402120636191054e-02 5.128569759191615276e+02
1.350405121536461112e-02 5.128612039196090109e+02
1.360408122436731169e-02 5.128654029905811740e+02
1.370411123337001227e-02 5.128695732062004708e+02
1.380414124237271285e-02 5.128737146413133132e+02
1.390417125137541343e-02 5.128778273714842726e+02
1.400420126037811401e-02 5.128819114729947160e+02
1.410423126938081459e-02 5.128859670228350751e+02
1.420426127838351690e-02 5.128899940987038235e+02
1.430429128738621748e-02 5.128939927790014508e+02
1.440432129638891806e-02 5.128979631428255743e+02
1.450435130539161864e-02 5.129019052699688928e+02
1.460438131439431922e-02 5.129058192409130470e+02
1.470441132339701980e-02 5.129097051368236180e+02
1.480444133239972038e-02 5.129135630395487624e+02
1.490447134140242096e-02 5.129173930316115957e+02
1.500450135040512153e-02 5.129211951962073499e+02
1.510453135940782385e-02 5.129249696171982578e+02
1.520456136841052443e-02 5.129287163791109379e+02
1.530459137741322501e-02 5.129324355671291187e+02
1.540462138641592559e-02 5.129361272670910239e+02
1.550465139541862616e-02 5.129397915654843700e+02
1.560468140442132674e-02 5.129434285494423875e+02
1.570471141342402732e-02 5.129470383067376815e+02
1.580474142242672964e-02 5.129506209257793898e+02
1.590477143142942848e-02 5.129541764956086354e+02
1.600480144043213079e-02 5.129577051058920460e+02
1.610483144943483311e-02 5.129612068469198221e+02
1.620486145843753195e-02 5.129646818095982326e+02
1.630489146744023427e-02 5.129681300854467736e+02
1.640492147644293311e-02 5.129715517665940752e+02
1.650495148544563542e-02 5.129749469457713076e+02
1.660498149444833427e-02 5.129783157163099077e+02
1.670501150345103658e-02 5.129816581721332795e+02
1.680504151245373543e-02 5.129849744077564537e+02
1.690507152145643774e-02 5.129882645182779015e+02
1.700510153045914005e-02 5.129915285993768066e+02
1.710513153946183890e-02 5.129947667473063575e+02
1.720516154846454121e-02 5.129979790588920423e+02
1.730519155746724005e-02 5.130011656315236905e+02
1.740522156646994237e-02 5.130043265631522900e+02
1.750525157547264121e-02 5.130074619522858939e+02
1.760528158447534353e-02 5.130105718979813219e+02
1.770531159347804237e-02 5.130136564998442736e+02
1.780534160248074468e-02 5.130167158580203477e+02
1.790537161148344700e-02 5.130197500731925402e+02
1.800540162048614584e-02 5.130227592465761290e+02
1.810543162948884816e-02 5.130257434799113980e+02
1.820546163849155047e-02 5.130287028754624998e+02
1.830549164749424931e-02 5.130316375360099528e+02
1.840552165649694816e-02 5.130345475648458660e+02
1.850555166549965047e-02 5.130374330657699602e+02
1.860558167450235278e-02 5.130402941430842247e+02
1.870561168350505163e-02 5.130431309015876877e+02
1.880564169250775394e-02 5.130459434465715276e+02
1.890567170151045626e-02 5.130487318838147530e+02
1.900570171051315510e-02 5.130514963195774953e+02
1.910573171951585741e-02 5.130542368605983938e+02
1.920576172851855626e-02 5.130569536140876608e+02
1.930579173752125857e-02 5.130596466877220792e+02
1.940582174652395742e-02 5.130623161896419333e+02
1.950585175552665973e-02 5.130649622284429370e+02
1.960588176452936204e-02 5.130675849131753239e+02
1.970591177353206089e-02 5.130701843533333886e+02
1.980594178253476320e-02 5.130727606588548042e+02
1.990597179153746205e-02 5.130753139401135741e+02
2.000600180054016436e-02 5.130778443079158251e+02
2.010603180954286320e-02 5.130803518734937825e+02
2.020606181854556552e-02 5.130828367485016770e+02
2.030609182754826436e-02 5.130852990450094921e+02
2.040612183655096668e-02 5.130877388754979620e+02
2.050615184555366552e-02 5.130901563528553879e+02
2.060618185455636783e-02 5.130925515903691121e+02
2.070621186355906668e-02 5.130949247017232437e+02
2.080624187256176899e-02 5.130972758009925201e+02
2.090627188156446783e-02 5.130996050026368493e+02
2.100630189056717015e-02 5.131019124214958538e+02
2.110633189956987593e-02 5.131041981727845496e+02
2.120636190857257478e-02 5.131064623720883446e+02
2.130639191757527362e-02 5.131087051353558763e+02
2.140642192657797593e-02 5.131109265788969651e+02
2.150645193558067825e-02 5.131131268193743153e+02
2.160648194458337709e-02 5.131153059737998774e+02
2.170651195358607594e-02 5.131174641595291632e+02
2.180654196258877825e-02 5.131196014942572674e+02
2.190657197159148056e-02 5.131217180960110227e+02
2.200660198059417941e-02 5.131238140831472947e+02
2.210663198959687825e-02 5.131258895743435460e+02
2.220666199859958057e-02 5.131279446885961306e+02
2.230669200760228288e-02 5.131299795452133594e+02
2.240672201660498172e-02 5.131319942638111797e+02
2.250675202560768057e-02 5.131339889643066954e+02
2.260678203461038288e-02 5.131359637669132781e+02
2.270681204361308519e-02 5.131379187921367020e+02
2.280684205261578404e-02 5.131398541607674133e+02
2.290687206161848982e-02 5.131417699938771193e+02
2.300690207062118867e-02 5.131436664128139000e+02
2.310693207962389098e-02 5.131455435391940227e+02
2.320696208862658982e-02 5.131474014949006914e+02
2.330699209762929214e-02 5.131492404020756339e+02
2.340702210663199098e-02 5.131510603831148956e+02
2.350705211563469330e-02 5.131528615606637231e+02
2.360708212463739214e-02 5.131546440576114492e+02
2.370711213364009445e-02 5.131564079970848979e+02
2.380714214264279330e-02 5.131581535024452023e+02
2.390717215164549561e-02 5.131598806972808688e+02
2.400720216064819446e-02 5.131615897054025481e+02
2.410723216965089677e-02 5.131632806508387148e+02
2.420726217865359561e-02 5.131649536578294146e+02
2.430729218765629793e-02 5.131666088508222856e+02
2.440732219665899677e-02 5.131682463544652819e+02
2.450735220566169908e-02 5.131698662936028086e+02
2.460738221466439793e-02 5.131714687932706056e+02
2.470741222366710371e-02 5.131730539786890404e+02
2.480744223266980603e-02 5.131746219752592424e+02
2.490747224167250487e-02 5.131761729085574189e+02
2.500750225067520371e-02 5.131777069043282609e+02
2.510753225967790603e-02 5.131792240884824423e+02
2.520756226868060834e-02 5.131807245870888892e+02
2.530759227768330719e-02 5.131822085263696636e+02
2.540762228668600603e-02 5.131836760326965532e+02
2.550765229568870834e-02 5.131851272325841364e+02
2.560768230469141066e-02 5.131865622526840980e+02
2.570771231369410950e-02 5.131879812197817046e+02
2.580774232269680835e-02 5.131893842607889837e+02
2.590777233169951066e-02 5.131907715027406311e+02
2.600780234070221297e-02 5.131921430727882125e+02
2.610783234970491182e-02 5.131934990981942519e+02
2.620786235870761066e-02 5.131948397063275706e+02
2.630789236771031298e-02 5.131961650246581712e+02
2.640792237671301529e-02 5.131974751807523489e+02
2.650795238571571413e-02 5.131987703022666665e+02
2.660798239471841992e-02 5.132000505169430653e+02
2.670801240372111876e-02 5.132013159526026129e+02
2.680804241272382107e-02 5.132025667371426607e+02
2.690807242172651992e-02 5.132038029985287722e+02
2.700810243072922223e-02 5.132050248647917670e+02
2.710813243973192108e-02 5.132062324640219231e+02
2.720816244873462339e-02 5.132074259243618144e+02
2.730819245773732223e-02 5.132086053740048328e+02
2.740822246674002455e-02 5.132097709411859796e+02
2.750825247574272339e-02 5.132109227541795917e+02
2.760828248474542571e-02 5.132120609412936574e+02
2.770831249374812455e-02 5.132131856308628812e+02
2.780834250275082686e-02 5.132142969512449326e+02
2.790837251175352571e-02 5.132153950308160120e+02
2.800840252075622802e-02 5.132164799979634608e+02
2.810843252975892687e-02 5.132175519810834885e+02
2.820846253876162918e-02 5.132186111085727589e+02
2.830849254776432802e-02 5.132196575088258896e+02
2.840852255676703381e-02 5.132206913102286308e+02
2.850855256576973612e-02 5.132217126411545678e+02
2.860858257477243496e-02 5.132227216299584143e+02
2.870861258377513381e-02 5.132237184049708958e+02
2.880864259277783612e-02 5.132247030944938615e+02
2.890867260178053844e-02 5.132256758267972145e+02
2.900870261078323728e-02 5.132266367301094760e+02
2.910873261978593612e-02 5.132275859326182399e+02
2.920876262878863844e-02 5.132285235624598272e+02
2.930879263779134075e-02 5.132294497477179220e+02
2.940882264679403960e-02 5.132303646164159545e+02
2.950885265579673844e-02 5.132312682965151680e+02
2.960888266479944075e-02 5.132321609159060927e+02
2.970891267380214307e-02 5.132330426024052485e+02
2.980894268280484191e-02 5.132339134837513939e+02
2.990897269180754076e-02 5.132347736875985902e+02
3.000900270081024307e-02 5.132356233415101769e+02
3.010903270981294538e-02 5.132364625729582031e+02
3.020906271881564770e-02 5.132372915093138772e+02
3.030909272781835001e-02 5.132381102778447257e+02
3.040912273682104885e-02 5.132389190057097039e+02
3.050915274582375117e-02 5.132397178199546488e+02
3.060918275482645001e-02 5.132405068475048893e+02
3.070921276382915233e-02 5.132412862151641093e+02
3.080924277283185117e-02 5.132420560496061626e+02
3.090927278183455348e-02 5.132428164773718891e+02
3.100930279083725233e-02 5.132435676248629761e+02
3.110933279983995464e-02 5.132443096183403668e+02
3.120936280884265349e-02 5.132450425839145964e+02
3.130939281784535233e-02 5.132457666475452243e+02
3.140942282684805464e-02 5.132464819350323069e+02
3.150945283585075696e-02 5.132471885720153750e+02
3.160948284485345927e-02 5.132478866839664988e+02
3.170951285385615465e-02 5.132485763961844896e+02
3.180954286285885696e-02 5.132492578337926261e+02
3.190957287186155927e-02 5.132499311217324021e+02
3.200960288086426159e-02 5.132505963847598878e+02
3.210963288986696390e-02 5.132512537474389092e+02
3.220966289886966621e-02 5.132519033341387740e+02
3.230969290787236159e-02 5.132525452690279053e+02
3.240972291687506390e-02 5.132531796760703173e+02
3.250975292587776622e-02 5.132538066790199309e+02
3.260978293488046853e-02 5.132544264014170494e+02
3.270981294388317084e-02 5.132550389665829016e+02
3.280984295288586622e-02 5.132556444976142984e+02
3.290987296188856853e-02 5.132562431173817004e+02
3.300990297089127085e-02 5.132568349485222825e+02
3.310993297989396622e-02 5.132574201134350460e+02
3.320996298889666853e-02 5.132579987342789991e+02
3.330999299789937085e-02 5.132585709329650854e+02
3.341002300690207316e-02 5.132591368311553879e+02
3.351005301590477548e-02 5.132596965502551711e+02
3.361008302490747085e-02 5.132602502114109484e+02
3.371011303391017316e-02 5.132607979355036605e+02
3.381014304291287548e-02 5.132613398431478799e+02
3.391017305191557779e-02 5.132618760546832846e+02
3.401020306091828010e-02 5.132624066901728384e+02
3.411023306992098242e-02 5.132629318693973346e+02
3.421026307892367779e-02 5.132634517118516442e+02
3.431029308792638011e-02 5.132639663367397134e+02
3.441032309692908242e-02 5.132644758629713806e+02
3.451035310593178473e-02 5.132649804091563510e+02
3.461038311493448011e-02 5.132654800936005586e+02
3.471041312393718242e-02 5.132659750343036649e+02
3.481044313293988474e-02 5.132664653489516695e+02
3.491047314194258705e-02 5.132669511549152048e+02
3.501050315094528242e-02 5.132674325692445336e+02
3.511053315994798474e-02 5.132679097086639786e+02
3.521056316895068705e-02 5.132683826895701031e+02
3.531059317795338937e-02 5.132688516280258000e+02
3.541062318695608474e-02 5.132693166397577897e+02
3.551065319595878705e-02 5.132697778401493451e+02
3.561068320496148937e-02 5.132702353442408594e+02
3.571071321396419168e-02 5.132706892667210923e+02
3.581074322296689399e-02 5.132711397219261471e+02
3.591077323196959631e-02 5.132715868238344683e+02
3.601080324097229168e-02 5.132720306860627488e+02
3.611083324997499400e-02 5.132724714218622921e+02
3.621086325897769631e-02 5.132729091441137825e+02
3.631089326798039862e-02 5.132733439653246705e+02
3.641092327698310094e-02 5.132737759976263305e+02
3.651095328598579631e-02 5.132742053527666712e+02
3.661098329498849863e-02 5.132746321421095672e+02
3.671101330399120094e-02 5.132750564766283787e+02
3.681104331299389631e-02 5.132754784669043602e+02
3.691107332199659863e-02 5.132758982231221125e+02
3.701110333099930094e-02 5.132763158550637854e+02
3.711113334000200326e-02 5.132767314721093044e+02
3.721116334900470557e-02 5.132771451832290950e+02
3.731119335800740094e-02 5.132775570969805585e+02
3.741122336701010326e-02 5.132779673215068215e+02
3.751125337601280557e-02 5.132783759645319606e+02
3.761128338501550789e-02 5.132787831333547501e+02
3.771131339401821020e-02 5.132791889348493442e+02
3.781134340302091251e-02 5.132795934754576592e+02
3.791137341202360789e-02 5.132799968611893746e+02
3.801140342102631020e-02 5.132803991976153384e+02
3.811143343002901251e-02 5.132808005898652937e+02
3.821146343903171483e-02 5.132812011426246954e+02
3.831149344803441020e-02 5.132816009601300493e+02
3.841152345703711252e-02 5.132820001461673201e+02
3.851155346603981483e-02 5.132823988040659060e+02
3.861158347504251714e-02 5.132827970366973886e+02
3.871161348404521252e-02 5.132831949464709851e+02
3.881164349304791483e-02 5.132835926353304785e+02
3.891167350205061715e-02 5.132839902047512624e+02
3.901170351105331946e-02 5.132843877557357928e+02
3.911173352005602177e-02 5.132847853888113150e+02
3.921176352905872409e-02 5.132851832040263389e+02
3.931179353806142640e-02 5.132855813009472286e+02
3.941182354706412178e-02 5.132859797786551326e+02
3.951185355606682409e-02 5.132863787357420051e+02
3.961188356506952640e-02 5.132867782703092416e+02
3.971191357407222178e-02 5.132871784799621082e+02
3.981194358307492409e-02 5.132875794618078089e+02
3.991197359207762640e-02 5.132879813124530983e+02
4.001200360108032872e-02 5.132883841280003026e+02
4.011203361008303103e-02 5.132887880040439086e+02
4.021206361908572641e-02 5.132891930356676085e+02
4.031209362808842872e-02 5.132895993174427076e+02
4.041212363709113103e-02 5.132900069434231227e+02
4.051215364609382641e-02 5.132904160071436763e+02
4.061218365509652872e-02 5.132908266016168000e+02
4.071221366409923104e-02 5.132912388193293509e+02
4.081224367310193335e-02 5.132916527522399974e+02
4.091227368210463566e-02 5.132920684917768313e+02
4.101230369110733104e-02 5.132924861288333886e+02
4.111233370011003335e-02 5.132929057537662629e+02
4.121236370911273567e-02 5.132933274563935129e+02
4.131239371811543104e-02 5.132937513259903426e+02
4.141242372711813335e-02 5.132941774512862594e+02
4.151245373612083567e-02 5.132946059204639369e+02
4.161248374512353798e-02 5.132950368211548948e+02
4.171251375412624030e-02 5.132954702404388172e+02
4.181254376312893567e-02 5.132959062648377540e+02
4.191257377213163798e-02 5.132963449803162348e+02
4.201260378113434030e-02 5.132967864722788818e+02
4.211263379013704955e-02 5.132972308255656344e+02
4.221266379913975186e-02 5.132976781244503854e+02
4.231269380814244724e-02 5.132981284526392756e+02
4.241272381714514955e-02 5.132985818932668280e+02
4.251275382614785187e-02 5.132990385288946982e+02
4.261278383515054724e-02 5.132994984415081490e+02
4.271281384415324955e-02 5.132999617125145733e+02
4.281284385315595187e-02 5.133004284227408789e+02
4.291287386215865418e-02 5.133008986524312149e+02
4.301290387116135649e-02 5.133013724812431064e+02
4.311293388016405187e-02 5.133018499882485912e+02
4.321296388916675418e-02 5.133023312519292176e+02
4.331299389816945650e-02 5.133028163501737708e+02
4.341302390717215187e-02 5.133033053602775908e+02
4.351305391617485419e-02 5.133037983589402984e+02
4.361308392517755650e-02 5.133042954222618164e+02
4.371311393418025881e-02 5.133047966257420285e+02
4.381314394318296113e-02 5.133053020442782781e+02
4.391317395218565650e-02 5.133058117521629811e+02
4.401320396118835881e-02 5.133063258230828296e+02
4.411323397019106113e-02 5.133068443301134494e+02
4.421326397919375650e-02 5.133073673457221275e+02
4.431329398819645882e-02 5.133078949417623562e+02
4.441332399719916113e-02 5.133084271894730364e+02
4.451335400620186344e-02 5.133089641594775685e+02
4.461338401520456576e-02 5.133095059217802145e+02
4.471341402420726113e-02 5.133100525457643926e+02
4.481344403320996345e-02 5.133106041001937001e+02
4.491347404221266576e-02 5.133111606532058886e+02
4.501350405121536113e-02 5.133117222723146824e+02
4.511353406021806345e-02 5.133122890244060272e+02
4.521356406922076576e-02 5.133128609757372942e+02
4.531359407822346808e-02 5.133134381919353473e+02
4.541362408722617039e-02 5.133140207379949516e+02
4.551365409622886576e-02 5.133146086782762723e+02
4.561368410523156808e-02 5.133152020765061252e+02
4.571371411423427039e-02 5.133158009957730883e+02
4.581374412323697964e-02 5.133164054985265921e+02
4.591377413223968196e-02 5.133170156465785112e+02
4.601380414124237733e-02 5.133176315010983899e+02
4.611383415024507965e-02 5.133182531226127594e+02
4.621386415924778196e-02 5.133188805710037741e+02
4.631389416825047733e-02 5.133195139055093250e+02
4.641392417725317965e-02 5.133201531847198567e+02
4.651395418625588196e-02 5.133207984665772301e+02
4.661398419525858428e-02 5.133214498083751778e+02
4.671401420426128659e-02 5.133221072667552107e+02
4.681404421326398196e-02 5.133227708977085513e+02
4.691407422226668428e-02 5.133234407565719266e+02
4.701410423126938659e-02 5.133241168980296152e+02
4.711413424027208197e-02 5.133247993761093539e+02
4.721416424927478428e-02 5.133254882441819973e+02
4.731419425827748659e-02 5.133261835549623129e+02
4.741422426728018891e-02 5.133268853605055710e+02
4.751425427628289122e-02 5.133275937122075447e+02
4.761428428528558660e-02 5.133283086608039412e+02
4.771431429428828891e-02 5.133290302563684691e+02
4.781434430329099122e-02 5.133297585483128387e+02
4.791437431229368660e-02 5.133304935853841471e+02
4.801440432129638891e-02 5.133312354156677202e+02
4.811443433029909122e-02 5.133319840865815422e+02
4.821446433930179354e-02 5.133327396448788704e+02
4.831449434830449585e-02 5.133335021366460751e+02
4.841452435730719123e-02 5.133342716073021847e+02
4.851455436630989354e-02 5.133350481015976357e+02
4.861458437531259585e-02 5.133358316636149539e+02
4.871461438431529123e-02 5.133366223367671637e+02
4.881464439331799354e-02 5.133374201637964234e+02
4.891467440232069586e-02 5.133382251867737978e+02
4.901470441132339817e-02 5.133390374471009636e+02
4.911473442032610048e-02 5.133398569855063442e+02
4.921476442932879586e-02 5.133406838420460190e+02
4.931479443833149817e-02 5.133415180561036095e+02
4.941482444733420742e-02 5.133423596663888020e+02
4.951485445633690974e-02 5.133432087109396207e+02
4.961488446533961205e-02 5.133440652271171984e+02
4.971491447434230743e-02 5.133449292516099831e+02
4.981494448334500974e-02 5.133458008204307816e+02
4.991497449234771205e-02 5.133466799689174422e+02
5.001500450135040743e-02 5.133475667317328544e+02
5.011503451035310974e-02 5.133484611428634707e+02
5.021506451935581206e-02 5.133493632356206717e+02
5.031509452835851437e-02 5.133502730426390599e+02
5.041512453736121668e-02 5.133511905958768011e+02
5.051515454636391206e-02 5.133521159266163068e+02
5.061518455536661437e-02 5.133530490654630967e+02
5.071521456436931669e-02 5.133539900423460267e+02
5.081524457337201206e-02 5.133549388865179708e+02
5.091527458237471437e-02 5.133558956265533197e+02
5.101530459137741669e-02 5.133568602903527562e+02
5.111533460038011900e-02 5.133578329051379114e+02
5.121536460938282131e-02 5.133588134974543209e+02
5.131539461838551669e-02 5.133598020931710835e+02
5.141542462738821900e-02 5.133607987174819982e+02
5.151545463639092132e-02 5.133618033949030632e+02
5.161548464539361669e-02 5.133628161492756590e+02
5.171551465439631901e-02 5.133638370037639334e+02
5.181554466339902132e-02 5.133648659808582124e+02
5.191557467240172363e-02 5.133659031023713624e+02
5.201560468140442595e-02 5.133669483894429959e+02
5.211563469040712132e-02 5.133680018625373123e+02
5.221566469940982363e-02 5.133690635414444614e+02
5.231569470841252595e-02 5.133701334452805440e+02
5.241572471741522132e-02 5.133712115924874979e+02
5.251575472641792364e-02 5.133722980008344621e+02
5.261578473542062595e-02 5.133733926874189137e+02
5.271581474442332826e-02 5.133744956686648493e+02
5.281584475342603058e-02 5.133756069603246033e+02
5.291587476242872595e-02 5.133767265774808948e+02
5.301590477143142827e-02 5.133778545345440989e+02
5.311593478043413752e-02 5.133789908452558848e+02
5.321596478943683983e-02 5.133801355226877376e+02
5.331599479843954215e-02 5.133812885792438010e+02
5.341602480744223752e-02 5.133824500266586028e+02
5.351605481644493983e-02 5.133836198760009211e+02
5.361608482544764215e-02 5.133847981376725329e+02
5.371611483445033752e-02 5.133859848214090107e+02
5.381614484345303984e-02 5.133871799362813135e+02
5.391617485245574215e-02 5.133883834906977199e+02
5.401620486145844446e-02 5.133895954924001899e+02
5.411623487046114678e-02 5.133908159484712996e+02
5.421626487946384215e-02 5.133920448653303765e+02
5.431629488846654447e-02 5.133932822487379326e+02
5.441632489746924678e-02 5.133945281037923678e+02
5.451635490647194215e-02 5.133957824349365637e+02
5.461638491547464447e-02 5.133970452459536773e+02
5.471641492447734678e-02 5.133983165399707786e+02
5.481644493348004910e-02 5.133995963194604428e+02
5.491647494248275141e-02 5.134008845862399539e+02
5.501650495148544678e-02 5.134021813414742610e+02
5.511653496048814910e-02 5.134034865856747274e+02
5.521656496949085141e-02 5.134048003187032236e+02
5.531659497849354679e-02 5.134061225397725821e+02
5.541662498749624910e-02 5.134074532474448915e+02
5.551665499649895141e-02 5.134087924396371818e+02
5.561668500550165373e-02 5.134101401136198319e+02
5.571671501450435604e-02 5.134114962660180481e+02
5.581674502350705142e-02 5.134128608928151607e+02
5.591677503250975373e-02 5.134142339893512599e+02
5.601680504151245604e-02 5.134156155503262653e+02
5.611683505051515142e-02 5.134170055698018587e+02
5.621686505951785373e-02 5.134184040412012564e+02
5.631689506852055604e-02 5.134198109573115971e+02
5.641692507752325836e-02 5.134212263102858742e+02
5.651695508652596067e-02 5.134226500916427085e+02
5.661698509552865605e-02 5.134240822922708958e+02
5.671701510453136530e-02 5.134255229024277014e+02
5.681704511353406761e-02 5.134269719117420436e+02
5.691707512253676993e-02 5.134284293092166536e+02
5.701710513153947224e-02 5.134298950832292121e+02
5.711713514054216762e-02 5.134313692215324636e+02
5.721716514954486993e-02 5.134328517112591044e+02
5.731719515854757224e-02 5.134343425389200775e+02
5.741722516755026762e-02 5.134358416904092337e+02
5.751725517655296993e-02 5.134373491510029908e+02
5.761728518555567224e-02 5.134388649053630616e+02
5.771731519455837456e-02 5.134403889375394101e+02
5.781734520356107687e-02 5.134419212309679779e+02
5.791737521256377225e-02 5.134434617684784143e+02
5.801740522156647456e-02 5.134450105322915761e+02
5.811743523056917687e-02 5.134465675040223687e+02
5.821746523957187225e-02 5.134481326646830439e+02
5.831749524857457456e-02 5.134497059946836544e+02
5.841752525757727688e-02 5.134512874738353503e+02
5.851755526657997919e-02 5.134528770813499250e+02
5.861758527558268150e-02 5.134544747958459538e+02
5.871761528458537688e-02 5.134560805953469753e+02
5.881764529358807919e-02 5.134576944572853563e+02
5.891767530259078151e-02 5.134593163585042248e+02
5.901770531159347688e-02 5.134609462752591753e+02
5.911773532059617919e-02 5.134625841832214519e+02
5.921776532959888151e-02 5.134642300574779483e+02
5.931779533860158382e-02 5.134658838725364376e+02
5.941782534760428613e-02 5.134675456023251172e+02
5.951785535660698151e-02 5.134692152201960198e+02
5.961788536560968382e-02 5.134708926989279689e+02
5.971791537461238614e-02 5.134725780107266928e+02
5.981794538361508151e-02 5.134742711272299402e+02
5.991797539261778383e-02 5.134759720195072532e+02
6.001800540162048614e-02 5.134776806580631501e+02
6.011803541062318845e-02 5.134793970128412184e+02
6.021806541962589077e-02 5.134811210532243422e+02
6.031809542862858614e-02 5.134828527480367484e+02
6.041812543763129539e-02 5.134845920655480995e+02
6.051815544663399771e-02 5.134863389734765633e+02
6.061818545563670002e-02 5.134880934389881304e+02
6.071821546463940233e-02 5.134898554287024126e+02
6.081824547364209771e-02 5.134916249086937796e+02
6.091827548264480002e-02 5.134934018444926096e+02
6.101830549164750234e-02 5.134951862010904051e+02
6.111833550065019771e-02 5.134969779429404753e+02
6.121836550965290003e-02 5.134987770339616873e+02
6.131839551865560234e-02 5.135005834375396034e+02
6.141842552765830465e-02 5.135023971165314833e+02
6.151845553666100697e-02 5.135042180332663975e+02
6.161848554566370234e-02 5.135060461495490927e+02
6.171851555466640465e-02 5.135078814266632889e+02
6.181854556366910697e-02 5.135097238253727028e+02
6.191857557267180234e-02 5.135115733059260492e+02
6.201860558167450466e-02 5.135134298280585199e+02
6.211863559067720697e-02 5.135152933509928062e+02
6.221866559967990928e-02 5.135171638334460340e+02
6.231869560868261160e-02 5.135190412336286272e+02
6.241872561768530697e-02 5.135209255092498779e+02
6.251875562668801622e-02 5.135228166175185152e+02
6.261878563569070466e-02 5.135247145151472523e+02
6.271881564469340697e-02 5.135266191583558566e+02
6.281884565369610929e-02 5.135285305028718312e+02
6.291887566269881160e-02 5.135304485039357587e+02
6.301890567170151392e-02 5.135323731163042567e+02
6.311893568070421623e-02 5.135343042942497505e+02
6.321896568970691854e-02 5.135362419915676355e+02
6.331899569870960698e-02 5.135381861615765047e+02
6.341902570771230929e-02 5.135401367571218998e+02
6.351905571671501161e-02 5.135420937305798361e+02
6.361908572571771392e-02 5.135440570338593034e+02
6.371911573472041623e-02 5.135460266184052216e+02
6.381914574372311855e-02 5.135480024352023065e+02
6.391917575272582086e-02 5.135499844347773433e+02
6.401920576172852317e-02 5.135519725672014602e+02
6.411923577073122549e-02 5.135539667820966088e+02
6.421926577973392780e-02 5.135559670286341998e+02
6.431929578873663012e-02 5.135579732555424926e+02
6.441932579773933243e-02 5.135599854111055720e+02
6.451935580674203474e-02 5.135620034431716476e+02
6.461938581574472318e-02 5.135640272991505526e+02
6.471941582474742549e-02 5.135660569260217017e+02
6.481944583375012781e-02 5.135680922703342048e+02
6.491947584275283012e-02 5.135701332782119835e+02
6.501950585175553243e-02 5.135721798953558164e+02
6.511953586075823475e-02 5.135742320670481149e+02
6.521956586976093706e-02 5.135762897381544008e+02
6.531959587876363937e-02 5.135783528531280808e+02
6.541962588776634169e-02 5.135804213560127209e+02
6.551965589676903012e-02 5.135824951904460249e+02
6.561968590577173244e-02 5.135845742996626768e+02
6.571971591477443475e-02 5.135866586264991156e+02
6.581974592377713706e-02 5.135887481133938763e+02
6.591977593277983938e-02 5.135908427023948661e+02
6.601980594178254169e-02 5.135929423351607284e+02
6.611983595078524401e-02 5.135950469529626616e+02
6.621986595978793244e-02 5.135971564966907863e+02
6.631989596879063475e-02 5.135992709068561908e+02
6.641992597779333707e-02 5.136013901235951380e+02
6.651995598679603938e-02 5.136035140866706570e+02
6.661998599579874170e-02 5.136056427354783409e+02
6.672001600480144401e-02 5.136077760090481661e+02
6.682004601380414632e-02 5.136099138460496079e+02
6.692007602280684864e-02 5.136120561847923227e+02
6.702010603180955095e-02 5.136142029632336516e+02
6.712013604081223939e-02 5.136163541189796433e+02
6.722016604981494170e-02 5.136185095892876689e+02
6.732019605881764401e-02 5.136206693110724473e+02
6.742022606782034633e-02 5.136228332209083192e+02
6.752025607682304864e-02 5.136250012550329984e+02
6.762028608582575095e-02 5.136271733493507554e+02
6.772031609482845327e-02 5.136293494394373056e+02
6.782034610383115558e-02 5.136315294605424242e+02
6.792037611283385790e-02 5.136337133475923338e+02
6.802040612183656021e-02 5.136359010351965253e+02
6.812043613083926252e-02 5.136380924576486677e+02
6.822046613984196484e-02 5.136402875489310418e+02
6.832049614884466715e-02 5.136424862427195421e+02
6.842052615784735559e-02 5.136446884723844732e+02
6.852055616685005790e-02 5.136468941709970295e+02
6.862058617585276021e-02 5.136491032713317963e+02
6.872061618485546253e-02 5.136513157058698198e+02
6.882064619385816484e-02 5.136535314068050866e+02
6.892067620286086715e-02 5.136557503060427052e+02
6.902070621186356947e-02 5.136579723352094788e+02
6.912073622086625790e-02 5.136601974256521999e+02
6.922076622986896022e-02 5.136624255084445849e+02
6.932079623887166253e-02 5.136646565143890939e+02
6.942082624787436484e-02 5.136668903740218184e+02
6.952085625687706716e-02 5.136691270176164608e+02
6.962088626587976947e-02 5.136713663751866079e+02
6.972091627488247179e-02 5.136736083764914156e+02
6.982094628388517410e-02 5.136758529510378821e+02
6.992097629288787641e-02 5.136781000280852822e+02
7.002100630189056485e-02 5.136803495366490324e+02
7.012103631089326716e-02 5.136826014055041014e+02
7.022106631989596948e-02 5.136848555631898989e+02
7.032109632889867179e-02 5.136871119380123218e+02
7.042112633790137410e-02 5.136893704580484155e+02
7.052115634690407642e-02 5.136916310511514894e+02
7.062118635590677873e-02 5.136938936449528228e+02
7.072121636490946717e-02 5.136961581668667804e+02
7.082124637391216948e-02 5.136984245440946779e+02
7.092127638291487179e-02 5.137006927036271691e+02
7.102130639191757411e-02 5.137029625722507262e+02
7.112133640092027642e-02 5.137052340765487770e+02
7.122136640992297874e-02 5.137075071429081845e+02
7.132139641892568105e-02 5.137097816975199294e+02
7.142142642792838336e-02 5.137120576663859310e+02
7.152145643693108568e-02 5.137143349753226858e+02
7.162148644593378799e-02 5.137166135499619486e+02
7.172151645493649030e-02 5.137188933157589190e+02
7.182154646393919262e-02 5.137211741979925819e+02
7.192157647294189493e-02 5.137234561217727560e+02
7.202160648194458337e-02 5.137257390120407763e+02
7.212163649094728568e-02 5.137280227935771109e+02
7.222166649994998799e-02 5.137303073910005651e+02
7.232169650895269031e-02 5.137325927287764671e+02
7.242172651795539262e-02 5.137348787312182594e+02
7.252175652695809493e-02 5.137371653224926149e+02
7.262178653596079725e-02 5.137394524266223925e+02
7.272181654496349956e-02 5.137417399674903891e+02
7.282184655396620188e-02 5.137440278688446824e+02
7.292187656296889031e-02 5.137463160543006779e+02
7.302190657197159263e-02 5.137486044473475886e+02
7.312193658097429494e-02 5.137508929713488897e+02
7.322196658997699725e-02 5.137531815495490264e+02
7.332199659897969957e-02 5.137554701050768244e+02
7.342202660798240188e-02 5.137577585609478774e+02
7.352205661698510419e-02 5.137600468400709133e+02
7.362208662598779263e-02 5.137623348652489312e+02
7.372211663499049494e-02 5.137646225591857956e+02
7.382214664399319726e-02 5.137669098444889642e+02
7.392217665299589957e-02 5.137691966436721032e+02
7.402220666199860188e-02 5.137714828791613400e+02
7.412223667100130420e-02 5.137737684732983325e+02
7.422226668000400651e-02 5.137760533483437939e+02
7.432229668900670883e-02 5.137783374264809026e+02
7.442232669800941114e-02 5.137806206298208735e+02
7.452235670701209957e-02 5.137829028804055724e+02
7.462238671601480189e-02 5.137851841002113815e+02
7.472241672501750420e-02 5.137874642111548837e+02
7.482244673402020652e-02 5.137897431350936586e+02
7.492247674302290883e-02 5.137920207938333306e+02
7.502250675202561114e-02 5.137942971091296158e+02
7.512253676102831346e-02 5.137965720026921872e+02
7.522256677003101577e-02 5.137988453961905861e+02
7.532259677903371808e-02 5.138011172112551321e+02
7.542262678803642040e-02 5.138033873694828344e+02
7.552265679703912271e-02 5.138056557924414847e+02
7.562268680604182503e-02 5.138079224016719309e+02
7.572271681504452734e-02 5.138101871186935341e+02
7.582274682404721577e-02 5.138124498650068972e+02
7.592277683304991809e-02 5.138147105620989805e+02
7.602280684205262040e-02 5.138169691314456031e+02
7.612283685105532272e-02 5.138192254945161039e+02
7.622286686005802503e-02 5.138214795727778892e+02
7.632289686906072734e-02 5.138237312876985925e+02
7.642292687806342966e-02 5.138259805607507360e+02
7.652295688706611809e-02 5.138282273134167326e+02
7.662298689606882041e-02 5.138304714671911597e+02
7.672301690507152272e-02 5.138327129435848519e+02
7.682304691407422503e-02 5.138349516641296759e+02
7.692307692307692735e-02 5.138371875503811452e+02
7.702310693207962966e-02 5.138394205239239909e+02
7.712313694108233197e-02 5.138416505063729574e+02
7.722316695008503429e-02 5.138438774193805330e+02
7.732319695908773660e-02 5.138461011846376323e+02
7.742322696809042504e-02 5.138483217238784846e+02
7.752325697709312735e-02 5.138505389588858634e+02
7.762328698609582966e-02 5.138527528114910865e+02
7.772331699509853198e-02 5.138549632035828836e+02
7.782334700410123429e-02 5.138571700571069414e+02
7.792337701310393661e-02 5.138593732940704513e+02
7.802340702210663892e-02 5.138615728365498398e+02
7.812343703110932736e-02 5.138637686066882679e+02
7.822346704011204355e-02 5.138659605267044981e+02
7.832349704911473198e-02 5.138681485188926672e+02
7.842352705811744817e-02 5.138703325056304720e+02
7.852355706712013661e-02 5.138725124093782597e+02
7.862358707612285280e-02 5.138746881526867583e+02
7.872361708512554124e-02 5.138768596581978727e+02
7.882364709412824355e-02 5.138790268486495734e+02
7.892367710313094586e-02 5.138811896468798750e+02
7.902370711213364818e-02 5.138833479758304748e+02
7.912373712113633661e-02 5.138855017585486848e+02
7.922376713013905281e-02 5.138876509181945949e+02
7.932379713914174124e-02 5.138897953780411854e+02
7.942382714814444356e-02 5.138919350614805808e+02
7.952385715714714587e-02 5.138940698920259820e+02
7.962388716614984818e-02 5.138961997933159864e+02
7.972391717515253662e-02 5.138983246891176577e+02
7.982394718415525281e-02 5.139004445033322099e+02
7.992397719315794125e-02 5.139025591599959171e+02
8.002400720216065744e-02 5.139046685832846606e+02
8.012403721116334587e-02 5.139067726975183632e+02
8.022406722016606206e-02 5.139088714271643994e+02
8.032409722916875050e-02 5.139109646968389598e+02
8.042412723817145281e-02 5.139130524313138721e+02
8.052415724717416901e-02 5.139151345555180797e+02
8.062418725617685744e-02 5.139172109945418470e+02
8.072421726517955975e-02 5.139192816736394889e+02
8.082424727418226207e-02 5.139213465182349410e+02
8.092427728318496438e-02 5.139234054539218732e+02
8.102430729218765282e-02 5.139254584064714209e+02
8.112433730119036901e-02 5.139275053018316157e+02
8.122436731019305745e-02 5.139295460661331845e+02
8.132439731919577364e-02 5.139315806256933001e+02
8.142442732819846207e-02 5.139336089070158096e+02
8.152445733720117826e-02 5.139356308367994188e+02
8.162448734620386670e-02 5.139376463419389438e+02
8.172451735520656901e-02 5.139396553495257649e+02
8.182454736420927133e-02 5.139416577868566947e+02
8.192457737321197364e-02 5.139436535814329545e+02
8.202460738221466208e-02 5.139456426609663140e+02
8.212463739121737827e-02 5.139476249533800001e+02
8.222466740022006670e-02 5.139496003868142679e+02
8.232469740922276902e-02 5.139515688896290158e+02
8.242472741822547133e-02 5.139535303904058310e+02
8.252475742722817365e-02 5.139554848179534474e+02
8.262478743623086208e-02 5.139574321013092231e+02
8.272481744523357827e-02 5.139593721697428919e+02
8.282484745423626671e-02 5.139613049527614521e+02
8.292487746323898290e-02 5.139632303801091666e+02
8.302490747224167134e-02 5.139651483817739290e+02
8.312493748124438753e-02 5.139670588879882871e+02
8.322496749024707596e-02 5.139689618292337627e+02
8.332499749924977828e-02 5.139708571362443763e+02
8.342502750825248059e-02 5.139727447400084657e+02
8.352505751725518290e-02 5.139746245717725515e+02
8.362508752625787134e-02 5.139764965630450888e+02
8.372511753526058753e-02 5.139783606455988547e+02
8.382514754426327597e-02 5.139802167514736766e+02
8.392517755326597828e-02 5.139820648129808660e+02
8.402520756226868059e-02 5.139839047627049240e+02
8.412523757127138291e-02 5.139857365335069517e+02
8.422526758027409910e-02 5.139875600585288566e+02
8.432529758927678754e-02 5.139893752711944899e+02
8.442532759827950373e-02 5.139911821052138521e+02
8.452535760728219216e-02 5.139929804945865044e+02
8.462538761628489448e-02 5.139947703736028188e+02
8.472541762528759679e-02 5.139965516768484122e+02
8.482544763429029910e-02 5.139983243392067607e+02
8.492547764329298754e-02 5.140000882958621560e+02
8.502550765229570373e-02 5.140018434823022062e+02
8.512553766129839217e-02 5.140035898343210192e+02
8.522556767030109448e-02 5.140053272880224995e+02
8.532559767930379679e-02 5.140070557798227355e+02
8.542562768830649911e-02 5.140087752464519326e+02
8.552565769730918754e-02 5.140104856249593013e+02
8.562568770631190374e-02 5.140121868527151037e+02
8.572571771531459217e-02 5.140138788674113357e+02
8.582574772431730836e-02 5.140155616070678661e+02
8.592577773331999680e-02 5.140172350100333460e+02
8.602580774232271299e-02 5.140188990149872552e+02
8.612583775132540143e-02 5.140205535609447907e+02
8.622586776032810374e-02 5.140221985872574351e+02
8.632589776933080605e-02 5.140238340336176179e+02
8.642592777833350837e-02 5.140254598400583745e+02
8.652595778733619680e-02 5.140270759469597124e+02
8.662598779633891299e-02 5.140286822950492933e+02
8.672601780534160143e-02 5.140302788254036841e+02
8.682604781434430374e-02 5.140318654794543818e+02
8.692607782334700606e-02 5.140334421989869043e+02
8.702610783234970837e-02 5.140350089261457924e+02
8.712613784135239681e-02 5.140365656034356334e+02
8.722616785035511300e-02 5.140381121737246986e+02
8.732619785935780143e-02 5.140396485802464213e+02
8.742622786836051763e-02 5.140411747666033762e+02
8.752625787736320606e-02 5.140426906767669379e+02
8.762628788636592225e-02 5.140441962550830794e+02
8.772631789536861069e-02 5.140456914462716895e+02
8.782634790437131300e-02 5.140471761954318026e+02
8.792637791337402919e-02 5.140486504480427357e+02
8.802640792237671763e-02 5.140501141499652249e+02
8.812643793137941994e-02 5.140515672474452913e+02
8.822646794038212226e-02 5.140530096871158321e+02
8.832649794938482457e-02 5.140544414160007136e+02
8.842652795838751301e-02 5.140558623815132933e+02
8.852655796739022920e-02 5.140572725314627860e+02
8.862658797639291763e-02 5.140586718140536959e+02
8.872661798539563383e-02 5.140600601778887722e+02
8.882664799439832226e-02 5.140614375719725331e+02
8.892667800340103845e-02 5.140628039457108116e+02
8.902670801240372689e-02 5.140641592489149616e+02
8.912673802140642920e-02 5.140655034318043590e+02
8.922676803040913152e-02 5.140668364450058334e+02
8.932679803941183383e-02 5.140681582395583291e+02
8.942682804841452227e-02 5.140694687669150653e+02
8.952685805741723846e-02 5.140707679789426265e+02
8.962688806641992689e-02 5.140720558279261923e+02
8.972691807542262921e-02 5.140733322665707874e+02
8.982694808442533152e-02 5.140745972480011687e+02
8.992697809342803383e-02 5.140758507257669407e+02
9.002700810243072227e-02 5.140770926538414187e+02
9.012703811143343846e-02 5.140783229866270858e+02
9.022706812043612690e-02 5.140795416789541150e+02
9.032709812943884309e-02 5.140807486860832114e+02
9.042712813844153152e-02 5.140819439637097048e+02
9.052715814744424772e-02 5.140831274679608214e+02
9.062718815644693615e-02 5.140842991554025048e+02
9.072721816544963847e-02 5.140854589830369150e+02
9.082724817445234078e-02 5.140866069083087950e+02
9.092727818345504309e-02 5.140877428891014915e+02
9.102730819245773153e-02 5.140888668837438900e+02
9.112733820146044772e-02 5.140899788510084818e+02
9.122736821046313616e-02 5.140910787501156847e+02
9.132739821946583847e-02 5.140921665407339560e+02
9.142742822846854078e-02 5.140932421829809300e+02
9.152745823747124310e-02 5.140943056374267144e+02
9.162748824647395929e-02 5.140953568650943453e+02
9.172751825547664772e-02 5.140963958274614924e+02
9.182754826447936392e-02 5.140974224864620510e+02
9.192757827348205235e-02 5.140984368044876192e+02
9.202760828248475466e-02 5.140994387443897722e+02
9.212763829148745698e-02 5.141004282694798349e+02
9.222766830049015929e-02 5.141014053435310416e+02
9.232769830949284773e-02 5.141023699307819470e+02
9.242772831849556392e-02 5.141033219959336975e+02
9.252775832749825236e-02 5.141042615041557156e+02
9.262778833650095467e-02 5.141051884210837670e+02
9.272781834550365698e-02 5.141061027128239402e+02
9.282784835450635930e-02 5.141070043459512817e+02
9.292787836350904773e-02 5.141078932875130931e+02
9.302790837251176392e-02 5.141087695050296134e+02
9.312793838151445236e-02 5.141096329664949280e+02
9.322796839051716855e-02 5.141104836403778791e+02
9.332799839951985699e-02 5.141113214956246793e+02
9.342802840852257318e-02 5.141121465016586853e+02
9.352805841752526161e-02 5.141129586283816479e+02
9.362808842652796393e-02 5.141137578461757585e+02
9.372811843553066624e-02 5.141145441259044446e+02
9.382814844453336856e-02 5.141153174389112337e+02
9.392817845353605699e-02 5.141160777570258915e+02
9.402820846253877318e-02 5.141168250525589656e+02
9.412823847154146162e-02 5.141175592983079241e+02
9.422826848054416393e-02 5.141182804675560192e+02
9.432829848954686625e-02 5.141189885340733099e+02
9.442832849854956856e-02 5.141196834721174582e+02
9.452835850755225700e-02 5.141203652564354343e+02
9.462838851655497319e-02 5.141210338622637437e+02
9.472841852555766162e-02 5.141216892653280865e+02
9.482844853456037781e-02 5.141223314418482460e+02
9.492847854356306625e-02 5.141229603685336542e+02
9.502850855256578244e-02 5.141235760225878266e+02
9.512853856156848475e-02 5.141241783817073383e+02
9.522856857057117319e-02 5.141247674240839842e+02
9.532859857957388938e-02 5.141253431284037561e+02
9.542862858857657782e-02 5.141259054738492296e+02
9.552865859757928013e-02 5.141264544400985415e+02
9.562868860658198245e-02 5.141269900073274357e+02
9.572871861558468476e-02 5.141275121562091499e+02
9.582874862458737319e-02 5.141280208679160069e+02
9.592877863359008939e-02 5.141285161241173682e+02
9.602880864259277782e-02 5.141289979069840683e+02
9.612883865159549401e-02 5.141294661991844350e+02
9.622886866059818245e-02 5.141299209838896331e+02
9.632889866960089864e-02 5.141303622447697990e+02
9.642892867860358708e-02 5.141307899659971099e+02
9.652895868760628939e-02 5.141312041322456707e+02
9.662898869660899170e-02 5.141316047286906041e+02
9.672901870561169402e-02 5.141319917410102107e+02
9.682904871461438245e-02 5.141323651553863101e+02
9.692907872361709865e-02 5.141327249585015124e+02
9.702910873261978708e-02 5.141330711375445617e+02
9.712913874162248939e-02 5.141334036802056744e+02
9.722916875062519171e-02 5.141337225746798367e+02
9.732919875962789402e-02 5.141340278096668044e+02
9.742922876863058246e-02 5.141343193743689426e+02
9.752925877763329865e-02 5.141345972584946367e+02
9.762928878663598709e-02 5.141348614522565867e+02
9.772931879563870328e-02 5.141351119463715804e+02
9.782934880464139171e-02 5.141353487320615159e+02
9.792937881364410790e-02 5.141355718010538567e+02
9.802940882264679634e-02 5.141357811455802675e+02
9.812943883164949865e-02 5.141359767583775238e+02
9.822946884065220097e-02 5.141361586326879660e+02
9.832949884965490328e-02 5.141363267622583635e+02
9.842952885865759172e-02 5.141364811413407097e+02
9.852955886766030791e-02 5.141366217646908581e+02
9.862958887666299634e-02 5.141367486275713645e+02
9.872961888566569866e-02 5.141368617257478491e+02
9.882964889466841485e-02 5.141369610554910423e+02
9.892967890367110328e-02 5.141370466135762172e+02
9.902970891267381948e-02 5.141371183972820518e+02
9.912973892167650791e-02 5.141371764043918802e+02
9.922976893067922410e-02 5.141372206331923280e+02
9.932979893968191254e-02 5.141372510824734263e+02
9.942982894868461485e-02 5.141372677515290661e+02
9.952985895768731717e-02 5.141372706401549522e+02
9.962988896669001948e-02 5.141372597486498535e+02
9.972991897569270792e-02 5.141372350778150349e+02
9.982994898469542411e-02 5.141371966289525517e+02
9.992997899369811254e-02 5.141371444038667278e+02
1.000300090027008149e-01 5.141370784048621090e+02
1.001300390117035172e-01 5.141369986347441454e+02
1.002300690207062195e-01 5.141369050968189640e+02
1.003300990297089079e-01 5.141367977948905263e+02
1.004301290387116241e-01 5.141366767332625614e+02
1.005301590477143125e-01 5.141365419167383379e+02
1.006301890567170287e-01 5.141363933506170270e+02
1.007302190657197172e-01 5.141362310406967708e+02
1.008302490747224334e-01 5.141360549932710455e+02
1.009302790837251218e-01 5.141358652151296837e+02
1.010303090927278241e-01 5.141356617135587612e+02
1.011303391017305264e-01 5.141354444963379819e+02
1.012303691107332287e-01 5.141352135717417013e+02
1.013303991197359172e-01 5.141349689485359704e+02
1.014304291287386334e-01 5.141347106359817190e+02
1.015304591377413218e-01 5.141344386438296397e+02
1.016304891467440241e-01 5.141341529823213250e+02
1.017305191557467264e-01 5.141338536621896083e+02
1.018305491647494287e-01 5.141335406946558351e+02
1.019305791737521172e-01 5.141332140914292950e+02
1.020306091827548334e-01 5.141328738647075625e+02
1.021306391917575218e-01 5.141325200271733138e+02
1.022306692007602380e-01 5.141321525919966007e+02
1.023306992097629264e-01 5.141317715728303028e+02
1.024307292187656426e-01 5.141313769838129701e+02
1.025307592277683449e-01 5.141309688395625699e+02
1.026307892367710334e-01 5.141305471551816026e+02
1.027308192457737496e-01 5.141301119462523275e+02
1.028308492547764380e-01 5.141296632288356250e+02
1.029308792637791403e-01 5.141292010194713384e+02
1.030309092727818426e-01 5.141287253351757727e+02
1.031309392817845449e-01 5.141282361934423761e+02
1.032309692907872334e-01 5.141277336122388988e+02
1.033309992997899496e-01 5.141272176100068236e+02
1.034310293087926380e-01 5.141266882056600025e+02
1.035310593177953542e-01 5.141261454185844286e+02
1.036310893267980426e-01 5.141255892686338029e+02
1.037311193358007588e-01 5.141250197761341951e+02
1.038311493448034473e-01 5.141244369618743804e+02
1.039311793538061496e-01 5.141238408471148205e+02
1.040312093628088519e-01 5.141232314535754995e+02
1.041312393718115542e-01 5.141226088034430859e+02
1.042312693808142426e-01 5.141219729193652483e+02
1.043312993898169588e-01 5.141213238244497461e+02
1.044313293988196473e-01 5.141206615422645427e+02
1.045313594078223496e-01 5.141199860968351913e+02
1.046313894168250519e-01 5.141192975126424471e+02
1.047314194258277542e-01 5.141185958146226085e+02
1.048314494348304426e-01 5.141178810281655842e+02
1.049314794438331588e-01 5.141171531791128473e+02
1.050315094528358473e-01 5.141164122937545926e+02
1.051315394618385635e-01 5.141156583988320108e+02
1.052315694708412519e-01 5.141148915215314901e+02
1.053315994798439681e-01 5.141141116894855259e+02
1.054316294888466565e-01 5.141133189307704470e+02
1.055316594978493588e-01 5.141125132739040282e+02
1.056316895068520612e-01 5.141116947478453767e+02
1.057317195158547635e-01 5.141108633819915212e+02
1.058317495248574519e-01 5.141100192061769576e+02
1.059317795338601681e-01 5.141091622506708063e+02
1.060318095428628565e-01 5.141082925461766990e+02
1.061318395518655588e-01 5.141074101238289131e+02
1.062318695608682750e-01 5.141065150151925991e+02
1.063318995698709635e-01 5.141056072522608247e+02
1.064319295788736797e-01 5.141046868674516190e+02
1.065319595878763681e-01 5.141037538936092233e+02
1.066319895968790843e-01 5.141028083639996566e+02
1.067320196058817727e-01 5.141018503123090113e+02
1.068320496148844750e-01 5.141008797726436796e+02
1.069320796238871774e-01 5.140998967795246699e+02
1.070321096328898797e-01 5.140989013678895390e+02
1.071321396418925681e-01 5.140978935730880721e+02
1.072321696508952843e-01 5.140968734308810326e+02
1.073321996598979727e-01 5.140958409774375468e+02
1.074322296689006750e-01 5.140947962493348768e+02
1.075322596779033774e-01 5.140937392835530773e+02
1.076322896869060797e-01 5.140926701174764730e+02
1.077323196959087681e-01 5.140915887888899078e+02
1.078323497049114843e-01 5.140904953359755609e+02
1.079323797139141727e-01 5.140893897973140838e+02
1.080324097229168889e-01 5.140882722118785750e+02
1.081324397319195774e-01 5.140871426190342390e+02
1.082324697409222936e-01 5.140860010585377040e+02
1.083324997499249820e-01 5.140848475705319061e+02
1.084325297589276843e-01 5.140836821955456344e+02
1.085325597679303866e-01 5.140825049744919397e+02
1.086325897769330889e-01 5.140813159486639279e+02
1.087326197859357774e-01 5.140801151597333956e+02
1.088326497949384936e-01 5.140789026497488976e+02
1.089326798039411820e-01 5.140776784611338144e+02
1.090327098129438843e-01 5.140764426366831685e+02
1.091327398219465866e-01 5.140751952195610102e+02
1.092327698309492889e-01 5.140739362532983705e+02
1.093327998399519774e-01 5.140726657817925798e+02
1.094328298489546936e-01 5.140713838493019239e+02
1.095328598579573820e-01 5.140700905004458718e+02
1.096328898669600982e-01 5.140687857802010967e+02
1.097329198759627866e-01 5.140674697338994292e+02
1.098329498849655028e-01 5.140661424072253567e+02
1.099329798939682051e-01 5.140648038462149998e+02
1.100330099029708936e-01 5.140634540972502009e+02
1.101330399119736098e-01 5.140620932070594336e+02
1.102330699209762982e-01 5.140607212227146192e+02
1.103330999299790005e-01 5.140593381916264661e+02
1.104331299389817028e-01 5.140579441615445830e+02
1.105331599479844051e-01 5.140565391805540685e+02
1.106331899569870936e-01 5.140551232970711908e+02
1.107332199659898098e-01 5.140536965598440702e+02
1.108332499749924982e-01 5.140522590179472218e+02
1.109332799839952144e-01 5.140508107207804187e+02
1.110333099929979028e-01 5.140493517180658500e+02
1.111333400020006190e-01 5.140478820598443690e+02
1.112333700110033075e-01 5.140464017964757204e+02
1.113334000200060098e-01 5.140449109786317194e+02
1.114334300290087121e-01 5.140434096572972749e+02
1.115334600380114144e-01 5.140418978837651593e+02
1.116334900470141028e-01 5.140403757096356685e+02
1.117335200560168190e-01 5.140388431868108228e+02
1.118335500650195075e-01 5.140373003674955044e+02
1.119335800740222098e-01 5.140357473041907497e+02
1.120336100830249121e-01 5.140341840496930672e+02
1.121336400920276144e-01 5.140326106570928459e+02
1.122336701010303028e-01 5.140310271797675341e+02
1.123337001100330190e-01 5.140294336713837993e+02
1.124337301190357075e-01 5.140278301858913892e+02
1.125337601280384237e-01 5.140262167775210855e+02
1.126337901370411121e-01 5.140245935007825437e+02
1.127338201460438283e-01 5.140229604104599730e+02
1.128338501550465167e-01 5.140213175616107719e+02
1.129338801640492190e-01 5.140196650095625728e+02
1.130339101730519213e-01 5.140180028099089213e+02
1.131339401820546237e-01 5.140163310185075716e+02
1.132339701910573121e-01 5.140146496914780982e+02
1.133340002000600283e-01 5.140129588851966673e+02
1.134340302090627306e-01 5.140112586562962633e+02
1.135340602180654190e-01 5.140095490616606639e+02
1.136340902270681352e-01 5.140078301584237579e+02
1.137341202360708237e-01 5.140061020039657933e+02
1.138341502450735399e-01 5.140043646559096260e+02
1.139341802540762283e-01 5.140026181721189005e+02
1.140342102630789445e-01 5.140008626106946394e+02
1.141342402720816329e-01 5.139990980299719467e+02
1.142342702810843352e-01 5.139973244885171653e+02
1.143343002900870375e-01 5.139955420451249211e+02
1.144343302990897399e-01 5.139937507588151675e+02
1.145343603080924283e-01 5.139919506888302294e+02
1.146343903170951445e-01 5.139901418946310514e+02
1.147344203260978329e-01 5.139883244358943557e+02
1.148344503351005352e-01 5.139864983725108232e+02
1.149344803441032375e-01 5.139846637645800911e+02
1.150345103531059399e-01 5.139828206724090478e+02
1.151345403621086283e-01 5.139809691565070580e+02
1.152345703711113445e-01 5.139791092775859624e+02
1.153346003801140329e-01 5.139772410965537119e+02
1.154346303891167491e-01 5.139753646745122069e+02
1.155346603981194376e-01 5.139734800727558195e+02
1.156346904071221537e-01 5.139715873527663916e+02
1.157347204161248422e-01 5.139696865762089146e+02
1.158347504251275445e-01 5.139677778049324388e+02
1.159347804341302468e-01 5.139658611009630249e+02
1.160348104431329491e-01 5.139639365265027209e+02
1.161348404521356376e-01 5.139620041439253555e+02
1.162348704611383537e-01 5.139600640157732414e+02
1.163349004701410422e-01 5.139581162047553562e+02
1.164349304791437445e-01 5.139561607737425675e+02
1.165349604881464468e-01 5.139541977857651318e+02
1.166349904971491491e-01 5.139522273040092841e+02
1.167350205061518376e-01 5.139502493918147366e+02
1.168350505151545538e-01 5.139482641126691078e+02
1.169350805241572422e-01 5.139462715302082643e+02
1.170351105331599584e-01 5.139442717082105219e+02
1.171351405421626607e-01 5.139422647105930082e+02
1.172351705511653630e-01 5.139402506014109804e+02
1.173352005601680653e-01 5.139382294448525954e+02
1.174352305691707538e-01 5.139362013052351585e+02
1.175352605781734699e-01 5.139341662470042138e+02
1.176352905871761584e-01 5.139321243347271775e+02
1.177353205961788607e-01 5.139300756330932245e+02
1.178353506051815630e-01 5.139280202069069219e+02
1.179353806141842653e-01 5.139259581210882288e+02
1.180354106231869538e-01 5.139238894406657892e+02
1.181354406321896700e-01 5.139218142307765902e+02
1.182354706411923584e-01 5.139197325566597101e+02
1.183355006501950746e-01 5.139176444836564315e+02
1.184355306591977630e-01 5.139155500772037612e+02
1.185355606682004792e-01 5.139134494028337485e+02
1.186355906772031676e-01 5.139113425261674593e+02
1.187356206862058700e-01 5.139092295129133845e+02
1.188356506952085723e-01 5.139071104288651668e+02
1.189356807042112746e-01 5.139049853398953474e+02
1.190357107132139630e-01 5.139028543119541155e+02
1.191357407222166792e-01 5.139007174110658980e+02
1.192357707312193676e-01 5.138985747033245843e+02
1.193358007402220700e-01 5.138964262548915940e+02
1.194358307492247723e-01 5.138942721319929205e+02
1.195358607582274746e-01 5.138921124009133337e+02
1.196358907672301630e-01 5.138899471279963791e+02
1.197359207762328792e-01 5.138877763796376712e+02
1.198359507852355677e-01 5.138856002222844381e+02
1.199359807942382838e-01 5.138834187224304060e+02
1.200360108032409723e-01 5.138812319466128429e+02
1.201360408122436885e-01 5.138790399614091484e+02
1.202360708212463769e-01 5.138768428334344662e+02
1.203361008302490792e-01 5.138746406293362270e+02
1.204361308392517815e-01 5.138724334157934663e+02
1.205361608482544838e-01 5.138702212595105721e+02
1.206361908572571723e-01 5.138680042272172841e+02
1.207362208662598885e-01 5.138657823856607365e+02
1.208362508752625908e-01 5.138635558016080722e+02
1.209362808842652792e-01 5.138613245418370070e+02
1.210363108932679954e-01 5.138590886731370801e+02
1.211363409022706839e-01 5.138568482623037426e+02
1.212363709112734000e-01 5.138546033761361969e+02
1.213364009202760885e-01 5.138523540814328499e+02
1.214364309292788047e-01 5.138501004449893799e+02
1.215364609382814931e-01 5.138478425335943029e+02
1.216364909472841954e-01 5.138455804140268128e+02
1.217365209562868977e-01 5.138433141530513240e+02
1.218365509652896000e-01 5.138410438174159935e+02
1.219365809742922885e-01 5.138387694738494247e+02
1.220366109832950047e-01 5.138364911890566873e+02
1.221366409922976931e-01 5.138342090297144296e+02
1.222366710013003954e-01 5.138319230624711054e+02
1.223367010103030977e-01 5.138296333539395846e+02
1.224367310193058001e-01 5.138273399706974942e+02
1.225367610283084885e-01 5.138250429792814202e+02
1.226367910373112047e-01 5.138227424461849751e+02
1.227368210463138931e-01 5.138204384378539089e+02
1.228368510553166093e-01 5.138181310206846319e+02
1.229368810643192977e-01 5.138158202610192120e+02
1.230369110733220139e-01 5.138135062251438967e+02
1.231369410823247024e-01 5.138111889792833153e+02
1.232369710913274047e-01 5.138088685896000243e+02
1.233370011003301070e-01 5.138065451221884814e+02
1.234370311093328093e-01 5.138042186430734546e+02
1.235370611183354977e-01 5.138018892182067248e+02
1.236370911273382139e-01 5.137995569134631069e+02
1.237371211363409024e-01 5.137972217946368119e+02
1.238371511453436047e-01 5.137948839274392867e+02
1.239371811543463070e-01 5.137925433774950079e+02
1.240372111633490093e-01 5.137902002103393215e+02
1.241372411723516977e-01 5.137878544914128724e+02
1.242372711813544139e-01 5.137855062860617181e+02
1.243373011903571024e-01 5.137831556595305074e+02
1.244373311993598186e-01 5.137808026769624803e+02
1.245373612083625209e-01 5.137784474033935567e+02
1.246373912173652232e-01 5.137760899037500621e+02
1.247374212263679255e-01 5.137737302428463408e+02
1.248374512353706139e-01 5.137713684853807763e+02
1.249374812443733301e-01 5.137690046959320398e+02
1.250375112533760324e-01 5.137666389389560209e+02
1.251375412623787209e-01 5.137642712787848041e+02
1.252375712713814093e-01 5.137619017796191656e+02
1.253376012803841255e-01 5.137595305055301651e+02
1.254376312893868139e-01 5.137571575204525516e+02
1.255376612983895301e-01 5.137547828881820351e+02
1.256376913073922186e-01 5.137524066723735814e+02
1.257377213163949348e-01 5.137500289365376602e+02
1.258377513253976232e-01 5.137476497440355843e+02
1.259377813344003394e-01 5.137452691580789406e+02
1.260378113434030278e-01 5.137428872417239063e+02
1.261378413524057440e-01 5.137405040578706803e+02
1.262378713614084325e-01 5.137381196692574576e+02
1.263379013704111209e-01 5.137357341384590654e+02
1.264379313794138371e-01 5.137333475278848027e+02
1.265379613884165255e-01 5.137309598997716193e+02
1.266379913974192140e-01 5.137285713161869580e+02
1.267380214064219301e-01 5.137261818390193184e+02
1.268380514154246186e-01 5.137237915299792803e+02
1.269380814244273348e-01 5.137214004505947287e+02
1.270381114334300232e-01 5.137190086622082390e+02
1.271381414424327394e-01 5.137166162259748035e+02
1.272381714514354278e-01 5.137142232028572835e+02
1.273382014604381440e-01 5.137118296536243633e+02
1.274382314694408325e-01 5.137094356388473670e+02
1.275382614784435487e-01 5.137070412188974160e+02
1.276382914874462371e-01 5.137046464539413364e+02
1.277383214964489533e-01 5.137022514039402949e+02
1.278383515054516417e-01 5.136998561286455924e+02
1.279383815144543579e-01 5.136974606875962763e+02
1.280384115234570463e-01 5.136950651401161849e+02
1.281384415324597348e-01 5.136926695453108778e+02
1.282384715414624510e-01 5.136902739620642251e+02
1.283385015504651394e-01 5.136878784490365888e+02
1.284385315594678556e-01 5.136854830646599339e+02
1.285385615684705440e-01 5.136830878671379423e+02
1.286385915774732602e-01 5.136806929144401010e+02
1.287386215864759487e-01 5.136782982643010200e+02
1.288386515954786649e-01 5.136759039742156574e+02
1.289386816044813533e-01 5.136735101014387510e+02
1.290387116134840695e-01 5.136711167029794751e+02
1.291387416224867579e-01 5.136687238356005309e+02
1.292387716314894464e-01 5.136663315558141676e+02
1.293388016404921625e-01 5.136639399198797946e+02
1.294388316494948510e-01 5.136615489838022768e+02
1.295388616584975394e-01 5.136591588033271591e+02
1.296388916675002556e-01 5.136567694339379386e+02
1.297389216765029440e-01 5.136543809308562913e+02
1.298389516855056602e-01 5.136519933490357062e+02
1.299389816945083487e-01 5.136496067431608026e+02
1.300390117035110649e-01 5.136472211676440338e+02
1.301390417125137533e-01 5.136448366766227309e+02
1.302390717215164695e-01 5.136424533239571701e+02
1.303391017305191579e-01 5.136400711632272760e+02
1.304391317395218741e-01 5.136376902477306885e+02
1.305391617485245626e-01 5.136353106304784433e+02
1.306391917575272787e-01 5.136329323641937208e+02
1.307392217665299672e-01 5.136305555013101412e+02
1.308392517755326834e-01 5.136281800939668756e+02
1.309392817845353718e-01 5.136258061940070547e+02
1.310393117935380602e-01 5.136234338529759498e+02
1.311393418025407764e-01 5.136210631221171070e+02
1.312393718115434649e-01 5.136186940523712110e+02
1.313394018205461533e-01 5.136163266943730150e+02
1.314394318295488695e-01 5.136139610984470210e+02
1.315394618385515579e-01 5.136115973146074793e+02
1.316394918475542741e-01 5.136092353925561156e+02
1.317395218565569903e-01 5.136068753816773551e+02
1.318395518655596788e-01 5.136045173310368455e+02
1.319395818745623949e-01 5.136021612893799784e+02
1.320396118835650834e-01 5.135998073051282518e+02
1.321396418925677718e-01 5.135974554263774507e+02
1.322396719015704880e-01 5.135951057008957150e+02
1.323397019105731764e-01 5.135927581761194460e+02
1.324397319195758649e-01 5.135904128991531934e+02
1.325397619285785811e-01 5.135880699167655621e+02
1.326397919375812695e-01 5.135857292753884167e+02
1.327398219465839857e-01 5.135833910211121065e+02
1.328398519555866741e-01 5.135810551996868298e+02
1.329398819645893903e-01 5.135787218565160401e+02
1.330399119735920788e-01 5.135763910366589471e+02
1.331399419825947950e-01 5.135740627848241502e+02
1.332399719915974834e-01 5.135717371453692977e+02
1.333400020006001996e-01 5.135694141622989264e+02
1.334400320096028880e-01 5.135670938792620746e+02
1.335400620186056042e-01 5.135647763395497805e+02
1.336400920276082926e-01 5.135624615860930362e+02
1.337401220366110088e-01 5.135601496614613097e+02
1.338401520456136973e-01 5.135578406078599301e+02
1.339401820546163857e-01 5.135555344671271314e+02
1.340402120636191019e-01 5.135532312807339395e+02
1.341402420726217903e-01 5.135509310897803061e+02
1.342402720816244788e-01 5.135486339349940863e+02
1.343403020906271950e-01 5.135463398567285367e+02
1.344403320996298834e-01 5.135440488949603832e+02
1.345403621086325996e-01 5.135417610892884568e+02
1.346403921176352880e-01 5.135394764789305100e+02
1.347404221266380042e-01 5.135371951027216255e+02
1.348404521356406927e-01 5.135349169991137614e+02
1.349404821446434088e-01 5.135326422061724543e+02
1.350405121536460973e-01 5.135303707615740905e+02
1.351405421626488135e-01 5.135281027026063612e+02
1.352405721716515019e-01 5.135258380661634874e+02
1.353406021806541903e-01 5.135235768887484937e+02
1.354406321896569065e-01 5.135213192064662735e+02
1.355406621986595950e-01 5.135190650550267719e+02
1.356406922076623112e-01 5.135168144697393018e+02
1.357407222166649996e-01 5.135145674855128846e+02
1.358407522256677158e-01 5.135123241368540903e+02
1.359407822346704042e-01 5.135100844578653323e+02
1.360408122436731204e-01 5.135078484822428209e+02
1.361408422526758089e-01 5.135056162432750853e+02
1.362408722616785250e-01 5.135033877738416095e+02
1.363409022706812135e-01 5.135011631064106723e+02
1.364409322796839297e-01 5.134989422730384376e+02
1.365409622886866181e-01 5.134967253053661125e+02
1.366409922976893343e-01 5.134945122346202879e+02
1.367410223066920227e-01 5.134923030916097559e+02
1.368410523156947112e-01 5.134900979067239177e+02
1.369410823246974274e-01 5.134878967099325564e+02
1.370411123337001158e-01 5.134856995307834495e+02
1.371411423427028042e-01 5.134835063984014596e+02
1.372411723517055204e-01 5.134813173414858056e+02
1.373412023607082089e-01 5.134791323883101768e+02
1.374412323697109251e-01 5.134769515667204587e+02
1.375412623787136135e-01 5.134747749041339375e+02
1.376412923877163297e-01 5.134726024275369127e+02
1.377413223967190181e-01 5.134704341634849243e+02
1.378413524057217343e-01 5.134682701380987737e+02
1.379413824147244227e-01 5.134661103770665704e+02
1.380414124237271389e-01 5.134639549056410033e+02
1.381414424327298274e-01 5.134618037486363846e+02
1.382414724417325158e-01 5.134596569304296736e+02
1.383415024507352320e-01 5.134575144749583160e+02
1.384415324597379204e-01 5.134553764057202443e+02
1.385415624687406089e-01 5.134532427457700123e+02
1.386415924777433251e-01 5.134511135177203869e+02
1.387416224867460135e-01 5.134489887437404150e+02
1.388416524957487297e-01 5.134468684455524681e+02
1.389416825047514181e-01 5.134447526444346295e+02
1.390417125137541343e-01 5.134426413612170563e+02
1.391417425227568505e-01 5.134405346162802743e+02
1.392417725317595389e-01 5.134384324295579063e+02
1.393418025407622551e-01 5.134363348205313287e+02
1.394418325497649436e-01 5.134342418082313770e+02
1.395418625587676598e-01 5.134321534112362997e+02
1.396418925677703482e-01 5.134300696476720987e+02
1.397419225767730366e-01 5.134279905352093465e+02
1.398419525857757528e-01 5.134259160910642095e+02
1.399419825947784413e-01 5.134238463319970833e+02
1.400420126037811297e-01 5.134217812743111153e+02
1.401420426127838459e-01 5.134197209338534549e+02
1.402420726217865343e-01 5.134176653260109333e+02
1.403421026307892505e-01 5.134156144657132472e+02
1.404421326397919390e-01 5.134135683674282973e+02
1.405421626487946551e-01 5.134115270451643482e+02
1.406421926577973436e-01 5.134094905124688921e+02
1.407422226668000598e-01 5.134074587824269429e+02
1.408422526758027482e-01 5.134054318676603543e+02
1.409422826848054644e-01 5.134034097803282748e+02
1.410423126938081528e-01 5.134013925321265788e+02
1.411423427028108413e-01 5.133993801342849110e+02
1.412423727118135575e-01 5.133973725975698699e+02
1.413424027208162459e-01 5.133953699322806870e+02
1.414424327298189343e-01 5.133933721482522969e+02
1.415424627388216505e-01 5.133913792548511310e+02
1.416424927478243390e-01 5.133893912609775043e+02
1.417425227568270552e-01 5.133874081750645928e+02
1.418425527658297436e-01 5.133854300050770689e+02
1.419425827748324598e-01 5.133834567585101922e+02
1.420426127838351482e-01 5.133814884423920830e+02
1.421426427928378644e-01 5.133795250632812213e+02
1.422426728018405528e-01 5.133775666272663329e+02
1.423427028108432690e-01 5.133756131399660489e+02
1.424427328198459575e-01 5.133736646065297009e+02
1.425427628288486737e-01 5.133717210316355022e+02
1.426427928378513621e-01 5.133697824194921395e+02
1.427428228468540783e-01 5.133678487738352487e+02
1.428428528558567667e-01 5.133659200979323032e+02
1.429428828648594552e-01 5.133639963945779527e+02
1.430429128738621714e-01 5.133620776660953879e+02
1.431429428828648598e-01 5.133601639143358852e+02
1.432429728918675760e-01 5.133582551406818766e+02
1.433430029008702644e-01 5.133563513460401282e+02
1.434430329098729806e-01 5.133544525308485618e+02
1.435430629188756690e-01 5.133525586950722754e+02
1.436430929278783852e-01 5.133506698382043396e+02
1.437431229368810737e-01 5.133487859592670475e+02
1.438431529458837899e-01 5.133469070568099824e+02
1.439431829548864783e-01 5.133450331289116093e+02
1.440432129638891667e-01 5.133431641731783657e+02
1.441432429728918829e-01 5.133413001867452294e+02
1.442432729818945714e-01 5.133394411662761740e+02
1.443433029908972598e-01 5.133375871079643957e+02
1.444433329998999760e-01 5.133357380075306082e+02
1.445433630089026644e-01 5.133338938602259987e+02
1.446433930179053806e-01 5.133320546608304085e+02
1.447434230269080691e-01 5.133302204036540388e+02
1.448434530359107852e-01 5.133283910825358589e+02
1.449434830449134737e-01 5.133265666908464482e+02
1.450435130539161899e-01 5.133247472214853815e+02
1.451435430629188783e-01 5.133229326668848671e+02
1.452435730719215945e-01 5.133211230190070182e+02
1.453436030809242829e-01 5.133193182693454446e+02
1.454436330899269991e-01 5.133175184089265031e+02
1.455436630989296876e-01 5.133157234283092976e+02
1.456436931079324038e-01 5.133139333175840875e+02
1.457437231169350922e-01 5.133121480663771763e+02
1.458437531259377806e-01 5.133103676638461366e+02
1.459437831349404968e-01 5.133085920986845849e+02
1.460438131439431853e-01 5.133068213591210451e+02
1.461438431529458737e-01 5.133050554329183797e+02
1.462438731619485899e-01 5.133032943073774277e+02
1.463439031709513061e-01 5.133015379693340492e+02
1.464439331799539945e-01 5.132997864051629904e+02
1.465439631889567107e-01 5.132980396007753825e+02
1.466439931979593991e-01 5.132962975416230620e+02
1.467440232069621153e-01 5.132945602126962967e+02
1.468440532159648038e-01 5.132928275985257187e+02
1.469440832249674922e-01 5.132910996831822104e+02
1.470441132339702084e-01 5.132893764502805425e+02
1.471441432429728968e-01 5.132876578829759637e+02
1.472441732519755853e-01 5.132859439639674974e+02
1.473442032609783015e-01 5.132842346754994196e+02
1.474442332699809899e-01 5.132825299993600083e+02
1.475442632789837061e-01 5.132808299168848407e+02
1.476442932879863945e-01 5.132791344089553149e+02
1.477443232969891107e-01 5.132774434560010377e+02
1.478443533059917991e-01 5.132757570380005063e+02
1.479443833149945153e-01 5.132740751344827004e+02
1.480444133239972038e-01 5.132723977245266269e+02
1.481444433329999200e-01 5.132707247867642764e+02
1.482444733420026084e-01 5.132690562993786898e+02
1.483445033510053246e-01 5.132673922401086202e+02
1.484445333600080130e-01 5.132657325862480775e+02
1.485445633690107292e-01 5.132640773146465563e+02
1.486445933780134177e-01 5.132624264017110818e+02
1.487446233870161061e-01 5.132607798234073471e+02
1.488446533960188223e-01 5.132591375552619866e+02
1.489446834050215107e-01 5.132574995723605298e+02
1.490447134140241991e-01 5.132558658493528583e+02
1.491447434230269153e-01 5.132542363604510456e+02
1.492447734320296038e-01 5.132526110794318583e+02
1.493448034410323200e-01 5.132509899796394848e+02
1.494448334500350084e-01 5.132493730339847389e+02
1.495448634590377246e-01 5.132477602149469931e+02
1.496448934680404130e-01 5.132461514945759973e+02
1.497449234770431292e-01 5.132445468444940389e+02
1.498449534860458177e-01 5.132429462358948058e+02
1.499449834950485339e-01 5.132413496395473658e+02
1.500450135040512223e-01 5.132397570257962798e+02
1.501450435130539107e-01 5.132381683645639896e+02
1.502450735220566269e-01 5.132365836253517273e+02
1.503451035310593153e-01 5.132350027772404246e+02
1.504451335400620315e-01 5.132334257888934417e+02
1.505451635490647200e-01 5.132318526285588405e+02
1.506451935580674362e-01 5.132302832640668839e+02
1.507452235670701246e-01 5.132287176628378802e+02
1.508452535760728408e-01 5.132271557918778626e+02
1.509452835850755292e-01 5.132255976177848424e+02
1.510453135940782454e-01 5.132240431067471036e+02
1.511453436030809339e-01 5.132224922245474090e+02
1.512453736120836501e-01 5.132209449365625460e+02
1.513454036210863385e-01 5.132194012077674188e+02
1.514454336300890547e-01 5.132178610027342529e+02
1.515454636390917431e-01 5.132163242856368015e+02
1.516454936480944315e-01 5.132147910202501180e+02
1.517455236570971477e-01 5.132132611699541940e+02
1.518455536660998362e-01 5.132117346977338457e+02
1.519455836751025246e-01 5.132102115661829203e+02
1.520456136841052408e-01 5.132086917375033863e+02
1.521456436931079292e-01 5.132071751735101088e+02
1.522456737021106454e-01 5.132056618356305080e+02
1.523457037111133339e-01 5.132041516849079699e+02
1.524457337201160501e-01 5.132026446820024148e+02
1.525457637291187385e-01 5.132011407871942765e+02
1.526457937381214547e-01 5.131996399603846157e+02
1.527458237471241431e-01 5.131981421610980760e+02
1.528458537561268593e-01 5.131966473484850439e+02
1.529458837651295477e-01 5.131951554813228995e+02
1.530459137741322362e-01 5.131936665180186310e+02
1.531459437831349524e-01 5.131921804166111087e+02
1.532459737921376408e-01 5.131906971347738136e+02
1.533460038011403292e-01 5.131892166298149505e+02
1.534460338101430454e-01 5.131877388586812003e+02
1.535460638191457339e-01 5.131862637779597662e+02
1.536460938281484501e-01 5.131847913438808746e+02
1.537461238371511663e-01 5.131833215123182299e+02
1.538461538461538547e-01 5.131818542387945854e+02
1.539461838551565709e-01 5.131803894784794693e+02
1.540462138641592593e-01 5.131789271861955513e+02
1.541462438731619755e-01 5.131774673164185288e+02
1.542462738821646639e-01 5.131760098232821292e+02
1.543463038911673801e-01 5.131745546605751542e+02
1.544463339001700686e-01 5.131731017817506881e+02
1.545463639091727570e-01 5.131716511399228011e+02
1.546463939181754732e-01 5.131702026878722336e+02
1.547464239271781616e-01 5.131687563780475330e+02
1.548464539361808501e-01 5.131673121625672138e+02
1.549464839451835663e-01 5.131658699932237369e+02
1.550465139541862547e-01 5.131644298214832816e+02
1.551465439631889709e-01 5.131629915984914305e+02
1.552465739721916593e-01 5.131615552750733968e+02
1.553466039811943755e-01 5.131601208017374347e+02
1.554466339901970640e-01 5.131586881286763173e+02
1.555466639991997801e-01 5.131572572057730213e+02
1.556466940082024686e-01 5.131558279825985665e+02
1.557467240172051848e-01 5.131544004084175867e+02
1.558467540262078732e-01 5.131529744321920816e+02
1.559467840352105616e-01 5.131515500025799383e+02
1.560468140442132778e-01 5.131501270679411846e+02
1.561468440532159663e-01 5.131487055763403760e+02
1.562468740622186547e-01 5.131472854755464823e+02
1.563469040712213709e-01 5.131458667130386857e+02
1.564469340802240871e-01 5.131444492360074037e+02
1.565469640892267478e-01 5.131430329913572450e+02
1.566469940982294640e-01 5.131416179257106478e+02
1.567470241072321802e-01 5.131402039854089026e+02
1.568470541162348963e-01 5.131387911165162450e+02
1.569470841252375570e-01 5.131373792648230392e+02
1.570471141342402732e-01 5.131359683758473693e+02
1.571471441432429894e-01 5.131345583948378817e+02
1.572471741522457056e-01 5.131331492667777638e+02
1.573472041612483940e-01 5.131317409363859952e+02
1.574472341702510825e-01 5.131303333481222353e+02
1.575472641792537987e-01 5.131289264461877337e+02
1.576472941882564871e-01 5.131275201745291952e+02
1.577473241972592033e-01 5.131261144768425311e+02
1.578473542062618917e-01 5.131247092965722914e+02
1.579473842152645802e-01 5.131233045769199634e+02
1.580474142242672964e-01 5.131219002608429491e+02
1.581474442332700125e-01 5.131204962910582026e+02
1.582474742422726732e-01 5.131190926100450724e+02
1.583475042512753894e-01 5.131176891600507588e+02
1.584475342602781056e-01 5.131162858830904270e+02
1.585475642692807940e-01 5.131148827209498222e+02
1.586475942782834825e-01 5.131134796151924320e+02
1.587476242872861987e-01 5.131120765071570986e+02
1.588476542962888871e-01 5.131106733379659772e+02
1.589476843052916033e-01 5.131092700485238538e+02
1.590477143142942917e-01 5.131078665795233746e+02
1.591477443232969802e-01 5.131064628714478886e+02
1.592477743322996964e-01 5.131050588645737207e+02
1.593478043413024126e-01 5.131036544989730146e+02
1.594478343503050732e-01 5.131022497145198713e+02
1.595478643593077894e-01 5.131008444508884168e+02
1.596478943683105056e-01 5.130994386475616693e+02
1.597479243773132218e-01 5.130980322438293797e+02
1.598479543863158825e-01 5.130966251787962165e+02
1.599479843953185987e-01 5.130952173913789238e+02
1.600480144043213149e-01 5.130938088203167808e+02
1.601480444133240311e-01 5.130923994041687592e+02
1.602480744223266917e-01 5.130909890813202310e+02
1.603481044313294079e-01 5.130895777899843324e+02
1.604481344403321241e-01 5.130881654682056023e+02
1.605481644493348126e-01 5.130867520538650979e+02
1.606481944583375010e-01 5.130853374846811903e+02
1.607482244673402172e-01 5.130839216982138851e+02
1.608482544763429056e-01 5.130825046318677778e+02
1.609482844853456218e-01 5.130810862228964879e+02
1.610483144943483380e-01 5.130796664084040231e+02
1.611483445033509987e-01 5.130782451253508043e+02
1.612483745123537149e-01 5.130768223105535526e+02
1.613484045213564311e-01 5.130753979006916552e+02
1.614484345303591195e-01 5.130739718323105762e+02
1.615484645393618079e-01 5.130725440418206063e+02
1.616484945483645241e-01 5.130711144655070939e+02
1.617485245573672126e-01 5.130696830395291954e+02
1.618485545663699288e-01 5.130682496999231716e+02
1.619485845753726172e-01 5.130668143826094365e+02
1.620486145843753056e-01 5.130653770233918749e+02
1.621486445933780218e-01 5.130639375579644366e+02
1.622486746023807380e-01 5.130624959219123866e+02
1.623487046113833987e-01 5.130610520507153751e+02
1.624487346203861149e-01 5.130596058797549404e+02
1.625487646293888311e-01 5.130581573443123489e+02
1.626487946383915473e-01 5.130567063795763261e+02
1.627488246473942080e-01 5.130552529206448753e+02
1.628488546563969241e-01 5.130537969025281200e+02
1.629488846653996403e-01 5.130523382601527373e+02
1.630489146744023565e-01 5.130508769283659376e+02
1.631489446834050172e-01 5.130494128419379649e+02
1.632489746924077334e-01 5.130479459355659628e+02
1.633490047014104496e-01 5.130464761438767027e+02
1.634490347104131380e-01 5.130450034014324956e+02
1.635490647194158265e-01 5.130435276427317604e+02
1.636490947284185427e-01 5.130420488022145946e+02
1.637491247374212311e-01 5.130405668142648210e+02
1.638491547464239473e-01 5.130390816132157852e+02
1.639491847554266357e-01 5.130375931333513790e+02
1.640492147644293242e-01 5.130361013089102471e+02
1.641492447734320403e-01 5.130346060740921530e+02
1.642492747824347565e-01 5.130331073630559331e+02
1.643493047914374172e-01 5.130316051099293873e+02
1.644493348004401334e-01 5.130300992488074598e+02
1.645493648094428496e-01 5.130285897137603115e+02
1.646493948184455380e-01 5.130270764388334328e+02
1.647494248274482542e-01 5.130255593580526465e+02
1.648494548364509427e-01 5.130240384054283140e+02
1.649494848454536311e-01 5.130225135149580638e+02
1.650495148544563473e-01 5.130209846206306565e+02
1.651495448634590635e-01 5.130194516564292826e+02
1.652495748724617242e-01 5.130179145563363363e+02
1.653496048814644404e-01 5.130163732543359174e+02
1.654496348904671565e-01 5.130148276844165594e+02
1.655496648994698727e-01 5.130132777805788464e+02
1.656496949084725334e-01 5.130117234768324579e+02
1.657497249174752496e-01 5.130101647072073092e+02
1.658497549264779658e-01 5.130086014057511647e+02
1.659497849354806820e-01 5.130070335065365725e+02
1.660498149444833427e-01 5.130054609436630244e+02
1.661498449534860589e-01 5.130038836512619582e+02
1.662498749624887751e-01 5.130023015634990315e+02
1.663499049714914635e-01 5.130007146145781007e+02
1.664499349804941519e-01 5.129991227387459958e+02
1.665499649894968681e-01 5.129975258702944529e+02
1.666499949984995566e-01 5.129959239435651170e+02
1.667500250075022727e-01 5.129943168929524973e+02
1.668500550165049612e-01 5.129927046529079462e+02
1.669500850255076496e-01 5.129910871579431841e+02
1.670501150345103658e-01 5.129894643426346192e+02
1.671501450435130820e-01 5.129878361416252801e+02
1.672501750525157427e-01 5.129862024896309549e+02
1.673502050615184589e-01 5.129845633214409872e+02
1.674502350705211751e-01 5.129829185719246425e+02
1.675502650795238635e-01 5.129812681760339501e+02
1.676502950885265519e-01 5.129796120688047267e+02
1.677503250975292681e-01 5.129779501853660122e+02
1.678503551065319566e-01 5.129762824609381369e+02
1.679503851155346728e-01 5.129746088308382923e+02
1.680504151245373612e-01 5.129729292304856472e+02
1.681504451335400496e-01 5.129712435954031662e+02
1.682504751425427658e-01 5.129695518612220440e+02
1.683505051515454820e-01 5.129678539636856840e+02
1.684505351605481982e-01 5.129661498386523135e+02
1.685505651695508589e-01 5.129644394220995309e+02
1.686505951785535751e-01 5.129627226501281712e+02
1.687506251875562913e-01 5.129609994589644657e+02
1.688506551965590075e-01 5.129592697849658407e+02
1.689506852055616681e-01 5.129575335646229632e+02
1.690507152145643843e-01 5.129557907345642889e+02
1.691507452235671005e-01 5.129540412315587901e+02
1.692507752325697890e-01 5.129522849925207311e+02
1.693508052415724774e-01 5.129505219545119417e+02
1.694508352505751936e-01 5.129487520547473878e+02
1.695508652595778820e-01 5.129469752305976726e+02
1.696508952685805982e-01 5.129451914195913105e+02
1.697509252775832866e-01 5.129434005594210930e+02
1.698509552865859751e-01 5.129416025879461358e+02
1.699509852955886913e-01 5.129397974431951752e+02
1.700510153045914075e-01 5.129379850633715705e+02
1.701510453135940681e-01 5.129361653868556914e+02
1.702510753225967843e-01 5.129343383522098065e+02
1.703511053315995005e-01 5.129325038981784246e+02
1.704511353406021890e-01 5.129306619636976166e+02
1.705511653496048774e-01 5.129288124878928556e+02
1.706511953586075936e-01 5.129269554100873165e+02
1.707512253676102820e-01 5.129250906698010795e+02
1.708512553766129982e-01 5.129232182067582926e+02
1.709512853856156867e-01 5.129213379608886498e+02
1.710513153946183751e-01 5.129194498723326205e+02
1.711513454036210913e-01 5.129175538814424726e+02
1.712513754126238075e-01 5.129156499287896622e+02
1.713514054216264682e-01 5.129137379551643789e+02
1.714514354306291843e-01 5.129118179015819123e+02
1.715514654396319005e-01 5.129098897092851530e+02
1.716514954486346167e-01 5.129079533197474348e+02
1.717515254576372774e-01 5.129060086746777642e+02
1.718515554666399936e-01 5.129040557160225262e+02
1.719515854756427098e-01 5.129020943859711679e+02
1.720516154846454260e-01 5.129001246269572221e+02
1.721516454936481144e-01 5.128981463816637643e+02
1.722516755026508029e-01 5.128961595930255726e+02
1.723517055116535190e-01 5.128941642042343574e+02
1.724517355206562075e-01 5.128921601587396708e+02
1.725517655296589237e-01 5.128901474002555005e+02
1.726517955386616121e-01 5.128881258727608383e+02
1.727518255476643005e-01 5.128860955205041137e+02
1.728518555566670167e-01 5.128840562880085372e+02
1.729518855656697329e-01 5.128820081200732375e+02
1.730519155746723936e-01 5.128799509617762169e+02
1.731519455836751098e-01 5.128778847584807181e+02
1.732519755926778260e-01 5.128758094558365883e+02
1.733520056016805144e-01 5.128737249997826666e+02
1.734520356106832029e-01 5.128716313365528094e+02
1.735520656196859191e-01 5.128695284126778233e+02
1.736520956286886075e-01 5.128674161749887617e+02
1.737521256376913237e-01 5.128652945706209039e+02
1.738521556466940121e-01 5.128631635470160290e+02
1.739521856556967006e-01 5.128610230519273046e+02
1.740522156646994167e-01 5.128588730334217871e+02
1.741522456737021329e-01 5.128567134398833787e+02
1.742522756827047936e-01 5.128545442200172602e+02
1.743523056917075098e-01 5.128523653228518242e+02
1.744523357007102260e-01 5.128501766977421994e+02
1.745523657097129422e-01 5.128479782943766168e+02
1.746523957187156029e-01 5.128457700627734539e+02
1.747524257277183191e-01 5.128435519532913531e+02
1.748524557367210353e-01 5.128413239166269477e+02
1.749524857457237514e-01 5.128390859038217968e+02
1.750525157547264121e-01 5.128368378662644318e+02
1.751525457637291283e-01 5.128345797556914931e+02
1.752525757727318445e-01 5.128323115241955747e+02
1.753526057817345329e-01 5.128300331242240873e+02
1.754526357907372214e-01 5.128277445085838053e+02
1.755526657997399376e-01 5.128254456304454152e+02
1.756526958087426260e-01 5.128231364433449926e+02
1.757527258177453422e-01 5.128208169011871860e+02
1.758527558267480584e-01 5.128184869582498777e+02
1.759527858357507191e-01 5.128161465691854346e+02
1.760528158447534353e-01 5.128137956890255964e+02
1.761528458537561515e-01 5.128114342731832949e+02
1.762528758627588399e-01 5.128090622774556095e+02
1.763529058717615283e-01 5.128066796580278606e+02
1.764529358807642445e-01 5.128042863714770192e+02
1.765529658897669329e-01 5.128018823747713668e+02
1.766529958987696491e-01 5.127994676252790214e+02
1.767530259077723376e-01 5.127970420807655501e+02
1.768530559167750260e-01 5.127946056994015862e+02
1.769530859257777422e-01 5.127921584397612378e+02
1.770531159347804584e-01 5.127897002608297043e+02
1.771531459437831191e-01 5.127872311220019128e+02
1.772531759527858353e-01 5.127847509830894523e+02
1.773532059617885515e-01 5.127822598043202333e+02
1.774532359707912677e-01 5.127797575463432622e+02
1.775532659797939283e-01 5.127772441702309152e+02
1.776532959887966445e-01 5.127747196374818941e+02
1.777533259977993607e-01 5.127721839100240686e+02
1.778533560068020769e-01 5.127696369502173184e+02
1.779533860158047376e-01 5.127670787208566026e+02
1.780534160248074538e-01 5.127645091851751431e+02
1.781534460338101700e-01 5.127619283068453342e+02
1.782534760428128584e-01 5.127593360499836308e+02
1.783535060518155468e-01 5.127567323791523677e+02
1.784535360608182630e-01 5.127541172593632837e+02
1.785535660698209515e-01 5.127514906560784311e+02
1.786535960788236677e-01 5.127488525352165425e+02
1.787536260878263561e-01 5.127462028631501880e+02
1.788536560968290445e-01 5.127435416067133929e+02
1.789536861058317607e-01 5.127408687332033423e+02
1.790537161148344769e-01 5.127381842103800409e+02
1.791537461238371376e-01 5.127354880064726785e+02
1.792537761328398538e-01 5.127327800901799719e+02
1.793538061418425700e-01 5.127300604306740297e+02
1.794538361508452584e-01 5.127273289976018305e+02
1.795538661598479746e-01 5.127245857610892017e+02
1.796538961688506630e-01 5.127218306917416157e+02
1.797539261778533515e-01 5.127190637606471455e+02
1.798539561868560677e-01 5.127162849393812394e+02
1.799539861958587839e-01 5.127134942000052433e+02
1.800540162048614445e-01 5.127106915150732220e+02
1.801540462138641607e-01 5.127078768576302537e+02
1.802540762228668769e-01 5.127050502012189099e+02
1.803541062318695931e-01 5.127022115198773236e+02
1.804541362408722538e-01 5.126993607881449861e+02
1.805541662498749700e-01 5.126964979810645673e+02
1.806541962588776862e-01 5.126936230741828240e+02
1.807542262678804024e-01 5.126907360435538976e+02
1.808542562768830630e-01 5.126878368657421561e+02
1.809542862858857792e-01 5.126849255178229896e+02
1.810543162948884954e-01 5.126820019773873582e+02
1.811543463038911839e-01 5.126790662225409960e+02
1.812543763128938723e-01 5.126761182319094132e+02
1.813544063218965885e-01 5.126731579846391469e+02
1.814544363308992769e-01 5.126701854603998072e+02
1.815544663399019931e-01 5.126672006393854417e+02
1.816544963489046816e-01 5.126642035023187418e+02
1.817545263579073700e-01 5.126611940304512700e+02
1.818545563669100862e-01 5.126581722055665296e+02
1.819545863759128024e-01 5.126551380099822381e+02
1.820546163849154631e-01 5.126520914265516922e+02
1.821546463939181792e-01 5.126490324386656994e+02
1.822546764029208954e-01 5.126459610302561032e+02
1.823547064119235839e-01 5.126428771857961237e+02
1.824547364209262723e-01 5.126397808903032001e+02
1.825547664299289885e-01 5.126366721293403543e+02
1.826547964389316769e-01 5.126335508890192614e+02
1.827548264479343931e-01 5.126304171560011582e+02
1.828548564569370816e-01 5.126272709174986630e+02
1.829548864659397700e-01 5.126241121612781626e+02
1.830549164749424862e-01 5.126209408756628818e+02
1.831549464839452024e-01 5.126177570495316331e+02
1.832549764929479186e-01 5.126145606723232504e+02
1.833550065019505793e-01 5.126113517340380668e+02
1.834550365109532954e-01 5.126081302252376872e+02
1.835550665199560116e-01 5.126048961370498773e+02
1.836550965289587278e-01 5.126016494611678809e+02
1.837551265379613885e-01 5.125983901898531485e+02
1.838551565469641047e-01 5.125951183159367019e+02
1.839551865559668209e-01 5.125918338328204982e+02
1.840552165649695093e-01 5.125885367344799306e+02
1.841552465739721978e-01 5.125852270154654207e+02
1.842552765829749140e-01 5.125819046709026452e+02
1.843553065919776024e-01 5.125785696964958333e+02
1.844553366009803186e-01 5.125752220885274255e+02
1.845553666099830070e-01 5.125718618438619387e+02
1.846553966189856955e-01 5.125684889599460803e+02
1.847554266279884116e-01 5.125651034348096573e+02
1.848554566369911278e-01 5.125617052670678504e+02
1.849554866459937885e-01 5.125582944559229190e+02
1.850555166549965047e-01 5.125548710011659068e+02
1.851555466639992209e-01 5.125514349031758456e+02
1.852555766730019093e-01 5.125479861629236211e+02
1.853556066820045978e-01 5.125445247819727683e+02
1.854556366910073140e-01 5.125410507624787897e+02
1.855556667000100024e-01 5.125375641071937025e+02
1.856556967090127186e-01 5.125340648194641062e+02
1.857557267180154070e-01 5.125305529032358436e+02
1.858557567270180955e-01 5.125270283630511585e+02
1.859557867360208117e-01 5.125234912040534709e+02
1.860558167450235278e-01 5.125199414319870357e+02
1.861558467540261885e-01 5.125163790531971699e+02
1.862558767630289047e-01 5.125128040746336637e+02
1.863559067720316209e-01 5.125092165038490748e+02
1.864559367810343371e-01 5.125056163490035033e+02
1.865559667900369978e-01 5.125020036188616359e+02
1.866559967990397140e-01 5.124983783227959293e+02
1.867560268080424302e-01 5.124947404707877467e+02
1.868560568170451464e-01 5.124910900734278130e+02
1.869560868260478348e-01 5.124874271419156457e+02
1.870561168350505232e-01 5.124837516880651265e+02
1.871561468440532394e-01 5.124800637242999528e+02
1.872561768530559279e-01 5.124763632636572765e+02
1.873562068620586440e-01 5.124726503197882721e+02
1.874562368710613325e-01 5.124689249069595007e+02
1.875562668800640209e-01 5.124651870400518874e+02
1.876562968890667371e-01 5.124614367345632218e+02
1.877563268980694533e-01 5.124576740066088405e+02
1.878563569070721140e-01 5.124538988729208313e+02
1.879563869160748302e-01 5.124501113508506478e+02
1.880564169250775464e-01 5.124463114583685410e+02
1.881564469340802348e-01 5.124424992140641280e+02
1.882564769430829232e-01 5.124386746371479830e+02
1.883565069520856394e-01 5.124348377474516383e+02
1.884565369610883279e-01 5.124309885654273558e+02
1.885565669700910441e-01 5.124271271121509699e+02
1.886565969790937325e-01 5.124232534093199547e+02
1.887566269880964209e-01 5.124193674792549018e+02
1.888566569970991371e-01 5.124154693449005435e+02
1.889566870061018533e-01 5.124115590298246161e+02
1.890567170151045140e-01 5.124076365582210428e+02
1.891567470241072302e-01 5.124037019549059551e+02
1.892567770331099464e-01 5.123997552453239450e+02
1.893568070421126626e-01 5.123957964555415856e+02
1.894568370511153232e-01 5.123918256122547064e+02
1.895568670601180394e-01 5.123878427427823681e+02
1.896568970691207556e-01 5.123838478750719787e+02
1.897569270781234718e-01 5.123798410376966785e+02
1.898569570871261325e-01 5.123758222598563634e+02
1.899569870961288487e-01 5.123717915713783668e+02
1.900570171051315649e-01 5.123677490027166641e+02
1.901570471141342533e-01 5.123636945849527820e+02
1.902570771231369695e-01 5.123596283497961394e+02
1.903571071321396579e-01 5.123555503295824565e+02
1.904571371411423464e-01 5.123514605572752316e+02
1.905571671501450626e-01 5.123473590664669928e+02
1.906571971591477788e-01 5.123432458913749770e+02
1.907572271681504394e-01 5.123391210668467011e+02
1.908572571771531556e-01 5.123349846283555280e+02
1.909572871861558718e-01 5.123308366120023720e+02
1.910573171951585603e-01 5.123266770545154714e+02
1.911573472041612487e-01 5.123225059932499335e+02
1.912573772131639649e-01 5.123183234661887582e+02
1.913574072221666533e-01 5.123141295119398819e+02
1.914574372311693695e-01 5.123099241697395883e+02
1.915574672401720580e-01 5.123057074794494383e+02
1.916574972491747464e-01 5.123014794815564983e+02
1.917575272581774626e-01 5.122972402171750446e+02
1.918575572671801788e-01 5.122929897280430396e+02
1.919575872761828395e-01 5.122887280565249739e+02
1.920576172851855556e-01 5.122844552456092515e+02
1.921576472941882718e-01 5.122801713389081897e+02
1.922576773031909880e-01 5.122758763806580191e+02
1.923577073121936487e-01 5.122715704157194523e+02
1.924577373211963649e-01 5.122672534895742729e+02
1.925577673301990811e-01 5.122629256483277231e+02
1.926577973392017973e-01 5.122585869387067987e+02
1.927578273482044580e-01 5.122542374080591117e+02
1.928578573572071742e-01 5.122498771043548231e+02
1.929578873662098903e-01 5.122455060761811865e+02
1.930579173752125788e-01 5.122411243727472083e+02
1.931579473842152672e-01 5.122367320438796696e+02
1.932579773932179834e-01 5.122323291400231255e+02
1.933580074022206718e-01 5.122279157122401330e+02
1.934580374112233880e-01 5.122234918122097724e+02
1.935580674202260765e-01 5.122190574922262840e+02
1.936580974292287649e-01 5.122146128051995220e+02
1.937581274382314811e-01 5.122101578046532495e+02
1.938581574472341973e-01 5.122056925447230924e+02
1.939581874562368857e-01 5.122012170801601769e+02
1.940582174652395742e-01 5.121967314663251045e+02
1.941582474742422904e-01 5.121922357591884065e+02
1.942582774832449788e-01 5.121877300153323631e+02
1.943583074922476950e-01 5.121832142919453190e+02
1.944583375012503834e-01 5.121786886468255489e+02
1.945583675102530719e-01 5.121741531383761412e+02
1.946583975192557880e-01 5.121696078256069313e+02
1.947584275282585042e-01 5.121650527681307494e+02
1.948584575372611649e-01 5.121604880261650123e+02
1.949584875462638811e-01 5.121559136605287677e+02
1.950585175552665973e-01 5.121513297326416705e+02
1.951585475642693135e-01 5.121467363045236425e+02
1.952585775732719742e-01 5.121421334387922570e+02
1.953586075822746904e-01 5.121375211986633076e+02
1.954586375912774066e-01 5.121328996479486477e+02
1.955586676002801227e-01 5.121282688510535763e+02
1.956586976092827834e-01 5.121236288729778607e+02
1.957587276182854996e-01 5.121189797793127809e+02
1.958587576272882158e-01 5.121143216362401063e+02
1.959587876362909042e-01 5.121096545105307314e+02
1.960588176452935927e-01 5.121049784695445624e+02
1.961588476542963089e-01 5.121002935812252872e+02
1.962588776632989973e-01 5.120955999141037864e+02
1.963589076723017135e-01 5.120908975372930172e+02
1.964589376813044019e-01 5.120861865204880132e+02
1.965589676903070904e-01 5.120814669339637248e+02
1.966589976993098066e-01 5.120767388485742231e+02
1.967590277083125228e-01 5.120720023357491755e+02
1.968590577173151834e-01 5.120672574674958923e+02
1.969590877263178996e-01 5.120625043163920509e+02
1.970591177353206158e-01 5.120577429555917206e+02
1.971591477443233043e-01 5.120529734588146766e+02
1.972591777533259927e-01 5.120481959003524253e+02
1.973592077623287089e-01 5.120434103550609279e+02
1.974592377713313973e-01 5.120386168983627613e+02
1.975592677803341135e-01 5.120338156062424559e+02
1.976592977893368297e-01 5.120290065552468377e+02
1.977593277983394904e-01 5.120241898224810484e+02
1.978593578073422066e-01 5.120193654856085459e+02
1.979593878163449228e-01 5.120145336228470114e+02
1.980594178253476390e-01 5.120096943129703959e+02
1.981594478343502996e-01 5.120048476353010756e+02
1.982594778433530158e-01 5.119999936697125804e+02
1.983595078523557320e-01 5.119951324966278321e+02
1.984595378613584482e-01 5.119902641970116974e+02
1.985595678703611089e-01 5.119853888523746264e+02
1.986595978793638251e-01 5.119805065447682182e+02
1.987596278883665413e-01 5.119756173567842552e+02
1.988596578973692297e-01 5.119707213715495300e+02
1.989596879063719181e-01 5.119658186727276075e+02
1.990597179153746343e-01 5.119609093445139933e+02
1.991597479243773228e-01 5.119559934716347129e+02
1.992597779333800390e-01 5.119510711393447764e+02
1.993598079423827274e-01 5.119461424334241428e+02
1.994598379513854158e-01 5.119412074401773225e+02
1.995598679603881320e-01 5.119362662464296250e+02
1.996598979693908482e-01 5.119313189395264772e+02
1.997599279783935089e-01 5.119263656073291031e+02
1.998599579873962251e-01 5.119214063382128188e+02
1.999599879963989413e-01 5.119164412210657247e+02
2.000600180054016297e-01 5.119114703452852382e+02
2.001600480144043182e-01 5.119064938007751380e+02
2.002600780234070343e-01 5.119015116779438586e+02
2.003601080324097228e-01 5.118965240677027282e+02
2.004601380414124390e-01 5.118915310614613077e+02
2.005601680504151274e-01 5.118865327511276746e+02
2.006601980594178158e-01 5.118815292291023979e+02
2.007602280684205320e-01 5.118765205882792770e+02
2.008602580774232482e-01 5.118715069220403961e+02
2.009602880864259089e-01 5.118664883242553287e+02
2.010603180954286251e-01 5.118614648892756804e+02
2.011603481044313413e-01 5.118564367119362259e+02
2.012603781134340575e-01 5.118514038875493952e+02
2.013604081224367737e-01 5.118463665119027155e+02
2.014604381314394344e-01 5.118413246812571629e+02
2.015604681404421505e-01 5.118362784923439222e+02
2.016604981494448667e-01 5.118312280423609195e+02
2.017605281584475552e-01 5.118261734289717424e+02
2.018605581674502436e-01 5.118211147503004668e+02
2.019605881764529598e-01 5.118160521049308613e+02
2.020606181854556482e-01 5.118109855919016127e+02
2.021606481944583644e-01 5.118059153107053021e+02
2.022606782034610529e-01 5.118008413612847107e+02
2.023607082124637413e-01 5.117957638440282722e+02
2.024607382214664575e-01 5.117906828597700724e+02
2.025607682304691737e-01 5.117855985097849043e+02
2.026607982394718344e-01 5.117805108957852553e+02
2.027608282484745506e-01 5.117754201199186923e+02
2.028608582574772667e-01 5.117703262847658152e+02
2.029608882664799552e-01 5.117652294933337771e+02
2.030609182754826436e-01 5.117601298490587283e+02
2.031609482844853598e-01 5.117550274557971761e+02
2.032609782934880482e-01 5.117499224178251893e+02
2.033610083024907644e-01 5.117448148398367493e+02
2.034610383114934529e-01 5.117397048269376683e+02
2.035610683204961413e-01 5.117345924846438265e+02
2.036610983294988575e-01 5.117294779188786151e+02
2.037611283385015737e-01 5.117243612359680469e+02
2.038611583475042344e-01 5.117192425426387672e+02
2.039611883565069506e-01 5.117141219460149273e+02
2.040612183655096668e-01 5.117089995536127844e+02
2.041612483745123829e-01 5.117038754733404176e+02
2.042612783835150436e-01 5.116987498134918155e+02
2.043613083925177598e-01 5.116936226827447740e+02
2.044613384015204760e-01 5.116884941901574848e+02
2.045613684105231922e-01 5.116833644451656369e+02
2.046613984195258529e-01 5.116782335575768457e+02
2.047614284285285691e-01 5.116731016375690615e+02
2.048614584375312853e-01 5.116679687956872726e+02
2.049614884465339737e-01 5.116628351428392989e+02
2.050615184555366899e-01 5.116577007902920968e+02
2.051615484645393783e-01 5.116525658496686333e+02
2.052615784735420668e-01 5.116474304329446454e+02
2.053616084825447829e-01 5.116422946524431836e+02
2.054616384915474991e-01 5.116371586208351232e+02
2.055616685005501598e-01 5.116320224511321726e+02
2.056616985095528760e-01 5.116268862566827238e+02
2.057617285185555922e-01 5.116217501511708861e+02
2.058617585275582806e-01 5.116166142486118247e+02
2.059617885365609691e-01 5.116114786633468725e+02
2.060618185455636853e-01 5.116063435100415404e+02
2.061618485545663737e-01 5.116012089036812540e+02
2.062618785635690899e-01 5.115960749595668062e+02
2.063619085725717783e-01 5.115909417933121404e+02
2.064619385815744668e-01 5.115858095208391205e+02
2.065619685905771830e-01 5.115806782583749168e+02
2.066619985995798991e-01 5.115755481224477990e+02
2.067620286085825598e-01 5.115704192298828730e+02
2.068620586175852760e-01 5.115652916977985001e+02
2.069620886265879922e-01 5.115601656436037956e+02
2.070621186355907084e-01 5.115550411849931720e+02
2.071621486445933691e-01 5.115499184399423029e+02
2.072621786535960853e-01 5.115447975267049969e+02
2.073622086625988015e-01 5.115396785638104120e+02
2.074622386716015177e-01 5.115345616700570304e+02
2.075622686806041783e-01 5.115294469645098161e+02
2.076622986896068945e-01 5.115243345664956678e+02
2.077623286986096107e-01 5.115192245956008037e+02
2.078623587076122992e-01 5.115141171716654753e+02
2.079623887166149876e-01 5.115090124147806137e+02
2.080624187256177038e-01 5.115039104452832817e+02
2.081624487346203922e-01 5.114988113837533774e+02
2.082624787436231084e-01 5.114937153510093140e+02
2.083625087526257968e-01 5.114886224681043245e+02
2.084625387616284853e-01 5.114835328563209487e+02
2.085625687706312015e-01 5.114784466371689859e+02
2.086625987796339177e-01 5.114733639323799252e+02
2.087626287886366061e-01 5.114682848639035910e+02
2.088626587976392945e-01 5.114632095539044485e+02
2.089626888066420107e-01 5.114581381247563172e+02
2.090627188156446992e-01 5.114530706990391309e+02
2.091627488246474154e-01 5.114480073995335943e+02
2.092627788336501038e-01 5.114429483492189661e+02
2.093628088426527922e-01 5.114378936712680570e+02
2.094628388516555084e-01 5.114328434890412609e+02
2.095628688606582246e-01 5.114277979260859865e+02
2.096628988696608853e-01 5.114227571061292679e+02
2.097629288786636015e-01 5.114177211530742966e+02
2.098629588876663177e-01 5.114126901909974094e+02
2.099629888966690339e-01 5.114076643441431429e+02
2.100630189056716945e-01 5.114026437369183213e+02
2.101630489146744107e-01 5.113976284938920571e+02
2.102630789236771269e-01 5.113926187397863714e+02
2.103631089326798431e-01 5.113876145994750004e+02
2.104631389416825038e-01 5.113826161979783933e+02
2.105631689506852200e-01 5.113776236604603014e+02
2.106631989596879362e-01 5.113726371122214687e+02
2.107632289686906246e-01 5.113676566786967896e+02
2.108632589776933131e-01 5.113626824854500228e+02
2.109632889866960292e-01 5.113577146581716306e+02
2.110633189956987177e-01 5.113527533226706510e+02
2.111633490047014339e-01 5.113477986048742991e+02
2.112633790137041223e-01 5.113428506308209762e+02
2.113634090227068107e-01 5.113379095266568015e+02
2.114634390317095269e-01 5.113329754186309515e+02
2.115634690407122431e-01 5.113280484330919080e+02
2.116634990497149038e-01 5.113231286964813762e+02
2.117635290587176200e-01 5.113182163353326359e+02
2.118635590677203362e-01 5.113133114762640048e+02
2.119635890767230246e-01 5.113084142459738359e+02
2.120636190857257131e-01 5.113035247712388127e+02
2.121636490947284293e-01 5.112986431789066160e+02
2.122636791037311177e-01 5.112937695958933659e+02
2.123637091127338339e-01 5.112889041491781086e+02
2.124637391217365501e-01 5.112840469657986660e+02
2.125637691307392108e-01 5.112791981728477708e+02
2.126637991397419269e-01 5.112743578974678940e+02
2.127638291487446431e-01 5.112695262668454461e+02
2.128638591577473593e-01 5.112647034082097548e+02
2.129638891667500200e-01 5.112598894488259020e+02
2.130639191757527362e-01 5.112550845159896653e+02
2.131639491847554524e-01 5.112502887370254143e+02
2.132639791937581686e-01 5.112455022392797446e+02
2.133640092027608293e-01 5.112407251501175551e+02
2.134640392117635455e-01 5.112359575969177854e+02
2.135640692207662616e-01 5.112311997070676171e+02
2.136640992297689501e-01 5.112264516079601435e+02
2.137641292387716385e-01 5.112217134269871508e+02
2.138641592477743547e-01 5.112169852915375259e+02
2.139641892567770431e-01 5.112122673289896966e+02
2.140642192657797593e-01 5.112075596667086188e+02
2.141642492747824478e-01 5.112028624320423091e+02
2.142642792837851362e-01 5.111981757523140004e+02
2.143643092927878524e-01 5.111934997548213460e+02
2.144643393017905686e-01 5.111888345668288025e+02
2.145643693107932293e-01 5.111841803155654702e+02
2.146643993197959455e-01 5.111795371282179303e+02
2.147644293287986617e-01 5.111749051319284831e+02
2.148644593378013501e-01 5.111702844537873602e+02
2.149644893468040385e-01 5.111656752208315879e+02
2.150645193558067547e-01 5.111610775600379952e+02
2.151645493648094432e-01 5.111564915983184960e+02
2.152645793738121593e-01 5.111519174625173605e+02
2.153646093828148478e-01 5.111473552794051329e+02
2.154646393918175362e-01 5.111428051756740842e+02
2.155646694008202524e-01 5.111382672779339487e+02
2.156646994098229686e-01 5.111337417127077742e+02
2.157647294188256293e-01 5.111292286064255563e+02
2.158647594278283455e-01 5.111247280854222481e+02
2.159647894368310617e-01 5.111202402759307120e+02
2.160648194458337779e-01 5.111157653040786499e+02
2.161648494548364940e-01 5.111113032958834310e+02
2.162648794638391547e-01 5.111068543772465205e+02
2.163649094728418709e-01 5.111024186739508082e+02
2.164649394818445871e-01 5.110979963116549811e+02
2.165649694908472755e-01 5.110935874158877823e+02
2.166649994998499640e-01 5.110891921120457937e+02
2.167650295088526802e-01 5.110848105253867857e+02
2.168650595178553686e-01 5.110804427810262496e+02
2.169650895268580848e-01 5.110760890039314290e+02
2.170651195358607732e-01 5.110717493189185916e+02
2.171651495448634617e-01 5.110674238506463212e+02
2.172651795538661779e-01 5.110631127236132443e+02
2.173652095628688941e-01 5.110588160621510951e+02
2.174652395718715547e-01 5.110545339904217599e+02
2.175652695808742709e-01 5.110502666324119332e+02
2.176652995898769871e-01 5.110460141119287982e+02
2.177653295988796756e-01 5.110417765525938307e+02
2.178653596078823640e-01 5.110375540778414347e+02
2.179653896168850802e-01 5.110333468109117803e+02
2.180654196258877686e-01 5.110291548748463129e+02
2.181654496348904848e-01 5.110249783924847407e+02
2.182654796438931732e-01 5.110208174864587818e+02
2.183655096528958617e-01 5.110166722791875600e+02
2.184655396618985779e-01 5.110125428928753308e+02
2.185655696709012941e-01 5.110084294495037511e+02
2.186655996799039547e-01 5.110043320708293777e+02
2.187656296889066709e-01 5.110002508783779831e+02
2.188656596979093871e-01 5.109961859934415429e+02
2.189656897069121033e-01 5.109921375370713008e+02
2.190657197159147640e-01 5.109881056300745286e+02
2.191657497249174802e-01 5.109840903930112859e+02
2.192657797339201964e-01 5.109800919461866897e+02
2.193658097429229126e-01 5.109761104096494364e+02
2.194658397519255733e-01 5.109721459031852646e+02
2.195658697609282894e-01 5.109681985463131468e+02
2.196658997699310056e-01 5.109642684582806851e+02
2.197659297789336941e-01 5.109603557580597339e+02
2.198659597879364103e-01 5.109564605643417963e+02
2.199659897969390987e-01 5.109525829955333052e+02
2.200660198059417871e-01 5.109487231697509060e+02
2.201660498149445033e-01 5.109448812048176478e+02
2.202660798239472195e-01 5.109410572182576402e+02
2.203661098329498802e-01 5.109372513272929268e+02
2.204661398419525964e-01 5.109334636488366641e+02
2.205661698509553126e-01 5.109296942994913593e+02
2.206661998599580010e-01 5.109259433955427880e+02
2.207662298689606895e-01 5.109222110529547081e+02
2.208662598779634056e-01 5.109184973873664717e+02
2.209662898869660941e-01 5.109148025140879099e+02
2.210663198959688103e-01 5.109111265480941597e+02
2.211663499049714987e-01 5.109074696040207755e+02
2.212663799139741871e-01 5.109038317961619668e+02
2.213664099229769033e-01 5.109002132384624701e+02
2.214664399319796195e-01 5.108966140445168662e+02
2.215664699409822802e-01 5.108930343275614518e+02
2.216664999499849964e-01 5.108894742004736145e+02
2.217665299589877126e-01 5.108859337757642720e+02
2.218665599679904288e-01 5.108824131655749738e+02
2.219665899769930895e-01 5.108789124816731828e+02
2.220666199859958057e-01 5.108754318354501152e+02
2.221666499949985218e-01 5.108719713379115319e+02
2.222666800040012380e-01 5.108685310996775115e+02
2.223667100130038987e-01 5.108651112309771065e+02
2.224667400220066149e-01 5.108617118416433982e+02
2.225667700310093311e-01 5.108583330411092902e+02
2.226668000400120195e-01 5.108549749384045526e+02
2.227668300490147080e-01 5.108516376421493987e+02
2.228668600580174242e-01 5.108483212605516997e+02
2.229668900670201126e-01 5.108450259014020389e+02
2.230669200760228288e-01 5.108417516720704725e+02
2.231669500850255450e-01 5.108384986795007308e+02
2.232669800940282057e-01 5.108352670302073761e+02
2.233670101030309219e-01 5.108320568302706306e+02
2.234670401120336380e-01 5.108288681853327375e+02
2.235670701210363265e-01 5.108257012005939828e+02
2.236671001300390149e-01 5.108225559808074649e+02
2.237671301390417311e-01 5.108194326302760260e+02
2.238671601480444195e-01 5.108163312528475899e+02
2.239671901570471357e-01 5.108132519519111838e+02
2.240672201660498242e-01 5.108101948303926179e+02
2.241672501750525126e-01 5.108071599907505629e+02
2.242672801840552288e-01 5.108041475349722873e+02
2.243673101930579450e-01 5.108011575645700191e+02
2.244673402020606057e-01 5.107981901805762845e+02
2.245673702110633219e-01 5.107952454835397020e+02
2.246674002200660381e-01 5.107923235735221397e+02
2.247674302290687542e-01 5.107894245500931447e+02
2.248674602380714149e-01 5.107865485123273857e+02
2.249674902470741311e-01 5.107836955587993657e+02
2.250675202560768473e-01 5.107808657875800691e+02
2.251675502650795635e-01 5.107780592962327546e+02
2.252675802740822242e-01 5.107752761818102840e+02
2.253676102830849404e-01 5.107725165408481871e+02
2.254676402920876566e-01 5.107697804693643775e+02
2.255676703010903450e-01 5.107670680628527862e+02
2.256677003100930334e-01 5.107643794162794393e+02
2.257677303190957496e-01 5.107617146240809234e+02
2.258677603280984381e-01 5.107590737801576211e+02
2.259677903371011543e-01 5.107564569778712666e+02
2.260678203461038427e-01 5.107538643100417630e+02
2.261678503551065311e-01 5.107512958689422362e+02
2.262678803641092473e-01 5.107487517462952837e+02
2.263679103731119635e-01 5.107462320332697345e+02
2.264679403821146242e-01 5.107437368204772383e+02
2.265679703911173404e-01 5.107412661979665245e+02
2.266680004001200566e-01 5.107388202552232883e+02
2.267680304091227450e-01 5.107363990811623466e+02
2.268680604181254612e-01 5.107340027641275810e+02
2.269680904271281496e-01 5.107316313918847186e+02
2.270681204361308381e-01 5.107292850516209910e+02
2.271681504451335543e-01 5.107269638299402459e+02
2.272681804541362705e-01 5.107246678128581152e+02
2.273682104631389311e-01 5.107223970857995141e+02
2.274682404721416473e-01 5.107201517335963672e+02
2.275682704811443635e-01 5.107179318404811283e+02
2.276683004901470797e-01 5.107157374900856439e+02
2.277683304991497404e-01 5.107135687654359799e+02
2.278683605081524566e-01 5.107114257489514557e+02
2.279683905171551728e-01 5.107093085224373112e+02
2.280684205261578890e-01 5.107072171670845364e+02
2.281684505351605496e-01 5.107051517634646416e+02
2.282684805441632658e-01 5.107031123915273838e+02
2.283685105531659820e-01 5.107010991305973562e+02
2.284685405621686705e-01 5.106991120593677351e+02
2.285685705711713589e-01 5.106971512559016446e+02
2.286686005801740751e-01 5.106952167976253349e+02
2.287686305891767635e-01 5.106933087613255111e+02
2.288686605981794797e-01 5.106914272231477980e+02
2.289686906071821682e-01 5.106895722585907151e+02
2.290687206161848566e-01 5.106877439425038574e+02
2.291687506251875728e-01 5.106859423490855079e+02
2.292687806341902890e-01 5.106841675518781472e+02
2.293688106431929496e-01 5.106824196237649858e+02
2.294688406521956658e-01 5.106806986369682022e+02
2.295688706611983820e-01 5.106790046630433153e+02
2.296689006702010705e-01 5.106773377728804917e+02
2.297689306792037589e-01 5.106756980366960761e+02
2.298689606882064751e-01 5.106740855240332166e+02
2.299689906972091635e-01 5.106725003037582269e+02
2.300690207062118797e-01 5.106709424440548446e+02
2.301690507152145682e-01 5.106694120124255960e+02
2.302690807242172566e-01 5.106679090756857136e+02
2.303691107332199728e-01 5.106664336999598959e+02
2.304691407422226890e-01 5.106649859506821372e+02
2.305691707512254052e-01 5.106635658925897587e+02
2.306692007602280658e-01 5.106621735897224426e+02
2.307692307692307820e-01 5.106608091054184797e+02
2.308692607782334982e-01 5.106594725023123829e+02
2.309692907872362144e-01 5.106581638423314757e+02
2.310693207962388751e-01 5.106568831866925393e+02
2.311693508052415913e-01 5.106556305959022666e+02
2.312693808142443075e-01 5.106544061297499866e+02
2.313694108232469959e-01 5.106532098473069823e+02
2.314694408322496844e-01 5.106520418069255243e+02
2.315694708412524006e-01 5.106509020662325611e+02
2.316695008502550890e-01 5.106497906821298329e+02
2.317695308592578052e-01 5.106487077107905748e+02
2.318695608682604936e-01 5.106476532076559351e+02
2.319695908772631820e-01 5.106466272274336688e+02
2.320696208862658982e-01 5.106456298240942147e+02
2.321696508952686144e-01 5.106446610508699564e+02
2.322696809042712751e-01 5.106437209602505618e+02
2.323697109132739913e-01 5.106428096039818456e+02
2.324697409222767075e-01 5.106419270330637232e+02
2.325697709312793959e-01 5.106410732977458338e+02
2.326698009402820844e-01 5.106402484475270285e+02
2.327698309492848006e-01 5.106394525311525285e+02
2.328698609582874890e-01 5.106386855966107419e+02
2.329698909672902052e-01 5.106379476911309894e+02
2.330699209762928936e-01 5.106372388611825386e+02
2.331699509852955821e-01 5.106365591524712499e+02
2.332699809942982982e-01 5.106359086099369620e+02
2.333700110033010144e-01 5.106352872777517860e+02
2.334700410123036751e-01 5.106346951993176617e+02
2.335700710213063913e-01 5.106341324172659597e+02
2.336701010303091075e-01 5.106335989734511145e+02
2.337701310393118237e-01 5.106330949089528985e+02
2.338701610483144844e-01 5.106326202640721021e+02
2.339701910573172006e-01 5.106321750783278048e+02
2.340702210663199168e-01 5.106317593904576029e+02
2.341702510753226329e-01 5.106313732384131754e+02
2.342702810843253214e-01 5.106310166593607960e+02
2.343703110933280098e-01 5.106306896896761032e+02
2.344703411023307260e-01 5.106303923649449530e+02
2.345703711113334144e-01 5.106301247199614863e+02
2.346704011203361306e-01 5.106298867887228994e+02
2.347704311293388191e-01 5.106296786044320584e+02
2.348704611383415075e-01 5.106295001994925542e+02
2.349704911473442237e-01 5.106293516055079635e+02
2.350705211563469399e-01 5.106292328532795182e+02
2.351705511653496006e-01 5.106291439728057071e+02
2.352705811743523168e-01 5.106290849932789229e+02
2.353706111833550330e-01 5.106290559430847793e+02
2.354706411923577214e-01 5.106290568497997810e+02
2.355706712013604098e-01 5.106290877401897887e+02
2.356707012103631260e-01 5.106291486402090527e+02
2.357707312193658145e-01 5.106292395749986781e+02
2.358707612283685306e-01 5.106293605688828166e+02
2.359707912373712191e-01 5.106295116453704281e+02
2.360708212463739075e-01 5.106296928271511888e+02
2.361708512553766237e-01 5.106299041360956608e+02
2.362708812643793399e-01 5.106301455932530757e+02
2.363709112733820006e-01 5.106304172188494590e+02
2.364709412823847168e-01 5.106307190322876295e+02
2.365709712913874330e-01 5.106310510521443575e+02
2.366710013003901492e-01 5.106314132961693417e+02
2.367710313093928098e-01 5.106318057812855500e+02
2.368710613183955260e-01 5.106322285235847858e+02
2.369710913273982422e-01 5.106326815383300186e+02
2.370711213364009584e-01 5.106331648399514620e+02
2.371711513454036191e-01 5.106336784420461186e+02
2.372711813544063353e-01 5.106342223573777801e+02
2.373712113634090515e-01 5.106347965978732191e+02
2.374712413724117399e-01 5.106354011746249171e+02
2.375712713814144283e-01 5.106360360978858353e+02
2.376713013904171445e-01 5.106367013770720860e+02
2.377713313994198330e-01 5.106373970207592947e+02
2.378713614084225492e-01 5.106381230366822024e+02
2.379713914174252654e-01 5.106388794317348925e+02
2.380714214264279260e-01 5.106396662119684606e+02
2.381714514354306422e-01 5.106404833825915262e+02
2.382714814444333584e-01 5.106413309479669920e+02
2.383715114534360469e-01 5.106422089116133520e+02
2.384715414624387353e-01 5.106431172762046913e+02
2.385715714714414515e-01 5.106440560435655698e+02
2.386716014804441399e-01 5.106450252146754565e+02
2.387716314894468561e-01 5.106460247896650344e+02
2.388716614984495445e-01 5.106470547678161438e+02
2.389716915074522330e-01 5.106481151475607021e+02
2.390717215164549492e-01 5.106492059264813861e+02
2.391717515254576654e-01 5.106503271013095286e+02
2.392717815344603260e-01 5.106514786679252325e+02
2.393718115434630422e-01 5.106526606213574269e+02
2.394718415524657584e-01 5.106538729557817078e+02
2.395718715614684746e-01 5.106551156645218725e+02
2.396719015704711353e-01 5.106563887400474187e+02
2.397719315794738515e-01 5.106576921739751924e+02
2.398719615884765677e-01 5.106590259570673425e+02
2.399719915974792839e-01 5.106603900792314334e+02
