0.000000000000000000e+00 5.153011919811042389e+02
1.000240057613827342e-04 5.153030035258124144e+02
2.000480115227654685e-04 5.153048383365569407e+02
3.000720172841482027e-04 5.153066963162582397e+02
4.000960230455309369e-04 5.153085773668287857e+02
5.001200288069136170e-04 5.153104813891778804e+02
6.001440345682964054e-04 5.153124082832177919e+02
7.001680403296790854e-04 5.153143579478628453e+02
8.001920460910618739e-04 5.153163302810371533e+02
9.002160518524445539e-04 5.153183251796781406e+02
1.000240057613827234e-03 5.153203425397391584e+02
1.100264063375209914e-03 5.153223822561936913e+02
1.200288069136592811e-03 5.153244442230411551e+02
1.300312074897975491e-03 5.153265283333081470e+02
1.400336080659358171e-03 5.153286344790556086e+02
1.500360086420741068e-03 5.153307625513804169e+02
1.600384092182123748e-03 5.153329124404212962e+02
1.700408097943506211e-03 5.153350840353618878e+02
1.800432103704889108e-03 5.153372772244358657e+02
1.900456109466271788e-03 5.153394918949312569e+02
2.000480115227654468e-03 5.153417279331938516e+02
2.100504120989037365e-03 5.153439852246315240e+02
2.200528126750419828e-03 5.153462636537213939e+02
2.300552132511802725e-03 5.153485631040097132e+02
2.400576138273185622e-03 5.153508834581201654e+02
2.500600144034568085e-03 5.153532245977563662e+02
2.600624149795950982e-03 5.153555864037070933e+02
2.700648155557333879e-03 5.153579687558508340e+02
2.800672161318716342e-03 5.153603715331602189e+02
2.900696167080099239e-03 5.153627946137062281e+02
3.000720172841482136e-03 5.153652378746643308e+02
3.100744178602864165e-03 5.153677011923173268e+02
3.200768184364247496e-03 5.153701844420604630e+02
3.300792190125629959e-03 5.153726874984085953e+02
3.400816195887012422e-03 5.153752102349967572e+02
3.500840201648395319e-03 5.153777525245890274e+02
3.600864207409778216e-03 5.153803142390808034e+02
3.700888213171160679e-03 5.153828952495042586e+02
3.800912218932543576e-03 5.153854954260336854e+02
3.900936224693926473e-03 5.153881146379917482e+02
4.000960230455308936e-03 5.153907527538501654e+02
4.100984236216691399e-03 5.153934096412398276e+02
4.201008241978074730e-03 5.153960851669528438e+02
4.301032247739457193e-03 5.153987791969478849e+02
4.401056253500839656e-03 5.154014915963565500e+02
4.501080259262222986e-03 5.154042222294868907e+02
4.601104265023605450e-03 5.154069709598296640e+02
4.701128270784987913e-03 5.154097376500624250e+02
4.801152276546371243e-03 5.154125221620577122e+02
4.901176282307753707e-03 5.154153243568839571e+02
5.001200288069136170e-03 5.154181440948128738e+02
5.101224293830518633e-03 5.154209812353269626e+02
5.201248299591901963e-03 5.154238356371199643e+02
5.301272305353285294e-03 5.154267071581065238e+02
5.401296311114667757e-03 5.154295956554252598e+02
5.501320316876049353e-03 5.154325009854456994e+02
5.601344322637432684e-03 5.154354230037722573e+02
5.701368328398815147e-03 5.154383615652507160e+02
5.801392334160198477e-03 5.154413165239724322e+02
5.901416339921580941e-03 5.154442877332817261e+02
6.001440345682964271e-03 5.154472750457807706e+02
6.101464351444345867e-03 5.154502783133342518e+02
6.201488357205728330e-03 5.154532973870751675e+02
6.301512362967111661e-03 5.154563321174121029e+02
6.401536368728494991e-03 5.154593823540328685e+02
6.501560374489877454e-03 5.154624479459110944e+02
6.601584380251259918e-03 5.154655287413122551e+02
6.701608386012643248e-03 5.154686245877978763e+02
6.801632391774024844e-03 5.154717353322338340e+02
6.901656397535408174e-03 5.154748608207934240e+02
7.001680403296790638e-03 5.154780008989654334e+02
7.101704409058173968e-03 5.154811554115581202e+02
7.201728414819556431e-03 5.154843242027064889e+02
7.301752420580939762e-03 5.154875071158771789e+02
7.401776426342321358e-03 5.154907039938750586e+02
7.501800432103704688e-03 5.154939146788485687e+02
7.601824437865087152e-03 5.154971390122959747e+02
7.701848443626469615e-03 5.155003768350723021e+02
7.801872449387852945e-03 5.155036279873920648e+02
7.901896455149236276e-03 5.155068923088398378e+02
8.001920460910617872e-03 5.155101696383728722e+02
8.101944466672001202e-03 5.155134598143283711e+02
8.201968472433382798e-03 5.155167626744290601e+02
8.301992478194766129e-03 5.155200780557909184e+02
8.402016483956149459e-03 5.155234057949271573e+02
8.502040489717532790e-03 5.155267457277556105e+02
8.602064495478914385e-03 5.155300976896030534e+02
8.702088501240295981e-03 5.155334615152160040e+02
8.802112507001679312e-03 5.155368370387608365e+02
8.902136512763062642e-03 5.155402240938348086e+02
9.002160518524445973e-03 5.155436225134692450e+02
9.102184524285829303e-03 5.155470321301379499e+02
9.202208530047210899e-03 5.155504527757620963e+02
9.302232535808592495e-03 5.155538842817168188e+02
9.402256541569975826e-03 5.155573264788386041e+02
9.502280547331359156e-03 5.155607791974290421e+02
9.602304553092742487e-03 5.155642422672646035e+02
9.702328558854124083e-03 5.155677155176002771e+02
9.802352564615507413e-03 5.155711987771777558e+02
9.902376570376889009e-03 5.155746918742299840e+02
1.000240057613827234e-02 5.155781946364890018e+02
1.010242458189965567e-02 5.155817068911921979e+02
1.020244858766103727e-02 5.155852284650892443e+02
1.030247259342242060e-02 5.155887591844459621e+02
1.040249659918380393e-02 5.155922988750554623e+02
1.050252060494518726e-02 5.155958473622397378e+02
1.060254461070657059e-02 5.155994044708590991e+02
1.070256861646795218e-02 5.156029700253184274e+02
1.080259262222933551e-02 5.156065438495728586e+02
1.090261662799071538e-02 5.156101257671349458e+02
1.100264063375209871e-02 5.156137156010817080e+02
1.110266463951348204e-02 5.156173131740596318e+02
1.120268864527486537e-02 5.156209183082926302e+02
1.130271265103624870e-02 5.156245308255885220e+02
1.140273665679763029e-02 5.156281505473453990e+02
1.150276066255901362e-02 5.156317772945586739e+02
1.160278466832039695e-02 5.156354108878269926e+02
1.170280867408177855e-02 5.156390511473588276e+02
1.180283267984316188e-02 5.156426978929813458e+02
1.190285668560454521e-02 5.156463509441441602e+02
1.200288069136592854e-02 5.156500101199272876e+02
1.210290469712731187e-02 5.156536752390491074e+02
1.220292870288869173e-02 5.156573461198702262e+02
1.230295270865007506e-02 5.156610225804031415e+02
1.240297671441145666e-02 5.156647044383184948e+02
1.250300072017283999e-02 5.156683915109490499e+02
1.260302472593422332e-02 5.156720836153003802e+02
1.270304873169560665e-02 5.156757805680556430e+02
1.280307273745698998e-02 5.156794821855812643e+02
1.290309674321837158e-02 5.156831882839372838e+02
1.300312074897975491e-02 5.156868986788803113e+02
1.310314475474113824e-02 5.156906131858723938e+02
1.320316876050251984e-02 5.156943316200880645e+02
1.330319276626390317e-02 5.156980537964204814e+02
1.340321677202528650e-02 5.157017795294883626e+02
1.350324077778666809e-02 5.157055086336430350e+02
1.360326478354804969e-02 5.157092409229744590e+02
1.370328878930943302e-02 5.157129762113202105e+02
1.380331279507081635e-02 5.157167143122713924e+02
1.390333680083219794e-02 5.157204550391762723e+02
1.400336080659358128e-02 5.157241982051544937e+02
1.410338481235496461e-02 5.157279436230957117e+02
1.420340881811634794e-02 5.157316911056728941e+02
1.430343282387773127e-02 5.157354404653452775e+02
1.440345682963911286e-02 5.157391915143684855e+02
1.450348083540049619e-02 5.157429440647982801e+02
1.460350484116187952e-02 5.157466979284998843e+02
1.470352884692326112e-02 5.157504529171533250e+02
1.480355285268464272e-02 5.157542088422626421e+02
1.490357685844602605e-02 5.157579655151595261e+02
1.500360086420740938e-02 5.157617227470136640e+02
1.510362486996879097e-02 5.157654803488366042e+02
1.520364887573017430e-02 5.157692381314924432e+02
1.530367288149155763e-02 5.157729959056997586e+02
1.540369688725293923e-02 5.157767534820443416e+02
1.550372089301432256e-02 5.157805106709822667e+02
1.560374489877570589e-02 5.157842672828470540e+02
1.570376890453708749e-02 5.157880231278589918e+02
1.580379291029847255e-02 5.157917780161293422e+02
1.590381691605985415e-02 5.157955317576698917e+02
1.600384092182123574e-02 5.157992841623979530e+02
1.610386492758261734e-02 5.158030350401447777e+02
1.620388893334400240e-02 5.158067842006606725e+02
1.630391293910538400e-02 5.158105314536251171e+02
1.640393694486676560e-02 5.158142766086504025e+02
1.650396095062815066e-02 5.158180194752909529e+02
1.660398495638953226e-02 5.158217598630494649e+02
1.670400896215091385e-02 5.158254975813830470e+02
1.680403296791229892e-02 5.158292324397124275e+02
1.690405697367368051e-02 5.158329642474270713e+02
1.700408097943506558e-02 5.158366928138929097e+02
1.710410498519644718e-02 5.158404179484582528e+02
1.720412899095782877e-02 5.158441394604635661e+02
1.730415299671921037e-02 5.158478571592453363e+02
1.740417700248059196e-02 5.158515708541449385e+02
1.750420100824197703e-02 5.158552803545147754e+02
1.760422501400335862e-02 5.158589854697257806e+02
1.770424901976474369e-02 5.158626860091740127e+02
1.780427302552612528e-02 5.158663817822877036e+02
1.790429703128750688e-02 5.158700725985351028e+02
1.800432103704889195e-02 5.158737582674303894e+02
1.810434504281027354e-02 5.158774385985396975e+02
1.820436904857165861e-02 5.158811134014915751e+02
1.830439305433304020e-02 5.158847824859805087e+02
1.840441706009442180e-02 5.158884456617751084e+02
1.850444106585580686e-02 5.158921027387254981e+02
1.860446507161718499e-02 5.158957535267694539e+02
1.870448907737857006e-02 5.158993978359400217e+02
1.880451308313995165e-02 5.159030354763724517e+02
1.890453708890133672e-02 5.159066662583103380e+02
1.900456109466271831e-02 5.159102899921135759e+02
1.910458510042409991e-02 5.159139064882645016e+02
1.920460910618548497e-02 5.159175155573761913e+02
1.930463311194686657e-02 5.159211170101956441e+02
1.940465711770824817e-02 5.159247106576167425e+02
1.950468112346963323e-02 5.159282963106811621e+02
1.960470512923101483e-02 5.159318737805899673e+02
1.970472913499239642e-02 5.159354428787064535e+02
1.980475314075377802e-02 5.159390034165662655e+02
1.990477714651516308e-02 5.159425552058821722e+02
2.000480115227654468e-02 5.159460980585523657e+02
2.010482515803792974e-02 5.159496317866666004e+02
2.020484916379931134e-02 5.159531562025127869e+02
2.030487316956069641e-02 5.159566711185848362e+02
2.040489717532207453e-02 5.159601763475876623e+02
2.050492118108345613e-02 5.159636717024462769e+02
2.060494518684484119e-02 5.159671569963105640e+02
2.070496919260622279e-02 5.159706320425638069e+02
2.080499319836760785e-02 5.159740966548282586e+02
2.090501720412898945e-02 5.159775506469717357e+02
2.100504120989037452e-02 5.159809938331158037e+02
2.110506521565175264e-02 5.159844260276408932e+02
2.120508922141314118e-02 5.159878470451949397e+02
2.130511322717451930e-02 5.159912567006975905e+02
2.140513723293590437e-02 5.159946548093492993e+02
2.150516123869728596e-02 5.159980411866370105e+02
2.160518524445867103e-02 5.160014156483398438e+02
2.170520925022005262e-02 5.160047780105375068e+02
2.180523325598143075e-02 5.160081280896173439e+02
2.190525726174281929e-02 5.160114657022780875e+02
2.200528126750419741e-02 5.160147906655396355e+02
2.210530527326558248e-02 5.160181027967466889e+02
2.220532927902696407e-02 5.160214019135792114e+02
2.230535328478834914e-02 5.160246878340556123e+02
2.240537729054973073e-02 5.160279603765408183e+02
2.250540129631111580e-02 5.160312193597521855e+02
2.260542530207249740e-02 5.160344646027671160e+02
2.270544930783387899e-02 5.160376959250288564e+02
2.280547331359526059e-02 5.160409131463520680e+02
2.290549731935664565e-02 5.160441160869319219e+02
2.300552132511802725e-02 5.160473045673487604e+02
2.310554533087940884e-02 5.160504784085732126e+02
2.320556933664079391e-02 5.160536374319764263e+02
2.330559334240217551e-02 5.160567814593333651e+02
2.340561734816355710e-02 5.160599103128298566e+02
2.350564135392493870e-02 5.160630238150704372e+02
2.360566535968632376e-02 5.160661217890827857e+02
2.370568936544770536e-02 5.160692040583254538e+02
2.380571337120909042e-02 5.160722704466941195e+02
2.390573737697047202e-02 5.160753207785270433e+02
2.400576138273185708e-02 5.160783548786117763e+02
2.410578538849323521e-02 5.160813725721918672e+02
2.420580939425462375e-02 5.160843736849737979e+02
2.430583340001600187e-02 5.160873580431309620e+02
2.440585740577738347e-02 5.160903254733119638e+02
2.450588141153876853e-02 5.160932758026463034e+02
2.460590541730015013e-02 5.160962088587507424e+02
2.470592942306153519e-02 5.160991244697337379e+02
2.480595342882291332e-02 5.161020224642051062e+02
2.490597743458430186e-02 5.161049026712788645e+02
2.500600144034567998e-02 5.161077649205813032e+02
2.510602544610706505e-02 5.161106090422554189e+02
2.520604945186844664e-02 5.161134348669696692e+02
2.530607345762983171e-02 5.161162422259207005e+02
2.540609746339121330e-02 5.161190309508424434e+02
2.550612146915259837e-02 5.161218008740099776e+02
2.560614547491397996e-02 5.161245518282464673e+02
2.570616948067535809e-02 5.161272836469295271e+02
2.580619348643674316e-02 5.161299961639958838e+02
2.590621749219812475e-02 5.161326892139483107e+02
2.600624149795950982e-02 5.161353626318618808e+02
2.610626550372089141e-02 5.161380162533889688e+02
2.620628950948227648e-02 5.161406499147650493e+02
2.630631351524365807e-02 5.161432634528147219e+02
2.640633752100503967e-02 5.161458567049594421e+02
2.650636152676642127e-02 5.161484295092193406e+02
2.660638553252780633e-02 5.161509817042233408e+02
2.670640953828918793e-02 5.161535131292113192e+02
2.680643354405057299e-02 5.161560236240416089e+02
2.690645754981195459e-02 5.161585130291973655e+02
2.700648155557333618e-02 5.161609811857899786e+02
2.710650556133471778e-02 5.161634279355675972e+02
2.720652956709609938e-02 5.161658531209176317e+02
2.730655357285748444e-02 5.161682565848751665e+02
2.740657757861886604e-02 5.161706381711263703e+02
2.750660158438025110e-02 5.161729977240159997e+02
2.760662559014163270e-02 5.161753350885513782e+02
2.770664959590301776e-02 5.161776501104083081e+02
2.780667360166439589e-02 5.161799426359365270e+02
2.790669760742578442e-02 5.161822125121655063e+02
2.800672161318716255e-02 5.161844595868099077e+02
2.810674561894854762e-02 5.161866837082744723e+02
2.820676962470992921e-02 5.161888847256599320e+02
2.830679363047131081e-02 5.161910624887673293e+02
2.840681763623269587e-02 5.161932168481041572e+02
2.850684164199407400e-02 5.161953476548903836e+02
2.860686564775546253e-02 5.161974547610624313e+02
2.870688965351684066e-02 5.161995380192787479e+02
2.880691365927822573e-02 5.162015972829243537e+02
2.890693766503960732e-02 5.162036324061177766e+02
2.900696167080099239e-02 5.162056432437150306e+02
2.910698567656237398e-02 5.162076296513147327e+02
2.920700968232375905e-02 5.162095914852624219e+02
2.930703368808514064e-02 5.162115286026580634e+02
2.940705769384652224e-02 5.162134408613586629e+02
2.950708169960790384e-02 5.162153281199839512e+02
2.960710570536928543e-02 5.162171902379220683e+02
2.970712971113067050e-02 5.162190270753334289e+02
2.980715371689205209e-02 5.162208384931568617e+02
2.990717772265343716e-02 5.162226243531129057e+02
3.000720172841481875e-02 5.162243845177099502e+02
3.010722573417620035e-02 5.162261188502484401e+02
3.020724973993758194e-02 5.162278272148270162e+02
3.030727374569896701e-02 5.162295094763441057e+02
3.040729775146034861e-02 5.162311655005059947e+02
3.050732175722173367e-02 5.162327951538309208e+02
3.060734576298311527e-02 5.162343983036507780e+02
3.070736976874450033e-02 5.162359748181197574e+02
3.080739377450587846e-02 5.162375245662169618e+02
3.090741778026726005e-02 5.162390474177504984e+02
3.100744178602864512e-02 5.162405432433631631e+02
3.110746579179002672e-02 5.162420119145357376e+02
3.120748979755141178e-02 5.162434533035934692e+02
3.130751380331279338e-02 5.162448672837090271e+02
3.140753780907417497e-02 5.162462537289061402e+02
3.150756181483555657e-02 5.162476125140659633e+02
3.160758582059694510e-02 5.162489435149298060e+02
3.170760982635832670e-02 5.162502466081047032e+02
3.180763383211970829e-02 5.162515216710664845e+02
3.190765783788108989e-02 5.162527685821643217e+02
3.200768184364247149e-02 5.162539872206265272e+02
3.210770584940385308e-02 5.162551774665620314e+02
3.220772985516523468e-02 5.162563392009666359e+02
3.230775386092662321e-02 5.162574723057258552e+02
3.240777786668800481e-02 5.162585766636203743e+02
3.250780187244938640e-02 5.162596521583284357e+02
3.260782587821076800e-02 5.162606986744311826e+02
3.270784988397215653e-02 5.162617160974162971e+02
3.280787388973353119e-02 5.162627043136806151e+02
3.290789789549491973e-02 5.162636632105368335e+02
3.300792190125630132e-02 5.162645926762140789e+02
3.310794590701768292e-02 5.162654925998648423e+02
3.320796991277906451e-02 5.162663628715663435e+02
3.330799391854044611e-02 5.162672033823257607e+02
3.340801792430182771e-02 5.162680140240836408e+02
3.350804193006320930e-02 5.162687946897164011e+02
3.360806593582459784e-02 5.162695452730425814e+02
3.370808994158597943e-02 5.162702656688229581e+02
3.380811394734736103e-02 5.162709557727685024e+02
3.390813795310874262e-02 5.162716154815398113e+02
3.400816195887013116e-02 5.162722446927527926e+02
3.410818596463151275e-02 5.162728433049817340e+02
3.420820997039289435e-02 5.162734112177623729e+02
3.430823397615427595e-02 5.162739483315961024e+02
3.440825798191565754e-02 5.162744545479530416e+02
3.450828198767703914e-02 5.162749297692744221e+02
3.460830599343842073e-02 5.162753738989772501e+02
3.470832999919980927e-02 5.162757868414570339e+02
3.480835400496118393e-02 5.162761685020905134e+02
3.490837801072257246e-02 5.162765187872399792e+02
3.500840201648395406e-02 5.162768376042554337e+02
3.510842602224533565e-02 5.162771248614774322e+02
3.520845002800671725e-02 5.162773804682423133e+02
3.530847403376810578e-02 5.162776043348810617e+02
3.540849803952948738e-02 5.162777963727286306e+02
3.550852204529086897e-02 5.162779564941193939e+02
3.560854605105225057e-02 5.162780846123968104e+02
3.570857005681363217e-02 5.162781806419118311e+02
3.580859406257501376e-02 5.162782444980276750e+02
3.590861806833639536e-02 5.162782760971222160e+02
3.600864207409778389e-02 5.162782753565909388e+02
3.610866607985916549e-02 5.162782421948502360e+02
3.620869008562054708e-02 5.162781765313380902e+02
3.630871409138192868e-02 5.162780782865189622e+02
3.640873809714331721e-02 5.162779473818856104e+02
3.650876210290469187e-02 5.162777837399613645e+02
3.660878610866608041e-02 5.162775872843031948e+02
3.670881011442746200e-02 5.162773579395033039e+02
3.680883412018884360e-02 5.162770956311928785e+02
3.690885812595022519e-02 5.162768002860443630e+02
3.700888213171161373e-02 5.162764718317713459e+02
3.710890613747298838e-02 5.162761101971351536e+02
3.720893014323436998e-02 5.162757153119445093e+02
3.730895414899575852e-02 5.162752871070573519e+02
3.740897815475714011e-02 5.162748255143847018e+02
3.750900216051852171e-02 5.162743304668922519e+02
3.760902616627990330e-02 5.162738018986015049e+02
3.770905017204129184e-02 5.162732397445944343e+02
3.780907417780267343e-02 5.162726439410121202e+02
3.790909818356405503e-02 5.162720144250604335e+02
3.800912218932543662e-02 5.162713511350084445e+02
3.810914619508681822e-02 5.162706540101933115e+02
3.820917020084819982e-02 5.162699229910209624e+02
3.830919420660958835e-02 5.162691580189678007e+02
3.840921821237096995e-02 5.162683590365832060e+02
3.850924221813234460e-02 5.162675259874902167e+02
3.860926622389373314e-02 5.162666588163885990e+02
3.870929022965511473e-02 5.162657574690563251e+02
3.880931423541649633e-02 5.162648218923499144e+02
3.890933824117787793e-02 5.162638520342088668e+02
3.900936224693926646e-02 5.162628478436536170e+02
3.910938625270064806e-02 5.162618092707900814e+02
3.920941025846202965e-02 5.162607362668099995e+02
3.930943426422341125e-02 5.162596287839921843e+02
3.940945826998479284e-02 5.162584867757051370e+02
3.950948227574618138e-02 5.162573101964061379e+02
3.960950628150755604e-02 5.162560990016460210e+02
3.970953028726894457e-02 5.162548531480668998e+02
3.980955429303032617e-02 5.162535725934061475e+02
3.990957829879170082e-02 5.162522572964966230e+02
4.000960230455308936e-02 5.162509072172674678e+02
4.010962631031447789e-02 5.162495223167459244e+02
4.020965031607585949e-02 5.162481025570580186e+02
4.030967432183723415e-02 5.162466479014309471e+02
4.040969832759862268e-02 5.162451583141910305e+02
4.050972233336000428e-02 5.162436337607686028e+02
4.060974633912139281e-02 5.162420742076965325e+02
4.070977034488276747e-02 5.162404796226114740e+02
4.080979435064414906e-02 5.162388499742548902e+02
4.090981835640553760e-02 5.162371852324749852e+02
4.100984236216691226e-02 5.162354853682252269e+02
4.110986636792830079e-02 5.162337503535671885e+02
4.120989037368968239e-02 5.162319801616704353e+02
4.130991437945107092e-02 5.162301747668136613e+02
4.140993838521244558e-02 5.162283341443842346e+02
4.150996239097383411e-02 5.162264582708795615e+02
4.160998639673521571e-02 5.162245471239078825e+02
4.171001040249659730e-02 5.162226006821888404e+02
4.181003440825797890e-02 5.162206189255533673e+02
4.191005841401936050e-02 5.162186018349433425e+02
4.201008241978074903e-02 5.162165493924153452e+02
4.211010642554213063e-02 5.162144615811367885e+02
4.221013043130350528e-02 5.162123383853888754e+02
4.231015443706489382e-02 5.162101797905662579e+02
4.241017844282628235e-02 5.162079857831764684e+02
4.251020244858765701e-02 5.162057563508418525e+02
4.261022645434903861e-02 5.162034914822980909e+02
4.271025046011042714e-02 5.162011911673951090e+02
4.281027446587180874e-02 5.161988553970970770e+02
4.291029847163319033e-02 5.161964841634826371e+02
4.301032247739457193e-02 5.161940774597431982e+02
4.311034648315595352e-02 5.161916352801860057e+02
4.321037048891734206e-02 5.161891576202326632e+02
4.331039449467871671e-02 5.161866444764161770e+02
4.341041850044010525e-02 5.161840958463856168e+02
4.351044250620148685e-02 5.161815117289033878e+02
4.361046651196286150e-02 5.161788921238444345e+02
4.371049051772425004e-02 5.161762370321970366e+02
4.381051452348563857e-02 5.161735464560620130e+02
4.391053852924702017e-02 5.161708203986539729e+02
4.401056253500839482e-02 5.161680588642973362e+02
4.411058654076978336e-02 5.161652618584294032e+02
4.421061054653116495e-02 5.161624293875975127e+02
4.431063455229255349e-02 5.161595614594612016e+02
4.441065855805392815e-02 5.161566580827879989e+02
4.451068256381530974e-02 5.161537192674562675e+02
4.461070656957669828e-02 5.161507450244519077e+02
4.471073057533808681e-02 5.161477353658696074e+02
4.481075458109946147e-02 5.161446903049120465e+02
4.491077858686084306e-02 5.161416098558858039e+02
4.501080259262223160e-02 5.161384940342064738e+02
4.511082659838360626e-02 5.161353428563926400e+02
4.521085060414499479e-02 5.161321563400664445e+02
4.531087460990637639e-02 5.161289345039546106e+02
4.541089861566775798e-02 5.161256773678858281e+02
4.551092262142913958e-02 5.161223849527882521e+02
4.561094662719052117e-02 5.161190572806921182e+02
4.571097063295190971e-02 5.161156943747258765e+02
4.581099463871329130e-02 5.161122962591152827e+02
4.591101864447466596e-02 5.161088629591840800e+02
4.601104265023605450e-02 5.161053945013507018e+02
4.611106665599744303e-02 5.161018909131285000e+02
4.621109066175881769e-02 5.160983522231227880e+02
4.631111466752019928e-02 5.160947784610322060e+02
4.641113867328158782e-02 5.160911696576446275e+02
4.651116267904296941e-02 5.160875258448370460e+02
4.661118668480435101e-02 5.160838470555746653e+02
4.671121069056573261e-02 5.160801333239081714e+02
4.681123469632711420e-02 5.160763846849732772e+02
4.691125870208850274e-02 5.160726011749879945e+02
4.701128270784987739e-02 5.160687828312538841e+02
4.711130671361126593e-02 5.160649296921498035e+02
4.721133071937264752e-02 5.160610417971342940e+02
4.731135472513403606e-02 5.160571191867421703e+02
4.741137873089541072e-02 5.160531619025828149e+02
4.751140273665679925e-02 5.160491699873391553e+02
4.761142674241818085e-02 5.160451434847650489e+02
4.771145074817955550e-02 5.160410824396836915e+02
4.781147475394094404e-02 5.160369868979856847e+02
4.791149875970232563e-02 5.160328569066272166e+02
4.801152276546371417e-02 5.160286925136288119e+02
4.811154677122508883e-02 5.160244937680714656e+02
4.821157077698647042e-02 5.160202607200968714e+02
4.831159478274785896e-02 5.160159934209031007e+02
4.841161878850924749e-02 5.160116919227447170e+02
4.851164279427062215e-02 5.160073562789284551e+02
4.861166680003200374e-02 5.160029865438139041e+02
4.871169080579339228e-02 5.159985827728078220e+02
4.881171481155476694e-02 5.159941450223644779e+02
4.891173881731615547e-02 5.159896733499820130e+02
4.901176282307753707e-02 5.159851678142010769e+02
4.911178682883891866e-02 5.159806284746016445e+02
4.921181083460030026e-02 5.159760553918010828e+02
4.931183484036168185e-02 5.159714486274514229e+02
4.941185884612307039e-02 5.159668082442373134e+02
4.951188285188445198e-02 5.159621343058731782e+02
4.961190685764582664e-02 5.159574268771003744e+02
4.971193086340721518e-02 5.159526860236857146e+02
4.981195486916860371e-02 5.159479118124174875e+02
4.991197887492998531e-02 5.159431043111038662e+02
5.001200288069135996e-02 5.159382635885691570e+02
5.011202688645274850e-02 5.159333897146536856e+02
5.021205089221413009e-02 5.159284827602062933e+02
5.031207489797551169e-02 5.159235427970862702e+02
5.041209890373689329e-02 5.159185698981577843e+02
5.051212290949827488e-02 5.159135641372887449e+02
5.061214691525966342e-02 5.159085255893453450e+02
5.071217092102103807e-02 5.159034543301927442e+02
5.081219492678242661e-02 5.158983504366896113e+02
5.091221893254380820e-02 5.158932139866846001e+02
5.101224293830519674e-02 5.158880450590158944e+02
5.111226694406657139e-02 5.158828437335060926e+02
5.121229094982795993e-02 5.158776100909592515e+02
5.131231495558934153e-02 5.158723442131581578e+02
5.141233896135071618e-02 5.158670461828629641e+02
5.151236296711210472e-02 5.158617160838034579e+02
5.161238697287348631e-02 5.158563540006814492e+02
5.171241097863487485e-02 5.158509600191619029e+02
5.181243498439624950e-02 5.158455342258746441e+02
5.191245899015763110e-02 5.158400767084074232e+02
5.201248299591901963e-02 5.158345875553046653e+02
5.211250700168040817e-02 5.158290668560630365e+02
5.221253100744178283e-02 5.158235147011284880e+02
5.231255501320316442e-02 5.158179311818928454e+02
5.241257901896455296e-02 5.158123163906888067e+02
5.251260302472592761e-02 5.158066704207891462e+02
5.261262703048731615e-02 5.158009933664020537e+02
5.271265103624869774e-02 5.157952853226657908e+02
5.281267504201007934e-02 5.157895463856468723e+02
5.291269904777146094e-02 5.157837766523371101e+02
5.301272305353284253e-02 5.157779762206473606e+02
5.311274705929423107e-02 5.157721451894070697e+02
5.321277106505561266e-02 5.157662836583572243e+02
5.331279507081698732e-02 5.157603917281492159e+02
5.341281907657837585e-02 5.157544695003393826e+02
5.351284308233976439e-02 5.157485170773861682e+02
5.361286708810114598e-02 5.157425345626453463e+02
5.371289109386252064e-02 5.157365220603677471e+02
5.381291509962390918e-02 5.157304796756923224e+02
5.391293910538529077e-02 5.157244075146471687e+02
5.401296311114667237e-02 5.157183056841392954e+02
5.411298711690805396e-02 5.157121742919554208e+02
5.421301112266943556e-02 5.157060134467562875e+02
5.431303512843082409e-02 5.156998232580724562e+02
5.441305913419219875e-02 5.156936038363003263e+02
5.451308313995358729e-02 5.156873552926987259e+02
5.461310714571496888e-02 5.156810777393829994e+02
5.471313115147635742e-02 5.156747712893226208e+02
5.481315515723773207e-02 5.156684360563363043e+02
5.491317916299912061e-02 5.156620721550875714e+02
5.501320316876050220e-02 5.156556797010809987e+02
5.511322717452187686e-02 5.156492588106569883e+02
5.521325118028326540e-02 5.156428096009889259e+02
5.531327518604464699e-02 5.156363321900776100e+02
5.541329919180603553e-02 5.156298266967462496e+02
5.551332319756741018e-02 5.156232932406392138e+02
5.561334720332879178e-02 5.156167319422137325e+02
5.571337120909018031e-02 5.156101429227373956e+02
5.581339521485156885e-02 5.156035263042837187e+02
5.591341922061294351e-02 5.155968822097275961e+02
5.601344322637432510e-02 5.155902107627400710e+02
5.611346723213571364e-02 5.155835120877848112e+02
5.621349123789709523e-02 5.155767863101119701e+02
5.631351524365847683e-02 5.155700335557554581e+02
5.641353924941985842e-02 5.155632539515272583e+02
5.651356325518124002e-02 5.155564476250121970e+02
5.661358726094262162e-02 5.155496147045649877e+02
5.671361126670400321e-02 5.155427553193044332e+02
5.681363527246539175e-02 5.155358695991074001e+02
5.691365927822677334e-02 5.155289576746071134e+02
5.701368328398814800e-02 5.155220196771862220e+02
5.711370728974953653e-02 5.155150557389717960e+02
5.721373129551092507e-02 5.155080659928321438e+02
5.731375530127230666e-02 5.155010505723698770e+02
5.741377930703368132e-02 5.154940096119192958e+02
5.751380331279506986e-02 5.154869432465394539e+02
5.761382731855645145e-02 5.154798516120106342e+02
5.771385132431783305e-02 5.154727348448288922e+02
5.781387533007921464e-02 5.154655930822005985e+02
5.791389933584059624e-02 5.154584264620386875e+02
5.801392334160198477e-02 5.154512351229564047e+02
5.811394734736335943e-02 5.154440192042627586e+02
5.821397135312474796e-02 5.154367788459579742e+02
5.831399535888612956e-02 5.154295141887270120e+02
5.841401936464751810e-02 5.154222253739367261e+02
5.851404337040889275e-02 5.154149125436275654e+02
5.861406737617028129e-02 5.154075758405126635e+02
5.871409138193166288e-02 5.154002154079679485e+02
5.881411538769304448e-02 5.153928313900308922e+02
5.891413939345442607e-02 5.153854239313930066e+02
5.901416339921580767e-02 5.153779931773954104e+02
5.911418740497719621e-02 5.153705392740242814e+02
5.921421141073857086e-02 5.153630623679034670e+02
5.931423541649995246e-02 5.153555626062919828e+02
5.941425942226134099e-02 5.153480401370758273e+02
5.951428342802272953e-02 5.153404951087658219e+02
5.961430743378410418e-02 5.153329276704895392e+02
5.971433143954548578e-02 5.153253379719872100e+02
5.981435544530687431e-02 5.153177261636070625e+02
5.991437945106825591e-02 5.153100923962967954e+02
6.001440345682963751e-02 5.153024368216026687e+02
6.011442746259101910e-02 5.152947595916609771e+02
6.021445146835240070e-02 5.152870608591938435e+02
6.031447547411378229e-02 5.152793407775026253e+02
6.041449947987516389e-02 5.152715995004626848e+02
6.051452348563655242e-02 5.152638371825210015e+02
6.061454749139793402e-02 5.152560539786851450e+02
6.071457149715930868e-02 5.152482500445223650e+02
6.081459550292069721e-02 5.152404255361519745e+02
6.091461950868208575e-02 5.152325806102392107e+02
6.101464351444346734e-02 5.152247154239921656e+02
6.111466752020484200e-02 5.152168301351541686e+02
6.121469152596623053e-02 5.152089249019976478e+02
6.131471553172761213e-02 5.152009998833203781e+02
6.141473953748900066e-02 5.151930552384397970e+02
6.151476354325037532e-02 5.151850911271849327e+02
6.161478754901175692e-02 5.151771077098933347e+02
6.171481155477314545e-02 5.151691051474043661e+02
6.181483556053452011e-02 5.151610836010527237e+02
6.191485956629590864e-02 5.151530432326652544e+02
6.201488357205729024e-02 5.151449842045517471e+02
6.211490757781867877e-02 5.151369066795026583e+02
6.221493158358005343e-02 5.151288108207802452e+02
6.231495558934144197e-02 5.151206967921152682e+02
6.241497959510282356e-02 5.151125647577001700e+02
6.251500360086420516e-02 5.151044148821828230e+02
6.261502760662558675e-02 5.150962473306625498e+02
6.271505161238696835e-02 5.150880622686811421e+02
6.281507561814834995e-02 5.150798598622203599e+02
6.291509962390973154e-02 5.150716402776943141e+02
6.301512362967111314e-02 5.150634036819446919e+02
6.311514763543249473e-02 5.150551502422329122e+02
6.321517164119389021e-02 5.150468801262362604e+02
6.331519564695525792e-02 5.150385935020418628e+02
6.341521965271665340e-02 5.150302905381389564e+02
6.351524365847803499e-02 5.150219714034163871e+02
6.361526766423941659e-02 5.150136362671526058e+02
6.371529167000079819e-02 5.150052852990127121e+02
6.381531567576217978e-02 5.149969186690416336e+02
6.391533968152356138e-02 5.149885365476585548e+02
6.401536368728494297e-02 5.149801391056491866e+02
6.411538769304632457e-02 5.149717265141634925e+02
6.421541169880770616e-02 5.149632989447054570e+02
6.431543570456910164e-02 5.149548565691297881e+02
6.441545971033046936e-02 5.149463995596358927e+02
6.451548371609186483e-02 5.149379280887608274e+02
6.461550772185324643e-02 5.149294423293737282e+02
6.471553172761462802e-02 5.149209424546705804e+02
6.481555573337600962e-02 5.149124286381662614e+02
6.491557973913739121e-02 5.149039010536906744e+02
6.501560374489877281e-02 5.148953598753821552e+02
6.511562775066015440e-02 5.148868052776807644e+02
6.521565175642153600e-02 5.148782374353221485e+02
6.531567576218291760e-02 5.148696565233332194e+02
6.541569976794431307e-02 5.148610627170235148e+02
6.551572377370568079e-02 5.148524561919817870e+02
6.561574777946706238e-02 5.148438371240682727e+02
6.571577178522845786e-02 5.148352056894091220e+02
6.581579579098983945e-02 5.148265620643895772e+02
6.591581979675120717e-02 5.148179064256498805e+02
6.601584380251260264e-02 5.148092389500778836e+02
6.611586780827398424e-02 5.148005598148022273e+02
6.621589181403536584e-02 5.147918691971872249e+02
6.631591581979674743e-02 5.147831672748272922e+02
6.641593982555812903e-02 5.147744542255401257e+02
6.651596383131951062e-02 5.147657302273604500e+02
6.661598783708089222e-02 5.147569954585344476e+02
6.671601184284227382e-02 5.147482500975132780e+02
6.681603584860365541e-02 5.147394943229473938e+02
6.691605985436505089e-02 5.147307283136794922e+02
6.701608386012641860e-02 5.147219522487406493e+02
6.711610786588781408e-02 5.147131663073412255e+02
6.721613187164919567e-02 5.147043706688676821e+02
6.731615587741057727e-02 5.146955655128730314e+02
6.741617988317195886e-02 5.146867510190744497e+02
6.751620388893334046e-02 5.146779273673460011e+02
6.761622789469472206e-02 5.146690947377093153e+02
6.771625190045610365e-02 5.146602533103337009e+02
6.781627590621748525e-02 5.146514032655242090e+02
6.791629991197886684e-02 5.146425447837177671e+02
6.801632391774026232e-02 5.146336780454785185e+02
6.811634792350163004e-02 5.146248032314902048e+02
6.821637192926302551e-02 5.146159205225491178e+02
6.831639593502440710e-02 5.146070300995600064e+02
6.841641994078578870e-02 5.145981321435294831e+02
6.851644394654717030e-02 5.145892268355584065e+02
6.861646795230855189e-02 5.145803143568379028e+02
6.871649195806993349e-02 5.145713948886418621e+02
6.881651596383131508e-02 5.145624686123217089e+02
6.891653996959269668e-02 5.145535357092992399e+02
6.901656397535407828e-02 5.145445963610620765e+02
6.911658798111547375e-02 5.145356507491557068e+02
6.921661198687684147e-02 5.145266990551796198e+02
6.931663599263822306e-02 5.145177414607790070e+02
6.941665999839961854e-02 5.145087781476398732e+02
6.951668400416100013e-02 5.144998092974835799e+02
6.961670800992236785e-02 5.144908350920592284e+02
6.971673201568376332e-02 5.144818557131391117e+02
6.981675602144514492e-02 5.144728713425113256e+02
6.991678002720652652e-02 5.144638821619738565e+02
7.001680403296790811e-02 5.144548883533308299e+02
7.011682803872928971e-02 5.144458900983827334e+02
7.021685204449067130e-02 5.144368875789241429e+02
7.031687605025206678e-02 5.144278809767340590e+02
7.041690005601343449e-02 5.144188704735724968e+02
7.051692406177481609e-02 5.144098562511750288e+02
7.061694806753621156e-02 5.144008384912425527e+02
7.071697207329757928e-02 5.143918173754410645e+02
7.081699607905897476e-02 5.143827930853907446e+02
7.091702008482035635e-02 5.143737658026631152e+02
7.101704409058173795e-02 5.143647357087733099e+02
7.111706809634311954e-02 5.143557029851758671e+02
7.121709210210450114e-02 5.143466678132559764e+02
7.131711610786588273e-02 5.143376303743264089e+02
7.141714011362726433e-02 5.143285908496192178e+02
7.151716411938864593e-02 5.143195494202834652e+02
7.161718812515002752e-02 5.143105062673736256e+02
7.171721213091142300e-02 5.143014615718484492e+02
7.181723613667279071e-02 5.142924155145627765e+02
7.191726014243418619e-02 5.142833682762632179e+02
7.201728414819556778e-02 5.142743200375799688e+02
7.211730815395694938e-02 5.142652709790240806e+02
7.221733215971833098e-02 5.142562212809779112e+02
7.231735616547971257e-02 5.142471711236916008e+02
7.241738017124109417e-02 5.142381206872772736e+02
7.251740417700247576e-02 5.142290701517026719e+02
7.261742818276385736e-02 5.142200196967850161e+02
7.271745218852523895e-02 5.142109695021849802e+02
7.281747619428663443e-02 5.142019197474022576e+02
7.291750020004801602e-02 5.141928706117682850e+02
7.301752420580938374e-02 5.141838222744415816e+02
7.311754821157077922e-02 5.141747749144004729e+02
7.321757221733216081e-02 5.141657287104395664e+02
7.331759622309352853e-02 5.141566838411621347e+02
7.341762022885492400e-02 5.141476404849746586e+02
7.351764423461630560e-02 5.141385988200821657e+02
7.361766824037768719e-02 5.141295590244812956e+02
7.371769224613906879e-02 5.141205212759547294e+02
7.381771625190045039e-02 5.141114857520669830e+02
7.391774025766183198e-02 5.141024526301566766e+02
7.401776426342322746e-02 5.140934220873314189e+02
7.411778826918459517e-02 5.140843943004640550e+02
7.421781227494597677e-02 5.140753694461845953e+02
7.431783628070737224e-02 5.140663477008755535e+02
7.441786028646873996e-02 5.140573292406661494e+02
7.451788429223013543e-02 5.140483142414278745e+02
7.461790829799151703e-02 5.140393028787666481e+02
7.471793230375289863e-02 5.140302953280199745e+02
7.481795630951428022e-02 5.140212917642485309e+02
7.491798031527566182e-02 5.140122923622332110e+02
7.501800432103704341e-02 5.140032972964681903e+02
7.511802832679842501e-02 5.139943067411554694e+02
7.521805233255980661e-02 5.139853208702006668e+02
7.531807633832118820e-02 5.139763398572051756e+02
7.541810034408258367e-02 5.139673638754627518e+02
7.551812434984396527e-02 5.139583930979541719e+02
7.561814835560534687e-02 5.139494276973405249e+02
7.571817236136672846e-02 5.139404678459580964e+02
7.581819636712811006e-02 5.139315137158137077e+02
7.591822037288949165e-02 5.139225654785785764e+02
7.601824437865087325e-02 5.139136233055846787e+02
7.611826838441225485e-02 5.139046873678157681e+02
7.621829239017363644e-02 5.138957578359066929e+02
7.631831639593501804e-02 5.138868348801346428e+02
7.641834040169639963e-02 5.138779186704150561e+02
7.651836440745779511e-02 5.138690093762972992e+02
7.661838841321917670e-02 5.138601071669576186e+02
7.671841241898054442e-02 5.138512122111949338e+02
7.681843642474193989e-02 5.138423246774259496e+02
7.691846043050332149e-02 5.138334447336790163e+02
7.701848443626468921e-02 5.138245725475909467e+02
7.711850844202608468e-02 5.138157082863982623e+02
7.721853244778746628e-02 5.138068521169361702e+02
7.731855645354884787e-02 5.137980042056314005e+02
7.741858045931022947e-02 5.137891647184960675e+02
7.751860446507161106e-02 5.137803338211250548e+02
7.761862847083299266e-02 5.137715116786898761e+02
7.771865247659438813e-02 5.137626984559334460e+02
7.781867648235575585e-02 5.137538943171642813e+02
7.791870048811713745e-02 5.137450994262536597e+02
7.801872449387853292e-02 5.137363139466299344e+02
7.811874849963990064e-02 5.137275380412713730e+02
7.821877250540129611e-02 5.137187718727059291e+02
7.831879651116266383e-02 5.137100156029994196e+02
7.841882051692405931e-02 5.137012693937591621e+02
7.851884452268544090e-02 5.136925334061219246e+02
7.861886852844682250e-02 5.136838078007532431e+02
7.871889253420820409e-02 5.136750927378403730e+02
7.881891653996958569e-02 5.136663883770899020e+02
7.891894054573098116e-02 5.136576948777199050e+02
7.901896455149236276e-02 5.136490123984576712e+02
7.911898855725373048e-02 5.136403410975344741e+02
7.921901256301511207e-02 5.136316811326804554e+02
7.931903656877650755e-02 5.136230326611201917e+02
7.941906057453788914e-02 5.136143958395682603e+02
7.951908458029927074e-02 5.136057708242237823e+02
7.961910858606065233e-02 5.135971577707672395e+02
7.971913259182203393e-02 5.135885568343543355e+02
7.981915659758340165e-02 5.135799681696130392e+02
7.991918060334479712e-02 5.135713919306383559e+02
8.001920460910617872e-02 5.135628282709873247e+02
8.011922861486756031e-02 5.135542773436753805e+02
8.021925262062895579e-02 5.135457393011718068e+02
8.031927662639033738e-02 5.135372142953943921e+02
8.041930063215171898e-02 5.135287024777064744e+02
8.051932463791310057e-02 5.135202039989118248e+02
8.061934864367446829e-02 5.135117190092502142e+02
8.071937264943584989e-02 5.135032476583932066e+02
8.081939665519724536e-02 5.134947900954402940e+02
8.091942066095862696e-02 5.134863464689137800e+02
8.101944466672000855e-02 5.134779169267560519e+02
8.111946867248140403e-02 5.134695016163227592e+02
8.121949267824278562e-02 5.134611006843817904e+02
8.131951668400415334e-02 5.134527142771081571e+02
8.141954068976553494e-02 5.134443425400766046e+02
8.151956469552691653e-02 5.134359856182629755e+02
8.161958870128829813e-02 5.134276436560365937e+02
8.171961270704969360e-02 5.134193167971558296e+02
8.181963671281107520e-02 5.134110051847678733e+02
8.191966071857245679e-02 5.134027089613998669e+02
8.201968472433382451e-02 5.133944282689589045e+02
8.211970873009521998e-02 5.133861632487241877e+02
8.221973273585660158e-02 5.133779140413482764e+02
8.231975674161798318e-02 5.133696807868484484e+02
8.241978074737936477e-02 5.133614636246056762e+02
8.251980475314074637e-02 5.133532626933588290e+02
8.261982875890214184e-02 5.133450781312035360e+02
8.271985276466352344e-02 5.133369100755855925e+02
8.281987677042489115e-02 5.133287586632981174e+02
8.291990077618627275e-02 5.133206240304799621e+02
8.301992478194766822e-02 5.133125063126090026e+02
8.311994878770904982e-02 5.133044056444994112e+02
8.321997279347043142e-02 5.132963221602991553e+02
8.331999679923181301e-02 5.132882559934860183e+02
8.342002080499319461e-02 5.132802072768621429e+02
8.352004481075456233e-02 5.132721761425539171e+02
8.362006881651595780e-02 5.132641627220049259e+02
8.372009282227733939e-02 5.132561671459754962e+02
8.382011682803872099e-02 5.132481895445365581e+02
8.392014083380011646e-02 5.132402300470691898e+02
8.402016483956149806e-02 5.132322887822580242e+02
8.412018884532287966e-02 5.132243658780904525e+02
8.422021285108426125e-02 5.132164614618523046e+02
8.432023685684562897e-02 5.132085756601240973e+02
8.442026086260701057e-02 5.132007085987789878e+02
8.452028486836840604e-02 5.131928604029781127e+02
8.462030887412978764e-02 5.131850311971688825e+02
8.472033287989116923e-02 5.131772211050796386e+02
8.482035688565256470e-02 5.131694302497203353e+02
8.492038089141394630e-02 5.131616587533746952e+02
8.502040489717531402e-02 5.131539067376003231e+02
8.512042890293669561e-02 5.131461743232250683e+02
8.522045290869807721e-02 5.131384616303432722e+02
8.532047691445945881e-02 5.131307687783141773e+02
8.542050092022085428e-02 5.131230958857563564e+02
8.552052492598223588e-02 5.131154430705480536e+02
8.562054893174361747e-02 5.131078104498221819e+02
8.572057293750501294e-02 5.131001981399637089e+02
8.582059694326638066e-02 5.130926062566071550e+02
8.592062094902776226e-02 5.130850349146348890e+02
8.602064495478914385e-02 5.130774842281715564e+02
8.612066896055052545e-02 5.130699543105840803e+02
8.622069296631190705e-02 5.130624452744777955e+02
8.632071697207330252e-02 5.130549572316942886e+02
8.642074097783468412e-02 5.130474902933071917e+02
8.652076498359605183e-02 5.130400445696216138e+02
8.662078898935743343e-02 5.130326201701711852e+02
8.672081299511882890e-02 5.130252172037137370e+02
8.682083700088021050e-02 5.130178357782316425e+02
8.692086100664159209e-02 5.130104760009264737e+02
8.702088501240297369e-02 5.130031379782190015e+02
8.712090901816435529e-02 5.129958218157452166e+02
8.722093302392572300e-02 5.129885276183538281e+02
8.732095702968711848e-02 5.129812554901055819e+02
8.742098103544850007e-02 5.129740055342699634e+02
8.752100504120988167e-02 5.129667778533214459e+02
8.762102904697127714e-02 5.129595725489399456e+02
8.772105305273265874e-02 5.129523897220068420e+02
8.782107705849404033e-02 5.129452294726039554e+02
8.792110106425542193e-02 5.129380919000091126e+02
8.802112507001678965e-02 5.129309771026973976e+02
8.812114907577817124e-02 5.129238851783363771e+02
8.822117308153956672e-02 5.129168162237849629e+02
8.832119708730094831e-02 5.129097703350920483e+02
8.842122109306232991e-02 5.129027476074933247e+02
8.852124509882372538e-02 5.128957481354098036e+02
8.862126910458510698e-02 5.128887720124471343e+02
8.872129311034647470e-02 5.128818193313910569e+02
8.882131711610785629e-02 5.128748901842083114e+02
8.892134112186923789e-02 5.128679846620425451e+02
8.902136512763061948e-02 5.128611028552148809e+02
8.912138913339201496e-02 5.128542448532200524e+02
8.922141313915339655e-02 5.128474107447258348e+02
8.932143714491477815e-02 5.128406006175703169e+02
8.942146115067617362e-02 5.128338145587625831e+02
8.952148515643754134e-02 5.128270526544785071e+02
8.962150916219892294e-02 5.128203149900593871e+02
8.972153316796030453e-02 5.128136016500131973e+02
8.982155717372168613e-02 5.128069127180096984e+02
8.992158117948306773e-02 5.128002482768804384e+02
9.002160518524446320e-02 5.127936084086172741e+02
9.012162919100584479e-02 5.127869931943718029e+02
9.022165319676721251e-02 5.127804027144521797e+02
9.032167720252859411e-02 5.127738370483224344e+02
9.042170120828998958e-02 5.127672962746031544e+02
9.052172521405137118e-02 5.127607804710659138e+02
9.062174921981275277e-02 5.127542897146367977e+02
9.072177322557413437e-02 5.127478240813913999e+02
9.082179723133551597e-02 5.127413836465568693e+02
9.092182123709688368e-02 5.127349684845080446e+02
9.102184524285827916e-02 5.127285786687677955e+02
9.112186924861966075e-02 5.127222142720054308e+02
9.122189325438104235e-02 5.127158753660360162e+02
9.132191726014243782e-02 5.127095620218198064e+02
9.142194126590381942e-02 5.127032743094592888e+02
9.152196527166520101e-02 5.126970122982014573e+02
9.162198927742658261e-02 5.126907760564331511e+02
9.172201328318795033e-02 5.126845656516837835e+02
9.182203728894933192e-02 5.126783811506226129e+02
9.192206129471072740e-02 5.126722226190565834e+02
9.202208530047210899e-02 5.126660901219338484e+02
9.212210930623349059e-02 5.126599837233388826e+02
9.222213331199488606e-02 5.126539034864925952e+02
9.232215731775626766e-02 5.126478494737538085e+02
9.242218132351763538e-02 5.126418217466166425e+02
9.252220532927901697e-02 5.126358203657104013e+02
9.262222933504039857e-02 5.126298453907990051e+02
9.272225334080178016e-02 5.126238968807808760e+02
9.282227734656317564e-02 5.126179748936876877e+02
9.292230135232455723e-02 5.126120794866848200e+02
9.302232535808593883e-02 5.126062107160704500e+02
9.312234936384733430e-02 5.126003686372748689e+02
9.322237336960870202e-02 5.125945533048604830e+02
9.332239737537008362e-02 5.125887647725216993e+02
9.342242138113146521e-02 5.125830030930840167e+02
9.352244538689284681e-02 5.125772683185043661e+02
9.362246939265422840e-02 5.125715604998708841e+02
9.372249339841562388e-02 5.125658796874022300e+02
9.382251740417700547e-02 5.125602259304475865e+02
9.392254140993837319e-02 5.125545992774875685e+02
9.402256541569975479e-02 5.125489997761319501e+02
9.412258942146115026e-02 5.125434274731219375e+02
9.422261342722253186e-02 5.125378824143289194e+02
9.432263743298391345e-02 5.125323646447540114e+02
9.442266143874529505e-02 5.125268742085302165e+02
9.452268544450667664e-02 5.125214111489195830e+02
9.462270945026807212e-02 5.125159755083159325e+02
9.472273345602943984e-02 5.125105673282430416e+02
9.482275746179082143e-02 5.125051866493566877e+02
9.492278146755220303e-02 5.124998335114431711e+02
9.502280547331359850e-02 5.124945079534204524e+02
9.512282947907498010e-02 5.124892100133381518e+02
9.522285348483636169e-02 5.124839397283783455e+02
9.532287749059774329e-02 5.124786971348557927e+02
9.542290149635911101e-02 5.124734822682170261e+02
9.552292550212049260e-02 5.124682951630426260e+02
9.562294950788188808e-02 5.124631358530464240e+02
9.572297351364326967e-02 5.124580043710776636e+02
9.582299751940465127e-02 5.124529007491183847e+02
9.592302152516604674e-02 5.124478250182876309e+02
9.602304553092742834e-02 5.124427772088395159e+02
9.612306953668879606e-02 5.124377573501640200e+02
9.622309354245017765e-02 5.124327654707898319e+02
9.632311754821155925e-02 5.124278015983815067e+02
9.642314155397294084e-02 5.124228657597442407e+02
9.652316555973433632e-02 5.124179579808205744e+02
9.662318956549571791e-02 5.124130782866944855e+02
9.672321357125709951e-02 5.124082267015894558e+02
9.682323757701849498e-02 5.124034032488723369e+02
9.692326158277986270e-02 5.123986079510507352e+02
9.702328558854124430e-02 5.123938408297781280e+02
9.712330959430262589e-02 5.123891019058496568e+02
9.722333360006400749e-02 5.123843911992075846e+02
9.732335760582538908e-02 5.123797087289402725e+02
9.742338161158678456e-02 5.123750545132836578e+02
9.752340561734816615e-02 5.123704285696218221e+02
9.762342962310953387e-02 5.123658309144892655e+02
9.772345362887091547e-02 5.123612615635699967e+02
9.782347763463231094e-02 5.123567205317006028e+02
9.792350164039369254e-02 5.123522078328714997e+02
9.802352564615507413e-02 5.123477234802261364e+02
9.812354965191645573e-02 5.123432674860648603e+02
9.822357365767783732e-02 5.123388398618438941e+02
9.832359766343923280e-02 5.123344406181777231e+02
9.842362166920060051e-02 5.123300697648420510e+02
9.852364567496198211e-02 5.123257273107707306e+02
9.862366968072336371e-02 5.123214132640629259e+02
9.872369368648475918e-02 5.123171276319797016e+02
9.882371769224614078e-02 5.123128704209478883e+02
9.892374169800752237e-02 5.123086416365616742e+02
9.902376570376890397e-02 5.123044412835829462e+02
9.912378970953027169e-02 5.123002693659436773e+02
9.922381371529165328e-02 5.122961258867475181e+02
9.932383772105304875e-02 5.122920108482715023e+02
9.942386172681443035e-02 5.122879242519669560e+02
9.952388573257581195e-02 5.122838660984622265e+02
9.962390973833720742e-02 5.122798363875635914e+02
9.972393374409858902e-02 5.122758351182569641e+02
9.982395774985997061e-02 5.122718622887114179e+02
9.992398175562133833e-02 5.122679178962775950e+02
1.000240057613827199e-01 5.122640019374928215e+02
1.001240297671441015e-01 5.122601144080820177e+02
1.002240537729054970e-01 5.122562553029586070e+02
1.003240777786668786e-01 5.122524246162269037e+02
1.004241017844282602e-01 5.122486223411846140e+02
1.005241257901896557e-01 5.122448484703253371e+02
1.006241497959510234e-01 5.122411029953379966e+02
1.007241738017124050e-01 5.122373859071127526e+02
1.008241978074737866e-01 5.122336971957390688e+02
1.009242218132351682e-01 5.122300368505101460e+02
1.010242458189965498e-01 5.122264048599257649e+02
1.011242698247579452e-01 5.122228012116921718e+02
1.012242938305193268e-01 5.122192258927260582e+02
1.013243178362806945e-01 5.122156788891545602e+02
1.014243418420420761e-01 5.122121601863220803e+02
1.015243658478034716e-01 5.122086697687860806e+02
1.016243898535648532e-01 5.122052076203250408e+02
1.017244138593262348e-01 5.122017737239383450e+02
1.018244378650876164e-01 5.121983680618481003e+02
1.019244618708489980e-01 5.121949906155026611e+02
1.020244858766103935e-01 5.121916413655793576e+02
1.021245098823717612e-01 5.121883202919843825e+02
1.022245338881331428e-01 5.121850273738596115e+02
1.023245578938945244e-01 5.121817625895802166e+02
1.024245818996559199e-01 5.121785259167616005e+02
1.025246059054173015e-01 5.121753173322580324e+02
1.026246299111786831e-01 5.121721368121684463e+02
1.027246539169400646e-01 5.121689843318375779e+02
1.028246779227014324e-01 5.121658598658582378e+02
1.029247019284628140e-01 5.121627633880743815e+02
1.030247259342242094e-01 5.121596948715832696e+02
1.031247499399855910e-01 5.121566542887408104e+02
1.032247739457469726e-01 5.121536416111600829e+02
1.033247979515083681e-01 5.121506568097166792e+02
1.034248219572697497e-01 5.121476998545517745e+02
1.035248459630311313e-01 5.121447707150736051e+02
1.036248699687924990e-01 5.121418693599606513e+02
1.037248939745538806e-01 5.121389957571656169e+02
1.038249179803152622e-01 5.121361498739152012e+02
1.039249419860766577e-01 5.121333316767188535e+02
1.040249659918380393e-01 5.121305411313638842e+02
1.041249899975994209e-01 5.121277782029255832e+02
1.042250140033608163e-01 5.121250428557661962e+02
1.043250380091221841e-01 5.121223350535385634e+02
1.044250620148835657e-01 5.121196547591900980e+02
1.045250860206449472e-01 5.121170019349650602e+02
1.046251100264063288e-01 5.121143765424068306e+02
1.047251340321677104e-01 5.121117785423637088e+02
1.048251580379291059e-01 5.121092078949891402e+02
1.049251820436904875e-01 5.121066645597466049e+02
1.050252060494518552e-01 5.121041484954113230e+02
1.051252300552132368e-01 5.121016596600752564e+02
1.052252540609746323e-01 5.120991980111488147e+02
1.053252780667360139e-01 5.120967635053650611e+02
1.054253020724973955e-01 5.120943560987821002e+02
1.055253260782587771e-01 5.120919757467868294e+02
1.056253500840201587e-01 5.120896224040993729e+02
1.057253740897815542e-01 5.120872960247731953e+02
1.058253980955429219e-01 5.120849965622027185e+02
1.059254221013043035e-01 5.120827239691225259e+02
1.060254461070656851e-01 5.120804781976138429e+02
1.061254701128270805e-01 5.120782591991064692e+02
1.062254941185884621e-01 5.120760669243833263e+02
1.063255181243498437e-01 5.120739013235814809e+02
1.064255421301112253e-01 5.120717623461990797e+02
1.065255661358725930e-01 5.120696499410954630e+02
1.066255901416339746e-01 5.120675640564971900e+02
1.067256141473953701e-01 5.120655046400003130e+02
1.068256381531567517e-01 5.120634716385745833e+02
1.069256621589181333e-01 5.120614649985656115e+02
1.070256861646795288e-01 5.120594846657012340e+02
1.071257101704409104e-01 5.120575305850920813e+02
1.072257341762022920e-01 5.120556027012369213e+02
1.073257581819636597e-01 5.120537009580257291e+02
1.074257821877250413e-01 5.120518252987448022e+02
1.075258061934864229e-01 5.120499756660777848e+02
1.076258301992478184e-01 5.120481520021099868e+02
1.077258542050091999e-01 5.120463542483363426e+02
1.078258782107705815e-01 5.120445823456578864e+02
1.079259022165319770e-01 5.120428362343922117e+02
1.080259262222933447e-01 5.120411158542729027e+02
1.081259502280547263e-01 5.120394211444549910e+02
1.082259742338161079e-01 5.120377520435197312e+02
1.083259982395774895e-01 5.120361084894757369e+02
1.084260222453388711e-01 5.120344904197653477e+02
1.085260462511002666e-01 5.120328977712678125e+02
1.086260702568616482e-01 5.120313304803021310e+02
1.087260942626230298e-01 5.120297884826321706e+02
1.088261182683843975e-01 5.120282717134705308e+02
1.089261422741457930e-01 5.120267801074818408e+02
1.090261662799071746e-01 5.120253135987871929e+02
1.091261902856685562e-01 5.120238721209675532e+02
1.092262142914299378e-01 5.120224556070676272e+02
1.093262382971913194e-01 5.120210639896019984e+02
1.094262623029527148e-01 5.120196972005560383e+02
1.095262863087140826e-01 5.120183551713919314e+02
1.096263103144754641e-01 5.120170378330521999e+02
1.097263343202368457e-01 5.120157451159639095e+02
1.098263583259982412e-01 5.120144769500417397e+02
1.099263823317596228e-01 5.120132332646943496e+02
1.100264063375210044e-01 5.120120139888257427e+02
1.101264303432823860e-01 5.120108190508410644e+02
1.102264543490437537e-01 5.120096483786516046e+02
1.103264783548051353e-01 5.120085018996751387e+02
1.104265023605665308e-01 5.120073795408447950e+02
1.105265263663279124e-01 5.120062812286108738e+02
1.106265503720892940e-01 5.120052068889443717e+02
1.107265743778506895e-01 5.120041564473424387e+02
1.108265983836120711e-01 5.120031298288324706e+02
1.109266223893734526e-01 5.120021269579759746e+02
1.110266463951348204e-01 5.120011477588727757e+02
1.111266704008962020e-01 5.120001921551651094e+02
1.112266944066575836e-01 5.119992600700433059e+02
1.113267184124189790e-01 5.119983514262473818e+02
1.114267424181803606e-01 5.119974661460738616e+02
1.115267664239417422e-01 5.119966041513798700e+02
1.116267904297031377e-01 5.119957653635846100e+02
1.117268144354645054e-01 5.119949497036766957e+02
1.118268384412258870e-01 5.119941570922189271e+02
1.119268624469872686e-01 5.119933874493493704e+02
1.120268864527486502e-01 5.119926406947876671e+02
1.121269104585100318e-01 5.119919167478411168e+02
1.122269344642714273e-01 5.119912155274045062e+02
1.123269584700328089e-01 5.119905369519699434e+02
1.124269824757941905e-01 5.119898809396268007e+02
1.125270064815555582e-01 5.119892474080680245e+02
1.126270304873169537e-01 5.119886362745957626e+02
1.127270544930783353e-01 5.119880474561222741e+02
1.128270784988397168e-01 5.119874808691780572e+02
1.129271025046010984e-01 5.119869364299142376e+02
1.130271265103624800e-01 5.119864140541074562e+02
1.131271505161238755e-01 5.119859136571640192e+02
1.132271745218852432e-01 5.119854351541252413e+02
1.133271985276466248e-01 5.119849784596715381e+02
1.134272225334080064e-01 5.119845434881262349e+02
1.135272465391694019e-01 5.119841301534606828e+02
1.136272705449307835e-01 5.119837383692988055e+02
1.137272945506921651e-01 5.119833680489211929e+02
1.138273185564535467e-01 5.119830191052701593e+02
1.139273425622149283e-01 5.119826914509542348e+02
1.140273665679762960e-01 5.119823849982508932e+02
1.141273905737376915e-01 5.119820996591147946e+02
1.142274145794990731e-01 5.119818353451782968e+02
1.143274385852604547e-01 5.119815919677587317e+02
1.144274625910218501e-01 5.119813694378615878e+02
1.145274865967832317e-01 5.119811676661867068e+02
1.146275106025446133e-01 5.119809865631295338e+02
1.147275346083059810e-01 5.119808260387895871e+02
1.148275586140673626e-01 5.119806860029725044e+02
1.149275826198287442e-01 5.119805663651957275e+02
1.150276066255901397e-01 5.119804670346918556e+02
1.151276306313515213e-01 5.119803879204150121e+02
1.152276546371129029e-01 5.119803289310440846e+02
1.153276786428742984e-01 5.119802899749875564e+02
1.154277026486356661e-01 5.119802709603893049e+02
1.155277266543970477e-01 5.119802717951297382e+02
1.156277506601584293e-01 5.119802923868355720e+02
1.157277746659198109e-01 5.119803326428802848e+02
1.158277986716811925e-01 5.119803924703903704e+02
1.159278226774425880e-01 5.119804717762491464e+02
1.160278466832039695e-01 5.119805704671031208e+02
1.161278706889653511e-01 5.119806884493640950e+02
1.162278946947267189e-01 5.119808256292155875e+02
1.163279187004881143e-01 5.119809819126174375e+02
1.164279427062494959e-01 5.119811572053092732e+02
1.165279667120108775e-01 5.119813514128163092e+02
1.166279907177722591e-01 5.119815644404528143e+02
1.167280147235336407e-01 5.119817961933282504e+02
1.168280387292950362e-01 5.119820465763500579e+02
1.169280627350564039e-01 5.119823154942297947e+02
1.170280867408177855e-01 5.119826028514871723e+02
1.171281107465791671e-01 5.119829085524546599e+02
1.172281347523405626e-01 5.119832325012822025e+02
1.173281587581019442e-01 5.119835746019419958e+02
1.174281827638633258e-01 5.119839347582324081e+02
1.175282067696247074e-01 5.119843128737838356e+02
1.176282307753860890e-01 5.119847088520619991e+02
1.177282547811474567e-01 5.119851225963736852e+02
1.178282787869088521e-01 5.119855540098708389e+02
1.179283027926702337e-01 5.119860029955545428e+02
1.180283267984316153e-01 5.119864694562816112e+02
1.181283508041930108e-01 5.119869532947668631e+02
1.182283748099543924e-01 5.119874544135888641e+02
1.183283988157157740e-01 5.119879727151948146e+02
1.184284228214771417e-01 5.119885081019049835e+02
1.185284468272385233e-01 5.119890604759167445e+02
1.186284708329999049e-01 5.119896297393101463e+02
1.187284948387613004e-01 5.119902157940508687e+02
1.188285188445226820e-01 5.119908185419978963e+02
1.189285428502840636e-01 5.119914378849038599e+02
1.190285668560454591e-01 5.119920737244237898e+02
1.191285908618068268e-01 5.119927259621166513e+02
1.192286148675682084e-01 5.119933944994514832e+02
1.193286388733295900e-01 5.119940792378114338e+02
1.194286628790909716e-01 5.119947800785000709e+02
1.195286868848523532e-01 5.119954969227416655e+02
1.196287108906137486e-01 5.119962296716910259e+02
1.197287348963751302e-01 5.119969782264340665e+02
1.198287589021365118e-01 5.119977424879940031e+02
1.199287829078978795e-01 5.119985223573367534e+02
1.200288069136592750e-01 5.119993177353734382e+02
1.201288309194206566e-01 5.120001285229664063e+02
1.202288549251820382e-01 5.120009546209334985e+02
1.203288789309434198e-01 5.120017959300519124e+02
1.204289029367048014e-01 5.120026523510642846e+02
1.205289269424661969e-01 5.120035237846806240e+02
1.206289509482275646e-01 5.120044101315858143e+02
1.207289749539889462e-01 5.120053112924421157e+02
1.208289989597503278e-01 5.120062271678939396e+02
1.209290229655117233e-01 5.120071576585730782e+02
1.210290469712731048e-01 5.120081026651032516e+02
1.211290709770344864e-01 5.120090620881027235e+02
1.212290949827958680e-01 5.120100358281912349e+02
1.213291189885572496e-01 5.120110237859928475e+02
1.214291429943186174e-01 5.120120258621412859e+02
1.215291670000800128e-01 5.120130419572839173e+02
1.216291910058413944e-01 5.120140719720864126e+02
1.217292150116027760e-01 5.120151158072369526e+02
1.218292390173641715e-01 5.120161733634496386e+02
1.219292630231255531e-01 5.120172445414718823e+02
1.220292870288869347e-01 5.120183292420871339e+02
1.221293110346483024e-01 5.120194273661162470e+02
1.222293350404096840e-01 5.120205388144283916e+02
1.223293590461710656e-01 5.120216634879382127e+02
1.224293830519324611e-01 5.120228012876168577e+02
1.225294070576938427e-01 5.120239521144909531e+02
1.226294310634552243e-01 5.120251158696507900e+02
1.227294550692166197e-01 5.120262924542514611e+02
1.228294790749780013e-01 5.120274817695207048e+02
1.229295030807393690e-01 5.120286837167595877e+02
1.230295270865007506e-01 5.120298981973493255e+02
1.231295510922621322e-01 5.120311251127545802e+02
1.232295750980235138e-01 5.120323643645284619e+02
1.233295991037849093e-01 5.120336158543151441e+02
1.234296231095462909e-01 5.120348794838566846e+02
1.235296471153076725e-01 5.120361551549941623e+02
1.236296711210690402e-01 5.120374427696751809e+02
1.237296951268304357e-01 5.120387422299555737e+02
1.238297191325918173e-01 5.120400534380047475e+02
1.239297431383531989e-01 5.120413762961094335e+02
1.240297671441145805e-01 5.120427107066788039e+02
1.241297911498759621e-01 5.120440565722467454e+02
1.242298151556373575e-01 5.120454137954782254e+02
1.243298391613987253e-01 5.120467822791721346e+02
1.244298631671601069e-01 5.120481619262652657e+02
1.245298871729214885e-01 5.120495526398373158e+02
1.246299111786828839e-01 5.120509543231141834e+02
1.247299351844442655e-01 5.120523668794730838e+02
1.248299591902056471e-01 5.120537902124453922e+02
1.249299831959670287e-01 5.120552242257207354e+02
1.250300072017284103e-01 5.120566688231527905e+02
1.251300312074897780e-01 5.120581239087607628e+02
1.252300552132511735e-01 5.120595893867359791e+02
1.253300792190125690e-01 5.120610651614435938e+02
1.254301032247739367e-01 5.120625511374286134e+02
1.255301272305353322e-01 5.120640472194178301e+02
1.256301512362966999e-01 5.120655533123252781e+02
1.257301752420580954e-01 5.120670693212557580e+02
1.258301992478194631e-01 5.120685951515087027e+02
1.259302232535808586e-01 5.120701307085821554e+02
1.260302472593422263e-01 5.120716758981756129e+02
1.261302712651036217e-01 5.120732306261977556e+02
1.262302952708649895e-01 5.120747947987636053e+02
1.263303192766263849e-01 5.120763683222044165e+02
1.264303432823877804e-01 5.120779511030696085e+02
1.265303672881491481e-01 5.120795430481286985e+02
1.266303912939105158e-01 5.120811440643782362e+02
1.267304152996719113e-01 5.120827540590437366e+02
1.268304393054333068e-01 5.120843729395820674e+02
1.269304633111946745e-01 5.120860006136890661e+02
1.270304873169560700e-01 5.120876369892991988e+02
1.271305113227174655e-01 5.120892819745928364e+02
1.272305353284788332e-01 5.120909354779959131e+02
1.273305593342402009e-01 5.120925974081886807e+02
1.274305833400015964e-01 5.120942676741043442e+02
1.275306073457629641e-01 5.120959461849359968e+02
1.276306313515243596e-01 5.120976328501383250e+02
1.277306553572857550e-01 5.120993275794328383e+02
1.278306793630471228e-01 5.121010302828109388e+02
1.279307033688085182e-01 5.121027408705351718e+02
1.280307273745698859e-01 5.121044592531477520e+02
1.281307513803312537e-01 5.121061853414689722e+02
1.282307753860926491e-01 5.121079190466028876e+02
1.283307993918540446e-01 5.121096602799425455e+02
1.284308233976154123e-01 5.121114089531689615e+02
1.285308474033768078e-01 5.121131649782596469e+02
1.286308714091382033e-01 5.121149282674886081e+02
1.287308954148995710e-01 5.121166987334304395e+02
1.288309194206609387e-01 5.121184762889652120e+02
1.289309434264223342e-01 5.121202608472791553e+02
1.290309674321837297e-01 5.121220523218710241e+02
1.291309914379450974e-01 5.121238506265530077e+02
1.292310154437064929e-01 5.121256556754547091e+02
1.293310394494678606e-01 5.121274673830275788e+02
1.294310634552292560e-01 5.121292856640469608e+02
1.295310874609906238e-01 5.121311104336151629e+02
1.296311114667520192e-01 5.121329416071652076e+02
1.297311354725133870e-01 5.121347791004643568e+02
1.298311594782747824e-01 5.121366228296167264e+02
1.299311834840361501e-01 5.121384727110669246e+02
1.300312074897975456e-01 5.121403286616016430e+02
1.301312314955589411e-01 5.121421905983556826e+02
1.302312555013203088e-01 5.121440584388116122e+02
1.303312795070816765e-01 5.121459321008065899e+02
1.304313035128430720e-01 5.121478115025307716e+02
1.305313275186044675e-01 5.121496965625360644e+02
1.306313515243658352e-01 5.121515871997330578e+02
1.307313755301272307e-01 5.121534833333992083e+02
1.308313995358886261e-01 5.121553848831778168e+02
1.309314235416499939e-01 5.121572917690837130e+02
1.310314475474113616e-01 5.121592039115049602e+02
1.311314715531727570e-01 5.121611212312050156e+02
1.312314955589341248e-01 5.121630436493280740e+02
1.313315195646955202e-01 5.121649710873994081e+02
1.314315435704569157e-01 5.121669034673291208e+02
1.315315675762182834e-01 5.121688407114144184e+02
1.316315915819796789e-01 5.121707827423443860e+02
1.317316155877410466e-01 5.121727294831995323e+02
1.318316395935024143e-01 5.121746808574571332e+02
1.319316635992638098e-01 5.121766367889932781e+02
1.320316876050252053e-01 5.121785972020841200e+02
1.321317116107865730e-01 5.121805620214107648e+02
1.322317356165479685e-01 5.121825311720602940e+02
1.323317596223093640e-01 5.121845045795284932e+02
1.324317836280707317e-01 5.121864821697242860e+02
1.325318076338320994e-01 5.121884638689693929e+02
1.326318316395934949e-01 5.121904496040025379e+02
1.327318556453548903e-01 5.121924393019820627e+02
1.328318796511162581e-01 5.121944328904879740e+02
1.329319036568776535e-01 5.121964302975243299e+02
1.330319276626390212e-01 5.121984314515220831e+02
1.331319516684004167e-01 5.122004362813412399e+02
1.332319756741617844e-01 5.122024447162719980e+02
1.333319996799231799e-01 5.122044566860407713e+02
1.334320236856845476e-01 5.122064721208075753e+02
1.335320476914459431e-01 5.122084909511723936e+02
1.336320716972073108e-01 5.122105131081755189e+02
1.337320957029687063e-01 5.122125385232995995e+02
1.338321197087301018e-01 5.122145671284737318e+02
1.339321437144914695e-01 5.122165988560730057e+02
1.340321677202528372e-01 5.122186336389230519e+02
1.341321917260142327e-01 5.122206714103001559e+02
1.342322157317756282e-01 5.122227121039364874e+02
1.343322397375369959e-01 5.122247556540177129e+02
1.344322637432983913e-01 5.122268019951889073e+02
1.345322877490597868e-01 5.122288510625553499e+02
1.346323117548211545e-01 5.122309027916840023e+02
1.347323357605825223e-01 5.122329571186054409e+02
1.348323597663439177e-01 5.122350139798165856e+02
1.349323837721052854e-01 5.122370733122834281e+02
1.350324077778666809e-01 5.122391350534403500e+02
1.351324317836280764e-01 5.122411991411944427e+02
1.352324557893894441e-01 5.122432655139259623e+02
1.353324797951508396e-01 5.122453341104915125e+02
1.354325038009122073e-01 5.122474048702245000e+02
1.355325278066735750e-01 5.122494777329367253e+02
1.356325518124349705e-01 5.122515526389224760e+02
1.357325758181963660e-01 5.122536295289573900e+02
1.358325998239577337e-01 5.122557083443014108e+02
1.359326238297191292e-01 5.122577890267015164e+02
1.360326478354805246e-01 5.122598715183913782e+02
1.361326718412418924e-01 5.122619557620948854e+02
1.362326958470032601e-01 5.122640417010253486e+02
1.363327198527646555e-01 5.122661292788895935e+02
1.364327438585260510e-01 5.122682184398885283e+02
1.365327678642874187e-01 5.122703091287180541e+02
1.366327918700488142e-01 5.122724012905708832e+02
1.367328158758101819e-01 5.122744948711396091e+02
1.368328398815715774e-01 5.122765898166144325e+02
1.369328638873329729e-01 5.122786860736887320e+02
1.370328878930943406e-01 5.122807835895580411e+02
1.371329118988557083e-01 5.122828823119217532e+02
1.372329359046171038e-01 5.122849821889843724e+02
1.373329599103784715e-01 5.122870831694575600e+02
1.374329839161398670e-01 5.122891852025608159e+02
1.375330079219012624e-01 5.122912882380226165e+02
1.376330319276626302e-01 5.122933922260818917e+02
1.377330559334239979e-01 5.122954971174897310e+02
1.378330799391853934e-01 5.122976028635087005e+02
1.379331039449467888e-01 5.122997094159155722e+02
1.380331279507081566e-01 5.123018167270040522e+02
1.381331519564695520e-01 5.123039247495806876e+02
1.382331759622309475e-01 5.123060334369720294e+02
1.383331999679923152e-01 5.123081427430200847e+02
1.384332239737536829e-01 5.123102526220889104e+02
1.385332479795150784e-01 5.123123630290597248e+02
1.386332719852764461e-01 5.123144739193367059e+02
1.387332959910378416e-01 5.123165852488458540e+02
1.388333199967992371e-01 5.123186969740341965e+02
1.389333440025606048e-01 5.123208090518750168e+02
1.390333680083220003e-01 5.123229214398642171e+02
1.391333920140833680e-01 5.123250340960232734e+02
1.392334160198447357e-01 5.123271469789008279e+02
1.393334400256061312e-01 5.123292600475705285e+02
1.394334640313675266e-01 5.123313732616354628e+02
1.395334880371288944e-01 5.123334865812253156e+02
1.396335120428902898e-01 5.123355999669993253e+02
1.397335360486516853e-01 5.123377133801465106e+02
1.398335600544130530e-01 5.123398267823856713e+02
1.399335840601744207e-01 5.123419401359656149e+02
1.400336080659358162e-01 5.123440534036672034e+02
1.401336320716972117e-01 5.123461665488030121e+02
1.402336560774585794e-01 5.123482795352178982e+02
1.403336800832199749e-01 5.123503923272892280e+02
1.404337040889813426e-01 5.123525048899261947e+02
1.405337280947427381e-01 5.123546171885737976e+02
1.406337521005041336e-01 5.123567291892093181e+02
1.407337761062655013e-01 5.123588408583455021e+02
1.408338001120268690e-01 5.123609521630280597e+02
1.409338241177882645e-01 5.123630630708390754e+02
1.410338481235496322e-01 5.123651735498950757e+02
1.411338721293110277e-01 5.123672835688479381e+02
1.412338961350724231e-01 5.123693930968851191e+02
1.413339201408337908e-01 5.123715021037301085e+02
1.414339441465951586e-01 5.123736105596426569e+02
1.415339681523565540e-01 5.123757184354166156e+02
1.416339921581179495e-01 5.123778257023851666e+02
1.417340161638793172e-01 5.123799323324147963e+02
1.418340401696407127e-01 5.123820382979097303e+02
1.419340641754021082e-01 5.123841435718097728e+02
1.420340881811634759e-01 5.123862481275920118e+02
1.421341121869248436e-01 5.123883519392686594e+02
1.422341361926862391e-01 5.123904549813881886e+02
1.423341601984476068e-01 5.123925572290357877e+02
1.424341842042090023e-01 5.123946586578322240e+02
1.425342082099703978e-01 5.123967592439333885e+02
1.426342322157317655e-01 5.123988589640326836e+02
1.427342562214931609e-01 5.124009577953559074e+02
1.428342802272545287e-01 5.124030557156669374e+02
1.429343042330158964e-01 5.124051527032630702e+02
1.430343282387772919e-01 5.124072487369759301e+02
1.431343522445386873e-01 5.124093437961716972e+02
1.432343762503000550e-01 5.124114378607517892e+02
1.433344002560614505e-01 5.124135309111492234e+02
1.434344242618228460e-01 5.124156229283310040e+02
1.435344482675842137e-01 5.124177138937970994e+02
1.436344722733455814e-01 5.124198037895797597e+02
1.437344962791069769e-01 5.124218925982423798e+02
1.438345202848683724e-01 5.124239803028801816e+02
1.439345442906297401e-01 5.124260668871195321e+02
1.440345682963911356e-01 5.124281523351158967e+02
1.441345923021525033e-01 5.124302366315548625e+02
1.442346163079138988e-01 5.124323197616513426e+02
1.443346403136752942e-01 5.124344017111485527e+02
1.444346643194366620e-01 5.124364824663168747e+02
1.445346883251980297e-01 5.124385620139536286e+02
1.446347123309594251e-01 5.124406403413829594e+02
1.447347363367207929e-01 5.124427174364540178e+02
1.448347603424821883e-01 5.124447932875409606e+02
1.449347843482435838e-01 5.124468678835409037e+02
1.450348083540049515e-01 5.124489412138759690e+02
1.451348323597663192e-01 5.124510132684889641e+02
1.452348563655277147e-01 5.124530840378442917e+02
1.453348803712891102e-01 5.124551535129266995e+02
1.454349043770504779e-01 5.124572216852408246e+02
1.455349283828118734e-01 5.124592885468096028e+02
1.456349523885732689e-01 5.124613540901729039e+02
1.457349763943346366e-01 5.124634183083886683e+02
1.458350004000960320e-01 5.124654811950285875e+02
1.459350244058573998e-01 5.124675427441786724e+02
1.460350484116187675e-01 5.124696029504407306e+02
1.461350724173801630e-01 5.124716618089257736e+02
1.462350964231415584e-01 5.124737193152573127e+02
1.463351204289029261e-01 5.124757754655682902e+02
1.464351444346643216e-01 5.124778302565009653e+02
1.465351684404256893e-01 5.124798836852038448e+02
1.466351924461870571e-01 5.124819357493324787e+02
1.467352164519484525e-01 5.124839864470478688e+02
1.468352404577098480e-01 5.124860357770130577e+02
1.469352644634712157e-01 5.124880837383942662e+02
1.470352884692326112e-01 5.124901303308588467e+02
1.471353124749940067e-01 5.124921755545732367e+02
1.472353364807553744e-01 5.124942194102025042e+02
1.473353604865167421e-01 5.124962618989072780e+02
1.474353844922781376e-01 5.124983030223452261e+02
1.475354084980395331e-01 5.125003427826668485e+02
1.476354325038009008e-01 5.125023811825147959e+02
1.477354565095622962e-01 5.125044182250226186e+02
1.478354805153236640e-01 5.125064539138129476e+02
1.479355045210850594e-01 5.125084882529968127e+02
1.480355285268464549e-01 5.125105212471701179e+02
1.481355525326078226e-01 5.125125529014146650e+02
1.482355765383691903e-01 5.125145832212932646e+02
1.483356005441305858e-01 5.125166122128514417e+02
1.484356245498919535e-01 5.125186398826134564e+02
1.485356485556533490e-01 5.125206662375805990e+02
1.486356725614147445e-01 5.125226912852311898e+02
1.487356965671761122e-01 5.125247150335173956e+02
1.488357205729374799e-01 5.125267374908636384e+02
1.489357445786988754e-01 5.125287586661648902e+02
1.490357685844602709e-01 5.125307785687849673e+02
1.491357925902216386e-01 5.125327972085547117e+02
1.492358165959830341e-01 5.125348145957691486e+02
1.493358406017444295e-01 5.125368307411872593e+02
1.494358646075057973e-01 5.125388456560292525e+02
1.495358886132671927e-01 5.125408593519746319e+02
1.496359126190285604e-01 5.125428718411584441e+02
1.497359366247899282e-01 5.125448831361732118e+02
1.498359606305513236e-01 5.125468932500634764e+02
1.499359846363127191e-01 5.125489021963252299e+02
1.500360086420740868e-01 5.125509099889034133e+02
1.501360326478354823e-01 5.125529166421906666e+02
1.502360566535968500e-01 5.125549221710232359e+02
1.503360806593582177e-01 5.125569265906813143e+02
1.504361046651196132e-01 5.125589299168849493e+02
1.505361286708810087e-01 5.125609321657939290e+02
1.506361526766423764e-01 5.125629333540016432e+02
1.507361766824037719e-01 5.125649334985387213e+02
1.508362006881651673e-01 5.125669326168650741e+02
1.509362246939265351e-01 5.125689307268719404e+02
1.510362486996879305e-01 5.125709278468765433e+02
1.511362727054492983e-01 5.125729239956218635e+02
1.512362967112106937e-01 5.125749191922723185e+02
1.513363207169720615e-01 5.125769134564144451e+02
1.514363447227334569e-01 5.125789068080512152e+02
1.515363687284948246e-01 5.125808992676013531e+02
1.516363927342562201e-01 5.125828908558975172e+02
1.517364167400176156e-01 5.125848815941820931e+02
1.518364407457789833e-01 5.125868715041061705e+02
1.519364647515403510e-01 5.125888606077268150e+02
1.520364887573017465e-01 5.125908489275039983e+02
1.521365127630631142e-01 5.125928364862980970e+02
1.522365367688245097e-01 5.125948233073689835e+02
1.523365607745859052e-01 5.125968094143715916e+02
1.524365847803472729e-01 5.125987948313528477e+02
1.525366087861086406e-01 5.126007795827520113e+02
1.526366327918700361e-01 5.126027636933959002e+02
1.527366567976314315e-01 5.126047471884959350e+02
1.528366808033927993e-01 5.126067300936471156e+02
1.529367048091541947e-01 5.126087124348233601e+02
1.530367288149155902e-01 5.126106942383771639e+02
1.531367528206769579e-01 5.126126755310349381e+02
1.532367768264383534e-01 5.126146563398951912e+02
1.533368008321997211e-01 5.126166366924264821e+02
1.534368248379610888e-01 5.126186166164619635e+02
1.535368488437224843e-01 5.126205961401997229e+02
1.536368728494838798e-01 5.126225752921995991e+02
1.537368968552452475e-01 5.126245541013773845e+02
1.538369208610066430e-01 5.126265325970057347e+02
1.539369448667680107e-01 5.126285108087097342e+02
1.540369688725293784e-01 5.126304887664631451e+02
1.541369928782907739e-01 5.126324665005865882e+02
1.542370168840521694e-01 5.126344440417464057e+02
1.543370408898135371e-01 5.126364214209462489e+02
1.544370648955749326e-01 5.126383986695312842e+02
1.545370889013363280e-01 5.126403758191797806e+02
1.546371129070976957e-01 5.126423529019033367e+02
1.547371369128590912e-01 5.126443299500401736e+02
1.548371609186204589e-01 5.126463069962586587e+02
1.549371849243818544e-01 5.126482840735467335e+02
1.550372089301432221e-01 5.126502612152140728e+02
1.551372329359046176e-01 5.126522384548869695e+02
1.552372569416659853e-01 5.126542158265062881e+02
1.553372809474273808e-01 5.126561933643232578e+02
1.554373049531887763e-01 5.126581711028973132e+02
1.555373289589501440e-01 5.126601490770927967e+02
1.556373529647115117e-01 5.126621273220760031e+02
1.557373769704729072e-01 5.126641058733102909e+02
1.558374009762342749e-01 5.126660847665565370e+02
1.559374249819956704e-01 5.126680640378663156e+02
1.560374489877570658e-01 5.126700437235805339e+02
1.561374729935184336e-01 5.126720238603273856e+02
1.562374969992798013e-01 5.126740044850160984e+02
1.563375210050411968e-01 5.126759856348360245e+02
1.564375450108025922e-01 5.126779673472531158e+02
1.565375690165639599e-01 5.126799496600064003e+02
1.566375930223253277e-01 5.126819326111042301e+02
1.567376170280867509e-01 5.126839162388214390e+02
1.568376410338481186e-01 5.126859005816970694e+02
1.569376650396095141e-01 5.126878856785292555e+02
1.570376890453708818e-01 5.126898715683739738e+02
1.571377130511322773e-01 5.126918582905385620e+02
1.572377370568936450e-01 5.126938458845828563e+02
1.573377610626550405e-01 5.126958343903113473e+02
1.574377850684164082e-01 5.126978238477734067e+02
1.575378090741777759e-01 5.126998142972580581e+02
1.576378330799391714e-01 5.127018057792896570e+02
1.577378570857005391e-01 5.127037983346285728e+02
1.578378810914619623e-01 5.127057920042616388e+02
1.579379050972233300e-01 5.127077868294056771e+02
1.580379291029847255e-01 5.127097828514987441e+02
1.581379531087460932e-01 5.127117801121983121e+02
1.582379771145074610e-01 5.127137786533783128e+02
1.583380011202688564e-01 5.127157785171259547e+02
1.584380251260302241e-01 5.127177797457383122e+02
1.585380491317916474e-01 5.127197823817158451e+02
1.586380731375530151e-01 5.127217864677649004e+02
1.587380971433144106e-01 5.127237920467872527e+02
1.588381211490757783e-01 5.127257991618830602e+02
1.589381451548371460e-01 5.127278078563424515e+02
1.590381691605985415e-01 5.127298181736447305e+02
1.591381931663599092e-01 5.127318301574538282e+02
1.592382171721213047e-01 5.127338438516160295e+02
1.593382411778826724e-01 5.127358593001525833e+02
1.594382651836440679e-01 5.127378765472631130e+02
1.595382891894054356e-01 5.127398956373143619e+02
1.596383131951668033e-01 5.127419166148428076e+02
1.597383372009282265e-01 5.127439395245467040e+02
1.598383612066895942e-01 5.127459644112853994e+02
1.599383852124509897e-01 5.127479913200741066e+02
1.600384092182123574e-01 5.127500202960810611e+02
1.601384332239737529e-01 5.127520513846242238e+02
1.602384572297351206e-01 5.127540846311663927e+02
1.603384812354964883e-01 5.127561200813125879e+02
1.604385052412579116e-01 5.127581577808065276e+02
1.605385292470192793e-01 5.127601977755268763e+02
1.606385532527806748e-01 5.127622401114831518e+02
1.607385772585420425e-01 5.127642848348120879e+02
1.608386012643034380e-01 5.127663319917749050e+02
1.609386252700648057e-01 5.127683816287520813e+02
1.610386492758262011e-01 5.127704337922423292e+02
1.611386732815875689e-01 5.127724885288556607e+02
1.612386972873489366e-01 5.127745458853123637e+02
1.613387212931103321e-01 5.127766059084374319e+02
1.614387452988716998e-01 5.127786686451592004e+02
1.615387693046331230e-01 5.127807341425020695e+02
1.616387933103944907e-01 5.127828024475867323e+02
1.617388173161558862e-01 5.127848736076246041e+02
1.618388413219172539e-01 5.127869476699131610e+02
1.619388653276786216e-01 5.127890246818346895e+02
1.620388893334400171e-01 5.127911046908503749e+02
1.621389133392013848e-01 5.127931877444981410e+02
1.622389373449628081e-01 5.127952738903875343e+02
1.623389613507241758e-01 5.127973631761967681e+02
1.624389853564855712e-01 5.127994556496705627e+02
1.625390093622469390e-01 5.128015513586126417e+02
1.626390333680083067e-01 5.128036503508857322e+02
1.627390573737697022e-01 5.128057526744061079e+02
1.628390813795310699e-01 5.128078583771396097e+02
1.629391053852924653e-01 5.128099675070989178e+02
1.630391293910538331e-01 5.128120801123393449e+02
1.631391533968152285e-01 5.128141962409549706e+02
1.632391774025765963e-01 5.128163159410754588e+02
1.633392014083379640e-01 5.128184392608610551e+02
1.634392254140993872e-01 5.128205662485005405e+02
1.635392494198607549e-01 5.128226969522065701e+02
1.636392734256221504e-01 5.128248314202119218e+02
1.637392974313835181e-01 5.128269697007657442e+02
1.638393214371449136e-01 5.128291118421304873e+02
1.639393454429062813e-01 5.128312578925764456e+02
1.640393694486676490e-01 5.128334079003813031e+02
1.641393934544290722e-01 5.128355619138234260e+02
1.642394174601904400e-01 5.128377199811775426e+02
1.643394414659518354e-01 5.128398821507146295e+02
1.644394654717132032e-01 5.128420484706949765e+02
1.645394894774745986e-01 5.128442189893667091e+02
1.646395134832359664e-01 5.128463937549593084e+02
1.647395374889973618e-01 5.128485728156824734e+02
1.648395614947587295e-01 5.128507562197211200e+02
1.649395855005200973e-01 5.128529440152323104e+02
1.650396095062814927e-01 5.128551362503405926e+02
1.651396335120428605e-01 5.128573329731353851e+02
1.652396575178042837e-01 5.128595342316663164e+02
1.653396815235656514e-01 5.128617400739407231e+02
1.654397055293270469e-01 5.128639505479172840e+02
1.655397295350884146e-01 5.128661657015071569e+02
1.656397535408497823e-01 5.128683855825645423e+02
1.657397775466111778e-01 5.128706102388864565e+02
1.658398015523725455e-01 5.128728397182096614e+02
1.659398255581339687e-01 5.128750740682036167e+02
1.660398495638953364e-01 5.128773133364699106e+02
1.661398735696567319e-01 5.128795575705370311e+02
1.662398975754180996e-01 5.128818068178582052e+02
1.663399215811794674e-01 5.128840611258041235e+02
1.664399455869408628e-01 5.128863205416647588e+02
1.665399695927022305e-01 5.128885851126403850e+02
1.666399935984636260e-01 5.128908548858412360e+02
1.667400176042249937e-01 5.128931299082821624e+02
1.668400416099863892e-01 5.128954102268804718e+02
1.669400656157477569e-01 5.128976958884508122e+02
1.670400896215091247e-01 5.128999869397027851e+02
1.671401136272705479e-01 5.129022834272352611e+02
1.672401376330319156e-01 5.129045853975358114e+02
1.673401616387933111e-01 5.129068928969744547e+02
1.674401856445546788e-01 5.129092059718011569e+02
1.675402096503160743e-01 5.129115246681418512e+02
1.676402336560774420e-01 5.129138490319953689e+02
1.677402576618388097e-01 5.129161791092298017e+02
1.678402816676002329e-01 5.129185149455776127e+02
1.679403056733616006e-01 5.129208565866341587e+02
1.680403296791229961e-01 5.129232040778521196e+02
1.681403536848843638e-01 5.129255574645389970e+02
1.682403776906457593e-01 5.129279167918535904e+02
1.683404016964071270e-01 5.129302821048020178e+02
1.684404257021685225e-01 5.129326534482344186e+02
1.685404497079298902e-01 5.129350308668413163e+02
1.686404737136912579e-01 5.129374144051503208e+02
1.687404977194526534e-01 5.129398041075211268e+02
1.688405217252140211e-01 5.129422000181452859e+02
1.689405457309754444e-01 5.129446021810390448e+02
1.690405697367368121e-01 5.129470106400424356e+02
1.691405937424982076e-01 5.129494254388139325e+02
1.692406177482595753e-01 5.129518466208287464e+02
1.693406417540209430e-01 5.129542742293739366e+02
1.694406657597823385e-01 5.129567083075452274e+02
1.695406897655437062e-01 5.129591488982448482e+02
1.696407137713051294e-01 5.129615960441755078e+02
1.697407377770664971e-01 5.129640497878399401e+02
1.698407617828278926e-01 5.129665101715359015e+02
1.699407857885892603e-01 5.129689772373517371e+02
1.700408097943506280e-01 5.129714510271646759e+02
1.701408338001120235e-01 5.129739315826377606e+02
1.702408578058733912e-01 5.129764189452148457e+02
1.703408818116347867e-01 5.129789131561183240e+02
1.704409058173961544e-01 5.129814142563446921e+02
1.705409298231575499e-01 5.129839222866628461e+02
1.706409538289189176e-01 5.129864372876102152e+02
1.707409778346802853e-01 5.129889592994876466e+02
1.708410018404417086e-01 5.129914883623592914e+02
1.709410258462030763e-01 5.129940245160453287e+02
1.710410498519644718e-01 5.129965678001238985e+02
1.711410738577258395e-01 5.129991182539222336e+02
1.712410978634872349e-01 5.130016759165175699e+02
1.713411218692486027e-01 5.130042408267310066e+02
1.714411458750100259e-01 5.130068130231277337e+02
1.715411698807713936e-01 5.130093925440100975e+02
1.716411938865327613e-01 5.130119794274156675e+02
1.717412178922941568e-01 5.130145737111156450e+02
1.718412418980555245e-01 5.130171754326096334e+02
1.719412659038169200e-01 5.130197846291240467e+02
1.720412899095782877e-01 5.130224013376064249e+02
1.721413139153396832e-01 5.130250255947266851e+02
1.722413379211010509e-01 5.130276574368688216e+02
1.723413619268624186e-01 5.130302969001319298e+02
1.724413859326238141e-01 5.130329440203249760e+02
1.725414099383851818e-01 5.130355988329638421e+02
1.726414339441466050e-01 5.130382613732704158e+02
1.727414579499079728e-01 5.130409316761653145e+02
1.728414819556693682e-01 5.130436097762692498e+02
1.729415059614307359e-01 5.130462957078972295e+02
1.730415299671921037e-01 5.130489895050568521e+02
1.731415539729534991e-01 5.130516912014444415e+02
1.732415779787148669e-01 5.130544008304431145e+02
1.733416019844762901e-01 5.130571184251189152e+02
1.734416259902376578e-01 5.130598440182177455e+02
1.735416499959990533e-01 5.130625776421640012e+02
1.736416740017604210e-01 5.130653193290559102e+02
1.737416980075217887e-01 5.130680691106634868e+02
1.738417220132831842e-01 5.130708270184250068e+02
1.739417460190445519e-01 5.130735930834451892e+02
1.740417700248059474e-01 5.130763673364920123e+02
1.741417940305673151e-01 5.130791498079922803e+02
1.742418180363287106e-01 5.130819405280323053e+02
1.743418420420900783e-01 5.130847395263510862e+02
1.744418660478514460e-01 5.130875468323399673e+02
1.745418900536128692e-01 5.130903624750411609e+02
1.746419140593742370e-01 5.130931864831405846e+02
1.747419380651356324e-01 5.130960188849696806e+02
1.748419620708970001e-01 5.130988597084992762e+02
1.749419860766583956e-01 5.131017089813399252e+02
1.750420100824197633e-01 5.131045667307380427e+02
1.751420340881811866e-01 5.131074329835706749e+02
1.752420580939425543e-01 5.131103077663478871e+02
1.753420820997039220e-01 5.131131911052056012e+02
1.754421061054653175e-01 5.131160830259059367e+02
1.755421301112266852e-01 5.131189835538336865e+02
1.756421541169880807e-01 5.131218927139929065e+02
1.757421781227494484e-01 5.131248105310052097e+02
1.758422021285108439e-01 5.131277370291076068e+02
1.759422261342722116e-01 5.131306722321492089e+02
1.760422501400335793e-01 5.131336161635905455e+02
1.761422741457949748e-01 5.131365688464978803e+02
1.762422981515563425e-01 5.131395303035432107e+02
1.763423221573177657e-01 5.131425005570015401e+02
1.764423461630791334e-01 5.131454796287483759e+02
1.765423701688405289e-01 5.131484675402564335e+02
1.766423941746018966e-01 5.131514643125951807e+02
1.767424181803632643e-01 5.131544699664258360e+02
1.768424421861246598e-01 5.131574845220022780e+02
1.769424661918860275e-01 5.131605079991658158e+02
1.770424901976474508e-01 5.131635404173451889e+02
1.771425142034088185e-01 5.131665817955520197e+02
1.772425382091702140e-01 5.131696321523808137e+02
1.773425622149315817e-01 5.131726915060062311e+02
1.774425862206929494e-01 5.131757598741795618e+02
1.775426102264543449e-01 5.131788372742277033e+02
1.776426342322157126e-01 5.131819237230503177e+02
1.777426582379771081e-01 5.131850192371204002e+02
1.778426822437384758e-01 5.131881238324773449e+02
1.779427062494998713e-01 5.131912375247285354e+02
1.780427302552612390e-01 5.131943603290476403e+02
1.781427542610226067e-01 5.131974922601682465e+02
1.782427782667840299e-01 5.132006333323873832e+02
1.783428022725453976e-01 5.132037835595593833e+02
1.784428262783067931e-01 5.132069429550969062e+02
1.785428502840681608e-01 5.132101115319666178e+02
1.786428742898295563e-01 5.132132893026885085e+02
1.787428982955909240e-01 5.132164762793339605e+02
1.788429223013523472e-01 5.132196724735230191e+02
1.789429463071137150e-01 5.132228778964240519e+02
1.790429703128750827e-01 5.132260925587505653e+02
1.791429943186364782e-01 5.132293164707593860e+02
1.792430183243978459e-01 5.132325496422498645e+02
1.793430423301592413e-01 5.132357920825622841e+02
1.794430663359206091e-01 5.132390438005744500e+02
1.795430903416820045e-01 5.132423048047013481e+02
1.796431143474433723e-01 5.132455751028935538e+02
1.797431383532047400e-01 5.132488547026338210e+02
1.798431623589661355e-01 5.132521436109384467e+02
1.799431863647275032e-01 5.132554418343524958e+02
1.800432103704889264e-01 5.132587493789507107e+02
1.801432343762502941e-01 5.132620662503338735e+02
1.802432583820116896e-01 5.132653924536300565e+02
1.803432823877730573e-01 5.132687279934890512e+02
1.804433063935344250e-01 5.132720728740843015e+02
1.805433303992958205e-01 5.132754270991107433e+02
1.806433544050571882e-01 5.132787906717823034e+02
1.807433784108186114e-01 5.132821635948306493e+02
1.808434024165799792e-01 5.132855458705048477e+02
1.809434264223413746e-01 5.132889375005693182e+02
1.810434504281027424e-01 5.132923384863020146e+02
1.811434744338641101e-01 5.132957488284945384e+02
1.812434984396255055e-01 5.132991685274489555e+02
1.813435224453868733e-01 5.133025975829780236e+02
1.814435464511482687e-01 5.133060359944033735e+02
1.815435704569096365e-01 5.133094837605535758e+02
1.816435944626710319e-01 5.133129408797648239e+02
1.817436184684323996e-01 5.133164073498770676e+02
1.818436424741937674e-01 5.133198831682367427e+02
1.819436664799551906e-01 5.133233683316909719e+02
1.820436904857165583e-01 5.133268628365904078e+02
1.821437144914779538e-01 5.133303666787849124e+02
1.822437384972393215e-01 5.133338798536261720e+02
1.823437625030007170e-01 5.133374023559630359e+02
1.824437865087620847e-01 5.133409341801427672e+02
1.825438105145235079e-01 5.133444753200096784e+02
1.826438345202848756e-01 5.133480257689036534e+02
1.827438585260462434e-01 5.133515855196594657e+02
1.828438825318076388e-01 5.133551545646059822e+02
1.829439065375690066e-01 5.133587328955654812e+02
1.830439305433304020e-01 5.133623205038528567e+02
1.831439545490917697e-01 5.133659173802735722e+02
1.832439785548531652e-01 5.133695235151247971e+02
1.833440025606145329e-01 5.133731388981937016e+02
1.834440265663759007e-01 5.133767635187548422e+02
1.835440505721372961e-01 5.133803973655748223e+02
1.836440745778986638e-01 5.133840404269054716e+02
1.837440985836600871e-01 5.133876926904861193e+02
1.838441225894214548e-01 5.133913541435433672e+02
1.839441465951828503e-01 5.133950247727894975e+02
1.840441706009442180e-01 5.133987045644221325e+02
1.841441946067055857e-01 5.134023935041241202e+02
1.842442186124669812e-01 5.134060915770620568e+02
1.843442426182283489e-01 5.134097987678869686e+02
1.844442666239897721e-01 5.134135150607323794e+02
1.845442906297511398e-01 5.134172404392156750e+02
1.846443146355125353e-01 5.134209748864365110e+02
1.847443386412739030e-01 5.134247183849763587e+02
1.848443626470352708e-01 5.134284709168985046e+02
1.849443866527966662e-01 5.134322324637471411e+02
1.850444106585580339e-01 5.134360030065491856e+02
1.851444346643194294e-01 5.134397825258100738e+02
1.852444586700807971e-01 5.134435710015183076e+02
1.853444826758421926e-01 5.134473684131410209e+02
1.854445066816035603e-01 5.134511747396250030e+02
1.855445306873649836e-01 5.134549899593990858e+02
1.856445546931263513e-01 5.134588140503698241e+02
1.857445786988877190e-01 5.134626469899246786e+02
1.858446027046491145e-01 5.134664887549300829e+02
1.859446267104104822e-01 5.134703393217323537e+02
1.860446507161718777e-01 5.134741986661576902e+02
1.861446747219332454e-01 5.134780667635096734e+02
1.862446987276946686e-01 5.134819435885743815e+02
1.863447227334560363e-01 5.134858291156148198e+02
1.864447467392174040e-01 5.134897233183752405e+02
1.865447707449787995e-01 5.134936261700795512e+02
1.866447947507401672e-01 5.134975376434293821e+02
1.867448187565015627e-01 5.135014577106088609e+02
1.868448427622629304e-01 5.135053863432814296e+02
1.869448667680243259e-01 5.135093235125887077e+02
1.870448907737856936e-01 5.135132691891569721e+02
1.871449147795470613e-01 5.135172233430905635e+02
1.872449387853084568e-01 5.135211859439745012e+02
1.873449627910698245e-01 5.135251569608769842e+02
1.874449867968312478e-01 5.135291363623466623e+02
1.875450108025926155e-01 5.135331241164149105e+02
1.876450348083540109e-01 5.135371201905954877e+02
1.877450588141153787e-01 5.135411245518847636e+02
1.878450828198767464e-01 5.135451371667630838e+02
1.879451068256381419e-01 5.135491580011939732e+02
1.880451308313995096e-01 5.135531870206262965e+02
1.881451548371609328e-01 5.135572241899922119e+02
1.882451788429223005e-01 5.135612694737104675e+02
1.883452028486836960e-01 5.135653228356859472e+02
1.884452268544450637e-01 5.135693842393088744e+02
1.885452508602064314e-01 5.135734536474587912e+02
1.886452748659678269e-01 5.135775310225013754e+02
1.887452988717291946e-01 5.135816163262915097e+02
1.888453228774905901e-01 5.135857095201737366e+02
1.889453468832519578e-01 5.135898105649816898e+02
1.890453708890133533e-01 5.135939194210415053e+02
1.891453948947747210e-01 5.135980360481694333e+02
1.892454189005361442e-01 5.136021604056747947e+02
1.893454429062975120e-01 5.136062924523600941e+02
1.894454669120588797e-01 5.136104321465221574e+02
1.895454909178202751e-01 5.136145794459531544e+02
1.896455149235816429e-01 5.136187343079409402e+02
1.897455389293430383e-01 5.136228966892704193e+02
1.898455629351044061e-01 5.136270665462249099e+02
1.899455869408658293e-01 5.136312438345859164e+02
1.900456109466271970e-01 5.136354285096355170e+02
1.901456349523885647e-01 5.136396205261569321e+02
1.902456589581499602e-01 5.136438198384358884e+02
1.903456829639113279e-01 5.136480264002601643e+02
1.904457069696727234e-01 5.136522401649237963e+02
1.905457309754340911e-01 5.136564610852253736e+02
1.906457549811954866e-01 5.136606891134699708e+02
1.907457789869568543e-01 5.136649242014717629e+02
1.908458029927182220e-01 5.136691663005537976e+02
1.909458269984796175e-01 5.136734153615497007e+02
1.910458510042409852e-01 5.136776713348049270e+02
1.911458750100024084e-01 5.136819341701781241e+02
1.912458990157637762e-01 5.136862038170429514e+02
1.913459230215251716e-01 5.136904802242887627e+02
1.914459470272865393e-01 5.136947633403219697e+02
1.915459710330479071e-01 5.136990531130688851e+02
1.916459950388093025e-01 5.137033494899744710e+02
1.917460190445706703e-01 5.137076524180070010e+02
1.918460430503320935e-01 5.137119618436574910e+02
1.919460670560934612e-01 5.137162777129411779e+02
1.920460910618548567e-01 5.137205999714011568e+02
1.921461150676162244e-01 5.137249285641069037e+02
1.922461390733775921e-01 5.137292634356582539e+02
1.923461630791389876e-01 5.137336045301867671e+02
1.924461870849003553e-01 5.137379517913558402e+02
1.925462110906617508e-01 5.137423051623643460e+02
1.926462350964231185e-01 5.137466645859468599e+02
1.927462591021845140e-01 5.137510300043766165e+02
1.928462831079458817e-01 5.137554013594672142e+02
1.929463071137073049e-01 5.137597785925718199e+02
1.930463311194686726e-01 5.137641616445894215e+02
1.931463551252300404e-01 5.137685504559628953e+02
1.932463791309914358e-01 5.137729449666826440e+02
1.933464031367528035e-01 5.137773451162877336e+02
1.934464271425141990e-01 5.137817508438696450e+02
1.935464511482755667e-01 5.137861620880715918e+02
1.936464751540369900e-01 5.137905787870914764e+02
1.937464991597983577e-01 5.137950008786851868e+02
1.938465231655597254e-01 5.137994283001656868e+02
1.939465471713211209e-01 5.138038609884097241e+02
1.940465711770824886e-01 5.138082988798547603e+02
1.941465951828438841e-01 5.138127419105042009e+02
1.942466191886052518e-01 5.138171900159290999e+02
1.943466431943666473e-01 5.138216431312679333e+02
1.944466672001280150e-01 5.138261011912339882e+02
1.945466912058893827e-01 5.138305641301116111e+02
1.946467152116507782e-01 5.138350318817625748e+02
1.947467392174121459e-01 5.138395043796253958e+02
1.948467632231735691e-01 5.138439815567210189e+02
1.949467872289349368e-01 5.138484633456516804e+02
1.950468112346963323e-01 5.138529496786043183e+02
1.951468352404577000e-01 5.138574404873552339e+02
1.952468592462190677e-01 5.138619357032678181e+02
1.953468832519804632e-01 5.138664352573000542e+02
1.954469072577418309e-01 5.138709390800031542e+02
1.955469312635032542e-01 5.138754471015248555e+02
1.956469552692646219e-01 5.138799592516129451e+02
1.957469792750260174e-01 5.138844754596175335e+02
1.958470032807873851e-01 5.138889956544925326e+02
1.959470272865487528e-01 5.138935197647975883e+02
1.960470512923101483e-01 5.138980477187045608e+02
1.961470752980715160e-01 5.139025794439937727e+02
1.962470993038329115e-01 5.139071148680635588e+02
1.963471233095942792e-01 5.139116539179262872e+02
1.964471473153556746e-01 5.139161965202163174e+02
1.965471713211170424e-01 5.139207426011892039e+02
1.966471953268784656e-01 5.139252920867269268e+02
1.967472193326398333e-01 5.139298449023374360e+02
1.968472433384012010e-01 5.139344009731606775e+02
1.969472673441625965e-01 5.139389602239681381e+02
1.970472913499239642e-01 5.139435225791705761e+02
1.971473153556853597e-01 5.139480879628134744e+02
1.972473393614467274e-01 5.139526562985869305e+02
1.973473633672081506e-01 5.139572275098238379e+02
1.974473873729695184e-01 5.139618015195051157e+02
1.975474113787308861e-01 5.139663782502609592e+02
1.976474353844922816e-01 5.139709576243760694e+02
1.977474593902536493e-01 5.139755395637895390e+02
1.978474833960150447e-01 5.139801239900994005e+02
1.979475074017764125e-01 5.139847108245664913e+02
1.980475314075378079e-01 5.139892999881164997e+02
1.981475554132991757e-01 5.139938914013409885e+02
1.982475794190605434e-01 5.139984849845036479e+02
1.983476034248219388e-01 5.140030806575424549e+02
1.984476274305833066e-01 5.140076783400709246e+02
1.985476514363447298e-01 5.140122779513824298e+02
1.986476754421060975e-01 5.140168794104546350e+02
1.987476994478674930e-01 5.140214826359506333e+02
1.988477234536288607e-01 5.140260875462217882e+02
1.989477474593902284e-01 5.140306940593136460e+02
1.990477714651516239e-01 5.140353020929653667e+02
1.991477954709129916e-01 5.140399115646158634e+02
1.992478194766744148e-01 5.140445223914061899e+02
1.993478434824357826e-01 5.140491344901814728e+02
1.994478674881971780e-01 5.140537477774959143e+02
1.995478914939585457e-01 5.140583621696152932e+02
1.996479154997199412e-01 5.140629775825202614e+02
1.997479395054813089e-01 5.140675939319094141e+02
1.998479635112426767e-01 5.140722111332025861e+02
1.999479875170040721e-01 5.140768291015453997e+02
2.000480115227654399e-01 5.140814477518108561e+02
2.001480355285268353e-01 5.140860669986037692e+02
2.002480595342882030e-01 5.140906867562632669e+02
2.003480835400496263e-01 5.140953069388676795e+02
2.004481075458109940e-01 5.140999274602361311e+02
2.005481315515723617e-01 5.141045482339345654e+02
2.006481555573337572e-01 5.141091691732752906e+02
2.007481795630951249e-01 5.141137901913242558e+02
2.008482035688565204e-01 5.141184112009023011e+02
2.009482275746178881e-01 5.141230321145903872e+02
2.010482515803793113e-01 5.141276528447294822e+02
2.011482755861406790e-01 5.141322733034297698e+02
2.012482995919020468e-01 5.141368934025697399e+02
2.013483235976634422e-01 5.141415130538001677e+02
2.014483476034248099e-01 5.141461321685505936e+02
2.015483716091862054e-01 5.141507506580287554e+02
2.016483956149475731e-01 5.141553684332279772e+02
2.017484196207089686e-01 5.141599854049287615e+02
2.018484436264703363e-01 5.141646014837031089e+02
2.019484676322317040e-01 5.141692165799173608e+02
2.020484916379930995e-01 5.141738306037366328e+02
2.021485156437544672e-01 5.141784434651290212e+02
2.022485396495158905e-01 5.141830550738676493e+02
2.023485636552772582e-01 5.141876653395357835e+02
2.024485876610386537e-01 5.141922741715303573e+02
2.025486116668000214e-01 5.141968814790650413e+02
2.026486356725613891e-01 5.142014871711747901e+02
2.027486596783227846e-01 5.142060911567180028e+02
2.028486836840841523e-01 5.142106933443839125e+02
2.029487076898455755e-01 5.142152936426913357e+02
2.030487316956069432e-01 5.142198919599975397e+02
2.031487557013683387e-01 5.142244882044988117e+02
2.032487797071297064e-01 5.142290822842335274e+02
2.033488037128911019e-01 5.142336741070906783e+02
2.034488277186524696e-01 5.142382635808080522e+02
2.035488517244138373e-01 5.142428506129801917e+02
2.036488757301752328e-01 5.142474351110606676e+02
2.037488997359366005e-01 5.142520169823657170e+02
2.038489237416979960e-01 5.142565961340785634e+02
2.039489477474593637e-01 5.142611724732539642e+02
2.040489717532207870e-01 5.142657459068204844e+02
2.041489957589821547e-01 5.142703163415869767e+02
2.042490197647435224e-01 5.142748836842429228e+02
2.043490437705049179e-01 5.142794478413668458e+02
2.044490677762662856e-01 5.142840087194257421e+02
2.045490917820276811e-01 5.142885662247834944e+02
2.046491157877890488e-01 5.142931202637013257e+02
2.047491397935504720e-01 5.142976707423423477e+02
2.048491637993118397e-01 5.143022175667778129e+02
2.049491878050732074e-01 5.143067606429896159e+02
2.050492118108346029e-01 5.143112998768735906e+02
2.051492358165959706e-01 5.143158351742447394e+02
2.052492598223573661e-01 5.143203664408407576e+02
2.053492838281187338e-01 5.143248935823260126e+02
2.054493078338801293e-01 5.143294165042965460e+02
2.055493318396414970e-01 5.143339351122837115e+02
2.056493558454028647e-01 5.143384493117569036e+02
2.057493798511642602e-01 5.143429590081287870e+02
2.058494038569256279e-01 5.143474641067602988e+02
2.059494278626870511e-01 5.143519645129634910e+02
2.060494518684484189e-01 5.143564601320055090e+02
2.061494758742098143e-01 5.143609508691143901e+02
2.062494998799711821e-01 5.143654366294803140e+02
2.063495238857325498e-01 5.143699173182631057e+02
2.064495478914939453e-01 5.143743928405938277e+02
2.065495718972553130e-01 5.143788631015801229e+02
2.066495959030167362e-01 5.143833280063099664e+02
2.067496199087781039e-01 5.143877874598565541e+02
2.068496439145394994e-01 5.143922413672804623e+02
2.069496679203008671e-01 5.143966896336373793e+02
2.070496919260622626e-01 5.144011321639786729e+02
2.071497159318236303e-01 5.144055688633574164e+02
2.072497399375849980e-01 5.144099996368327083e+02
2.073497639433463935e-01 5.144144243894733108e+02
2.074497879491077612e-01 5.144188430263616283e+02
2.075498119548691567e-01 5.144232554525991645e+02
2.076498359606305244e-01 5.144276615733083418e+02
2.077498599663919476e-01 5.144320612936410271e+02
2.078498839721533153e-01 5.144364545187765998e+02
2.079499079779146831e-01 5.144408411539325243e+02
2.080499319836760785e-01 5.144452211043637817e+02
2.081499559894374463e-01 5.144495942753700319e+02
2.082499799951988417e-01 5.144539605722987972e+02
2.083500040009602094e-01 5.144583199005496681e+02
2.084500280067216327e-01 5.144626721655788515e+02
2.085500520124830004e-01 5.144670172729022397e+02
2.086500760182443681e-01 5.144713551281020045e+02
2.087501000240057636e-01 5.144756856368285298e+02
2.088501240297671313e-01 5.144800087048067780e+02
2.089501480355285268e-01 5.144843242378381092e+02
2.090501720412898945e-01 5.144886321418075568e+02
2.091501960470512900e-01 5.144929323226853057e+02
2.092502200528126577e-01 5.144972246865319221e+02
2.093502440585740254e-01 5.145015091395041509e+02
2.094502680643354209e-01 5.145057855878567352e+02
2.095502920700967886e-01 5.145100539379482143e+02
2.096503160758582118e-01 5.145143140962454709e+02
2.097503400816195795e-01 5.145185659693261186e+02
2.098503640873809750e-01 5.145228094638852099e+02
2.099503880931423427e-01 5.145270444867378501e+02
2.100504120989037105e-01 5.145312709448238593e+02
2.101504361046651059e-01 5.145354887452132289e+02
2.102504601104264736e-01 5.145396977951083954e+02
2.103504841161878969e-01 5.145438980018493567e+02
2.104505081219492646e-01 5.145480892729195830e+02
2.105505321277106601e-01 5.145522715159466998e+02
2.106505561334720278e-01 5.145564446387111275e+02
2.107505801392334233e-01 5.145606085491466501e+02
2.108506041449947910e-01 5.145647631553465544e+02
2.109506281507561587e-01 5.145689083655686318e+02
2.110506521565175542e-01 5.145730440882367702e+02
2.111506761622789219e-01 5.145771702319477754e+02
2.112507001680403174e-01 5.145812867054748949e+02
2.113507241738016851e-01 5.145853934177710016e+02
2.114507481795631083e-01 5.145894902779749600e+02
2.115507721853244760e-01 5.145935771954143547e+02
2.116507961910858437e-01 5.145976540796095833e+02
2.117508201968472392e-01 5.146017208402793131e+02
2.118508442026086069e-01 5.146057773873438919e+02
2.119508682083700024e-01 5.146098236309294407e+02
2.120508922141313701e-01 5.146138594813736518e+02
2.121509162198927934e-01 5.146178848492276074e+02
2.122509402256541611e-01 5.146218996452623742e+02
2.123509642314155288e-01 5.146259037804704803e+02
2.124509882371769243e-01 5.146298971660739880e+02
2.125510122429382920e-01 5.146338797135249479e+02
2.126510362486996875e-01 5.146378513345126748e+02
2.127510602544610552e-01 5.146418119409648853e+02
2.128510842602224507e-01 5.146457614450546316e+02
2.129511082659838184e-01 5.146496997592043954e+02
2.130511322717451861e-01 5.146536267960876785e+02
2.131511562775065816e-01 5.146575424686350289e+02
2.132511802832679493e-01 5.146614466900391562e+02
2.133512042890293725e-01 5.146653393737574333e+02
2.134512282947907402e-01 5.146692204335179213e+02
2.135512523005521357e-01 5.146730897833194831e+02
2.136512763063135034e-01 5.146769473374424706e+02
2.137513003120748989e-01 5.146807930104463367e+02
2.138513243178362666e-01 5.146846267171794125e+02
2.139513483235976343e-01 5.146884483727770885e+02
2.140513723293590576e-01 5.146922578926722736e+02
2.141513963351204253e-01 5.146960551925947129e+02
2.142514203408818207e-01 5.146998401885770136e+02
2.143514443466431885e-01 5.147036127969597601e+02
2.144514683524045839e-01 5.147073729343940158e+02
2.145514923581659517e-01 5.147111205178454156e+02
2.146515163639273194e-01 5.147148554645993954e+02
2.147515403696887148e-01 5.147185776922639207e+02
2.148515643754500826e-01 5.147222871187748297e+02
2.149515883812114780e-01 5.147259836623998126e+02
2.150516123869728458e-01 5.147296672417417085e+02
2.151516363927342690e-01 5.147333377757423705e+02
2.152516603984956367e-01 5.147369951836877817e+02
2.153516844042570044e-01 5.147406393852115798e+02
2.154517084100183999e-01 5.147442703002988083e+02
2.155517324157797676e-01 5.147478878492905778e+02
2.156517564215411631e-01 5.147514919528867949e+02
2.157517804273025308e-01 5.147550825321516186e+02
2.158518044330639540e-01 5.147586595085174395e+02
2.159518284388253218e-01 5.147622228037868126e+02
2.160518524445866895e-01 5.147657723401392786e+02
2.161518764503480849e-01 5.147693080401329553e+02
2.162519004561094527e-01 5.147728298267093123e+02
2.163519244618708481e-01 5.147763376231982875e+02
2.164519484676322159e-01 5.147798313533197643e+02
2.165519724733936113e-01 5.147833109411894839e+02
2.166519964791549790e-01 5.147867763113224555e+02
2.167520204849163468e-01 5.147902273886364810e+02
2.168520444906777422e-01 5.147936640984556789e+02
2.169520684964391100e-01 5.147970863665151455e+02
2.170520925022005332e-01 5.148004941189651618e+02
2.171521165079619009e-01 5.148038872823728980e+02
2.172521405137232964e-01 5.148072657837290080e+02
2.173521645194846641e-01 5.148106295504491072e+02
2.174521885252460596e-01 5.148139785103795703e+02
2.175522125310074273e-01 5.148173125917988955e+02
2.176522365367687950e-01 5.148206317234244125e+02
2.177522605425302182e-01 5.148239358344128505e+02
2.178522845482915860e-01 5.148272248543668184e+02
2.179523085540529814e-01 5.148304987133367376e+02
2.180523325598143491e-01 5.148337573418255033e+02
2.181523565655757446e-01 5.148370006707915536e+02
2.182523805713371123e-01 5.148402286316533036e+02
2.183524045770984801e-01 5.148434411562911919e+02
2.184524285828598755e-01 5.148466381770534781e+02
2.185524525886212432e-01 5.148498196267587446e+02
2.186524765943826387e-01 5.148529854386989655e+02
2.187525006001440064e-01 5.148561355466442819e+02
2.188525246059054297e-01 5.148592698848459577e+02
2.189525486116667974e-01 5.148623883880392214e+02
2.190525726174281651e-01 5.148654909914487234e+02
2.191525966231895606e-01 5.148685776307901278e+02
2.192526206289509283e-01 5.148716482422742047e+02
2.193526446347123238e-01 5.148747027626113777e+02
2.194526686404736915e-01 5.148777411290141117e+02
2.195526926462351147e-01 5.148807632791995275e+02
2.196527166519964824e-01 5.148837691513953132e+02
2.197527406577578502e-01 5.148867586843405206e+02
2.198527646635192456e-01 5.148897318172917039e+02
2.199527886692806133e-01 5.148926884900236018e+02
2.200528126750420088e-01 5.148956286428339126e+02
2.201528366808033765e-01 5.148985522165462498e+02
2.202528606865647720e-01 5.149014591525136666e+02
2.203528846923261397e-01 5.149043493926233168e+02
2.204529086980875074e-01 5.149072228792961141e+02
2.205529327038489029e-01 5.149100795554935530e+02
2.206529567096102706e-01 5.149129193647203238e+02
2.207529807153716939e-01 5.149157422510253355e+02
2.208530047211330616e-01 5.149185481590079689e+02
2.209530287268944571e-01 5.149213370338184177e+02
2.210530527326558248e-01 5.149241088211633723e+02
2.211530767384172202e-01 5.149268634673076122e+02
2.212531007441785880e-01 5.149296009190780978e+02
2.213531247499399557e-01 5.149323211238651083e+02
2.214531487557013789e-01 5.149350240296290622e+02
2.215531727614627466e-01 5.149377095848985846e+02
2.216531967672241421e-01 5.149403777387800574e+02
2.217532207729855098e-01 5.149430284409531851e+02
2.218532447787469053e-01 5.149456616416791803e+02
2.219532687845082730e-01 5.149482772918030378e+02
2.220532927902696407e-01 5.149508753427558077e+02
2.221533167960310362e-01 5.149534557465555054e+02
2.222533408017924039e-01 5.149560184558145011e+02
2.223533648075537994e-01 5.149585634237388376e+02
2.224533888133151671e-01 5.149610906041319822e+02
2.225534128190765903e-01 5.149635999513985780e+02
2.226534368248379581e-01 5.149660914205474000e+02
2.227534608305993258e-01 5.149685649671909005e+02
2.228534848363607213e-01 5.149710205475536213e+02
2.229535088421220890e-01 5.149734581184693525e+02
2.230535328478834844e-01 5.149758776373882938e+02
2.231535568536448522e-01 5.149782790623766005e+02
2.232535808594062754e-01 5.149806623521217261e+02
2.233536048651676431e-01 5.149830274659324232e+02
2.234536288709290108e-01 5.149853743637437447e+02
2.235536528766904063e-01 5.149877030061181813e+02
2.236536768824517740e-01 5.149900133542488447e+02
2.237537008882131695e-01 5.149923053699621960e+02
2.238537248939745372e-01 5.149945790157200918e+02
2.239537488997359327e-01 5.149968342546235363e+02
2.240537729054973004e-01 5.149990710504126810e+02
2.241537969112586681e-01 5.150012893674725092e+02
2.242538209170200636e-01 5.150034891708322675e+02
2.243538449227814313e-01 5.150056704261711502e+02
2.244538689285428545e-01 5.150078330998178444e+02
2.245538929343042223e-01 5.150099771587535997e+02
2.246539169400656177e-01 5.150121025706150704e+02
2.247539409458269855e-01 5.150142093036980668e+02
2.248539649515883809e-01 5.150162973269573286e+02
2.249539889573497486e-01 5.150183666100090250e+02
2.250540129631111164e-01 5.150204171231359851e+02
2.251540369688725396e-01 5.150224488372858787e+02
2.252540609746339073e-01 5.150244617240765592e+02
2.253540849803953028e-01 5.150264557557957232e+02
2.254541089861566705e-01 5.150284309054065943e+02
2.255541329919180660e-01 5.150303871465461043e+02
2.256541569976794337e-01 5.150323244535293270e+02
2.257541810034408014e-01 5.150342428013516383e+02
2.258542050092021969e-01 5.150361421656889434e+02
2.259542290149635646e-01 5.150380225229022244e+02
2.260542530207249601e-01 5.150398838500371994e+02
2.261542770264863278e-01 5.150417261248285286e+02
2.262543010322477510e-01 5.150435493256991322e+02
2.263543250380091187e-01 5.150453534317645108e+02
2.264543490437704865e-01 5.150471384228339957e+02
2.265543730495318819e-01 5.150489042794114312e+02
2.266543970552932497e-01 5.150506509826983574e+02
2.267544210610546451e-01 5.150523785145960574e+02
2.268544450668160128e-01 5.150540868577061246e+02
2.269544690725774361e-01 5.150557759953314871e+02
2.270544930783388038e-01 5.150574459114816364e+02
2.271545170841001715e-01 5.150590965908718317e+02
2.272545410898615670e-01 5.150607280189231005e+02
2.273545650956229347e-01 5.150623401817675813e+02
2.274545891013843302e-01 5.150639330662489783e+02
2.275546131071456979e-01 5.150655066599217662e+02
2.276546371129070934e-01 5.150670609510561917e+02
2.277546611186684611e-01 5.150685959286362277e+02
2.278546851244298566e-01 5.150701115823663940e+02
2.279547091301912243e-01 5.150716079026666421e+02
2.280547331359525920e-01 5.150730848806787208e+02
2.281547571417140152e-01 5.150745425082654947e+02
2.282547811474753829e-01 5.150759807780128767e+02
2.283548051532367784e-01 5.150773996832322155e+02
2.284548291589981461e-01 5.150787992179581352e+02
2.285548531647595416e-01 5.150801793769544474e+02
2.286548771705209093e-01 5.150815401557122186e+02
2.287549011762822770e-01 5.150828815504517024e+02
2.288549251820437003e-01 5.150842035581256368e+02
2.289549491878050680e-01 5.150855061764162883e+02
2.290549731935664635e-01 5.150867894037406813e+02
2.291549971993278312e-01 5.150880532392496889e+02
2.292550212050892267e-01 5.150892976828291694e+02
2.293550452108505944e-01 5.150905227351014446e+02
2.294550692166119621e-01 5.150917283974270049e+02
2.295550932223733576e-01 5.150929146719031451e+02
2.296551172281347253e-01 5.150940815613686254e+02
2.297551412338961208e-01 5.150952290694010571e+02
2.298551652396574885e-01 5.150963572003196305e+02
2.299551892454189117e-01 5.150974659591867066e+02
2.300552132511802794e-01 5.150985553518064535e+02
2.301552372569416471e-01 5.150996253847276876e+02
2.302552612627030426e-01 5.151006760652434195e+02
2.303552852684644103e-01 5.151017074013925594e+02
2.304553092742258058e-01 5.151027194019600302e+02
2.305553332799871735e-01 5.151037120764774500e+02
2.306553572857485968e-01 5.151046854352241553e+02
2.307553812915099645e-01 5.151056394892282242e+02
2.308554052972713322e-01 5.151065742502657940e+02
2.309554293030327277e-01 5.151074897308627669e+02
2.310554533087940954e-01 5.151083859442953781e+02
2.311554773145554909e-01 5.151092629045900821e+02
2.312555013203168586e-01 5.151101206265238943e+02
2.313555253260782540e-01 5.151109591256260956e+02
2.314555493318396218e-01 5.151117784181777779e+02
2.315555733376010172e-01 5.151125785212116170e+02
2.316555973433623850e-01 5.151133594525135777e+02
2.317556213491237527e-01 5.151141212306231409e+02
2.318556453548851759e-01 5.151148638748318263e+02
2.319556693606465436e-01 5.151155874051862611e+02
2.320556933664079391e-01 5.151162918424852251e+02
2.321557173721693068e-01 5.151169772082828331e+02
2.322557413779307023e-01 5.151176435248875123e+02
2.323557653836920700e-01 5.151182908153612061e+02
2.324557893894534377e-01 5.151189191035211934e+02
2.325558133952148610e-01 5.151195284139386104e+02
2.326558374009762287e-01 5.151201187719400423e+02
2.327558614067376241e-01 5.151206902036065003e+02
2.328558854124989919e-01 5.151212427357731940e+02
2.329559094182603873e-01 5.151217763960303273e+02
2.330559334240217551e-01 5.151222912127233258e+02
2.331559574297831228e-01 5.151227872149509039e+02
2.332559814355445182e-01 5.151232644325675665e+02
2.333560054413058860e-01 5.151237228961801975e+02
2.334560294470672814e-01 5.151241626371510165e+02
2.335560534528286492e-01 5.151245836875959867e+02
2.336560774585900724e-01 5.151249860803836782e+02
2.337561014643514401e-01 5.151253698491366322e+02
2.338561254701128078e-01 5.151257350282299967e+02
2.339561494758742033e-01 5.151260816527918678e+02
2.340561734816355710e-01 5.151264097587011292e+02
2.341561974873969665e-01 5.151267193825899540e+02
2.342562214931583342e-01 5.151270105618416437e+02
2.343562454989197574e-01 5.151272833345891513e+02
2.344562695046811251e-01 5.151275377397167858e+02
2.345562935104424929e-01 5.151277738168578253e+02
2.346563175162038883e-01 5.151279916063956534e+02
2.347563415219652561e-01 5.151281911494606902e+02
2.348563655277266515e-01 5.151283724879333477e+02
2.349563895334880193e-01 5.151285356644391413e+02
2.350564135392494147e-01 5.151286807223513051e+02
2.351564375450107824e-01 5.151288077057884038e+02
2.352564615507721779e-01 5.151289166596143332e+02
2.353564855565335456e-01 5.151290076294374103e+02
2.354565095622949134e-01 5.151290806616085547e+02
2.355565335680563366e-01 5.151291358032212884e+02
2.356565575738177043e-01 5.151291731021115083e+02
2.357565815795790998e-01 5.151291926068558951e+02
2.358566055853404675e-01 5.151291943667686155e+02
2.359566295911018630e-01 5.151291784319055296e+02
2.360566535968632307e-01 5.151291448530585058e+02
2.361566776026245984e-01 5.151290936817562169e+02
2.362567016083860216e-01 5.151290249702639130e+02
2.363567256141473893e-01 5.151289387715797830e+02
2.364567496199087848e-01 5.151288351394351821e+02
2.365567736256701525e-01 5.151287141282956554e+02
2.366567976314315480e-01 5.151285757933554805e+02
2.367568216371929157e-01 5.151284201905396003e+02
2.368568456429542834e-01 5.151282473765011218e+02
2.369568696487156789e-01 5.151280574086200659e+02
2.370568936544770466e-01 5.151278503450023436e+02
2.371569176602384421e-01 5.151276262444774829e+02
2.372569416659998098e-01 5.151273851665989696e+02
2.373569656717612331e-01 5.151271271716412912e+02
2.374569896775226008e-01 5.151268523205986867e+02
2.375570136832839685e-01 5.151265606751837822e+02
2.376570376890453640e-01 5.151262522978270226e+02
2.377570616948067317e-01 5.151259272516734882e+02
2.378570857005681272e-01 5.151255856005817577e+02
2.379571097063294949e-01 5.151252274091236814e+02
2.380571337120909181e-01 5.151248527425806287e+02
2.381571577178522858e-01 5.151244616669437164e+02
2.382571817236136535e-01 5.151240542489101699e+02
2.383572057293750490e-01 5.151236305558827553e+02
2.384572297351364167e-01 5.151231906559687559e+02
2.385572537408978122e-01 5.151227346179759934e+02
2.386572777466591799e-01 5.151222625114122593e+02
2.387573017524205754e-01 5.151217744064849740e+02
2.388573257581819431e-01 5.151212703740951611e+02
2.389573497639433386e-01 5.151207504858400625e+02
2.390573737697047063e-01 5.151202148140084773e+02
2.391573977754660740e-01 5.151196634315792835e+02
2.392574217812274973e-01 5.151190964122184823e+02
2.393574457869888650e-01 5.151185138302804489e+02
2.394574697927502605e-01 5.151179157608020205e+02
2.395574937985116282e-01 5.151173022795018142e+02
2.396575178042730236e-01 5.151166734627790902e+02
2.397575418100343914e-01 5.151160293877101140e+02
2.398575658157957591e-01 5.151153701320461096e+02
2.399575898215571823e-01 5.151146957742116683e+02
