0.000000000000000000e+00 5.124689673062193833e+02
1.000220048410650341e-04 5.124523341540266301e+02
2.000440096821300682e-04 5.124356876256797477e+02
3.000660145231950752e-04 5.124190283069580119e+02
4.000880193642601364e-04 5.124023567846508058e+02
5.001100242053251434e-04 5.123856736465384074e+02
6.001320290463901504e-04 5.123689794813678873e+02
7.001540338874551574e-04 5.123522748788312811e+02
8.001760387285202728e-04 5.123355604295409194e+02
9.001980435695852798e-04 5.123188367250107831e+02
1.000220048410650287e-03 5.123021043576303555e+02
1.100242053251715294e-03 5.122853639206427943e+02
1.200264058092780301e-03 5.122686160081240132e+02
1.300286062933845308e-03 5.122518612149571027e+02
1.400308067774910315e-03 5.122351001368120933e+02
1.500330072615975322e-03 5.122183333701216270e+02
1.600352077457040546e-03 5.122015615120592429e+02
1.700374082298105553e-03 5.121847851605147071e+02
1.800396087139170560e-03 5.121680049140725259e+02
1.900418091980235567e-03 5.121512213719901183e+02
2.000440096821300574e-03 5.121344351341716674e+02
2.100462101662365581e-03 5.121176468011474299e+02
2.200484106503430588e-03 5.121008569740513394e+02
2.300506111344495595e-03 5.120840662545962232e+02
2.400528116185560602e-03 5.120672752450508369e+02
2.500550121026625609e-03 5.120504845482182645e+02
2.600572125867690616e-03 5.120336947674110206e+02
2.700594130708756056e-03 5.120169065064304732e+02
2.800616135549820630e-03 5.120001203695397862e+02
2.900638140390886070e-03 5.119833369614448202e+02
3.000660145231950644e-03 5.119665568872685526e+02
3.100682150073016084e-03 5.119497807525283406e+02
3.200704154914081091e-03 5.119330091631125015e+02
3.300726159755145665e-03 5.119162427252582575e+02
3.400748164596211105e-03 5.118994820455269519e+02
3.500770169437275679e-03 5.118827277307819941e+02
3.600792174278341119e-03 5.118659803881645303e+02
3.700814179119406126e-03 5.118492406250704221e+02
3.800836183960471133e-03 5.118325090491280775e+02
3.900858188801536140e-03 5.118157862681741790e+02
4.000880193642601147e-03 5.117990728902290130e+02
4.100902198483666154e-03 5.117823695234764045e+02
4.200924203324731161e-03 5.117656767762367735e+02
4.300946208165796168e-03 5.117489952569470688e+02
4.400968213006861175e-03 5.117323255741342223e+02
4.500990217847926182e-03 5.117156683363950833e+02
4.601012222688991189e-03 5.116990241523704412e+02
4.701034227530056196e-03 5.116823936307217195e+02
4.801056232371121203e-03 5.116657773801108533e+02
4.901078237212187078e-03 5.116491760091723222e+02
5.001100242053251217e-03 5.116325901264925733e+02
5.101122246894316224e-03 5.116160203405868856e+02
5.201144251735381231e-03 5.115994672598740181e+02
5.301166256576447106e-03 5.115829314926543816e+02
5.401188261417512113e-03 5.115664136470861649e+02
5.501210266258576252e-03 5.115499143311625971e+02
5.601232271099641259e-03 5.115334341526870503e+02
5.701254275940706266e-03 5.115169737192513821e+02
5.801276280781772141e-03 5.115005336382118912e+02
5.901298285622837148e-03 5.114841145166647038e+02
6.001320290463901287e-03 5.114677169614254240e+02
6.101342295304966294e-03 5.114513415790029285e+02
6.201364300146032169e-03 5.114349889755774257e+02
6.301386304987097176e-03 5.114186597569766946e+02
6.401408309828162183e-03 5.114023545286532340e+02
6.501430314669226322e-03 5.113860738956604450e+02
6.601452319510291329e-03 5.113698184626302350e+02
6.701474324351357204e-03 5.113535888337474375e+02
6.801496329192422211e-03 5.113373856127307704e+02
6.901518334033487218e-03 5.113212094028047545e+02
7.001540338874551357e-03 5.113050608066804443e+02
7.101562343715617232e-03 5.112889404265297912e+02
7.201584348556682239e-03 5.112728488639638726e+02
7.301606353397747246e-03 5.112567867200082219e+02
7.401628358238812253e-03 5.112407545950819667e+02
7.501650363079876392e-03 5.112247530889724771e+02
7.601672367920942266e-03 5.112087828008130259e+02
7.701694372762007273e-03 5.111928443290614723e+02
7.801716377603072280e-03 5.111769382714729772e+02
7.901738382444137287e-03 5.111610652250823250e+02
8.001760387285202294e-03 5.111452257861761836e+02
8.101782392126267301e-03 5.111294205502737213e+02
8.201804396967332308e-03 5.111136501121013680e+02
8.301826401808397315e-03 5.110979150655704757e+02
8.401848406649462322e-03 5.110822160037552067e+02
8.501870411490527329e-03 5.110665535188697390e+02
8.601892416331592336e-03 5.110509282022424031e+02
8.701914421172657343e-03 5.110353406442986284e+02
8.801936426013722350e-03 5.110197914345322374e+02
8.901958430854787357e-03 5.110042811614863467e+02
9.001980435695852364e-03 5.109888104127306292e+02
9.102002440536917371e-03 5.109733797748360757e+02
9.202024445377982378e-03 5.109579898333551000e+02
9.302046450219047385e-03 5.109426411727972663e+02
9.402068455060112392e-03 5.109273343766091102e+02
9.502090459901177399e-03 5.109120700271474789e+02
9.602112464742242406e-03 5.108968487056610570e+02
9.702134469583307413e-03 5.108816709922664359e+02
9.802156474424374155e-03 5.108665374659249778e+02
9.902178479265437427e-03 5.108514487044221823e+02
1.000220048410650243e-02 5.108364052843430727e+02
1.010222248894756918e-02 5.108214077810532672e+02
1.020224449378863245e-02 5.108064567686730015e+02
1.030226649862969746e-02 5.107915528200580866e+02
1.040228850347076246e-02 5.107766965067756360e+02
1.050231050831182747e-02 5.107618883990837162e+02
1.060233251315289421e-02 5.107471290659082683e+02
1.070235451799395748e-02 5.107324190748204273e+02
1.080237652283502423e-02 5.107177589920174228e+02
1.090239852767608750e-02 5.107031493822971129e+02
1.100242053251715250e-02 5.106885908090395674e+02
1.110244253735821925e-02 5.106740838341823405e+02
1.120246454219928252e-02 5.106596290182009170e+02
1.130248654704034753e-02 5.106452269200856904e+02
1.140250855188141253e-02 5.106308780973217267e+02
1.150253055672247754e-02 5.106165831058658569e+02
1.160255256156354428e-02 5.106023425001263263e+02
1.170257456640460755e-02 5.105881568329394895e+02
1.180259657124567430e-02 5.105740266555516769e+02
1.190261857608673930e-02 5.105599525175954341e+02
1.200264058092780257e-02 5.105459349670680353e+02
1.210266258576886932e-02 5.105319745503123272e+02
1.220268459060993259e-02 5.105180718119933090e+02
1.230270659545099760e-02 5.105042272950786355e+02
1.240272860029206434e-02 5.104904415408180967e+02
1.250275060513312761e-02 5.104767150887200273e+02
1.260277260997419435e-02 5.104630484765335723e+02
1.270279461481525762e-02 5.104494422402267446e+02
1.280281661965632437e-02 5.104358969139634610e+02
1.290283862449738937e-02 5.104224130300875117e+02
1.300286062933845264e-02 5.104089911190976068e+02
1.310288263417951939e-02 5.103956317096284465e+02
1.320290463902058266e-02 5.103823353284315658e+02
1.330292664386164767e-02 5.103691025003535060e+02
1.340294864870271441e-02 5.103559337483154081e+02
1.350297065354377768e-02 5.103428295932928336e+02
1.360299265838484442e-02 5.103297905542965509e+02
1.370301466322590769e-02 5.103168171483517881e+02
1.380303666806697444e-02 5.103039098904781099e+02
1.390305867290803944e-02 5.102910692936687838e+02
1.400308067774910271e-02 5.102782958688738404e+02
1.410310268259016946e-02 5.102655901249754038e+02
1.420312468743123446e-02 5.102529525687735372e+02
1.430314669227229774e-02 5.102403837049617437e+02
1.440316869711336448e-02 5.102278840361103676e+02
1.450319070195442775e-02 5.102154540626457333e+02
1.460321270679549449e-02 5.102030942828329216e+02
1.470323471163655950e-02 5.101908051927514975e+02
1.480325671647762451e-02 5.101785872862833457e+02
1.490327872131868951e-02 5.101664410550873185e+02
1.500330072615975278e-02 5.101543669885837744e+02
1.510332273100081953e-02 5.101423655739332617e+02
1.520334473584188453e-02 5.101304372960203182e+02
1.530336674068294781e-02 5.101185826374318140e+02
1.540338874552401455e-02 5.101068020784404098e+02
1.550341075036507782e-02 5.100950960969852304e+02
1.560343275520614456e-02 5.100834651686521397e+02
1.570345476004721130e-02 5.100719097666571997e+02
1.580347676488827457e-02 5.100604303618268318e+02
1.590349876972933785e-02 5.100490274225811618e+02
1.600352077457040459e-02 5.100377014149136699e+02
1.610354277941146786e-02 5.100264528023751609e+02
1.620356478425253460e-02 5.100152820460536987e+02
1.630358678909359788e-02 5.100041896045587464e+02
1.640360879393466462e-02 5.099931759340020108e+02
1.650363079877573136e-02 5.099822414879806729e+02
1.660365280361679463e-02 5.099713867175589712e+02
1.670367480845786137e-02 5.099606120712502957e+02
1.680369681329892464e-02 5.099499179950013854e+02
1.690371881813999139e-02 5.099393049321731723e+02
1.700374082298105466e-02 5.099287733235257747e+02
1.710376282782211793e-02 5.099183236071971805e+02
1.720378483266318467e-02 5.099079562186921066e+02
1.730380683750424795e-02 5.098976715908598294e+02
1.740382884234531469e-02 5.098874701538807130e+02
1.750385084718638143e-02 5.098773523352477355e+02
1.760387285202744470e-02 5.098673185597494353e+02
1.770389485686851144e-02 5.098573692494560419e+02
1.780391686170957471e-02 5.098475048236990119e+02
1.790393886655063799e-02 5.098377256990590354e+02
1.800396087139170473e-02 5.098280322893472203e+02
1.810398287623276800e-02 5.098184250055882103e+02
1.820400488107383474e-02 5.098089042560063717e+02
1.830402688591490148e-02 5.097994704460097637e+02
1.840404889075596476e-02 5.097901239781718346e+02
1.850407089559703150e-02 5.097808652522182342e+02
1.860409290043809477e-02 5.097716946650107843e+02
1.870411490527916151e-02 5.097626126105303683e+02
1.880413691012022478e-02 5.097536194798644829e+02
1.890415891496129153e-02 5.097447156611884793e+02
1.900418091980235480e-02 5.097359015397536268e+02
1.910420292464341807e-02 5.097271774978701160e+02
1.920422492948448481e-02 5.097185439148931323e+02
1.930424693432555155e-02 5.097100011672058599e+02
1.940426893916661483e-02 5.097015496282094205e+02
1.950429094400768157e-02 5.096931896683020682e+02
1.960431294884874831e-02 5.096849216548714026e+02
1.970433495368981158e-02 5.096767459522740182e+02
1.980435695853087485e-02 5.096686629218245912e+02
1.990437896337193813e-02 5.096606729217814404e+02
2.000440096821300487e-02 5.096527763073311235e+02
2.010442297305407161e-02 5.096449734305772381e+02
2.020444497789513835e-02 5.096372646405230853e+02
2.030446698273619816e-02 5.096296502830602435e+02
2.040448898757726490e-02 5.096221307009549264e+02
2.050451099241833164e-02 5.096147062338349087e+02
2.060453299725939491e-02 5.096073772181735535e+02
2.070455500210046165e-02 5.096001439872797505e+02
2.080457700694152492e-02 5.095930068712841603e+02
2.090459901178259167e-02 5.095859661971248897e+02
2.100462101662365494e-02 5.095790222885359526e+02
2.110464302146472168e-02 5.095721754660332863e+02
2.120466502630578842e-02 5.095654260469045198e+02
2.130468703114684823e-02 5.095587743451937399e+02
2.140470903598791497e-02 5.095522206716913161e+02
2.150473104082898171e-02 5.095457653339196895e+02
2.160475304567004845e-02 5.095394086361233121e+02
2.170477505051111172e-02 5.095331508792550608e+02
2.180479705535217499e-02 5.095269923609660054e+02
2.190481906019323827e-02 5.095209333755914827e+02
2.200484106503430501e-02 5.095149742141419438e+02
2.210486306987537175e-02 5.095091151642888008e+02
2.220488507471643849e-02 5.095033565103562978e+02
2.230490707955749830e-02 5.094976985333073003e+02
2.240492908439856504e-02 5.094921415107341431e+02
2.250495108923963178e-02 5.094866857168465231e+02
2.260497309408069505e-02 5.094813314224612668e+02
2.270499509892176179e-02 5.094760788949919288e+02
2.280501710376282506e-02 5.094709283984371382e+02
2.290503910860389181e-02 5.094658801933708787e+02
2.300506111344495508e-02 5.094609345369329390e+02
2.310508311828602182e-02 5.094560916828166910e+02
2.320510512312708856e-02 5.094513518812605071e+02
2.330512712796814837e-02 5.094467153790386647e+02
2.340514913280921511e-02 5.094421824194479882e+02
2.350517113765028185e-02 5.094377532423040407e+02
2.360519314249134859e-02 5.094334280839249232e+02
2.370521514733241186e-02 5.094292071771268411e+02
2.380523715217347860e-02 5.094250907512125650e+02
2.390525915701453841e-02 5.094210790319636430e+02
2.400528116185560515e-02 5.094171722416293164e+02
2.410530316669667189e-02 5.094133705989199825e+02
2.420532517153773863e-02 5.094096743189966787e+02
2.430534717637880537e-02 5.094060836134642614e+02
2.440536918121986518e-02 5.094025986903610033e+02
2.450539118606093192e-02 5.093992197541512610e+02
2.460541319090199519e-02 5.093959470057179146e+02
2.470543519574306193e-02 5.093927806423527613e+02
2.480545720058412867e-02 5.093897208577495803e+02
2.490547920542519195e-02 5.093867678419971980e+02
2.500550121026625522e-02 5.093839217815688016e+02
2.510552321510732196e-02 5.093811828593184146e+02
2.520554521994838870e-02 5.093785512544710627e+02
2.530556722478945197e-02 5.093760271426154418e+02
2.540558922963051525e-02 5.093736106956977210e+02
2.550561123447158199e-02 5.093713020820151200e+02
2.560563323931264873e-02 5.093691014662063026e+02
2.570565524415371200e-02 5.093670090092487044e+02
2.580567724899477874e-02 5.093650248684489270e+02
2.590569925383583855e-02 5.093631491974375081e+02
2.600572125867690529e-02 5.093613821461624980e+02
2.610574326351797203e-02 5.093597238608833777e+02
2.620576526835903877e-02 5.093581744841645786e+02
2.630578727320010551e-02 5.093567341548706509e+02
2.640580927804116532e-02 5.093554030081592714e+02
2.650583128288223206e-02 5.093541811754768673e+02
2.660585328772329533e-02 5.093530687845533294e+02
2.670587529256436207e-02 5.093520659593945084e+02
2.680589729740542881e-02 5.093511728202801123e+02
2.690591930224649209e-02 5.093503894837559187e+02
2.700594130708755536e-02 5.093497160626315008e+02
2.710596331192862210e-02 5.093491526659736905e+02
2.720598531676968884e-02 5.093486993991015197e+02
2.730600732161075211e-02 5.093483563635850260e+02
2.740602932645181539e-02 5.093481236572360444e+02
2.750605133129288213e-02 5.093480013741096855e+02
2.760607333613394887e-02 5.093479896044951829e+02
2.770609534097501214e-02 5.093480884349145299e+02
2.780611734581607888e-02 5.093482979481193524e+02
2.790613935065714563e-02 5.093486182230848272e+02
2.800616135549820543e-02 5.093490493350101360e+02
2.810618336033927217e-02 5.093495913553105652e+02
2.820620536518033891e-02 5.093502443516180165e+02
2.830622737002140565e-02 5.093510083877760053e+02
2.840624937486246893e-02 5.093518835238370457e+02
2.850627137970353220e-02 5.093528698160615136e+02
2.860629338454459547e-02 5.093539673169128719e+02
2.870631538938566221e-02 5.093551760750565904e+02
2.880633739422672895e-02 5.093564961353565650e+02
2.890635939906779570e-02 5.093579275388748329e+02
2.900638140390885550e-02 5.093594703228679350e+02
2.910640340874992224e-02 5.093611245207868592e+02
2.920642541359098898e-02 5.093628901622719809e+02
2.930644741843205225e-02 5.093647672731560760e+02
2.940646942327311900e-02 5.093667558754584661e+02
2.950649142811418227e-02 5.093688559873867234e+02
2.960651343295524901e-02 5.093710676233344543e+02
2.970653543779631228e-02 5.093733907938800485e+02
2.980655744263737902e-02 5.093758255057865654e+02
2.990657944747844577e-02 5.093783717620004268e+02
3.000660145231950557e-02 5.093810295616503367e+02
3.010662345716057231e-02 5.093837989000484185e+02
3.020664546200163905e-02 5.093866797686889640e+02
3.030666746684270579e-02 5.093896721552477516e+02
3.040668947168376907e-02 5.093927760435830692e+02
3.050671147652483234e-02 5.093959914137359988e+02
3.060673348136589561e-02 5.093993182419294499e+02
3.070675548620696235e-02 5.094027565005695806e+02
3.080677749104802909e-02 5.094063061582461387e+02
3.090679949588909584e-02 5.094099671797332576e+02
3.100682150073015564e-02 5.094137395259892855e+02
3.110684350557122238e-02 5.094176231541607649e+02
3.120686551041228912e-02 5.094216180175801014e+02
3.130688751525335239e-02 5.094257240657691455e+02
3.140690952009442261e-02 5.094299412444383961e+02
3.150693152493547894e-02 5.094342694954922308e+02
3.160695352977654915e-02 5.094387087570270296e+02
3.170697553461761242e-02 5.094432589633348130e+02
3.180699753945867569e-02 5.094479200449051746e+02
3.190701954429974591e-02 5.094526919284264750e+02
3.200704154914080918e-02 5.094575745367899913e+02
3.210706355398187245e-02 5.094625677890903148e+02
3.220708555882293572e-02 5.094676716006296147e+02
3.230710756366400593e-02 5.094728858829186606e+02
3.240712956850506921e-02 5.094782105436821098e+02
3.250715157334613248e-02 5.094836454868584497e+02
3.260717357818719575e-02 5.094891906126066488e+02
3.270719558302826596e-02 5.094948458173064978e+02
3.280721758786932923e-02 5.095006109935625318e+02
3.290723959271039251e-02 5.095064860302103398e+02
3.300726159755146272e-02 5.095124708123163941e+02
3.310728360239252599e-02 5.095185652211847582e+02
3.320730560723358926e-02 5.095247691343599854e+02
3.330732761207465253e-02 5.095310824256305864e+02
3.340734961691572275e-02 5.095375049650358505e+02
3.350737162175678602e-02 5.095440366188672670e+02
3.360739362659784929e-02 5.095506772496748340e+02
3.370741563143891256e-02 5.095574267162708111e+02
3.380743763627998277e-02 5.095642848737364830e+02
3.390745964112104605e-02 5.095712515734247177e+02
3.400748164596210932e-02 5.095783266629669583e+02
3.410750365080317259e-02 5.095855099862773727e+02
3.420752565564423586e-02 5.095928013835580259e+02
3.430754766048530607e-02 5.096002006913064974e+02
3.440756966532636935e-02 5.096077077423196897e+02
3.450759167016743956e-02 5.096153223657000808e+02
3.460761367500849589e-02 5.096230443868608972e+02
3.470763567984956610e-02 5.096308736275350384e+02
3.480765768469062937e-02 5.096388099057778618e+02
3.490767968953169265e-02 5.096468530359753686e+02
3.500770169437276286e-02 5.096550028288521048e+02
3.510772369921381919e-02 5.096632590914734919e+02
3.520774570405488940e-02 5.096716216272579913e+02
3.530776770889595267e-02 5.096800902359791507e+02
3.540778971373702289e-02 5.096886647137780528e+02
3.550781171857808616e-02 5.096973448531637700e+02
3.560783372341914943e-02 5.097061304430271207e+02
3.570785572826021270e-02 5.097150212686447048e+02
3.580787773310127597e-02 5.097240171116867486e+02
3.590789973794234619e-02 5.097331177502258583e+02
3.600792174278340946e-02 5.097423229587445803e+02
3.610794374762447273e-02 5.097516325081429613e+02
3.620796575246553600e-02 5.097610461657475298e+02
3.630798775730660621e-02 5.097705636953181738e+02
3.640800976214766949e-02 5.097801848570586003e+02
3.650803176698873276e-02 5.097899094076234974e+02
3.660805377182980297e-02 5.097997371001276861e+02
3.670807577667086624e-02 5.098096676841537942e+02
3.680809778151192951e-02 5.098197009057637388e+02
3.690811978635299279e-02 5.098298365075061156e+02
3.700814179119406300e-02 5.098400742284238731e+02
3.710816379603512627e-02 5.098504138040675002e+02
3.720818580087618954e-02 5.098608549665020746e+02
3.730820780571725281e-02 5.098713974443166990e+02
3.740822981055832303e-02 5.098820409626346759e+02
3.750825181539938630e-02 5.098927852431241945e+02
3.760827382024044957e-02 5.099036300040071978e+02
3.770829582508151284e-02 5.099145749600706381e+02
3.780831782992258305e-02 5.099256198226752304e+02
3.790833983476364633e-02 5.099367642997674466e+02
3.800836183960470960e-02 5.099480080958884969e+02
3.810838384444577981e-02 5.099593509121874604e+02
3.820840584928683614e-02 5.099707924464274811e+02
3.830842785412790635e-02 5.099823323930025936e+02
3.840844985896896963e-02 5.099939704429446010e+02
3.850847186381003984e-02 5.100057062839342166e+02
3.860849386865110311e-02 5.100175396003147625e+02
3.870851587349216638e-02 5.100294700731026296e+02
3.880853787833322965e-02 5.100414973799971108e+02
3.890855988317429293e-02 5.100536211953948396e+02
3.900858188801536314e-02 5.100658411903986007e+02
3.910860389285641947e-02 5.100781570328326779e+02
3.920862589769749662e-02 5.100905683872508121e+02
3.930864790253855295e-02 5.101030749149520034e+02
3.940866990737962317e-02 5.101156762739915393e+02
3.950869191222068644e-02 5.101283721191911127e+02
3.960871391706174971e-02 5.101411621021551355e+02
3.970873592190281992e-02 5.101540458712805730e+02
3.980875792674387625e-02 5.101670230717716095e+02
3.990877993158495340e-02 5.101800933456503344e+02
4.000880193642600974e-02 5.101932563317715790e+02
4.010882394126707301e-02 5.102065116658353645e+02
4.020884594610814322e-02 5.102198589803999766e+02
4.030886795094920649e-02 5.102332979048956076e+02
4.040888995579027670e-02 5.102468280656372599e+02
4.050891196063133304e-02 5.102604490858387294e+02
4.060893396547239631e-02 5.102741605856267597e+02
4.070895597031346652e-02 5.102879621820538887e+02
4.080897797515452979e-02 5.103018534891123181e+02
4.090899997999560000e-02 5.103158341177493185e+02
4.100902198483666328e-02 5.103299036758797911e+02
4.110904398967772655e-02 5.103440617684009908e+02
4.120906599451878982e-02 5.103583079972078167e+02
4.130908799935985309e-02 5.103726419612056588e+02
4.140911000420092331e-02 5.103870632563262006e+02
4.150913200904198658e-02 5.104015714755415729e+02
4.160915401388304985e-02 5.104161662088799289e+02
4.170917601872412006e-02 5.104308470434386891e+02
4.180919802356518333e-02 5.104456135634014800e+02
4.190922002840624661e-02 5.104604653500512086e+02
4.200924203324730988e-02 5.104754019817880817e+02
4.210926403808837315e-02 5.104904230341423954e+02
4.220928604292944336e-02 5.105055280797904516e+02
4.230930804777050663e-02 5.105207166885717243e+02
4.240933005261157684e-02 5.105359884275019340e+02
4.250935205745264012e-02 5.105513428607915785e+02
4.260937406229369645e-02 5.105667795498597457e+02
4.270939606713476666e-02 5.105822980533502005e+02
4.280941807197582993e-02 5.105978979271490630e+02
4.290944007681690014e-02 5.106135787244000994e+02
4.300946208165796342e-02 5.106293399955191603e+02
4.310948408649901975e-02 5.106451812882133936e+02
4.320950609134009690e-02 5.106611021474973313e+02
4.330952809618115323e-02 5.106771021157064752e+02
4.340955010102222345e-02 5.106931807325175896e+02
4.350957210586328672e-02 5.107093375349644475e+02
4.360959411070434999e-02 5.107255720574531779e+02
4.370961611554542020e-02 5.107418838317802283e+02
4.380963812038647653e-02 5.107582723871504413e+02
4.390966012522755368e-02 5.107747372501929704e+02
4.400968213006861002e-02 5.107912779449784466e+02
4.410970413490967329e-02 5.108078939930367710e+02
4.420972613975074350e-02 5.108245849133737693e+02
4.430974814459180677e-02 5.108413502224913145e+02
4.440977014943287698e-02 5.108581894344007424e+02
4.450979215427393332e-02 5.108751020606449060e+02
4.460981415911499659e-02 5.108920876103122168e+02
4.470983616395606680e-02 5.109091455900573919e+02
4.480985816879713007e-02 5.109262755041178252e+02
4.490988017363820028e-02 5.109434768543308110e+02
4.500990217847926356e-02 5.109607491401558264e+02
4.510992418332032683e-02 5.109780918586870939e+02
4.520994618816139010e-02 5.109955045046760915e+02
4.530996819300245337e-02 5.110129865705485486e+02
4.540999019784352358e-02 5.110305375464223516e+02
4.551001220268458686e-02 5.110481569201272123e+02
4.561003420752565013e-02 5.110658441772226297e+02
4.571005621236672034e-02 5.110835988010174447e+02
4.581007821720778361e-02 5.111014202725868358e+02
4.591010022204884689e-02 5.111193080707936360e+02
4.601012222688991016e-02 5.111372616723060673e+02
4.611014423173097343e-02 5.111552805516159879e+02
4.621016623657204364e-02 5.111733641810589575e+02
4.631018824141310691e-02 5.111915120308349287e+02
4.641021024625417712e-02 5.112097235690247885e+02
4.651023225109524040e-02 5.112279982616103098e+02
4.661025425593629673e-02 5.112463355724967755e+02
4.671027626077736694e-02 5.112647349635269620e+02
4.681029826561843021e-02 5.112831958945064343e+02
4.691032027045950042e-02 5.113017178232178139e+02
4.701034227530056370e-02 5.113203002054467561e+02
4.711036428014163391e-02 5.113389424949954218e+02
4.721038628498269718e-02 5.113576441437063522e+02
4.731040828982375351e-02 5.113764046014809992e+02
4.741043029466482372e-02 5.113952233163008714e+02
4.751045229950588700e-02 5.114140997342454398e+02
4.761047430434695721e-02 5.114330332995151593e+02
4.771049630918802048e-02 5.114520234544490904e+02
4.781051831402907681e-02 5.114710696395471814e+02
4.791054031887015396e-02 5.114901712934892544e+02
4.801056232371121030e-02 5.115093278531567762e+02
4.811058432855228051e-02 5.115285387536512189e+02
4.821060633339334378e-02 5.115478034283175930e+02
4.831062833823440705e-02 5.115671213087613296e+02
4.841065034307547726e-02 5.115864918248738604e+02
4.851067234791653360e-02 5.116059144048475105e+02
4.861069435275761075e-02 5.116253884752017598e+02
4.871071635759866708e-02 5.116449134608012628e+02
4.881073836243973035e-02 5.116644887848761982e+02
4.891076036728080056e-02 5.116841138690446655e+02
4.901078237212186384e-02 5.117037881333341147e+02
4.911080437696293405e-02 5.117235109962010711e+02
4.921082638180399038e-02 5.117432818745526220e+02
4.931084838664505365e-02 5.117631001837676195e+02
4.941087039148612386e-02 5.117829653377193608e+02
4.951089239632718714e-02 5.118028767487948585e+02
4.961091440116825735e-02 5.118228338279166678e+02
4.971093640600932062e-02 5.118428359845655109e+02
4.981095841085038389e-02 5.118628826268009675e+02
4.991098041569144717e-02 5.118829731612821661e+02
5.001100242053251044e-02 5.119031069932899527e+02
5.011102442537358065e-02 5.119232835267501400e+02
5.021104643021464392e-02 5.119435021642518109e+02
5.031106843505570719e-02 5.119637623070722157e+02
5.041109043989677740e-02 5.119840633551961560e+02
5.051111244473784068e-02 5.120044047073395177e+02
5.061113444957890395e-02 5.120247857609703033e+02
5.071115645441996722e-02 5.120452059123301751e+02
5.081117845926103049e-02 5.120656645564577047e+02
5.091120046410210070e-02 5.120861610872073015e+02
5.101122246894316398e-02 5.121066948972762702e+02
5.111124447378423419e-02 5.121272653782214093e+02
5.121126647862529746e-02 5.121478719204844765e+02
5.131128848346635379e-02 5.121685139134133351e+02
5.141131048830742400e-02 5.121891907452848045e+02
5.151133249314848728e-02 5.122099018033247830e+02
5.161135449798955749e-02 5.122306464737338274e+02
5.171137650283062076e-02 5.122514241417045469e+02
5.181139850767167709e-02 5.122722341914507069e+02
5.191142051251275424e-02 5.122930760062216677e+02
5.201144251735381058e-02 5.123139489683314878e+02
5.211146452219488079e-02 5.123348524591775686e+02
5.221148652703594406e-02 5.123557858592637331e+02
5.231150853187700733e-02 5.123767485482237589e+02
5.241153053671807754e-02 5.123977399048421830e+02
5.251155254155913388e-02 5.124187593070780622e+02
5.261157454640021103e-02 5.124398061320878242e+02
5.271159655124126736e-02 5.124608797562456175e+02
5.281161855608233063e-02 5.124819795551682091e+02
5.291164056092340084e-02 5.125031049037369257e+02
5.301166256576446412e-02 5.125242551761198229e+02
5.311168457060553433e-02 5.125454297457946495e+02
5.321170657544659066e-02 5.125666279855709035e+02
5.331172858028765393e-02 5.125878492676137057e+02
5.341175058512872414e-02 5.126090929634659688e+02
5.351177258996978742e-02 5.126303584440701115e+02
5.361179459481085763e-02 5.126516450797926154e+02
5.371181659965192090e-02 5.126729522404453974e+02
5.381183860449298417e-02 5.126942792953086609e+02
5.391186060933404744e-02 5.127156256131557939e+02
5.401188261417511072e-02 5.127369905622715578e+02
5.411190461901618093e-02 5.127583735104800553e+02
5.421192662385724420e-02 5.127797738251640567e+02
5.431194862869830747e-02 5.128011908732900110e+02
5.441197063353937768e-02 5.128226240214289646e+02
5.451199263838044096e-02 5.128440726357813446e+02
5.461201464322150423e-02 5.128655360821981049e+02
5.471203664806256750e-02 5.128870137262038043e+02
5.481205865290363077e-02 5.129085049330217316e+02
5.491208065774470098e-02 5.129300090675935735e+02
5.501210266258576426e-02 5.129515254946047662e+02
5.511212466742683447e-02 5.129730535785056418e+02
5.521214667226789774e-02 5.129945926835353021e+02
5.531216867710895407e-02 5.130161421737453793e+02
5.541219068195002428e-02 5.130377014130203861e+02
5.551221268679108756e-02 5.130592697651028402e+02
5.561223469163215777e-02 5.130808465936158882e+02
5.571225669647322104e-02 5.131024312620846786e+02
5.581227870131429125e-02 5.131240231339614866e+02
5.591230070615535452e-02 5.131456215726472010e+02
5.601232271099641086e-02 5.131672259415139479e+02
5.611234471583748107e-02 5.131888356039288510e+02
5.621236672067854434e-02 5.132104499232766557e+02
5.631238872551961455e-02 5.132320682629828070e+02
5.641241073036067782e-02 5.132536899865361875e+02
5.651243273520173416e-02 5.132753144575103761e+02
5.661245474004281131e-02 5.132969410395900240e+02
5.671247674488386764e-02 5.133185690965910908e+02
5.681249874972493785e-02 5.133401979924825582e+02
5.691252075456600112e-02 5.133618270914132609e+02
5.701254275940706440e-02 5.133834557577314399e+02
5.711256476424813461e-02 5.134050833560079354e+02
5.721258676908919094e-02 5.134267092510607426e+02
5.731260877393026809e-02 5.134483328079749072e+02
5.741263077877132442e-02 5.134699533921282182e+02
5.751265278361238770e-02 5.134915703692128091e+02
5.761267478845345791e-02 5.135131831052563030e+02
5.771269679329452118e-02 5.135347909666473925e+02
5.781271879813559139e-02 5.135563933201558484e+02
5.791274080297664772e-02 5.135779895329574174e+02
5.801276280781771100e-02 5.135995789726550811e+02
5.811278481265878121e-02 5.136211610073009979e+02
5.821280681749984448e-02 5.136427350054218550e+02
5.831282882234091469e-02 5.136643003360379680e+02
5.841285082718197796e-02 5.136858563686894286e+02
5.851287283202304124e-02 5.137074024734538398e+02
5.861289483686410451e-02 5.137289380209754199e+02
5.871291684170516778e-02 5.137504623824810324e+02
5.881293884654623799e-02 5.137719749298061060e+02
5.891296085138730126e-02 5.137934750354162361e+02
5.901298285622836454e-02 5.138149620724296938e+02
5.911300486106943475e-02 5.138364354146402775e+02
5.921302686591049802e-02 5.138578944365377765e+02
5.931304887075156129e-02 5.138793385133323000e+02
5.941307087559262456e-02 5.139007670209757634e+02
5.951309288043368784e-02 5.139221793361837172e+02
5.961311488527475805e-02 5.139435748364581968e+02
5.971313689011582132e-02 5.139649529001092105e+02
5.981315889495689153e-02 5.139863129062786129e+02
5.991318089979795480e-02 5.140076542349586362e+02
6.001320290463901114e-02 5.140289762670167875e+02
6.011322490948008135e-02 5.140502783842183590e+02
6.021324691432114462e-02 5.140715599692457545e+02
6.031326891916221483e-02 5.140928204057217954e+02
6.041329092400327810e-02 5.141140590782322306e+02
6.051331292884433444e-02 5.141352753723472233e+02
6.061333493368541159e-02 5.141564686746413599e+02
6.071335693852646792e-02 5.141776383727185475e+02
6.081337894336753813e-02 5.141987838552313406e+02
6.091340094820860140e-02 5.142199045119024277e+02
6.101342295304966468e-02 5.142409997335483922e+02
6.111344495789073489e-02 5.142620689120998350e+02
6.121346696273179122e-02 5.142831114406220649e+02
6.131348896757286837e-02 5.143041267133382917e+02
6.141351097241392470e-02 5.143251141256503161e+02
6.151353297725498798e-02 5.143460730741599036e+02
6.161355498209605819e-02 5.143670029566886797e+02
6.171357698693712146e-02 5.143879031723025719e+02
6.181359899177819167e-02 5.144087731213296593e+02
6.191362099661924800e-02 5.144296122053847284e+02
6.201364300146031128e-02 5.144504198273860993e+02
6.211366500630138149e-02 5.144711953915808635e+02
6.221368701114244476e-02 5.144919383035634155e+02
6.231370901598351497e-02 5.145126479702961433e+02
6.241373102082457824e-02 5.145333238001336440e+02
6.251375302566564152e-02 5.145539652028376167e+02
6.261377503050670479e-02 5.145745715896040338e+02
6.271379703534776806e-02 5.145951423730789429e+02
6.281381904018884521e-02 5.146156769673817735e+02
6.291384104502989461e-02 5.146361747881246629e+02
6.301386304987095788e-02 5.146566352524353078e+02
6.311388505471203503e-02 5.146770577789717436e+02
6.321390705955309830e-02 5.146974417879503108e+02
6.331392906439416157e-02 5.147177867011598664e+02
6.341395106923522484e-02 5.147380919419846350e+02
6.351397307407628812e-02 5.147583569354250130e+02
6.361399507891735139e-02 5.147785811081159864e+02
6.371401708375841466e-02 5.147987638883471391e+02
6.381403908859949181e-02 5.148189047060852772e+02
6.391406109344055508e-02 5.148390029929912544e+02
6.401408309828161836e-02 5.148590581824402079e+02
6.411410510312268163e-02 5.148790697095444102e+02
6.421412710796374490e-02 5.148990370111681614e+02
6.431414911280480817e-02 5.149189595259518910e+02
6.441417111764587144e-02 5.149388366943280744e+02
6.451419312248694860e-02 5.149586679585440834e+02
6.461421512732801187e-02 5.149784527626781028e+02
6.471423713216907514e-02 5.149981905526623223e+02
6.481425913701013841e-02 5.150178807762976021e+02
6.491428114185120168e-02 5.150375228832765515e+02
6.501430314669226496e-02 5.150571163252014912e+02
6.511432515153332823e-02 5.150766605556018476e+02
6.521434715637439150e-02 5.150961550299552982e+02
6.531436916121546865e-02 5.151155992057058484e+02
6.541439116605653192e-02 5.151349925422819069e+02
6.551441317089759520e-02 5.151543345011159545e+02
6.561443517573865847e-02 5.151736245456618235e+02
6.571445718057972174e-02 5.151928621414162990e+02
6.581447918542078501e-02 5.152120467559320787e+02
6.591450119026184828e-02 5.152311778588430116e+02
6.601452319510292543e-02 5.152502549218767172e+02
6.611454519994398871e-02 5.152692774188747080e+02
6.621456720478505198e-02 5.152882448258118302e+02
6.631458920962611525e-02 5.153071566208122931e+02
6.641461121446717852e-02 5.153260122841684279e+02
6.651463321930824180e-02 5.153448112983592182e+02
6.661465522414930507e-02 5.153635531480668988e+02
6.671467722899036834e-02 5.153822373201944629e+02
6.681469923383144549e-02 5.154008633038852167e+02
6.691472123867250876e-02 5.154194305905369902e+02
6.701474324351357204e-02 5.154379386738232824e+02
6.711476524835463531e-02 5.154563870497079279e+02
6.721478725319569858e-02 5.154747752164631720e+02
6.731480925803676185e-02 5.154931026746864973e+02
6.741483126287782512e-02 5.155113689273171076e+02
6.751485326771890227e-02 5.155295734796555962e+02
6.761487527255996555e-02 5.155477158393767922e+02
6.771489727740101494e-02 5.155657955165497697e+02
6.781491928224209209e-02 5.155838120236529676e+02
6.791494128708315536e-02 5.156017648755893106e+02
6.801496329192421864e-02 5.156196535897064450e+02
6.811498529676528191e-02 5.156374776858099267e+02
6.821500730160634518e-02 5.156552366861806149e+02
6.831502930644742233e-02 5.156729301155903613e+02
6.841505131128847172e-02 5.156905575013184944e+02
6.851507331612954887e-02 5.157081183731677356e+02
6.861509532097061215e-02 5.157256122634803432e+02
6.871511732581167542e-02 5.157430387071526638e+02
6.881513933065273869e-02 5.157603972416520719e+02
6.891516133549380196e-02 5.157776874070309532e+02
6.901518334033487911e-02 5.157949087459446673e+02
6.911520534517592851e-02 5.158120608036646217e+02
6.921522735001699178e-02 5.158291431280939605e+02
6.931524935485806893e-02 5.158461552697834804e+02
6.941527135969913220e-02 5.158630967819452735e+02
6.951529336454019548e-02 5.158799672204697799e+02
6.961531536938125875e-02 5.158967661439377252e+02
6.971533737422232202e-02 5.159134931136387650e+02
6.981535937906338529e-02 5.159301476935806932e+02
6.991538138390444856e-02 5.159467294505082009e+02
7.001540338874552571e-02 5.159632379539170870e+02
7.011542539358658899e-02 5.159796727760655131e+02
7.021544739842763838e-02 5.159960334919912839e+02
7.031546940326871553e-02 5.160123196795240119e+02
7.041549140810977880e-02 5.160285309192989871e+02
7.051551341295084208e-02 5.160446667947734340e+02
7.061553541779190535e-02 5.160607268922358344e+02
7.071555742263296862e-02 5.160767108008251398e+02
7.081557942747404577e-02 5.160926181125380481e+02
7.091560143231509517e-02 5.161084484222482160e+02
7.101562343715617232e-02 5.161242013277144451e+02
7.111564544199723559e-02 5.161398764295980754e+02
7.121566744683829886e-02 5.161554733314729901e+02
7.131568945167936213e-02 5.161709916398393716e+02
7.141571145652042540e-02 5.161864309641372301e+02
7.151573346136150255e-02 5.162017909167594780e+02
7.161575546620255195e-02 5.162170711130615928e+02
7.171577747104361522e-02 5.162322711713769650e+02
7.181579947588469237e-02 5.162473907130282669e+02
7.191582148072575564e-02 5.162624293623396170e+02
7.201584348556681892e-02 5.162773867466485171e+02
7.211586549040788219e-02 5.162922624963182443e+02
7.221588749524894546e-02 5.163070562447493330e+02
7.231590950009000873e-02 5.163217676283908304e+02
7.241593150493107200e-02 5.163363962867528016e+02
7.251595350977214915e-02 5.163509418624178124e+02
7.261597551461321243e-02 5.163654040010516155e+02
7.271599751945427570e-02 5.163797823514140646e+02
7.281601952429533897e-02 5.163940765653715061e+02
7.291604152913640224e-02 5.164082862979070114e+02
7.301606353397746552e-02 5.164224112071311765e+02
7.311608553881852879e-02 5.164364509542932637e+02
7.321610754365960594e-02 5.164504052037909787e+02
7.331612954850066921e-02 5.164642736231820663e+02
7.341615155334173248e-02 5.164780558831936332e+02
7.351617355818279576e-02 5.164917516577339711e+02
7.361619556302385903e-02 5.165053606239002875e+02
7.371621756786492230e-02 5.165188824619906427e+02
7.381623957270598557e-02 5.165323168555136135e+02
7.391626157754704884e-02 5.165456634911968195e+02
7.401628358238812599e-02 5.165589220589978368e+02
7.411630558722918927e-02 5.165720922521132934e+02
7.421632759207025254e-02 5.165851737669875092e+02
7.431634959691131581e-02 5.165981663033230689e+02
7.441637160175237908e-02 5.166110695640884387e+02
7.451639360659344236e-02 5.166238832555283125e+02
7.461641561143450563e-02 5.166366070871716829e+02
7.471643761627558278e-02 5.166492407718416189e+02
7.481645962111664605e-02 5.166617840256603813e+02
7.491648162595770932e-02 5.166742365680634066e+02
7.501650363079877259e-02 5.166865981218028310e+02
7.511652563563983587e-02 5.166988684129578360e+02
7.521654764048089914e-02 5.167110471709437434e+02
7.531656964532196241e-02 5.167231341285169037e+02
7.541659165016302568e-02 5.167351290217850419e+02
7.551661365500410283e-02 5.167470315902143057e+02
7.561663565984516611e-02 5.167588415766363141e+02
7.571665766468622938e-02 5.167705587272558887e+02
7.581667966952729265e-02 5.167821827916586699e+02
7.591670167436835592e-02 5.167937135228175975e+02
7.601672367920941920e-02 5.168051506771006416e+02
7.611674568405048247e-02 5.168164940142768273e+02
7.621676768889155962e-02 5.168277432975240799e+02
7.631678969373262289e-02 5.168388982934347951e+02
7.641681169857367228e-02 5.168499587720224326e+02
7.651683370341474943e-02 5.168609245067295888e+02
7.661685570825581271e-02 5.168717952744310651e+02
7.671687771309687598e-02 5.168825708554428502e+02
7.681689971793793925e-02 5.168932510335272354e+02
7.691692172277900252e-02 5.169038355958966804e+02
7.701694372762007967e-02 5.169143243332237034e+02
7.711696573246112907e-02 5.169247170396411093e+02
7.721698773730220622e-02 5.169350135127515387e+02
7.731700974214326949e-02 5.169452135536325841e+02
7.741703174698433276e-02 5.169553169668382679e+02
7.751705375182539604e-02 5.169653235604083648e+02
7.761707575666645931e-02 5.169752331458702201e+02
7.771709776150753646e-02 5.169850455382452310e+02
7.781711976634858585e-02 5.169947605560537340e+02
7.791714177118964912e-02 5.170043780213161426e+02
7.801716377603072627e-02 5.170138977595632923e+02
7.811718578087178955e-02 5.170233195998335987e+02
7.821720778571283894e-02 5.170326433746834027e+02
7.831722979055391609e-02 5.170418689201852658e+02
7.841725179539499324e-02 5.170509960759384285e+02
7.851727380023604264e-02 5.170600246850642634e+02
7.861729580507710591e-02 5.170689545942171890e+02
7.871731780991818306e-02 5.170777856535842147e+02
7.881733981475924633e-02 5.170865177168883520e+02
7.891736181960029572e-02 5.170951506413932748e+02
7.901738382444137287e-02 5.171036842879038886e+02
7.911740582928245002e-02 5.171121185207721282e+02
7.921742783412349942e-02 5.171204532078971852e+02
7.931744983896456269e-02 5.171286882207291455e+02
7.941747184380563984e-02 5.171368234342714914e+02
7.951749384864668924e-02 5.171448587270828057e+02
7.961751585348775251e-02 5.171527939812788190e+02
7.971753785832882966e-02 5.171606290825355927e+02
7.981755986316990681e-02 5.171683639200905418e+02
7.991758186801095620e-02 5.171759983867434585e+02
8.001760387285201948e-02 5.171835323788594678e+02
8.011762587769309663e-02 5.171909657963691416e+02
8.021764788253414602e-02 5.171982985427719086e+02
8.031766988737520929e-02 5.172055305251345771e+02
8.041769189221628644e-02 5.172126616540937221e+02
8.051771389705733584e-02 5.172196918438571629e+02
8.061773590189841299e-02 5.172266210122038501e+02
8.071775790673947626e-02 5.172334490804838651e+02
8.081777991158055341e-02 5.172401759736211488e+02
8.091780191642160280e-02 5.172468016201111141e+02
8.101782392126266608e-02 5.172533259520230331e+02
8.111784592610374323e-02 5.172597489049992419e+02
8.121786793094479262e-02 5.172660704182543441e+02
8.131788993578586977e-02 5.172722904345769166e+02
8.141791194062693304e-02 5.172784089003259851e+02
8.151793394546799632e-02 5.172844257654352305e+02
8.161795595030905959e-02 5.172903409834086688e+02
8.171797795515012286e-02 5.172961545113195143e+02
8.181799995999120001e-02 5.173018663098125671e+02
8.191802196483224940e-02 5.173074763431006886e+02
8.201804396967332655e-02 5.173129845789648016e+02
8.211806597451438983e-02 5.173183909887508207e+02
8.221808797935545310e-02 5.173236955473703347e+02
8.231810998419651637e-02 5.173288982332990145e+02
8.241813198903757964e-02 5.173339990285721797e+02
8.251815399387864292e-02 5.173389979187866174e+02
8.261817599871970619e-02 5.173438948930959214e+02
8.271819800356078334e-02 5.173486899442093545e+02
8.281822000840184661e-02 5.173533830683895758e+02
8.291824201324290988e-02 5.173579742654507072e+02
8.301826401808397315e-02 5.173624635387554918e+02
8.311828602292503643e-02 5.173668508952104048e+02
8.321830802776609970e-02 5.173711363452675869e+02
8.331833003260716297e-02 5.173753199029176812e+02
8.341835203744824012e-02 5.173794015856885835e+02
8.351837404228928952e-02 5.173833814146425993e+02
8.361839604713036667e-02 5.173872594143712149e+02
8.371841805197142994e-02 5.173910356129938464e+02
8.381844005681249321e-02 5.173947100421537471e+02
8.391846206165355648e-02 5.173982827370128916e+02
8.401848406649461976e-02 5.174017537362492476e+02
8.411850607133569691e-02 5.174051230820523415e+02
8.421852807617674630e-02 5.174083908201203030e+02
8.431855008101782345e-02 5.174115569996534987e+02
8.441857208585888672e-02 5.174146216733513484e+02
8.451859409069993612e-02 5.174175848974083465e+02
8.461861609554101327e-02 5.174204467315087186e+02
8.471863810038207654e-02 5.174232072388203960e+02
8.481866010522315369e-02 5.174258664859926284e+02
8.491868211006420308e-02 5.174284245431488216e+02
8.501870411490528023e-02 5.174308814838828994e+02
8.511872611974634351e-02 5.174332373852521414e+02
8.521874812458739290e-02 5.174354923277730904e+02
8.531877012942847005e-02 5.174376463954163228e+02
8.541879213426953332e-02 5.174396996755988312e+02
8.551881413911061047e-02 5.174416522591797047e+02
8.561883614395165987e-02 5.174435042404552405e+02
8.571885814879273702e-02 5.174452557171488252e+02
8.581888015363380029e-02 5.174469067904086614e+02
8.591890215847484968e-02 5.174484575648003783e+02
8.601892416331592683e-02 5.174499081482991869e+02
8.611894616815699011e-02 5.174512586522840820e+02
8.621896817299803950e-02 5.174525091915320445e+02
8.631899017783911665e-02 5.174536598842100830e+02
8.641901218268019380e-02 5.174547108518672758e+02
8.651903418752125707e-02 5.174556622194296551e+02
8.661905619236230647e-02 5.174565141151923626e+02
8.671907819720338362e-02 5.174572666708107818e+02
8.681910020204444689e-02 5.174579200212953083e+02
8.691912220688549628e-02 5.174584743050015732e+02
8.701914421172657343e-02 5.174589296636240761e+02
8.711916621656765058e-02 5.174592862421881136e+02
8.721918822140869998e-02 5.174595441890402299e+02
8.731921022624976325e-02 5.174597036558421905e+02
8.741923223109084040e-02 5.174597647975627979e+02
8.751925423593190367e-02 5.174597277724658397e+02
8.761927624077295307e-02 5.174595927421065653e+02
8.771929824561403022e-02 5.174593598713191795e+02
8.781932025045510737e-02 5.174590293282104767e+02
8.791934225529615676e-02 5.174586012841500633e+02
8.801936426013722004e-02 5.174580759137598989e+02
8.811938626497829719e-02 5.174574533949084980e+02
8.821940826981934658e-02 5.174567339086978564e+02
8.831943027466040985e-02 5.174559176394571978e+02
8.841945227950148700e-02 5.174550047747319468e+02
8.851947428434256415e-02 5.174539955052738378e+02
8.861949628918361355e-02 5.174528900250325023e+02
8.871951829402467682e-02 5.174516885311436454e+02
8.881954029886575397e-02 5.174503912239214287e+02
8.891956230370680336e-02 5.174489983068463061e+02
8.901958430854786664e-02 5.174475099865557013e+02
8.911960631338894379e-02 5.174459264728343442e+02
8.921962831822999318e-02 5.174442479786022204e+02
8.931965032307107033e-02 5.174424747199050216e+02
8.941967232791213360e-02 5.174406069159037997e+02
8.951969433275321075e-02 5.174386447888631437e+02
8.961971633759426015e-02 5.174365885641408340e+02
8.971973834243532342e-02 5.174344384701772697e+02
8.981976034727640057e-02 5.174321947384823943e+02
8.991978235211744996e-02 5.174298576036287614e+02
9.001980435695852711e-02 5.174274273032330029e+02
9.011982636179959039e-02 5.174249040779527604e+02
9.021984836664065366e-02 5.174222881714686082e+02
9.031987037148171693e-02 5.174195798304741629e+02
9.041989237632278020e-02 5.174167793046669885e+02
9.051991438116385735e-02 5.174138868467323391e+02
9.061993638600490675e-02 5.174109027123342912e+02
9.071995839084598390e-02 5.174078271601016468e+02
9.081998039568704717e-02 5.174046604516178149e+02
9.092000240052811044e-02 5.174014028514055781e+02
9.102002440536917371e-02 5.173980546269176557e+02
9.112004641021023699e-02 5.173946160485207884e+02
9.122006841505130026e-02 5.173910873894867564e+02
9.132009041989236353e-02 5.173874689259771458e+02
9.142011242473344068e-02 5.173837609370303880e+02
9.152013442957450395e-02 5.173799637045497093e+02
9.162015643441556723e-02 5.173760775132898289e+02
9.172017843925663050e-02 5.173721026508429759e+02
9.182020044409769377e-02 5.173680394076274069e+02
9.192022244893875704e-02 5.173638880768712625e+02
9.202024445377982032e-02 5.173596489546015391e+02
9.212026645862089747e-02 5.173553223396289695e+02
9.222028846346194686e-02 5.173509085335341524e+02
9.232031046830302401e-02 5.173464078406556155e+02
9.242033247314408728e-02 5.173418205680733308e+02
9.252035447798515055e-02 5.173371470255966642e+02
9.262037648282621383e-02 5.173323875257485724e+02
9.272039848766727710e-02 5.173275423837532117e+02
9.282042049250835425e-02 5.173226119175204758e+02
9.292044249734940364e-02 5.173175964476313311e+02
9.302046450219048079e-02 5.173124962973236052e+02
9.312048650703154407e-02 5.173073117924785720e+02
9.322050851187259346e-02 5.173020432616029893e+02
9.332053051671367061e-02 5.172966910358182986e+02
9.342055252155473388e-02 5.172912554488431169e+02
9.352057452639581103e-02 5.172857368369791402e+02
9.362059653123686043e-02 5.172801355390954541e+02
9.372061853607793758e-02 5.172744518966135274e+02
9.382064054091900085e-02 5.172686862534930015e+02
9.392066254576005024e-02 5.172628389562146367e+02
9.402068455060112739e-02 5.172569103537664432e+02
9.412070655544219067e-02 5.172509007976265138e+02
9.422072856028326782e-02 5.172448106417484723e+02
9.432075056512431721e-02 5.172386402425457845e+02
9.442077256996539436e-02 5.172323899588752738e+02
9.452079457480645763e-02 5.172260601520217733e+02
9.462081657964750703e-02 5.172196511856819825e+02
9.472083858448858418e-02 5.172131634259467319e+02
9.482086058932964745e-02 5.172065972412900692e+02
9.492088259417069684e-02 5.171999530025456124e+02
9.502090459901177399e-02 5.171932310828964319e+02
9.512092660385285114e-02 5.171864318578544726e+02
9.522094860869391442e-02 5.171795557052465711e+02
9.532097061353496381e-02 5.171726030051976295e+02
9.542099261837604096e-02 5.171655741401119712e+02
9.552101462321710423e-02 5.171584694946592435e+02
9.562103662805815363e-02 5.171512894557549771e+02
9.572105863289923078e-02 5.171440344125466027e+02
9.582108063774030793e-02 5.171367047563942378e+02
9.592110264258135732e-02 5.171293008808539753e+02
9.602112464742242059e-02 5.171218231816617390e+02
9.612114665226349774e-02 5.171142720567144124e+02
9.622116865710456102e-02 5.171066479060547181e+02
9.632119066194561041e-02 5.170989511318521181e+02
9.642121266678668756e-02 5.170911821383857614e+02
9.652123467162776471e-02 5.170833413320275440e+02
9.662125667646881411e-02 5.170754291212238059e+02
9.672127868130987738e-02 5.170674459164783912e+02
9.682130068615095453e-02 5.170593921303347997e+02
9.692132269099200392e-02 5.170512681773559507e+02
9.702134469583306720e-02 5.170430744741128137e+02
9.712136670067414435e-02 5.170348114391570107e+02
9.722138870551522150e-02 5.170264794930119479e+02
9.732141071035627089e-02 5.170180790581491692e+02
9.742143271519733416e-02 5.170096105589714170e+02
9.752145472003841131e-02 5.170010744217956926e+02
9.762147672487946071e-02 5.169924710748338157e+02
9.772149872972052398e-02 5.169838009481741210e+02
9.782152073456160113e-02 5.169750644737632683e+02
9.792154273940265052e-02 5.169662620853886210e+02
9.802156474424372767e-02 5.169573942186581235e+02
9.812158674908479095e-02 5.169484613109822249e+02
9.822160875392586810e-02 5.169394638015570536e+02
9.832163075876691749e-02 5.169304021313421345e+02
9.842165276360798076e-02 5.169212767430459508e+02
9.852167476844905791e-02 5.169120880811022971e+02
9.862169677329010731e-02 5.169028365916561825e+02
9.872171877813118446e-02 5.168935227225415474e+02
9.882174078297224773e-02 5.168841469232636427e+02
9.892176278781331100e-02 5.168747096449793617e+02
9.902178479265437427e-02 5.168652113404790498e+02
9.912180679749543755e-02 5.168556524641660417e+02
9.922182880233651470e-02 5.168460334720393803e+02
9.932185080717756409e-02 5.168363548216718755e+02
9.942187281201864124e-02 5.168266169721933920e+02
9.952189481685970451e-02 5.168168203842698176e+02
9.962191682170076779e-02 5.168069655200844181e+02
9.972193882654183106e-02 5.167970528433186246e+02
9.982196083138289433e-02 5.167870828191306600e+02
9.992198283622395760e-02 5.167770559141383728e+02
1.000220048410650209e-01 5.167669725963982046e+02
1.001220268459060980e-01 5.167568333353874550e+02
1.002220488507471613e-01 5.167466386019802940e+02
1.003220708555882246e-01 5.167363888684333233e+02
1.004220928604292878e-01 5.167260846083615888e+02
1.005221148652703511e-01 5.167157262967208453e+02
1.006221368701114144e-01 5.167053144097882296e+02
1.007221588749524777e-01 5.166948494251411148e+02
1.008221808797935548e-01 5.166843318216357375e+02
1.009222028846346042e-01 5.166737620793903716e+02
1.010222248894756814e-01 5.166631406797638419e+02
1.011222468943167446e-01 5.166524681053352879e+02
1.012222688991578079e-01 5.166417448398841543e+02
1.013222909039988712e-01 5.166309713683691598e+02
1.014223129088399344e-01 5.166201481769113570e+02
1.015223349136810116e-01 5.166092757527692356e+02
1.016223569185220610e-01 5.165983545843222373e+02
1.017223789233631381e-01 5.165873851610483598e+02
1.018224009282042014e-01 5.165763679735055121e+02
1.019224229330452508e-01 5.165653035133086632e+02
1.020224449378863280e-01 5.165541922731131308e+02
1.021224669427273912e-01 5.165430347465905925e+02
1.022224889475684684e-01 5.165318314284105554e+02
1.023225109524095178e-01 5.165205828142200062e+02
1.024225329572505949e-01 5.165092894006224924e+02
1.025225549620916582e-01 5.164979516851557264e+02
1.026225769669327076e-01 5.164865701662748734e+02
1.027225989717737847e-01 5.164751453433301549e+02
1.028226209766148480e-01 5.164636777165443391e+02
1.029226429814559252e-01 5.164521677869955738e+02
1.030226649862969746e-01 5.164406160565937398e+02
1.031226869911380517e-01 5.164290230280628293e+02
1.032227089959791150e-01 5.164173892049167307e+02
1.033227310008201644e-01 5.164057150914416070e+02
1.034227530056612415e-01 5.163940011926737270e+02
1.035227750105023048e-01 5.163822480143783196e+02
1.036227970153433542e-01 5.163704560630305878e+02
1.037228190201844313e-01 5.163586258457933127e+02
1.038228410250255085e-01 5.163467578704957077e+02
1.039228630298665718e-01 5.163348526456163654e+02
1.040228850347076212e-01 5.163229106802558590e+02
1.041229070395486983e-01 5.163109324841225316e+02
1.042229290443897616e-01 5.162989185675072576e+02
1.043229510492308110e-01 5.162868694412653667e+02
1.044229730540718881e-01 5.162747856167933378e+02
1.045229950589129653e-01 5.162626676060106092e+02
1.046230170637540147e-01 5.162505159213359320e+02
1.047230390685950779e-01 5.162383310756688388e+02
1.048230610734361551e-01 5.162261135823673612e+02
1.049230830782772184e-01 5.162138639552276800e+02
1.050231050831182678e-01 5.162015827084630928e+02
1.051231270879593449e-01 5.161892703566826412e+02
1.052231490928004221e-01 5.161769274148716704e+02
1.053231710976414714e-01 5.161645543983694324e+02
1.054231931024825347e-01 5.161521518228487366e+02
1.055232151073236119e-01 5.161397202042944627e+02
1.056232371121646613e-01 5.161272600589846888e+02
1.057232591170057245e-01 5.161147719034669308e+02
1.058232811218468017e-01 5.161022562545389292e+02
1.059233031266878788e-01 5.160897136292272762e+02
1.060233251315289282e-01 5.160771445447672932e+02
1.061233471363699915e-01 5.160645495185806340e+02
1.062233691412110687e-01 5.160519290682564133e+02
1.063233911460521181e-01 5.160392837115279008e+02
1.064234131508931813e-01 5.160266139662531941e+02
1.065234351557342585e-01 5.160139203503947556e+02
1.066234571605753079e-01 5.160012033819974704e+02
1.067234791654163850e-01 5.159884635791676146e+02
1.068235011702574483e-01 5.159757014600536422e+02
1.069235231750985254e-01 5.159629175428229928e+02
1.070235451799395748e-01 5.159501123456435607e+02
1.071235671847806381e-01 5.159372863866612988e+02
1.072235891896217153e-01 5.159244401839804368e+02
1.073236111944627647e-01 5.159115742556419946e+02
1.074236331993038418e-01 5.158986891196037732e+02
1.075236552041449051e-01 5.158857852937176176e+02
1.076236772089859683e-01 5.158728632957116815e+02
1.077236992138270316e-01 5.158599236431679174e+02
1.078237212186680949e-01 5.158469668535007031e+02
1.079237432235091720e-01 5.158339934439386525e+02
1.080237652283502214e-01 5.158210039315019912e+02
1.081237872331912986e-01 5.158079988329807293e+02
1.082238092380323619e-01 5.157949786649176076e+02
1.083238312428734251e-01 5.157819439435844515e+02
1.084238532477144884e-01 5.157688951849628438e+02
1.085238752525555517e-01 5.157558329047243433e+02
1.086238972573966149e-01 5.157427576182078610e+02
1.087239192622376782e-01 5.157296698404007884e+02
1.088239412670787554e-01 5.157165700859181925e+02
1.089239632719198186e-01 5.157034588689816701e+02
1.090239852767608819e-01 5.156903367034009307e+02
1.091240072816019452e-01 5.156772041025504905e+02
1.092240292864430085e-01 5.156640615793508005e+02
1.093240512912840717e-01 5.156509096462497155e+02
1.094240732961251350e-01 5.156377488151981652e+02
1.095240953009662122e-01 5.156245795976336694e+02
1.096241173058072615e-01 5.156114025044583968e+02
1.097241393106483387e-01 5.155982180460180189e+02
1.098241613154894020e-01 5.155850267320840885e+02
1.099241833203304652e-01 5.155718290718322123e+02
1.100242053251715285e-01 5.155586255738214732e+02
1.101242273300125918e-01 5.155454167459755581e+02
1.102242493348536689e-01 5.155322030955633181e+02
1.103242713396947183e-01 5.155189851291755758e+02
1.104242933445357955e-01 5.155057633527096641e+02
1.105243153493768588e-01 5.154925382713466888e+02
1.106243373542179081e-01 5.154793103895315198e+02
1.107243593590589853e-01 5.154660802109540327e+02
1.108243813639000486e-01 5.154528482385300094e+02
1.109244033687411257e-01 5.154396149743786282e+02
1.110244253735821751e-01 5.154263809198063200e+02
1.111244473784232523e-01 5.154131465752843724e+02
1.112244693832643155e-01 5.153999124404307395e+02
1.113244913881053649e-01 5.153866790139902605e+02
1.114245133929464421e-01 5.153734467938144235e+02
1.115245353977875054e-01 5.153602162768430617e+02
1.116245574026285825e-01 5.153469879590843448e+02
1.117245794074696319e-01 5.153337623355938604e+02
1.118246014123107090e-01 5.153205399004609717e+02
1.119246234171517723e-01 5.153073211467813053e+02
1.120246454219928217e-01 5.152941065666433360e+02
1.121246674268338989e-01 5.152808966511083781e+02
1.122246894316749621e-01 5.152676918901893259e+02
1.123247114365160115e-01 5.152544927728345101e+02
1.124247334413570887e-01 5.152412997869063247e+02
1.125247554461981658e-01 5.152281134191632646e+02
1.126247774510392291e-01 5.152149341552421902e+02
1.127247994558802785e-01 5.152017624796364998e+02
1.128248214607213556e-01 5.151885988756802135e+02
1.129248434655624189e-01 5.151754438255287596e+02
1.130248654704034683e-01 5.151622978101388526e+02
1.131248874752445455e-01 5.151491613092516673e+02
1.132249094800856226e-01 5.151360348013731709e+02
1.133249314849266720e-01 5.151229187637566156e+02
1.134249534897677353e-01 5.151098136723824155e+02
1.135249754946088124e-01 5.150967200019425718e+02
1.136249974994498757e-01 5.150836382258191861e+02
1.137250195042909251e-01 5.150705688160693398e+02
1.138250415091320022e-01 5.150575122434048581e+02
1.139250635139730794e-01 5.150444689771749154e+02
1.140250855188141288e-01 5.150314394853478461e+02
1.141251075236551921e-01 5.150184242344936365e+02
1.142251295284962692e-01 5.150054236897657347e+02
1.143251515333373186e-01 5.149924383148832021e+02
1.144251735381783819e-01 5.149794685721133192e+02
1.145251955430194590e-01 5.149665149222536229e+02
1.146252175478605362e-01 5.149535778246141717e+02
1.147252395527015856e-01 5.149406577370000377e+02
1.148252615575426488e-01 5.149277551156949357e+02
1.149252835623837260e-01 5.149148704154418965e+02
1.150253055672247754e-01 5.149020040894280328e+02
1.151253275720658387e-01 5.148891565892654398e+02
1.152253495769069158e-01 5.148763283649753930e+02
1.153253715817479652e-01 5.148635198649715221e+02
1.154253935865890424e-01 5.148507315360399161e+02
1.155254155914301056e-01 5.148379638233266178e+02
1.156254375962711828e-01 5.148252171703180693e+02
1.157254596011122322e-01 5.148124920188233773e+02
1.158254816059532954e-01 5.147997888089613525e+02
1.159255036107943726e-01 5.147871079791393640e+02
1.160255256156354220e-01 5.147744499660409474e+02
1.161255476204764991e-01 5.147618152046064779e+02
1.162255696253175624e-01 5.147492041280171406e+02
1.163255916301586257e-01 5.147366171676811746e+02
1.164256136349996890e-01 5.147240547532140909e+02
1.165256356398407522e-01 5.147115173124255989e+02
1.166256576446818294e-01 5.146990052713015302e+02
1.167256796495228788e-01 5.146865190539883770e+02
1.168257016543639559e-01 5.146740590827781716e+02
1.169257236592050192e-01 5.146616257780917749e+02
1.170257456640460825e-01 5.146492195584644378e+02
1.171257676688871457e-01 5.146368408405281798e+02
1.172257896737282090e-01 5.146244900389983741e+02
1.173258116785692723e-01 5.146121675666574902e+02
1.174258336834103356e-01 5.145998738343389505e+02
1.175258556882514127e-01 5.145876092509131468e+02
1.176258776930924760e-01 5.145753742232714103e+02
1.177258996979335393e-01 5.145631691563122558e+02
1.178259217027746025e-01 5.145509944529238737e+02
1.179259437076156658e-01 5.145388505139723065e+02
1.180259657124567291e-01 5.145267377382839413e+02
1.181259877172977923e-01 5.145146565226331177e+02
1.182260097221388695e-01 5.145026072617256432e+02
1.183260317269799189e-01 5.144905903481856058e+02
1.184260537318209960e-01 5.144786061725397985e+02
1.185260757366620593e-01 5.144666551232054417e+02
1.186260977415031226e-01 5.144547375864726746e+02
1.187261197463441859e-01 5.144428539464933010e+02
1.188261417511852491e-01 5.144310045852660096e+02
1.189261637560263263e-01 5.144191898826219358e+02
1.190261857608673757e-01 5.144074102162110194e+02
1.191262077657084528e-01 5.143956659614887030e+02
1.192262297705495161e-01 5.143839574917009259e+02
1.193262517753905655e-01 5.143722851778720724e+02
1.194262737802316426e-01 5.143606493887930355e+02
1.195262957850727059e-01 5.143490504910025720e+02
1.196263177899137831e-01 5.143374888487796852e+02
1.197263397947548325e-01 5.143259648241272544e+02
1.198263617995959096e-01 5.143144787767603248e+02
1.199263838044369729e-01 5.143030310640929201e+02
1.200264058092780223e-01 5.142916220412249686e+02
1.201264278141190994e-01 5.142802520609295698e+02
1.202264498189601627e-01 5.142689214736409440e+02
1.203264718238012398e-01 5.142576306274405624e+02
1.204264938286422892e-01 5.142463798680473701e+02
1.205265158334833664e-01 5.142351695388019834e+02
1.206265378383244297e-01 5.142239999806580499e+02
1.207265598431654791e-01 5.142128715321667869e+02
1.208265818480065562e-01 5.142017845294677727e+02
1.209266038528476195e-01 5.141907393062758729e+02
1.210266258576886689e-01 5.141797361938683935e+02
1.211266478625297460e-01 5.141687755210765545e+02
1.212266698673708232e-01 5.141578576142702559e+02
1.213266918722118864e-01 5.141469827973489828e+02
1.214267138770529358e-01 5.141361513917298680e+02
1.215267358818940130e-01 5.141253637163364374e+02
1.216267578867350763e-01 5.141146200875879231e+02
1.217267798915761257e-01 5.141039208193867580e+02
1.218268018964172028e-01 5.140932662231091399e+02
1.219268239012582800e-01 5.140826566075951405e+02
1.220268459060993294e-01 5.140720922791358589e+02
1.221268679109403926e-01 5.140615735414628489e+02
1.222268899157814698e-01 5.140511006957408426e+02
1.223269119206225330e-01 5.140406740405531991e+02
1.224269339254635824e-01 5.140302938718946280e+02
1.225269559303046596e-01 5.140199604831605029e+02
1.226269779351457367e-01 5.140096741651364027e+02
1.227269999399867861e-01 5.139994352059874245e+02
1.228270219448278494e-01 5.139892438912510215e+02
1.229270439496689266e-01 5.139791005038250660e+02
1.230270659545099760e-01 5.139690053239586405e+02
1.231270879593510392e-01 5.139589586292433978e+02
1.232271099641921164e-01 5.139489606946042386e+02
1.233271319690331935e-01 5.139390117922894206e+02
1.234271539738742429e-01 5.139291121918618046e+02
1.235271759787153062e-01 5.139192621601902147e+02
1.236271979835563833e-01 5.139094619614409112e+02
1.237272199883974327e-01 5.138997118570674729e+02
1.238272419932384960e-01 5.138900121058038621e+02
1.239272639980795732e-01 5.138803629636551022e+02
1.240272860029206226e-01 5.138707646838895471e+02
1.241273080077616997e-01 5.138612175170289902e+02
1.242273300126027630e-01 5.138517217108429804e+02
1.243273520174438401e-01 5.138422775103391587e+02
1.244273740222848895e-01 5.138328851577560954e+02
1.245273960271259528e-01 5.138235448925555602e+02
1.246274180319670299e-01 5.138142569514137676e+02
1.247274400368080793e-01 5.138050215682158068e+02
1.248274620416491565e-01 5.137958389740468874e+02
1.249274840464902198e-01 5.137867093971856320e+02
1.250275060513312830e-01 5.137776330630964594e+02
1.251275280561723324e-01 5.137686101944237862e+02
1.252275500610134096e-01 5.137596410109831595e+02
1.253275720658544867e-01 5.137507257297556862e+02
1.254275940706955361e-01 5.137418645648831443e+02
1.255276160755366133e-01 5.137330577276567283e+02
1.256276380803776904e-01 5.137243054265155706e+02
1.257276600852187398e-01 5.137156078670385568e+02
1.258276820900597892e-01 5.137069652519368219e+02
1.259277040949008664e-01 5.136983777810498850e+02
1.260277260997419158e-01 5.136898456513387146e+02
1.261277481045829929e-01 5.136813690568803850e+02
1.262277701094240701e-01 5.136729481888619375e+02
1.263277921142651472e-01 5.136645832355744687e+02
1.264278141191061966e-01 5.136562743824094923e+02
1.265278361239472460e-01 5.136480218118514358e+02
1.266278581287883231e-01 5.136398257034753669e+02
1.267278801336293725e-01 5.136316862339382396e+02
1.268279021384704497e-01 5.136236035769769614e+02
1.269279241433115268e-01 5.136155779034024818e+02
1.270279461481525762e-01 5.136076093810949033e+02
1.271279681529936534e-01 5.135996981750006398e+02
1.272279901578347028e-01 5.135918444471250268e+02
1.273280121626757799e-01 5.135840483565312979e+02
1.274280341675168293e-01 5.135763100593344461e+02
1.275280561723579065e-01 5.135686297086972445e+02
1.276280781771989836e-01 5.135610074548282000e+02
1.277281001820400330e-01 5.135534434449746186e+02
1.278281221868811102e-01 5.135459378234222640e+02
1.279281441917221596e-01 5.135384907314897873e+02
1.280281661965632367e-01 5.135311023075265666e+02
1.281281882014042861e-01 5.135237726869083872e+02
1.282282102062453633e-01 5.135165020020348265e+02
1.283282322110864404e-01 5.135092903823274355e+02
1.284282542159274898e-01 5.135021379542231443e+02
1.285282762207685670e-01 5.134950448411769912e+02
1.286282982256096163e-01 5.134880111636553011e+02
1.287283202304506935e-01 5.134810370391344350e+02
1.288283422352917429e-01 5.134741225820993122e+02
1.289283642401328200e-01 5.134672679040398862e+02
1.290283862449738972e-01 5.134604731134498934e+02
1.291284082498149466e-01 5.134537383158245802e+02
1.292284302546560237e-01 5.134470636136589974e+02
1.293284522594970731e-01 5.134404491064459535e+02
1.294284742643381503e-01 5.134338948906753330e+02
1.295284962691791997e-01 5.134274010598319364e+02
1.296285182740202768e-01 5.134209677043935471e+02
1.297285402788613262e-01 5.134145949118311592e+02
1.298285622837024034e-01 5.134082827666071580e+02
1.299285842885434805e-01 5.134020313501750934e+02
1.300286062933845299e-01 5.133958407409764959e+02
1.301286282982256071e-01 5.133897110144439466e+02
1.302286503030666565e-01 5.133836422429970980e+02
1.303286723079077336e-01 5.133776344960450615e+02
1.304286943127487830e-01 5.133716878399835650e+02
1.305287163175898602e-01 5.133658023381967723e+02
1.306287383224309373e-01 5.133599780510560322e+02
1.307287603272719867e-01 5.133542150359209018e+02
1.308287823321130638e-01 5.133485133471386916e+02
1.309288043369541132e-01 5.133428730360446934e+02
1.310288263417951904e-01 5.133372941509641123e+02
1.311288483466362398e-01 5.133317767372102480e+02
1.312288703514773169e-01 5.133263208370875645e+02
1.313288923563183941e-01 5.133209264898912352e+02
1.314289143611594435e-01 5.133155937319085069e+02
1.315289363660005206e-01 5.133103225964190415e+02
1.316289583708415700e-01 5.133051131136991216e+02
1.317289803756826472e-01 5.132999653110182408e+02
1.318290023805236966e-01 5.132948792126452418e+02
1.319290243853647737e-01 5.132898548398467256e+02
1.320290463902058509e-01 5.132848922108902343e+02
1.321290683950469003e-01 5.132799913410461841e+02
1.322290903998879774e-01 5.132751522425900248e+02
1.323291124047290268e-01 5.132703749248025815e+02
1.324291344095701040e-01 5.132656593939758523e+02
1.325291564144111534e-01 5.132610056534116438e+02
1.326291784192522305e-01 5.132564137034261194e+02
1.327292004240932799e-01 5.132518835413524130e+02
1.328292224289343570e-01 5.132474151615431310e+02
1.329292444337754342e-01 5.132430085553729668e+02
1.330292664386164836e-01 5.132386637112419976e+02
1.331292884434575607e-01 5.132343806145788676e+02
1.332293104482986101e-01 5.132301592478444263e+02
1.333293324531396873e-01 5.132259995905344567e+02
1.334293544579807367e-01 5.132219016191831997e+02
1.335293764628218138e-01 5.132178653073680152e+02
1.336293984676628910e-01 5.132138906257115423e+02
1.337294204725039404e-01 5.132099775418878380e+02
1.338294424773450175e-01 5.132061260206247653e+02
1.339294644821860669e-01 5.132023360237075167e+02
1.340294864870271441e-01 5.131986075099846403e+02
1.341295084918681935e-01 5.131949404353723594e+02
1.342295304967092706e-01 5.131913347528575287e+02
1.343295525015503478e-01 5.131877904125036594e+02
1.344295745063913972e-01 5.131843073614552395e+02
1.345295965112324743e-01 5.131808855439430772e+02
1.346296185160735237e-01 5.131775249012886206e+02
1.347296405209145731e-01 5.131742253719079372e+02
1.348296625257556502e-01 5.131709868913217178e+02
1.349296845305967274e-01 5.131678093921547088e+02
1.350297065354378045e-01 5.131646928041457159e+02
1.351297285402788539e-01 5.131616370541499919e+02
1.352297505451199311e-01 5.131586420661473085e+02
1.353297725499609805e-01 5.131557077612467310e+02
1.354297945548020299e-01 5.131528340576940082e+02
1.355298165596431070e-01 5.131500208708753235e+02
1.356298385644841842e-01 5.131472681133252536e+02
1.357298605693252336e-01 5.131445756947323389e+02
1.358298825741663107e-01 5.131419435219468141e+02
1.359299045790073879e-01 5.131393714989861792e+02
1.360299265838484373e-01 5.131368595270409969e+02
1.361299485886894867e-01 5.131344075044845567e+02
1.362299705935305638e-01 5.131320153268763988e+02
1.363299925983716410e-01 5.131296828869726596e+02
1.364300146032126904e-01 5.131274100747301645e+02
1.365300366080537675e-01 5.131251967773170009e+02
1.366300586128948447e-01 5.131230428791162694e+02
1.367300806177358941e-01 5.131209482617379081e+02
1.368301026225769434e-01 5.131189128040223295e+02
1.369301246274180206e-01 5.131169363820504259e+02
1.370301466322590977e-01 5.131150188691510721e+02
1.371301686371001471e-01 5.131131601359096521e+02
1.372301906419412243e-01 5.131113600501738574e+02
1.373302126467823014e-01 5.131096184770658510e+02
1.374302346516233508e-01 5.131079352789870427e+02
1.375302566564644002e-01 5.131063103156280931e+02
1.376302786613054774e-01 5.131047434439780091e+02
1.377303006661465545e-01 5.131032345183315329e+02
1.378303226709876039e-01 5.131017833902986922e+02
1.379303446758286811e-01 5.131003899088140088e+02
1.380303666806697582e-01 5.130990539201458205e+02
1.381303886855108076e-01 5.130977752679032164e+02
1.382304106903518570e-01 5.130965537930477467e+02
1.383304326951929342e-01 5.130953893339018350e+02
1.384304547000339836e-01 5.130942817261590108e+02
1.385304767048750607e-01 5.130932308028915259e+02
1.386304987097161379e-01 5.130922363945621782e+02
1.387305207145572150e-01 5.130912983290344300e+02
1.388305427193982644e-01 5.130904164315779781e+02
1.389305647242393138e-01 5.130895905248859208e+02
1.390305867290803910e-01 5.130888204290781687e+02
1.391306087339214403e-01 5.130881059617157689e+02
1.392306307387625175e-01 5.130874469378097729e+02
1.393306527436035946e-01 5.130868431698316954e+02
1.394306747484446440e-01 5.130862944677251107e+02
1.395306967532857212e-01 5.130858006389141792e+02
1.396307187581267706e-01 5.130853614883170621e+02
1.397307407629678477e-01 5.130849768183547894e+02
1.398307627678088971e-01 5.130846464289630831e+02
1.399307847726499743e-01 5.130843701176027025e+02
1.400308067774910514e-01 5.130841476792721778e+02
1.401308287823321008e-01 5.130839789065182686e+02
1.402308507871731780e-01 5.130838635894468780e+02
1.403308727920142274e-01 5.130838015157344216e+02
1.404308947968552768e-01 5.130837924706403328e+02
1.405309168016963539e-01 5.130838362370185450e+02
1.406309388065374311e-01 5.130839325953288608e+02
1.407309608113785082e-01 5.130840813236497979e+02
1.408309828162195576e-01 5.130842821976882533e+02
1.409310048210606348e-01 5.130845349907948503e+02
1.410310268259016842e-01 5.130848394739732612e+02
1.411310488307427335e-01 5.130851954158945318e+02
1.412310708355838107e-01 5.130856025829091323e+02
1.413310928404248878e-01 5.130860607390571886e+02
1.414311148452659372e-01 5.130865696460851950e+02
1.415311368501070144e-01 5.130871290634538582e+02
1.416311588549480915e-01 5.130877387483552639e+02
1.417311808597891409e-01 5.130883984557234498e+02
1.418312028646301903e-01 5.130891079382467979e+02
1.419312248694712675e-01 5.130898669463832675e+02
1.420312468743123446e-01 5.130906752283715377e+02
1.421312688791533940e-01 5.130915325302452175e+02
1.422312908839944712e-01 5.130924385958461471e+02
1.423313128888355483e-01 5.130933931668369041e+02
1.424313348936765977e-01 5.130943959827162644e+02
1.425313568985176471e-01 5.130954467808297750e+02
1.426313789033587243e-01 5.130965452963885127e+02
1.427314009081998014e-01 5.130976912624747683e+02
1.428314229130408508e-01 5.130988844100654660e+02
1.429314449178819280e-01 5.131001244680383024e+02
1.430314669227230051e-01 5.131014111631900505e+02
1.431314889275640545e-01 5.131027442202484963e+02
1.432315109324051039e-01 5.131041233618901742e+02
1.433315329372461810e-01 5.131055483087491211e+02
1.434315549420872304e-01 5.131070187794354069e+02
1.435315769469283076e-01 5.131085344905490047e+02
1.436315989517693847e-01 5.131100951566930917e+02
1.437316209566104619e-01 5.131117004904895111e+02
1.438316429614515113e-01 5.131133502025933240e+02
1.439316649662925607e-01 5.131150440017081564e+02
1.440316869711336378e-01 5.131167815945992743e+02
1.441317089759746872e-01 5.131185626861105220e+02
1.442317309808157644e-01 5.131203869791788748e+02
1.443317529856568415e-01 5.131222541748491039e+02
1.444317749904978909e-01 5.131241639722882155e+02
1.445317969953389681e-01 5.131261160688034124e+02
1.446318190001800175e-01 5.131281101598535770e+02
1.447318410050210946e-01 5.131301459390685977e+02
1.448318630098621440e-01 5.131322230982613064e+02
1.449318850147032212e-01 5.131343413274460090e+02
1.450319070195442983e-01 5.131365003148523556e+02
1.451319290243853477e-01 5.131386997469421658e+02
1.452319510292264249e-01 5.131409393084235262e+02
1.453319730340674742e-01 5.131432186822680706e+02
1.454319950389085514e-01 5.131455375497271234e+02
1.455320170437496008e-01 5.131478955903468204e+02
1.456320390485906779e-01 5.131502924819837972e+02
1.457320610534317551e-01 5.131527279008231517e+02
1.458320830582728045e-01 5.131552015213926552e+02
1.459321050631138816e-01 5.131577130165801464e+02
1.460321270679549310e-01 5.131602620576499021e+02
1.461321490727960082e-01 5.131628483142579853e+02
1.462321710776370576e-01 5.131654714544700937e+02
1.463321930824781347e-01 5.131681311447778171e+02
1.464322150873192119e-01 5.131708270501135303e+02
1.465322370921602613e-01 5.131735588338693788e+02
1.466322590970013384e-01 5.131763261579133086e+02
1.467322811018423878e-01 5.131791286826049827e+02
1.468323031066834650e-01 5.131819660668135157e+02
1.469323251115245144e-01 5.131848379679329355e+02
1.470323471163655915e-01 5.131877440419031018e+02
1.471323691212066409e-01 5.131906839432208471e+02
1.472323911260477181e-01 5.131936573249621460e+02
1.473324131308887952e-01 5.131966638387966668e+02
1.474324351357298446e-01 5.131997031350045972e+02
1.475324571405709217e-01 5.132027748624976766e+02
1.476324791454119711e-01 5.132058786688305645e+02
1.477325011502530483e-01 5.132090142002226685e+02
1.478325231550940977e-01 5.132121811015748563e+02
1.479325451599351748e-01 5.132153790164849170e+02
1.480325671647762520e-01 5.132186075872685933e+02
1.481325891696173014e-01 5.132218664549735649e+02
1.482326111744583785e-01 5.132251552593982069e+02
1.483326331792994279e-01 5.132284736391106890e+02
1.484326551841405051e-01 5.132318212314654602e+02
1.485326771889815545e-01 5.132351976726207567e+02
1.486326991938226316e-01 5.132386025975573602e+02
1.487327211986637088e-01 5.132420356400964465e+02
1.488327432035047582e-01 5.132454964329164113e+02
1.489327652083458353e-01 5.132489846075708328e+02
1.490327872131868847e-01 5.132524997945090490e+02
1.491328092180279619e-01 5.132560416230907094e+02
1.492328312228690113e-01 5.132596097216062390e+02
1.493328532277100884e-01 5.132632037172936634e+02
1.494328752325511656e-01 5.132668232363581637e+02
1.495328972373922150e-01 5.132704679039893563e+02
1.496329192422332921e-01 5.132741373443786870e+02
1.497329412470743415e-01 5.132778311807400087e+02
1.498329632519154186e-01 5.132815490353265204e+02
1.499329852567564680e-01 5.132852905294477068e+02
1.500330072615975452e-01 5.132890552834915070e+02
1.501330292664385946e-01 5.132928429169396622e+02
1.502330512712796717e-01 5.132966530483872702e+02
1.503330732761207489e-01 5.133004852955604065e+02
1.504330952809617983e-01 5.133043392753365879e+02
1.505331172858028754e-01 5.133082146037622806e+02
1.506331392906439248e-01 5.133121108960701804e+02
1.507331612954850020e-01 5.133160277667004721e+02
1.508331833003260514e-01 5.133199648293174278e+02
1.509332053051671285e-01 5.133239216968297569e+02
1.510332273100082057e-01 5.133278979814081140e+02
1.511332493148492551e-01 5.133318932945039705e+02
1.512332713196903322e-01 5.133359072468683735e+02
1.513332933245313816e-01 5.133399394485726361e+02
1.514333153293724588e-01 5.133439895090242544e+02
1.515333373342135082e-01 5.133480570369882798e+02
1.516333593390545853e-01 5.133521416406040316e+02
1.517333813438956625e-01 5.133562429274062424e+02
1.518334033487367118e-01 5.133603605043419975e+02
1.519334253535777890e-01 5.133644939777911986e+02
1.520334473584188384e-01 5.133686429535857769e+02
1.521334693632598878e-01 5.133728070370259502e+02
1.522334913681009649e-01 5.133769858329033013e+02
1.523335133729420421e-01 5.133811789455160124e+02
1.524335353777831192e-01 5.133853859786906924e+02
1.525335573826241686e-01 5.133896065358007945e+02
1.526335793874652458e-01 5.133938402197849200e+02
1.527336013923062952e-01 5.133980866331662583e+02
1.528336233971473446e-01 5.134023453780719137e+02
1.529336454019884217e-01 5.134066160562526875e+02
1.530336674068294989e-01 5.134108982691011533e+02
1.531336894116705483e-01 5.134151916176706436e+02
1.532337114165116254e-01 5.134194957026960537e+02
1.533337334213527026e-01 5.134238101246122596e+02
1.534337554261937520e-01 5.134281344835717391e+02
1.535337774310348014e-01 5.134324683794660586e+02
1.536337994358758785e-01 5.134368114119445181e+02
1.537338214407169557e-01 5.134411631804324543e+02
1.538338434455580050e-01 5.134455232841514771e+02
1.539338654503990822e-01 5.134498913221389103e+02
1.540338874552401593e-01 5.134542668932645029e+02
1.541339094600812087e-01 5.134586495962532808e+02
1.542339314649222581e-01 5.134630390297040776e+02
1.543339534697633353e-01 5.134674347921048820e+02
1.544339754746044124e-01 5.134718364818585314e+02
1.545339974794454618e-01 5.134762436972957858e+02
1.546340194842865390e-01 5.134806560366997701e+02
1.547340414891276161e-01 5.134850730983205267e+02
1.548340634939686655e-01 5.134894944803984345e+02
1.549340854988097149e-01 5.134939197811809208e+02
1.550341075036507921e-01 5.134983485989421297e+02
1.551341295084918692e-01 5.135027805320025891e+02
1.552341515133329186e-01 5.135072151787487655e+02
1.553341735181739958e-01 5.135116521376514811e+02
1.554341955230150729e-01 5.135160910072862634e+02
1.555342175278561223e-01 5.135205313863511947e+02
1.556342395326971717e-01 5.135249728736865791e+02
1.557342615375382489e-01 5.135294150682944974e+02
1.558342835423792982e-01 5.135338575693587018e+02
1.559343055472203754e-01 5.135382999762620102e+02
1.560343275520614525e-01 5.135427418886068835e+02
1.561343495569025297e-01 5.135471829062338429e+02
1.562343715617435791e-01 5.135516226292423880e+02
1.563343935665846285e-01 5.135560606580071408e+02
1.564344155714256779e-01 5.135604965931980814e+02
1.565344375762667550e-01 5.135649300358024902e+02
1.566344595811078322e-01 5.135693605871398404e+02
1.567344815859489093e-01 5.135737878488823753e+02
1.568345035907899865e-01 5.135782114230757998e+02
1.569345255956310359e-01 5.135826309121566737e+02
1.570345476004720853e-01 5.135870459189719668e+02
1.571345696053131347e-01 5.135914560467966794e+02
1.572345916101542118e-01 5.135958608993557846e+02
1.573346136149952890e-01 5.136002600808398029e+02
1.574346356198363661e-01 5.136046531959268577e+02
1.575346576246774433e-01 5.136090398497990464e+02
1.576346796295184927e-01 5.136134196481625622e+02
1.577347016343595421e-01 5.136177921972677041e+02
1.578347236392005914e-01 5.136221571039233140e+02
1.579347456440416686e-01 5.136265139755222435e+02
1.580347676488827457e-01 5.136308624200553368e+02
1.581347896537238229e-01 5.136352020461297343e+02
1.582348116585649000e-01 5.136395324629909283e+02
1.583348336634059217e-01 5.136438532805404975e+02
1.584348556682469988e-01 5.136481641093529333e+02
1.585348776730880482e-01 5.136524645606941704e+02
1.586348996779291254e-01 5.136567542465451197e+02
1.587349216827702025e-01 5.136610327796129241e+02
1.588349436876112797e-01 5.136652997733556276e+02
1.589349656924523568e-01 5.136695548419968418e+02
1.590349876972933785e-01 5.136737976005457540e+02
1.591350097021344556e-01 5.136780276648164545e+02
1.592350317069755050e-01 5.136822446514438525e+02
1.593350537118165822e-01 5.136864481779037988e+02
1.594350757166576593e-01 5.136906378625324123e+02
1.595350977214987365e-01 5.136948133245409736e+02
1.596351197263398136e-01 5.136989741840377519e+02
1.597351417311808353e-01 5.137031200620434674e+02
1.598351637360219124e-01 5.137072505805117544e+02
1.599351857408629618e-01 5.137113653623454184e+02
1.600352077457040390e-01 5.137154640314150811e+02
1.601352297505451161e-01 5.137195462125782797e+02
1.602352517553861933e-01 5.137236115316959513e+02
1.603352737602272149e-01 5.137276596156510777e+02
1.604352957650682920e-01 5.137316900923655112e+02
1.605353177699093692e-01 5.137357025908206651e+02
1.606353397747504186e-01 5.137396967410720663e+02
1.607353617795914957e-01 5.137436721742684540e+02
1.608353837844325729e-01 5.137476285226707660e+02
1.609354057892736500e-01 5.137515654196666901e+02
1.610354277941146717e-01 5.137554824997914693e+02
1.611354497989557488e-01 5.137593793987438175e+02
1.612354718037968260e-01 5.137632557534026319e+02
1.613354938086378754e-01 5.137671112018470012e+02
1.614355158134789525e-01 5.137709453833715543e+02
1.615355378183200297e-01 5.137747579385033987e+02
1.616355598231611068e-01 5.137785485090214479e+02
1.617355818280021285e-01 5.137823167379718825e+02
1.618356038328432056e-01 5.137860622696861128e+02
1.619356258376842828e-01 5.137897847497981729e+02
1.620356478425253322e-01 5.137934838252610916e+02
1.621356698473664093e-01 5.137971591443631496e+02
1.622356918522074865e-01 5.138008103567476610e+02
1.623357138570485636e-01 5.138044371134259336e+02
1.624357358618895852e-01 5.138080390667980737e+02
1.625357578667306624e-01 5.138116158706662873e+02
1.626357798715717395e-01 5.138151671802540932e+02
1.627358018764127889e-01 5.138186926522215572e+02
1.628358238812538661e-01 5.138221919446814354e+02
1.629358458860949432e-01 5.138256647172182738e+02
1.630358678909359926e-01 5.138291106309010274e+02
1.631358898957770420e-01 5.138325293483032965e+02
1.632359119006181192e-01 5.138359205335170827e+02
1.633359339054591963e-01 5.138392838521690464e+02
1.634359559103002457e-01 5.138426189714376733e+02
1.635359779151413229e-01 5.138459255600700999e+02
1.636359999199824000e-01 5.138492032883962111e+02
1.637360219248234494e-01 5.138524518283448970e+02
1.638360439296644988e-01 5.138556708534617883e+02
1.639360659345055760e-01 5.138588600389232397e+02
1.640360879393466531e-01 5.138620190615524734e+02
1.641361099441877025e-01 5.138651475998362912e+02
1.642361319490287797e-01 5.138682453339383756e+02
1.643361539538698568e-01 5.138713119457175935e+02
1.644361759587109062e-01 5.138743471187412979e+02
1.645361979635519556e-01 5.138773505383024940e+02
1.646362199683930327e-01 5.138803218914331410e+02
1.647362419732341099e-01 5.138832608669204092e+02
1.648362639780751593e-01 5.138861671553228234e+02
1.649362859829162364e-01 5.138890404489840193e+02
1.650363079877572858e-01 5.138918804420470678e+02
1.651363299925983630e-01 5.138946868304715281e+02
1.652363519974394124e-01 5.138974593120467489e+02
1.653363740022804895e-01 5.139001975864071028e+02
1.654363960071215667e-01 5.139029013550459695e+02
1.655364180119626161e-01 5.139055703213323341e+02
1.656364400168036932e-01 5.139082041905217011e+02
1.657364620216447426e-01 5.139108026697750802e+02
1.658364840264858198e-01 5.139133654681693315e+02
1.659365060313268692e-01 5.139158922967129683e+02
1.660365280361679463e-01 5.139183828683620732e+02
1.661365500410090235e-01 5.139208368980300747e+02
1.662365720458500729e-01 5.139232541026076433e+02
1.663365940506911500e-01 5.139256342009696255e+02
1.664366160555321994e-01 5.139279769139961900e+02
1.665366380603732765e-01 5.139302819645802174e+02
1.666366600652143259e-01 5.139325490776459446e+02
1.667366820700554031e-01 5.139347779801578326e+02
1.668367040748964802e-01 5.139369684011384152e+02
1.669367260797375296e-01 5.139391200716790991e+02
1.670367480845785790e-01 5.139412327249547161e+02
1.671367700894196562e-01 5.139433060962348918e+02
1.672367920942607333e-01 5.139453399228993931e+02
1.673368140991017827e-01 5.139473339444498379e+02
1.674368361039428599e-01 5.139492879025227694e+02
1.675368581087839370e-01 5.139512015409031847e+02
1.676368801136249864e-01 5.139530746055357895e+02
1.677369021184660358e-01 5.139549068445397779e+02
1.678369241233071130e-01 5.139566980082190639e+02
1.679369461281481901e-01 5.139584478490772881e+02
1.680369681329892395e-01 5.139601561218272536e+02
1.681369901378303167e-01 5.139618225834049099e+02
1.682370121426713938e-01 5.139634469929825400e+02
1.683370341475124432e-01 5.139650291119784242e+02
1.684370561523534926e-01 5.139665687040701414e+02
1.685370781571945697e-01 5.139680655352065060e+02
1.686371001620356469e-01 5.139695193736189367e+02
1.687371221668766963e-01 5.139709299898333938e+02
1.688371441717177734e-01 5.139722971566814067e+02
1.689371661765588506e-01 5.139736206493125792e+02
1.690371881813998722e-01 5.139749002452056175e+02
1.691372101862409494e-01 5.139761357241783344e+02
1.692372321910820265e-01 5.139773268684002687e+02
1.693372541959231037e-01 5.139784734624033717e+02
1.694372762007641531e-01 5.139795752930928074e+02
1.695372982056052302e-01 5.139806321497584349e+02
1.696373202104463074e-01 5.139816438240835623e+02
1.697373422152873290e-01 5.139826101101588165e+02
1.698373642201284062e-01 5.139835308044903286e+02
1.699373862249694833e-01 5.139844057060095111e+02
1.700374082298105605e-01 5.139852346160864727e+02
1.701374302346516099e-01 5.139860173385370672e+02
1.702374522394926870e-01 5.139867536796356262e+02
1.703374742443337642e-01 5.139874434481216667e+02
1.704374962491747858e-01 5.139880864552141020e+02
1.705375182540158630e-01 5.139886825146174942e+02
1.706375402588569401e-01 5.139892314425335371e+02
1.707375622636980173e-01 5.139897330576693548e+02
1.708375842685390666e-01 5.139901871812486434e+02
1.709376062733801438e-01 5.139905936370187192e+02
1.710376282782212209e-01 5.139909522512631384e+02
1.711376502830622426e-01 5.139912628528069263e+02
1.712376722879033197e-01 5.139915252730293105e+02
1.713376942927443969e-01 5.139917393458684955e+02
1.714377162975854740e-01 5.139919049078359876e+02
1.715377383024265234e-01 5.139920217980193229e+02
1.716377603072676006e-01 5.139920898580950279e+02
1.717377823121086222e-01 5.139921089323347587e+02
1.718378043169496994e-01 5.139920788676141683e+02
1.719378263217907765e-01 5.139919995134226838e+02
1.720378483266318537e-01 5.139918707218688496e+02
1.721378703314729308e-01 5.139916923476914690e+02
1.722378923363139802e-01 5.139914642482639238e+02
1.723379143411550574e-01 5.139911862836052023e+02
1.724379363459960790e-01 5.139908583163860385e+02
1.725379583508371562e-01 5.139904802119367559e+02
1.726379803556782333e-01 5.139900518382538621e+02
1.727380023605193105e-01 5.139895730660091431e+02
1.728380243653603876e-01 5.139890437685553479e+02
1.729380463702014370e-01 5.139884638219342605e+02
1.730380683750425141e-01 5.139878331048820428e+02
1.731380903798835358e-01 5.139871514988388981e+02
1.732381123847246129e-01 5.139864188879529365e+02
1.733381343895656901e-01 5.139856351590881332e+02
1.734381563944067672e-01 5.139848002018311490e+02
1.735381783992478444e-01 5.139839139084972430e+02
1.736382004040888938e-01 5.139829761741360699e+02
1.737382224089299432e-01 5.139819868965389560e+02
1.738382444137709926e-01 5.139809459762436745e+02
1.739382664186120697e-01 5.139798533165410390e+02
1.740382884234531469e-01 5.139787088234810426e+02
1.741383104282942240e-01 5.139775124058775191e+02
1.742383324331353012e-01 5.139762639753148505e+02
1.743383544379763506e-01 5.139749634461519463e+02
1.744383764428174000e-01 5.139736107355282684e+02
1.745383984476584494e-01 5.139722057633709937e+02
1.746384204524995265e-01 5.139707484523962648e+02
1.747384424573406037e-01 5.139692387281163519e+02
1.748384644621816808e-01 5.139676765188444278e+02
1.749384864670227580e-01 5.139660617556985471e+02
1.750385084718638073e-01 5.139643943726084672e+02
1.751385304767048567e-01 5.139626743063150798e+02
1.752385524815459061e-01 5.139609014963807567e+02
1.753385744863869833e-01 5.139590758851899182e+02
1.754385964912280604e-01 5.139571974179527842e+02
1.755386184960691376e-01 5.139552660427120827e+02
1.756386405009102147e-01 5.139532817103447542e+02
1.757386625057512364e-01 5.139512443745649080e+02
1.758386845105923135e-01 5.139491539919306433e+02
1.759387065154333629e-01 5.139470105218440494e+02
1.760387285202744401e-01 5.139448139265570035e+02
1.761387505251155172e-01 5.139425641711727621e+02
1.762387725299565944e-01 5.139402612236492587e+02
1.763387945347976715e-01 5.139379050548041050e+02
1.764388165396386932e-01 5.139354956383142508e+02
1.765388385444797703e-01 5.139330329507206443e+02
1.766388605493208197e-01 5.139305169714302792e+02
1.767388825541618969e-01 5.139279476827198323e+02
1.768389045590029740e-01 5.139253250697353224e+02
1.769389265638440512e-01 5.139226491204972262e+02
1.770389485686851283e-01 5.139199198259010473e+02
1.771389705735261499e-01 5.139171371797190204e+02
1.772389925783672271e-01 5.139143011786027273e+02
1.773390145832082765e-01 5.139114118220846876e+02
1.774390365880493536e-01 5.139084691125798372e+02
1.775390585928904308e-01 5.139054730553864374e+02
1.776390805977315079e-01 5.139024236586876668e+02
1.777391026025725296e-01 5.138993209335549182e+02
1.778391246074136067e-01 5.138961648939443876e+02
1.779391466122546839e-01 5.138929555567024181e+02
1.780391686170957333e-01 5.138896929415645900e+02
1.781391906219368104e-01 5.138863770711541292e+02
1.782392126267778876e-01 5.138830079709882739e+02
1.783392346316189647e-01 5.138795856694714530e+02
1.784392566364599864e-01 5.138761101979023351e+02
1.785392786413010635e-01 5.138725815904692809e+02
1.786393006461421407e-01 5.138689998842535260e+02
1.787393226509831901e-01 5.138653651192255438e+02
1.788393446558242672e-01 5.138616773382489100e+02
1.789393666606653444e-01 5.138579365870778020e+02
1.790393886655064215e-01 5.138541429143559753e+02
1.791394106703474431e-01 5.138502963716182421e+02
1.792394326751885203e-01 5.138463970132876284e+02
1.793394546800295974e-01 5.138424448966762839e+02
1.794394766848706468e-01 5.138384400819833218e+02
1.795394986897117240e-01 5.138343826322947052e+02
1.796395206945528011e-01 5.138302726135810872e+02
1.797395426993938783e-01 5.138261100946971283e+02
1.798395647042348999e-01 5.138218951473793368e+02
1.799395867090759771e-01 5.138176278462458413e+02
1.800396087139170542e-01 5.138133082687941169e+02
1.801396307187581036e-01 5.138089364953974609e+02
1.802396527235991808e-01 5.138045126093064709e+02
1.803396747284402579e-01 5.138000366966425645e+02
1.804396967332813073e-01 5.137955088463997981e+02
1.805397187381223567e-01 5.137909291504411158e+02
1.806397407429634339e-01 5.137862977034942560e+02
1.807397627478045110e-01 5.137816146031519793e+02
1.808397847526455604e-01 5.137768799498667249e+02
1.809398067574866376e-01 5.137720938469501561e+02
1.810398287623277147e-01 5.137672564005679305e+02
1.811398507671687641e-01 5.137623677197382221e+02
1.812398727720098135e-01 5.137574279163281972e+02
1.813398947768508906e-01 5.137524371050501486e+02
1.814399167816919678e-01 5.137473954034583130e+02
1.815399387865330172e-01 5.137423029319452326e+02
1.816399607913740943e-01 5.137371598137383444e+02
1.817399827962151715e-01 5.137319661748952058e+02
1.818400048010562209e-01 5.137267221443013341e+02
1.819400268058972703e-01 5.137214278536644088e+02
1.820400488107383474e-01 5.137160834375108607e+02
1.821400708155794246e-01 5.137106890331803015e+02
1.822400928204204740e-01 5.137052447808227953e+02
1.823401148252615511e-01 5.136997508233943108e+02
1.824401368301026005e-01 5.136942073066499006e+02
1.825401588349436777e-01 5.136886143791409722e+02
1.826401808397847271e-01 5.136829721922090357e+02
1.827402028446258042e-01 5.136772808999819517e+02
1.828402248494668814e-01 5.136715406593668831e+02
1.829402468543079308e-01 5.136657516300466568e+02
1.830402688591490079e-01 5.136599139744736249e+02
1.831402908639900573e-01 5.136540278578640937e+02
1.832403128688311345e-01 5.136480934481919576e+02
1.833403348736721838e-01 5.136421109161849472e+02
1.834403568785132610e-01 5.136360804353153071e+02
1.835403788833543381e-01 5.136300021817976358e+02
1.836404008881953875e-01 5.136238763345807001e+02
1.837404228930364647e-01 5.136177030753397048e+02
1.838404448978775141e-01 5.136114825884727679e+02
1.839404669027185912e-01 5.136052150610923945e+02
1.840404889075596406e-01 5.135989006830195649e+02
1.841405109124007178e-01 5.135925396467775954e+02
1.842405329172417949e-01 5.135861321475824752e+02
1.843405549220828443e-01 5.135796783833403651e+02
1.844405769269238937e-01 5.135731785546355468e+02
1.845405989317649709e-01 5.135666328647272394e+02
1.846406209366060480e-01 5.135600415195397090e+02
1.847406429414470974e-01 5.135534047276555611e+02
1.848406649462881746e-01 5.135467227003085782e+02
1.849406869511292517e-01 5.135399956513747384e+02
1.850407089559703011e-01 5.135332237973661904e+02
1.851407309608113505e-01 5.135264073574210215e+02
1.852407529656524277e-01 5.135195465532976868e+02
1.853407749704935048e-01 5.135126416093650050e+02
1.854407969753345542e-01 5.135056927525935180e+02
1.855408189801756313e-01 5.134987002125498066e+02
1.856408409850167085e-01 5.134916642213834166e+02
1.857408629898577579e-01 5.134845850138234482e+02
1.858408849946988073e-01 5.134774628271649135e+02
1.859409069995398844e-01 5.134702979012637343e+02
1.860409290043809616e-01 5.134630904785258281e+02
1.861409510092220110e-01 5.134558408038964217e+02
1.862409730140630881e-01 5.134485491248549351e+02
1.863409950189041653e-01 5.134412156914021352e+02
1.864410170237451869e-01 5.134338407560514952e+02
1.865410390285862641e-01 5.134264245738213504e+02
1.866410610334273412e-01 5.134189674022223926e+02
1.867410830382684184e-01 5.134114695012501670e+02
1.868411050431094678e-01 5.134039311333739306e+02
1.869411270479505449e-01 5.133963525635260794e+02
1.870411490527916221e-01 5.133887340590956683e+02
1.871411710576326437e-01 5.133810758899126085e+02
1.872411930624737209e-01 5.133733783282414151e+02
1.873412150673147980e-01 5.133656416487696106e+02
1.874412370721558752e-01 5.133578661285962426e+02
1.875412590769969245e-01 5.133500520472229027e+02
1.876412810818380017e-01 5.133421996865413348e+02
1.877413030866790788e-01 5.133343093308237712e+02
1.878413250915201005e-01 5.133263812667109960e+02
1.879413470963611776e-01 5.133184157832015444e+02
1.880413691012022548e-01 5.133104131716416987e+02
1.881413911060433319e-01 5.133023737257113908e+02
1.882414131108843813e-01 5.132942977414151073e+02
1.883414351157254585e-01 5.132861855170709759e+02
1.884414571205665356e-01 5.132780373532949625e+02
1.885414791254075573e-01 5.132698535529955279e+02
1.886415011302486344e-01 5.132616344213561206e+02
1.887415231350897116e-01 5.132533802658258537e+02
1.888415451399307887e-01 5.132450913961070000e+02
1.889415671447718381e-01 5.132367681241422588e+02
1.890415891496129153e-01 5.132284107641052060e+02
1.891416111544539369e-01 5.132200196323832415e+02
1.892416331592950141e-01 5.132115950475696309e+02
1.893416551641360912e-01 5.132031373304478166e+02
1.894416771689771684e-01 5.131946468039808451e+02
1.895416991738182455e-01 5.131861237932977247e+02
1.896417211786592949e-01 5.131775686256800100e+02
1.897417431835003720e-01 5.131689816305502063e+02
1.898417651883413937e-01 5.131603631394582408e+02
1.899417871931824708e-01 5.131517134860662281e+02
1.900418091980235480e-01 5.131430330061398308e+02
1.901418312028646251e-01 5.131343220375304099e+02
1.902418532077057023e-01 5.131255809201639977e+02
1.903418752125467517e-01 5.131168099960261770e+02
1.904418972173878288e-01 5.131080096091517362e+02
1.905419192222288505e-01 5.130991801056064787e+02
1.906419412270699276e-01 5.130903218334760822e+02
1.907419632319110048e-01 5.130814351428523423e+02
1.908419852367520819e-01 5.130725203858186205e+02
1.909420072415931591e-01 5.130635779164352925e+02
1.910420292464342085e-01 5.130546080907257647e+02
1.911420512512752579e-01 5.130456112666629451e+02
1.912420732561163073e-01 5.130365878041546921e+02
1.913420952609573844e-01 5.130275380650284660e+02
1.914421172657984616e-01 5.130184624130172324e+02
1.915421392706395387e-01 5.130093612137461605e+02
1.916421612754806159e-01 5.130002348347156840e+02
1.917421832803216653e-01 5.129910836452885405e+02
1.918422052851627146e-01 5.129819080166740832e+02
1.919422272900037640e-01 5.129727083219123642e+02
1.920422492948448412e-01 5.129634849358619704e+02
1.921422712996859183e-01 5.129542382351816059e+02
1.922422933045269955e-01 5.129449685983171321e+02
1.923423153093680726e-01 5.129356764054850828e+02
1.924423373142091220e-01 5.129263620386573166e+02
1.925423593190501714e-01 5.129170258815469197e+02
1.926423813238912208e-01 5.129076683195910391e+02
1.927424033287322980e-01 5.128982897399354215e+02
1.928424253335733751e-01 5.128888905314208841e+02
1.929424473384144523e-01 5.128794710845630789e+02
1.930424693432555294e-01 5.128700317915419191e+02
1.931424913480965511e-01 5.128605730461813437e+02
1.932425133529376282e-01 5.128510952439355606e+02
1.933425353577786776e-01 5.128415987818732447e+02
1.934425573626197548e-01 5.128320840586591203e+02
1.935425793674608319e-01 5.128225514745404325e+02
1.936426013723019091e-01 5.128130014313283027e+02
1.937426233771429862e-01 5.128034343323826079e+02
1.938426453819840078e-01 5.127938505825948141e+02
1.939426673868250850e-01 5.127842505883739932e+02
1.940426893916661344e-01 5.127746347576255630e+02
1.941427113965072115e-01 5.127650034997378725e+02
1.942427334013482887e-01 5.127553572255652625e+02
1.943427554061893658e-01 5.127456963474097620e+02
1.944427774110304430e-01 5.127360212790061951e+02
1.945427994158714646e-01 5.127263324355031955e+02
1.946428214207125418e-01 5.127166302334476313e+02
1.947428434255535912e-01 5.127069150907663015e+02
1.948428654303946683e-01 5.126971874267502471e+02
1.949428874352357455e-01 5.126874476620362202e+02
1.950429094400768226e-01 5.126776962185896309e+02
1.951429314449178443e-01 5.126679335196885177e+02
1.952429534497589214e-01 5.126581599899022876e+02
1.953429754545999986e-01 5.126483760550810302e+02
1.954429974594410480e-01 5.126385821423307334e+02
1.955430194642821251e-01 5.126287786799996411e+02
1.956430414691232023e-01 5.126189660976598361e+02
1.957430634739642794e-01 5.126091448260896186e+02
1.958430854788053010e-01 5.125993152972554299e+02
1.959431074836463782e-01 5.125894779442930940e+02
1.960431294884874553e-01 5.125796332014930385e+02
1.961431514933285047e-01 5.125697815042774437e+02
1.962431734981695819e-01 5.125599232891875090e+02
1.963431955030106590e-01 5.125500589938604890e+02
1.964432175078517362e-01 5.125401890570157093e+02
1.965432395126927578e-01 5.125303139184331940e+02
1.966432615175338350e-01 5.125204340189376353e+02
1.967432835223749121e-01 5.125105498003786124e+02
1.968433055272159615e-01 5.125006617056134246e+02
1.969433275320570387e-01 5.124907701784857181e+02
1.970433495368981158e-01 5.124808756638150271e+02
1.971433715417391930e-01 5.124709786073657369e+02
1.972433935465802146e-01 5.124610794558396947e+02
1.973434155514212918e-01 5.124511786568522211e+02
1.974434375562623689e-01 5.124412766589147168e+02
1.975434595611034183e-01 5.124313739114154487e+02
1.976434815659444955e-01 5.124214708646012468e+02
1.977435035707855726e-01 5.124115679695594281e+02
1.978435255756266220e-01 5.124016656781964230e+02
1.979435475804676714e-01 5.123917644432226552e+02
1.980435695853087485e-01 5.123818647181307142e+02
1.981435915901498257e-01 5.123719669571763689e+02
1.982436135949908751e-01 5.123620716153621970e+02
1.983436355998319522e-01 5.123521791484158712e+02
1.984436576046730294e-01 5.123422900127720823e+02
1.985436796095140788e-01 5.123324046655527582e+02
1.986437016143551282e-01 5.123225235645495559e+02
1.987437236191962053e-01 5.123126471682036254e+02
1.988437456240372825e-01 5.123027759355852595e+02
1.989437676288783319e-01 5.122929103263763864e+02
1.990437896337194090e-01 5.122830508008503330e+02
1.991438116385604862e-01 5.122731978198530669e+02
1.992438336434015356e-01 5.122633518447830738e+02
1.993438556482425850e-01 5.122535133375727128e+02
1.994438776530836621e-01 5.122436827606677525e+02
1.995438996579247393e-01 5.122338605770091817e+02
1.996439216627657887e-01 5.122240472500129727e+02
1.997439436676068658e-01 5.122142432435505270e+02
1.998439656724479152e-01 5.122044490219286672e+02
1.999439876772889924e-01 5.121946650498713325e+02
2.000440096821300417e-01 5.121848917924991156e+02
2.001440316869711189e-01 5.121751297153098221e+02
2.002440536918121960e-01 5.121653792841573249e+02
2.003440756966532454e-01 5.121556409652355342e+02
2.004440977014943226e-01 5.121459152250544093e+02
2.005441197063353720e-01 5.121362025304235885e+02
2.006441417111764491e-01 5.121265033484299920e+02
2.007441637160174985e-01 5.121168181464203144e+02
2.008441857208585757e-01 5.121071473919788559e+02
2.009442077256996528e-01 5.120974915529106966e+02
2.010442297305407022e-01 5.120878510972186177e+02
2.011442517353817794e-01 5.120782264930853671e+02
2.012442737402228288e-01 5.120686182088538771e+02
2.013442957450639059e-01 5.120590267130052098e+02
2.014443177499049553e-01 5.120494524741410487e+02
2.015443397547460325e-01 5.120398959609625535e+02
2.016443617595871096e-01 5.120303576422500100e+02
2.017443837644281590e-01 5.120208379868449811e+02
2.018444057692692084e-01 5.120113374636276831e+02
2.019444277741102856e-01 5.120018565414986824e+02
2.020444497789513627e-01 5.119923956893577497e+02
2.021444717837924121e-01 5.119829553760852150e+02
2.022444937886334893e-01 5.119735360705210496e+02
2.023445157934745664e-01 5.119641382414448572e+02
2.024445377983156158e-01 5.119547623575561488e+02
2.025445598031566652e-01 5.119454088874539366e+02
2.026445818079977423e-01 5.119360782996179751e+02
2.027446038128388195e-01 5.119267710623850576e+02
2.028446258176798689e-01 5.119174876439346917e+02
2.029446478225209460e-01 5.119082285122634062e+02
2.030446698273620232e-01 5.118989941351696302e+02
2.031446918322030726e-01 5.118897849802287396e+02
2.032447138370441220e-01 5.118806015147764015e+02
2.033447358418851991e-01 5.118714442058885652e+02
2.034447578467262763e-01 5.118623135203584980e+02
2.035447798515673257e-01 5.118532099246802431e+02
2.036448018564084028e-01 5.118441338850258262e+02
2.037448238612494800e-01 5.118350858672266668e+02
2.038448458660905016e-01 5.118260663367535699e+02
2.039448678709315788e-01 5.118170757586956370e+02
2.040448898757726559e-01 5.118081145977408255e+02
2.041449118806137331e-01 5.117991833181567927e+02
2.042449338854547825e-01 5.117902823837685560e+02
2.043449558902958596e-01 5.117814122579412697e+02
2.044449778951369368e-01 5.117725734035573169e+02
2.045449998999779584e-01 5.117637662830004501e+02
2.046450219048190355e-01 5.117549913581308942e+02
2.047450439096601127e-01 5.117462490902671561e+02
2.048450659145011898e-01 5.117375399401693699e+02
2.049450879193422392e-01 5.117288643680141149e+02
2.050451099241833164e-01 5.117202228333774201e+02
2.051451319290243935e-01 5.117116157952154367e+02
2.052451539338654152e-01 5.117030437118416444e+02
2.053451759387064923e-01 5.116945070409095706e+02
2.054451979435475695e-01 5.116860062393920430e+02
2.055452199483886466e-01 5.116775417635620897e+02
2.056452419532296960e-01 5.116691140689706572e+02
2.057452639580707732e-01 5.116607236104295566e+02
2.058452859629118503e-01 5.116523708419906598e+02
2.059453079677528720e-01 5.116440562169249802e+02
2.060453299725939491e-01 5.116357801877055635e+02
2.061453519774350263e-01 5.116275432059846935e+02
2.062453739822761034e-01 5.116193457225762700e+02
2.063453959871171528e-01 5.116111881874359142e+02
2.064454179919582300e-01 5.116030710496396523e+02
2.065454399967992516e-01 5.115949947573668055e+02
2.066454620016403287e-01 5.115869597578783328e+02
2.067454840064814059e-01 5.115789664974976745e+02
2.068455060113224830e-01 5.115710154215927332e+02
2.069455280161635602e-01 5.115631069745536479e+02
2.070455500210046096e-01 5.115552415997761955e+02
2.071455720258456867e-01 5.115474197396397926e+02
2.072455940306867084e-01 5.115396418354893058e+02
2.073456160355277855e-01 5.115319083276164633e+02
2.074456380403688627e-01 5.115242196552391079e+02
2.075456600452099398e-01 5.115165762564814713e+02
2.076456820500510170e-01 5.115089785683566106e+02
2.077457040548920664e-01 5.115014270267461143e+02
2.078457260597331435e-01 5.114939220663807191e+02
2.079457480645741652e-01 5.114864641208227454e+02
2.080457700694152423e-01 5.114790536224430753e+02
2.081457920742563195e-01 5.114716910024066010e+02
2.082458140790973966e-01 5.114643766906510791e+02
2.083458360839384738e-01 5.114571111158672352e+02
2.084458580887795232e-01 5.114498947054815972e+02
2.085458800936205725e-01 5.114427278856361454e+02
2.086459020984616219e-01 5.114356110811701797e+02
2.087459241033026991e-01 5.114285447156007649e+02
2.088459461081437762e-01 5.114215292111058488e+02
2.089459681129848534e-01 5.114145649885015814e+02
2.090459901178259305e-01 5.114076524672288997e+02
2.091460121226669799e-01 5.114007920653292558e+02
2.092460341275080293e-01 5.113939841994304061e+02
2.093460561323490787e-01 5.113872292847262884e+02
2.094460781371901559e-01 5.113805277349570702e+02
2.095461001420312330e-01 5.113738799623931186e+02
2.096461221468723102e-01 5.113672863778154465e+02
2.097461441517133873e-01 5.113607473904957033e+02
2.098461661565544367e-01 5.113542634081815663e+02
2.099461881613954861e-01 5.113478348370755953e+02
2.100462101662365355e-01 5.113414620818165304e+02
2.101462321710776127e-01 5.113351455454647976e+02
2.102462541759186898e-01 5.113288856294799416e+02
2.103462761807597670e-01 5.113226827337051645e+02
2.104462981856008441e-01 5.113165372563495907e+02
2.105463201904418657e-01 5.113104495939683147e+02
2.106463421952829429e-01 5.113044201414471672e+02
2.107463642001239923e-01 5.112984492919820241e+02
2.108463862049650694e-01 5.112925374370629470e+02
2.109464082098061466e-01 5.112866849664567326e+02
2.110464302146472237e-01 5.112808922681880972e+02
2.111464522194883009e-01 5.112751597285223966e+02
2.112464742243293225e-01 5.112694877319486864e+02
2.113464962291703997e-01 5.112638766611615324e+02
2.114465182340114491e-01 5.112583268970444692e+02
2.115465402388525262e-01 5.112528388186519805e+02
2.116465622436936034e-01 5.112474128031921055e+02
2.117465842485346805e-01 5.112420492260100673e+02
2.118466062533757577e-01 5.112367484605711070e+02
2.119466282582167793e-01 5.112315108784420090e+02
2.120466502630578565e-01 5.112263368492760378e+02
2.121466722678989059e-01 5.112212267407949753e+02
2.122466942727399830e-01 5.112161809187726931e+02
2.123467162775810602e-01 5.112111997470175311e+02
2.124467382824221373e-01 5.112062835873559834e+02
2.125467602872631590e-01 5.112014327996178622e+02
2.126467822921042361e-01 5.111966477416165162e+02
2.127468042969453133e-01 5.111919287691353588e+02
2.128468263017863626e-01 5.111872762359089961e+02
2.129468483066274398e-01 5.111826904936092433e+02
2.130468703114685169e-01 5.111781718918264801e+02
2.131468923163095941e-01 5.111737207780556673e+02
2.132469143211506157e-01 5.111693374976782707e+02
2.133469363259916929e-01 5.111650223939484476e+02
2.134469583308327700e-01 5.111607758079753694e+02
2.135469803356738194e-01 5.111565980787069634e+02
2.136470023405148966e-01 5.111524895429164417e+02
2.137470243453559737e-01 5.111484505351843382e+02
2.138470463501970509e-01 5.111444813878844684e+02
2.139470683550380725e-01 5.111405824311669903e+02
2.140470903598791497e-01 5.111367539929440795e+02
2.141471123647202268e-01 5.111329963988736722e+02
2.142471343695612762e-01 5.111293099723450268e+02
2.143471563744023534e-01 5.111256950344627512e+02
2.144471783792434305e-01 5.111221519040330463e+02
2.145472003840845077e-01 5.111186808975463691e+02
2.146472223889255293e-01 5.111152823291645859e+02
2.147472443937666065e-01 5.111119565107049993e+02
2.148472663986076836e-01 5.111087037516258533e+02
2.149472884034487330e-01 5.111055243590124633e+02
2.150473104082898101e-01 5.111024186375608451e+02
2.151473324131308873e-01 5.110993868895645278e+02
2.152473544179719367e-01 5.110964294149006832e+02
2.153473764228129861e-01 5.110935465110135283e+02
2.154473984276540632e-01 5.110907384729027854e+02
2.155474204324951404e-01 5.110880055931077095e+02
2.156474424373361898e-01 5.110853481616934459e+02
2.157474644421772669e-01 5.110827664662377856e+02
2.158474864470183441e-01 5.110802607918166700e+02
2.159475084518593935e-01 5.110778314209902078e+02
2.160475304567004429e-01 5.110754786337896007e+02
2.161475524615415200e-01 5.110732027077035582e+02
2.162475744663825972e-01 5.110710039176637451e+02
2.163475964712236466e-01 5.110688825360334135e+02
2.164476184760647237e-01 5.110668388325914293e+02
2.165476404809058009e-01 5.110648730745220973e+02
2.166476624857468503e-01 5.110629855263999843e+02
2.167476844905878997e-01 5.110611764501777543e+02
2.168477064954289768e-01 5.110594461051719577e+02
2.169477285002700540e-01 5.110577947480530838e+02
2.170477505051111033e-01 5.110562226328298152e+02
2.171477725099521805e-01 5.110547300108382274e+02
2.172477945147932299e-01 5.110533171307290559e+02
2.173478165196343070e-01 5.110519842384549065e+02
2.174478385244753564e-01 5.110507315772580341e+02
2.175478605293164336e-01 5.110495593876590306e+02
2.176478825341575107e-01 5.110484679074430119e+02
2.177479045389985601e-01 5.110474573716496707e+02
2.178479265438396373e-01 5.110465280125594063e+02
2.179479485486806867e-01 5.110456800596840594e+02
2.180479705535217638e-01 5.110449137397523600e+02
2.181479925583628132e-01 5.110442292767004915e+02
2.182480145632038904e-01 5.110436268916606650e+02
2.183480365680449675e-01 5.110431068029475909e+02
2.184480585728860169e-01 5.110426692260506343e+02
2.185480805777270941e-01 5.110423143736196039e+02
2.186481025825681435e-01 5.110420424554554870e+02
2.187481245874092206e-01 5.110418536784991375e+02
2.188481465922502700e-01 5.110417482468208163e+02
2.189481685970913472e-01 5.110417263616083687e+02
2.190481906019324243e-01 5.110417882211582423e+02
2.191482126067734737e-01 5.110419340208641188e+02
2.192482346116145231e-01 5.110421639532065683e+02
2.193482566164556002e-01 5.110424782077433292e+02
2.194482786212966774e-01 5.110428769710987922e+02
2.195483006261377268e-01 5.110433604269535408e+02
2.196483226309788039e-01 5.110439287560366211e+02
2.197483446358198811e-01 5.110445821361121830e+02
2.198483666406609305e-01 5.110453207419732848e+02
2.199483886455019799e-01 5.110461447454309223e+02
2.200484106503430570e-01 5.110470543153030576e+02
2.201484326551841342e-01 5.110480496174089922e+02
2.202484546600251836e-01 5.110491308145567473e+02
2.203484766648662607e-01 5.110502980665361292e+02
2.204484986697073379e-01 5.110515515301074174e+02
2.205485206745483873e-01 5.110528913589961917e+02
2.206485426793894367e-01 5.110543177038814520e+02
2.207485646842305138e-01 5.110558307123872623e+02
2.208485866890715910e-01 5.110574305290768962e+02
2.209486086939126404e-01 5.110591172954409558e+02
2.210486306987537175e-01 5.110608911498921429e+02
2.211486527035947947e-01 5.110627522277545722e+02
2.212486747084358163e-01 5.110647006612587688e+02
2.213486967132768934e-01 5.110667365795300157e+02
2.214487187181179706e-01 5.110688601085841469e+02
2.215487407229590477e-01 5.110710713713172595e+02
2.216487627278000971e-01 5.110733704875012222e+02
2.217487847326411743e-01 5.110757575737725347e+02
2.218488067374822514e-01 5.110782327436274954e+02
2.219488287423232731e-01 5.110807961074141303e+02
2.220488507471643502e-01 5.110834477723269060e+02
2.221488727520054274e-01 5.110861878423972939e+02
2.222488947568465045e-01 5.110890164184878586e+02
2.223489167616875539e-01 5.110919335982871416e+02
2.224489387665286311e-01 5.110949394763007376e+02
2.225489607713697082e-01 5.110980341438460641e+02
2.226489827762107299e-01 5.111012176890480987e+02
2.227490047810518070e-01 5.111044901968280101e+02
2.228490267858928842e-01 5.111078517489031583e+02
2.229490487907339613e-01 5.111113024237757827e+02
2.230490707955750107e-01 5.111148422967325473e+02
2.231490928004160879e-01 5.111184714398342521e+02
2.232491148052571650e-01 5.111221899219125362e+02
2.233491368100981866e-01 5.111259978085646480e+02
2.234491588149392638e-01 5.111298951621471360e+02
2.235491808197803409e-01 5.111338820417719262e+02
2.236492028246214181e-01 5.111379585033000126e+02
2.237492248294624675e-01 5.111421245993379330e+02
2.238492468343035446e-01 5.111463803792311182e+02
2.239492688391445663e-01 5.111507258890618459e+02
2.240492908439856434e-01 5.111551611716425327e+02
2.241493128488267206e-01 5.111596862665119829e+02
2.242493348536677977e-01 5.111643012099321481e+02
2.243493568585088749e-01 5.111690060348826705e+02
2.244493788633499243e-01 5.111738007710575857e+02
2.245494008681910014e-01 5.111786854448608892e+02
2.246494228730320231e-01 5.111836600794040351e+02
2.247494448778731002e-01 5.111887246945013317e+02
2.248494668827141774e-01 5.111938793066667586e+02
2.249494888875552545e-01 5.111991239291098736e+02
2.250495108923963317e-01 5.112044585717347331e+02
2.251495328972373811e-01 5.112098832411339799e+02
2.252495549020784582e-01 5.112153979405887867e+02
2.253495769069194798e-01 5.112210026700631147e+02
2.254495989117605570e-01 5.112266974262043959e+02
2.255496209166016341e-01 5.112324822023375077e+02
2.256496429214427113e-01 5.112383569884644885e+02
2.257496649262837884e-01 5.112443217712623778e+02
2.258496869311248378e-01 5.112503765340804307e+02
2.259497089359658872e-01 5.112565212569372193e+02
2.260497309408069366e-01 5.112627559165209732e+02
2.261497529456480138e-01 5.112690804861854303e+02
2.262497749504890909e-01 5.112754949359500642e+02
2.263497969553301681e-01 5.112819992324977534e+02
2.264498189601712452e-01 5.112885933391732465e+02
2.265498409650122946e-01 5.112952772159821961e+02
2.266498629698533440e-01 5.113020508195914999e+02
2.267498849746943934e-01 5.113089141033248666e+02
2.268499069795354706e-01 5.113158670171666813e+02
2.269499289843765477e-01 5.113229095077559805e+02
2.270499509892176249e-01 5.113300415183905443e+02
2.271499729940587020e-01 5.113372629890246230e+02
2.272499949988997514e-01 5.113445738562669476e+02
2.273500170037408008e-01 5.113519740533849358e+02
2.274500390085818502e-01 5.113594635102998041e+02
2.275500610134229273e-01 5.113670421535906598e+02
2.276500830182640045e-01 5.113747099064912618e+02
2.277501050231050816e-01 5.113824666888928050e+02
2.278501270279461588e-01 5.113903124173452852e+02
2.279501490327871804e-01 5.113982470050543157e+02
2.280501710376282576e-01 5.114062703618856176e+02
2.281501930424693070e-01 5.114143823943642815e+02
2.282502150473103841e-01 5.114225830056761879e+02
2.283502370521514613e-01 5.114308720956697130e+02
2.284502590569925384e-01 5.114392495608547620e+02
2.285502810618336156e-01 5.114477152944074305e+02
2.286503030666746372e-01 5.114562691861697203e+02
2.287503250715157144e-01 5.114649111226514719e+02
2.288503470763567638e-01 5.114736409870329794e+02
2.289503690811978409e-01 5.114824586591651610e+02
2.290503910860389181e-01 5.114913640155742200e+02
2.291504130908799952e-01 5.115003569294619297e+02
2.292504350957210724e-01 5.115094372707085313e+02
2.293504571005620940e-01 5.115186049058764297e+02
2.294504791054031712e-01 5.115278596982102499e+02
2.295505011102442205e-01 5.115372015076422372e+02
2.296505231150852977e-01 5.115466301907946445e+02
2.297505451199263748e-01 5.115561456009808126e+02
2.298505671247674520e-01 5.115657475882112522e+02
2.299505891296084736e-01 5.115754359991951787e+02
2.300506111344495508e-01 5.115852106773440937e+02
2.301506331392906279e-01 5.115950714627760476e+02
2.302506551441316773e-01 5.116050181923188802e+02
2.303506771489727545e-01 5.116150506995130627e+02
2.304506991538138316e-01 5.116251688146196557e+02
2.305507211586549088e-01 5.116353723646180924e+02
2.306507431634959304e-01 5.116456611732165811e+02
2.307507651683370076e-01 5.116560350608523322e+02
2.308507871731780847e-01 5.116664938446988344e+02
2.309508091780191341e-01 5.116770373386675033e+02
2.310508311828602113e-01 5.116876653534158095e+02
2.311508531877012884e-01 5.116983776963500645e+02
2.312508751925423656e-01 5.117091741716311617e+02
2.313508971973833872e-01 5.117200545801787825e+02
2.314509192022244644e-01 5.117310187196789002e+02
2.315509412070655415e-01 5.117420663845869058e+02
2.316509632119065909e-01 5.117531973661336906e+02
2.317509852167476680e-01 5.117644114523340022e+02
2.318510072215887452e-01 5.117757084279869559e+02
2.319510292264298223e-01 5.117870880746876310e+02
2.320510512312708440e-01 5.117985501708294578e+02
2.321510732361119211e-01 5.118100944916115509e+02
2.322510952409529983e-01 5.118217208090459280e+02
2.323511172457940477e-01 5.118334288919622850e+02
2.324511392506351248e-01 5.118452185060162947e+02
2.325511612554762020e-01 5.118570894136951210e+02
2.326511832603172514e-01 5.118690413743250929e+02
2.327512052651583008e-01 5.118810741440778997e+02
2.328512272699993779e-01 5.118931874759791754e+02
2.329512492748404551e-01 5.119053811199131587e+02
2.330512712796815045e-01 5.119176548226338355e+02
2.331512932845225816e-01 5.119300083277679505e+02
2.332513152893636588e-01 5.119424413758270020e+02
2.333513372942047082e-01 5.119549537042118459e+02
2.334513592990457576e-01 5.119675450472219609e+02
2.335513813038868347e-01 5.119802151360644871e+02
2.336514033087279119e-01 5.119929636988591710e+02
2.337514253135689613e-01 5.120057904606500188e+02
2.338514473184100384e-01 5.120186951434120601e+02
2.339514693232511156e-01 5.120316774660600458e+02
2.340514913280921649e-01 5.120447371444568034e+02
2.341515133329332143e-01 5.120578738914226733e+02
2.342515353377742915e-01 5.120710874167448310e+02
2.343515573426153686e-01 5.120843774271852453e+02
2.344515793474564180e-01 5.120977436264887501e+02
2.345516013522974952e-01 5.121111857153964593e+02
2.346516233571385446e-01 5.121247033916500868e+02
2.347516453619796217e-01 5.121382963500051346e+02
2.348516673668206711e-01 5.121519642822393052e+02
2.349516893716617483e-01 5.121657068771617105e+02
2.350517113765028254e-01 5.121795238206227623e+02
2.351517333813438748e-01 5.121934147955264507e+02
2.352517553861849520e-01 5.122073794818365968e+02
2.353517773910260014e-01 5.122214175565917458e+02
2.354517993958670785e-01 5.122355286939108510e+02
2.355518214007081279e-01 5.122497125650063481e+02
2.356518434055492051e-01 5.122639688381949554e+02
2.357518654103902822e-01 5.122782971789080193e+02
2.358518874152313316e-01 5.122926972497012912e+02
2.359519094200724088e-01 5.123071687102673195e+02
2.360519314249134581e-01 5.123217112174457952e+02
2.361519534297545353e-01 5.123363244252352615e+02
2.362519754345955847e-01 5.123510079848045962e+02
2.363519974394366618e-01 5.123657615445022202e+02
2.364520194442777390e-01 5.123805847498706498e+02
2.365520414491187884e-01 5.123954772436575240e+02
2.366520634539598378e-01 5.124104386658257226e+02
2.367520854588009149e-01 5.124254686535672363e+02
2.368521074636419921e-01 5.124405668413132844e+02
2.369521294684830415e-01 5.124557328607485260e+02
2.370521514733241186e-01 5.124709663408219740e+02
2.371521734781651958e-01 5.124862669077588180e+02
2.372521954830062452e-01 5.125016341850755452e+02
2.373522174878472946e-01 5.125170677935891490e+02
2.374522394926883717e-01 5.125325673514321352e+02
2.375522614975294489e-01 5.125481324740637774e+02
2.376522835023704983e-01 5.125637627742856921e+02
2.377523055072115754e-01 5.125794578622511608e+02
2.378523275120526526e-01 5.125952173454807053e+02
2.379523495168937020e-01 5.126110408288759572e+02
2.380523715217347513e-01 5.126269279147301177e+02
2.381523935265758285e-01 5.126428782027448960e+02
2.382524155314169056e-01 5.126588912900406285e+02
2.383524375362579550e-01 5.126749667711735583e+02
2.384524595410990322e-01 5.126911042381468633e+02
2.385524815459401093e-01 5.127073032804252080e+02
2.386525035507811310e-01 5.127235634849496364e+02
2.387525255556222081e-01 5.127398844361512147e+02
2.388525475604632853e-01 5.127562657159649007e+02
2.389525695653043624e-01 5.127727069038442096e+02
2.390525915701454118e-01 5.127892075767750839e+02
2.391526135749864890e-01 5.128057673092921505e+02
2.392526355798275661e-01 5.128223856734906576e+02
2.393526575846685878e-01 5.128390622390438693e+02
2.394526795895096649e-01 5.128557965732167077e+02
2.395527015943507421e-01 5.128725882408792813e+02
2.396527235991918192e-01 5.128894368045250758e+02
2.397527456040328686e-01 5.129063418242833450e+02
2.398527676088739458e-01 5.129233028579361644e+02
2.399527896137150229e-01 5.129403194609326420e+02
