0.000000000000000000e+00 5.100757126382703746e+02
1.000220048410650341e-04 5.100713212445329532e+02
2.000440096821300682e-04 5.100669334908401993e+02
3.000660145231950752e-04 5.100625494963722986e+02
4.000880193642601364e-04 5.100581693808532009e+02
5.001100242053251434e-04 5.100537932645469823e+02
6.001320290463901504e-04 5.100494212682546618e+02
7.001540338874551574e-04 5.100450535133064704e+02
8.001760387285202728e-04 5.100406901215608855e+02
9.001980435695852798e-04 5.100363312153970128e+02
1.000220048410650287e-03 5.100319769177127682e+02
1.100242053251715294e-03 5.100276273519179426e+02
1.200264058092780301e-03 5.100232826419317007e+02
1.300286062933845308e-03 5.100189429121752482e+02
1.400308067774910315e-03 5.100146082875706384e+02
1.500330072615975322e-03 5.100102788935329272e+02
1.600352077457040546e-03 5.100059548559677296e+02
1.700374082298105553e-03 5.100016363012645115e+02
1.800396087139170560e-03 5.099973233562935775e+02
1.900418091980235567e-03 5.099930161484006135e+02
2.000440096821300574e-03 5.099887148054017416e+02
2.100462101662365581e-03 5.099844194555781201e+02
2.200484106503430588e-03 5.099801302276734418e+02
2.300506111344495595e-03 5.099758472508860905e+02
2.400528116185560602e-03 5.099715706548659000e+02
2.500550121026625609e-03 5.099673005697092663e+02
2.600572125867690616e-03 5.099630371259536332e+02
2.700594130708756056e-03 5.099587804545728886e+02
2.800616135549820630e-03 5.099545306869728734e+02
2.900638140390886070e-03 5.099502879549845034e+02
3.000660145231950644e-03 5.099460523908619507e+02
3.100682150073016084e-03 5.099418241272741170e+02
3.200704154914081091e-03 5.099376032973020187e+02
3.300726159755145665e-03 5.099333900344329322e+02
3.400748164596211105e-03 5.099291844725551073e+02
3.500770169437275679e-03 5.099249867459537882e+02
3.600792174278341119e-03 5.099207969893034260e+02
3.700814179119406126e-03 5.099166153376654051e+02
3.800836183960471133e-03 5.099124419264813923e+02
3.900858188801536140e-03 5.099082768915699262e+02
4.000880193642601147e-03 5.099041203691170949e+02
4.100902198483666154e-03 5.098999724956759110e+02
4.200924203324731161e-03 5.098958334081586372e+02
4.300946208165796168e-03 5.098917032438322394e+02
4.400968213006861175e-03 5.098875821403128157e+02
4.500990217847926182e-03 5.098834702355601962e+02
4.601012222688991189e-03 5.098793676678732822e+02
4.701034227530056196e-03 5.098752745758837364e+02
4.801056232371121203e-03 5.098711910985519467e+02
4.901078237212187078e-03 5.098671173751602055e+02
5.001100242053251217e-03 5.098630535453079915e+02
5.101122246894316224e-03 5.098589997489077632e+02
5.201144251735381231e-03 5.098549561261772283e+02
5.301166256576447106e-03 5.098509228176346824e+02
5.401188261417512113e-03 5.098468999640949733e+02
5.501210266258576252e-03 5.098428877066639870e+02
5.601232271099641259e-03 5.098388861867296100e+02
5.701254275940706266e-03 5.098348955459606486e+02
5.801276280781772141e-03 5.098309159262997809e+02
5.901298285622837148e-03 5.098269474699557122e+02
6.001320290463901287e-03 5.098229903194026065e+02
6.101342295304966294e-03 5.098190446173697410e+02
6.201364300146032169e-03 5.098151105068377547e+02
6.301386304987097176e-03 5.098111881310345552e+02
6.401408309828162183e-03 5.098072776334271907e+02
6.501430314669226322e-03 5.098033791577178135e+02
6.601452319510291329e-03 5.097994928478375982e+02
6.701474324351357204e-03 5.097956188479408297e+02
6.801496329192422211e-03 5.097917573024006401e+02
6.901518334033487218e-03 5.097879083558012212e+02
7.001540338874551357e-03 5.097840721529335042e+02
7.101562343715617232e-03 5.097802488387896460e+02
7.201584348556682239e-03 5.097764385585568334e+02
7.301606353397747246e-03 5.097726414576108596e+02
7.401628358238812253e-03 5.097688576815127703e+02
7.501650363079876392e-03 5.097650873760001105e+02
7.601672367920942266e-03 5.097613306869830012e+02
7.701694372762007273e-03 5.097575877605389110e+02
7.801716377603072280e-03 5.097538587429052086e+02
7.901738382444137287e-03 5.097501437804743318e+02
8.001760387285202294e-03 5.097464430197876482e+02
8.101782392126267301e-03 5.097427566075311915e+02
8.201804396967332308e-03 5.097390846905270223e+02
8.301826401808397315e-03 5.097354274157299301e+02
8.401848406649462322e-03 5.097317849302201580e+02
8.501870411490527329e-03 5.097281573811990825e+02
8.601892416331592336e-03 5.097245449159804593e+02
8.701914421172657343e-03 5.097209476819889460e+02
8.801936426013722350e-03 5.097173658267492442e+02
8.901958430854787357e-03 5.097137994978854749e+02
9.001980435695852364e-03 5.097102488431103779e+02
9.102002440536917371e-03 5.097067140102230951e+02
9.202024445377982378e-03 5.097031951471012690e+02
9.302046450219047385e-03 5.096996924016956427e+02
9.402068455060112392e-03 5.096962059220248307e+02
9.502090459901177399e-03 5.096927358561689516e+02
9.602112464742242406e-03 5.096892823522624099e+02
9.702134469583307413e-03 5.096858455584903709e+02
9.802156474424374155e-03 5.096824256230818833e+02
9.902178479265437427e-03 5.096790226943027164e+02
1.000220048410650243e-02 5.096756369204507564e+02
1.010222248894756918e-02 5.096722684498501508e+02
1.020224449378863245e-02 5.096689174308445445e+02
1.030226649862969746e-02 5.096655840117916227e+02
1.040228850347076246e-02 5.096622683410571426e+02
1.050231050831182747e-02 5.096589705670087369e+02
1.060233251315289421e-02 5.096556908380102868e+02
1.070235451799395748e-02 5.096524293024157828e+02
1.080237652283502423e-02 5.096491861085628443e+02
1.090239852767608750e-02 5.096459614047678315e+02
1.100242053251715250e-02 5.096427553393186258e+02
1.110244253735821925e-02 5.096395680604700260e+02
1.120246454219928252e-02 5.096363997164363582e+02
1.130248654704034753e-02 5.096332504553861895e+02
1.140250855188141253e-02 5.096301204254364734e+02
1.150253055672247754e-02 5.096270097746464671e+02
1.160255256156354428e-02 5.096239186510115360e+02
1.170257456640460755e-02 5.096208472024561047e+02
1.180259657124567430e-02 5.096177955768309857e+02
1.190261857608673930e-02 5.096147639219031475e+02
1.200264058092780257e-02 5.096117523853525881e+02
1.210266258576886932e-02 5.096087611147659118e+02
1.220268459060993259e-02 5.096057902576280298e+02
1.230270659545099760e-02 5.096028399613197735e+02
1.240272860029206434e-02 5.095999103731101627e+02
1.250275060513312761e-02 5.095970016401488465e+02
1.260277260997419435e-02 5.095941139094629762e+02
1.270279461481525762e-02 5.095912473279491905e+02
1.280281661965632437e-02 5.095884020423677043e+02
1.290283862449738937e-02 5.095855781993379878e+02
1.300286062933845264e-02 5.095827759453305248e+02
1.310288263417951939e-02 5.095799954266623217e+02
1.320290463902058266e-02 5.095772367894900299e+02
1.330292664386164767e-02 5.095745001798049998e+02
1.340294864870271441e-02 5.095717857434266307e+02
1.350297065354377768e-02 5.095690936259950377e+02
1.360299265838484442e-02 5.095664239729678684e+02
1.370301466322590769e-02 5.095637769296124588e+02
1.380303666806697444e-02 5.095611526410000920e+02
1.390305867290803944e-02 5.095585512519989493e+02
1.400308067774910271e-02 5.095559729072718937e+02
1.410310268259016946e-02 5.095534177512651581e+02
1.420312468743123446e-02 5.095508859282068670e+02
1.430314669227229774e-02 5.095483775820988512e+02
1.440316869711336448e-02 5.095458928567101111e+02
1.450319070195442775e-02 5.095434318955735762e+02
1.460321270679549449e-02 5.095409948419773514e+02
1.470323471163655950e-02 5.095385818389596011e+02
1.480325671647762451e-02 5.095361930293034902e+02
1.490327872131868951e-02 5.095338285555304765e+02
1.500330072615975278e-02 5.095314885598941146e+02
1.510332273100081953e-02 5.095291731843742014e+02
1.520334473584188453e-02 5.095268825706721714e+02
1.530336674068294781e-02 5.095246168602029115e+02
1.540338874552401455e-02 5.095223761940906684e+02
1.550341075036507782e-02 5.095201607131629089e+02
1.560343275520614456e-02 5.095179705579425899e+02
1.570345476004721130e-02 5.095158058686454865e+02
1.580347676488827457e-02 5.095136667851711536e+02
1.590349876972933785e-02 5.095115534470990610e+02
1.600352077457040459e-02 5.095094659936815447e+02
1.610354277941146786e-02 5.095074045638388043e+02
1.620356478425253460e-02 5.095053692961527076e+02
1.630358678909359788e-02 5.095033603288605377e+02
1.640360879393466462e-02 5.095013777998500473e+02
1.650363079877573136e-02 5.094994218466529787e+02
1.660365280361679463e-02 5.094974926064390388e+02
1.670367480845786137e-02 5.094955902160102141e+02
1.680369681329892464e-02 5.094937148117960533e+02
1.690371881813999139e-02 5.094918665298463338e+02
1.700374082298105466e-02 5.094900455058258899e+02
1.710376282782211793e-02 5.094882518750087570e+02
1.720378483266318467e-02 5.094864857722733973e+02
1.730380683750424795e-02 5.094847473320945710e+02
1.740382884234531469e-02 5.094830366885406647e+02
1.750385084718638143e-02 5.094813539752656197e+02
1.760387285202744470e-02 5.094796993255035886e+02
1.770389485686851144e-02 5.094780728720641036e+02
1.780391686170957471e-02 5.094764747473254829e+02
1.790393886655063799e-02 5.094749050832301123e+02
1.800396087139170473e-02 5.094733640112783064e+02
1.810398287623276800e-02 5.094718516625210327e+02
1.820400488107383474e-02 5.094703681675576945e+02
1.830402688591490148e-02 5.094689136565275476e+02
1.840404889075596476e-02 5.094674882591048117e+02
1.850407089559703150e-02 5.094660921044936686e+02
1.860409290043809477e-02 5.094647253214230886e+02
1.870411490527916151e-02 5.094633880381386462e+02
1.880413691012022478e-02 5.094620803824011546e+02
1.890415891496129153e-02 5.094608024814763212e+02
1.900418091980235480e-02 5.094595544621338377e+02
1.910420292464341807e-02 5.094583364506373755e+02
1.920422492948448481e-02 5.094571485727437334e+02
1.930424693432555155e-02 5.094559909536922078e+02
1.940426893916661483e-02 5.094548637182047628e+02
1.950429094400768157e-02 5.094537669904750601e+02
1.960431294884874831e-02 5.094527008941679469e+02
1.970433495368981158e-02 5.094516655524098496e+02
1.980435695853087485e-02 5.094506610877845105e+02
1.990437896337193813e-02 5.094496876223304298e+02
2.000440096821300487e-02 5.094487452775323959e+02
2.010442297305407161e-02 5.094478341743163128e+02
2.020444497789513835e-02 5.094469544330448798e+02
2.030446698273619816e-02 5.094461061735125895e+02
2.040448898757726490e-02 5.094452895149385085e+02
2.050451099241833164e-02 5.094445045759628670e+02
2.060453299725939491e-02 5.094437514746409761e+02
2.070455500210046165e-02 5.094430303284375441e+02
2.080457700694152492e-02 5.094423412542225833e+02
2.090459901178259167e-02 5.094416843682654985e+02
2.100462101662365494e-02 5.094410597862291752e+02
2.110464302146472168e-02 5.094404676231659437e+02
2.120466502630578842e-02 5.094399079935122927e+02
2.130468703114684823e-02 5.094393810110823324e+02
2.140470903598791497e-02 5.094388867890648953e+02
2.150473104082898171e-02 5.094384254400162035e+02
2.160475304567004845e-02 5.094379970758564582e+02
2.170477505051111172e-02 5.094376018078633024e+02
2.180479705535217499e-02 5.094372397466681264e+02
2.190481906019323827e-02 5.094369110022500422e+02
2.200484106503430501e-02 5.094366156839317910e+02
2.210486306987537175e-02 5.094363539003732058e+02
2.220488507471643849e-02 5.094361257595679717e+02
2.230490707955749830e-02 5.094359313688374300e+02
2.240492908439856504e-02 5.094357708348265419e+02
2.250495108923963178e-02 5.094356442634978066e+02
2.260497309408069505e-02 5.094355517601277370e+02
2.270499509892176179e-02 5.094354934293015162e+02
2.280501710376282506e-02 5.094354693749066882e+02
2.290503910860389181e-02 5.094354797001300881e+02
2.300506111344495508e-02 5.094355245074541472e+02
2.310508311828602182e-02 5.094356038986478552e+02
2.320510512312708856e-02 5.094357179747658506e+02
2.330512712796814837e-02 5.094358668361434184e+02
2.340514913280921511e-02 5.094360505823887593e+02
2.350517113765028185e-02 5.094362693123820236e+02
2.360519314249134859e-02 5.094365231242675804e+02
2.370521514733241186e-02 5.094368121154514597e+02
2.380523715217347860e-02 5.094371363825963499e+02
2.390525915701453841e-02 5.094374960216155159e+02
2.400528116185560515e-02 5.094378911276703548e+02
2.410530316669667189e-02 5.094383217951636311e+02
2.420532517153773863e-02 5.094387881177374311e+02
2.430534717637880537e-02 5.094392901882666820e+02
2.440536918121986518e-02 5.094398280988547754e+02
2.450539118606093192e-02 5.094404019408306112e+02
2.460541319090199519e-02 5.094410118047425726e+02
2.470543519574306193e-02 5.094416577803555128e+02
2.480545720058412867e-02 5.094423399566439912e+02
2.490547920542519195e-02 5.094430584217913065e+02
2.500550121026625522e-02 5.094438132631822782e+02
2.510552321510732196e-02 5.094446045674004040e+02
2.520554521994838870e-02 5.094454324202232556e+02
2.530556722478945197e-02 5.094462969066177038e+02
2.540558922963051525e-02 5.094471981107367355e+02
2.550561123447158199e-02 5.094481361159145649e+02
2.560563323931264873e-02 5.094491110046619724e+02
2.570565524415371200e-02 5.094501228586634625e+02
2.580567724899477874e-02 5.094511717587720341e+02
2.590569925383583855e-02 5.094522577850056564e+02
2.600572125867690529e-02 5.094533810165431191e+02
2.610574326351797203e-02 5.094545415317189736e+02
2.620576526835903877e-02 5.094557394080218273e+02
2.630578727320010551e-02 5.094569747220875797e+02
2.640580927804116532e-02 5.094582475496977167e+02
2.650583128288223206e-02 5.094595579657741382e+02
2.660585328772329533e-02 5.094609060443759176e+02
2.670587529256436207e-02 5.094622918586948117e+02
2.680589729740542881e-02 5.094637154810516222e+02
2.690591930224649209e-02 5.094651769828926717e+02
2.700594130708755536e-02 5.094666764347854269e+02
2.710596331192862210e-02 5.094682139064160538e+02
2.720598531676968884e-02 5.094697894665834497e+02
2.730600732161075211e-02 5.094714031831982766e+02
2.740602932645181539e-02 5.094730551232759126e+02
2.750605133129288213e-02 5.094747453529369068e+02
2.760607333613394887e-02 5.094764739374002716e+02
2.770609534097501214e-02 5.094782409409797310e+02
2.780611734581607888e-02 5.094800464270829252e+02
2.790613935065714563e-02 5.094818904582051005e+02
2.800616135549820543e-02 5.094837730959277451e+02
2.810618336033927217e-02 5.094856944009127915e+02
2.820620536518033891e-02 5.094876544329017065e+02
2.830622737002140565e-02 5.094896532507098641e+02
2.840624937486246893e-02 5.094916909122246693e+02
2.850627137970353220e-02 5.094937674744015794e+02
2.860629338454459547e-02 5.094958829932615458e+02
2.870631538938566221e-02 5.094980375238864099e+02
2.880633739422672895e-02 5.095002311204154353e+02
2.890635939906779570e-02 5.095024638360451945e+02
2.900638140390885550e-02 5.095047357230223497e+02
2.910640340874992224e-02 5.095070468326434252e+02
2.920642541359098898e-02 5.095093972152497486e+02
2.930644741843205225e-02 5.095117869202260863e+02
2.940646942327311900e-02 5.095142159959956416e+02
2.950649142811418227e-02 5.095166844900184628e+02
2.960651343295524901e-02 5.095191924487887150e+02
2.970653543779631228e-02 5.095217399178299615e+02
2.980655744263737902e-02 5.095243269416939711e+02
2.990657944747844577e-02 5.095269535639575906e+02
3.000660145231950557e-02 5.095296198272179140e+02
3.010662345716057231e-02 5.095323257730918840e+02
3.020664546200163905e-02 5.095350714422131659e+02
3.030666746684270579e-02 5.095378568742279413e+02
3.040668947168376907e-02 5.095406821077925770e+02
3.050671147652483234e-02 5.095435471805728866e+02
3.060673348136589561e-02 5.095464521292386166e+02
3.070675548620696235e-02 5.095493969894623660e+02
3.080677749104802909e-02 5.095523817959169719e+02
3.090679949588909584e-02 5.095554065822729513e+02
3.100682150073015564e-02 5.095584713811941810e+02
3.110684350557122238e-02 5.095615762243385802e+02
3.120686551041228912e-02 5.095647211423533349e+02
3.130688751525335239e-02 5.095679061648734773e+02
3.140690952009442261e-02 5.095711313205175657e+02
3.150693152493547894e-02 5.095743966368888778e+02
3.160695352977654915e-02 5.095777021405699543e+02
3.170697553461761242e-02 5.095810478571215185e+02
3.180699753945867569e-02 5.095844338110800891e+02
3.190701954429974591e-02 5.095878600259547397e+02
3.200704154914080918e-02 5.095913265242280090e+02
3.210706355398187245e-02 5.095948333273501021e+02
3.220708555882293572e-02 5.095983804557379244e+02
3.230710756366400593e-02 5.096019679287746271e+02
3.240712956850506921e-02 5.096055957648047752e+02
3.250715157334613248e-02 5.096092639811350296e+02
3.260717357818719575e-02 5.096129725940304525e+02
3.270719558302826596e-02 5.096167216187129156e+02
3.280721758786932923e-02 5.096205110693589404e+02
3.290723959271039251e-02 5.096243409590989017e+02
3.300726159755146272e-02 5.096282113000135610e+02
3.310728360239252599e-02 5.096321221031345203e+02
3.320730560723358926e-02 5.096360733784390504e+02
3.330732761207465253e-02 5.096400651348513406e+02
3.340734961691572275e-02 5.096440973802408507e+02
3.350737162175678602e-02 5.096481701214173086e+02
3.360739362659784929e-02 5.096522833641331545e+02
3.370741563143891256e-02 5.096564371130784252e+02
3.380743763627998277e-02 5.096606313718832553e+02
3.390745964112104605e-02 5.096648661431117375e+02
3.400748164596210932e-02 5.096691414282637993e+02
3.410750365080317259e-02 5.096734572277720190e+02
3.420752565564423586e-02 5.096778135410010009e+02
3.430754766048530607e-02 5.096822103662460677e+02
3.440756966532636935e-02 5.096866477007314415e+02
3.450759167016743956e-02 5.096911255406085957e+02
3.460761367500849589e-02 5.096956438809556857e+02
3.470763567984956610e-02 5.097002027157773227e+02
3.480765768469062937e-02 5.097048020380001390e+02
3.490767968953169265e-02 5.097094418394744366e+02
3.500770169437276286e-02 5.097141221109732783e+02
3.510772369921381919e-02 5.097188428421891331e+02
3.520774570405488940e-02 5.097236040217348432e+02
3.530776770889595267e-02 5.097284056371395309e+02
3.540778971373702289e-02 5.097332476748541126e+02
3.550781171857808616e-02 5.097381301202423174e+02
3.560783372341914943e-02 5.097430529575848936e+02
3.570785572826021270e-02 5.097480161700782446e+02
3.580787773310127597e-02 5.097530197398314158e+02
3.590789973794234619e-02 5.097580636478676297e+02
3.600792174278340946e-02 5.097631478741218416e+02
3.610794374762447273e-02 5.097682723974408532e+02
3.620796575246553600e-02 5.097734371955829147e+02
3.630798775730660621e-02 5.097786422452156785e+02
3.640800976214766949e-02 5.097838875219180750e+02
3.650803176698873276e-02 5.097891730001761630e+02
3.660805377182980297e-02 5.097944986533867677e+02
3.670807577667086624e-02 5.097998644538529334e+02
3.680809778151192951e-02 5.098052703727864241e+02
3.690811978635299279e-02 5.098107163803065305e+02
3.700814179119406300e-02 5.098162024454370567e+02
3.710816379603512627e-02 5.098217285361113795e+02
3.720818580087618954e-02 5.098272946191675601e+02
3.730820780571725281e-02 5.098329006603486278e+02
3.740822981055832303e-02 5.098385466243045130e+02
3.750825181539938630e-02 5.098442324745899441e+02
3.760827382024044957e-02 5.098499581736648452e+02
3.770829582508151284e-02 5.098557236828950749e+02
3.780831782992258305e-02 5.098615289625494711e+02
3.790833983476364633e-02 5.098673739718045681e+02
3.800836183960470960e-02 5.098732586687391404e+02
3.810838384444577981e-02 5.098791830103392044e+02
3.820840584928683614e-02 5.098851469524934146e+02
3.830842785412790635e-02 5.098911504499972693e+02
3.840844985896896963e-02 5.098971934565512356e+02
3.850847186381003984e-02 5.099032759247601803e+02
3.860849386865110311e-02 5.099093978061348480e+02
3.870851587349216638e-02 5.099155590510927709e+02
3.880853787833322965e-02 5.099217596089557674e+02
3.890855988317429293e-02 5.099279994279543757e+02
3.900858188801536314e-02 5.099342784552236481e+02
3.910860389285641947e-02 5.099405966368071290e+02
3.920862589769749662e-02 5.099469539176551507e+02
3.930864790253855295e-02 5.099533502416262536e+02
3.940866990737962317e-02 5.099597855514879825e+02
3.950869191222068644e-02 5.099662597889160907e+02
3.960871391706174971e-02 5.099727728944966998e+02
3.970873592190281992e-02 5.099793248077259591e+02
3.980875792674387625e-02 5.099859154670101589e+02
3.990877993158495340e-02 5.099925448096684022e+02
4.000880193642600974e-02 5.099992127719311270e+02
4.010882394126707301e-02 5.100059192889422661e+02
4.020884594610814322e-02 5.100126642947595315e+02
4.030886795094920649e-02 5.100194477223550393e+02
4.040888995579027670e-02 5.100262695036174136e+02
4.050891196063133304e-02 5.100331295693498532e+02
4.060893396547239631e-02 5.100400278492751909e+02
4.070895597031346652e-02 5.100469642720332786e+02
4.080897797515452979e-02 5.100539387651836023e+02
4.090899997999560000e-02 5.100609512552062483e+02
4.100902198483666328e-02 5.100680016675029833e+02
4.110904398967772655e-02 5.100750899263979363e+02
4.120906599451878982e-02 5.100822159551394179e+02
4.130908799935985309e-02 5.100893796759007728e+02
4.140911000420092331e-02 5.100965810097812891e+02
4.150913200904198658e-02 5.101038198768084726e+02
4.160915401388304985e-02 5.101110961959380461e+02
4.170917601872412006e-02 5.101184098850569058e+02
4.180919802356518333e-02 5.101257608609823251e+02
4.190922002840624661e-02 5.101331490394652519e+02
4.200924203324730988e-02 5.101405743351921274e+02
4.210926403808837315e-02 5.101480366617837490e+02
4.220928604292944336e-02 5.101555359317995340e+02
4.230930804777050663e-02 5.101630720567378035e+02
4.240933005261157684e-02 5.101706449470373741e+02
4.250935205745264012e-02 5.101782545120797749e+02
4.260937406229369645e-02 5.101859006601904412e+02
4.270939606713476666e-02 5.101935832986401920e+02
4.280941807197582993e-02 5.102013023336484139e+02
4.290944007681690014e-02 5.102090576703831175e+02
4.300946208165796342e-02 5.102168492129628135e+02
4.310948408649901975e-02 5.102246768644602071e+02
4.320950609134009690e-02 5.102325405269029943e+02
4.330952809618115323e-02 5.102404401012738049e+02
4.340955010102222345e-02 5.102483754875157729e+02
4.350957210586328672e-02 5.102563465845331052e+02
4.360959411070434999e-02 5.102643532901915364e+02
4.370961611554542020e-02 5.102723955013223645e+02
4.380963812038647653e-02 5.102804731137238150e+02
4.390966012522755368e-02 5.102885860221634857e+02
4.400968213006861002e-02 5.102967341203806200e+02
4.410970413490967329e-02 5.103049173010865616e+02
4.420972613975074350e-02 5.103131354559698138e+02
4.430974814459180677e-02 5.103213884756970629e+02
4.440977014943287698e-02 5.103296762499139732e+02
4.450979215427393332e-02 5.103379986672512132e+02
4.460981415911499659e-02 5.103463556153225227e+02
4.470983616395606680e-02 5.103547469807303401e+02
4.480985816879713007e-02 5.103631726490672236e+02
4.490988017363820028e-02 5.103716325049171019e+02
4.500990217847926356e-02 5.103801264318605604e+02
4.510992418332032683e-02 5.103886543124752393e+02
4.520994618816139010e-02 5.103972160283381641e+02
4.530996819300245337e-02 5.104058114600301224e+02
4.540999019784352358e-02 5.104144404871379948e+02
4.551001220268458686e-02 5.104231029882549819e+02
4.561003420752565013e-02 5.104317988409873692e+02
4.571005621236672034e-02 5.104405279219540716e+02
4.581007821720778361e-02 5.104492901067904427e+02
4.591010022204884689e-02 5.104580852701515141e+02
4.601012222688991016e-02 5.104669132857151226e+02
4.611014423173097343e-02 5.104757740261835011e+02
4.621016623657204364e-02 5.104846673632868033e+02
4.631018824141310691e-02 5.104935931677869121e+02
4.641021024625417712e-02 5.105025513094795429e+02
4.651023225109524040e-02 5.105115416571976539e+02
4.661025425593629673e-02 5.105205640788143455e+02
4.671027626077736694e-02 5.105296184412453613e+02
4.681029826561843021e-02 5.105387046104540332e+02
4.691032027045950042e-02 5.105478224514515659e+02
4.701034227530056370e-02 5.105569718283043130e+02
4.711036428014163391e-02 5.105661526041333218e+02
4.721038628498269718e-02 5.105753646411179716e+02
4.731040828982375351e-02 5.105846078005023401e+02
4.741043029466482372e-02 5.105938819425946917e+02
4.751045229950588700e-02 5.106031869267735601e+02
4.761047430434695721e-02 5.106125226114896236e+02
4.771049630918802048e-02 5.106218888542705372e+02
4.781051831402907681e-02 5.106312855117222398e+02
4.791054031887015396e-02 5.106407124395344113e+02
4.801056232371121030e-02 5.106501694924838262e+02
4.811058432855228051e-02 5.106596565244365138e+02
4.821060633339334378e-02 5.106691733883526467e+02
4.831062833823440705e-02 5.106787199362900083e+02
4.841065034307547726e-02 5.106882960194061525e+02
4.851067234791653360e-02 5.106979014879650549e+02
4.861069435275761075e-02 5.107075361913380220e+02
4.871071635759866708e-02 5.107171999780088072e+02
4.881073836243973035e-02 5.107268926955765664e+02
4.891076036728080056e-02 5.107366141907608608e+02
4.901078237212186384e-02 5.107463643094039867e+02
4.911080437696293405e-02 5.107561428964764900e+02
4.921082638180399038e-02 5.107659497960793828e+02
4.931084838664505365e-02 5.107757848514491457e+02
4.941087039148612386e-02 5.107856479049615928e+02
4.951089239632718714e-02 5.107955387981356239e+02
4.961091440116825735e-02 5.108054573716370328e+02
4.971093640600932062e-02 5.108154034652832820e+02
4.981095841085038389e-02 5.108253769180465156e+02
4.991098041569144717e-02 5.108353775680582203e+02
5.001100242053251044e-02 5.108454052526136593e+02
5.011102442537358065e-02 5.108554598081760787e+02
5.021104643021464392e-02 5.108655410703792086e+02
5.031106843505570719e-02 5.108756488740347095e+02
5.041109043989677740e-02 5.108857830531318882e+02
5.051111244473784068e-02 5.108959434408478160e+02
5.061113444957890395e-02 5.109061298695454525e+02
5.071115645441996722e-02 5.109163421707824568e+02
5.081117845926103049e-02 5.109265801753141432e+02
5.091120046410210070e-02 5.109368437130963230e+02
5.101122246894316398e-02 5.109471326132930358e+02
5.111124447378423419e-02 5.109574467042771175e+02
5.121126647862529746e-02 5.109677858136381019e+02
5.131128848346635379e-02 5.109781497681839824e+02
5.141131048830742400e-02 5.109885383939478061e+02
5.151133249314848728e-02 5.109989515161909708e+02
5.161135449798955749e-02 5.110093889594089660e+02
5.171137650283062076e-02 5.110198505473327941e+02
5.181139850767167709e-02 5.110303361029394864e+02
5.191142051251275424e-02 5.110408454484502840e+02
5.201144251735381058e-02 5.110513784053392783e+02
5.211146452219488079e-02 5.110619347943379580e+02
5.221148652703594406e-02 5.110725144354377107e+02
5.231150853187700733e-02 5.110831171478971555e+02
5.241153053671807754e-02 5.110937427502445303e+02
5.251155254155913388e-02 5.111043910602840015e+02
5.261157454640021103e-02 5.111150618951010642e+02
5.271159655124126736e-02 5.111257550710654414e+02
5.281161855608233063e-02 5.111364704038370519e+02
5.291164056092340084e-02 5.111472077083718091e+02
5.301166256576446412e-02 5.111579667989242353e+02
5.311168457060553433e-02 5.111687474890551357e+02
5.321170657544659066e-02 5.111795495916338155e+02
5.331172858028765393e-02 5.111903729188458669e+02
5.341175058512872414e-02 5.112012172821953300e+02
5.351177258996978742e-02 5.112120824925124225e+02
5.361179459481085763e-02 5.112229683599563259e+02
5.371181659965192090e-02 5.112338746940228589e+02
5.381183860449298417e-02 5.112448013035461827e+02
5.391186060933404744e-02 5.112557479967078393e+02
5.401188261417511072e-02 5.112667145810371494e+02
5.411190461901618093e-02 5.112777008634217850e+02
5.421192662385724420e-02 5.112887066501084519e+02
5.431194862869830747e-02 5.112997317467117568e+02
5.441197063353937768e-02 5.113107759582151743e+02
5.451199263838044096e-02 5.113218390889817897e+02
5.461201464322150423e-02 5.113329209427539581e+02
5.471203664806256750e-02 5.113440213226631386e+02
5.481205865290363077e-02 5.113551400312319402e+02
5.491208065774470098e-02 5.113662768703817392e+02
5.501210266258576426e-02 5.113774316414370560e+02
5.511212466742683447e-02 5.113886041451304436e+02
5.521214667226789774e-02 5.113997941816095363e+02
5.531216867710895407e-02 5.114110015504416538e+02
5.541219068195002428e-02 5.114222260506171551e+02
5.551221268679108756e-02 5.114334674805589884e+02
5.561223469163215777e-02 5.114447256381243960e+02
5.571225669647322104e-02 5.114560003206136116e+02
5.581227870131429125e-02 5.114672913247731003e+02
5.591230070615535452e-02 5.114785984468014135e+02
5.601232271099641086e-02 5.114899214823562374e+02
5.611234471583748107e-02 5.115012602265576902e+02
5.621236672067854434e-02 5.115126144739966207e+02
5.631238872551961455e-02 5.115239840187371669e+02
5.641241073036067782e-02 5.115353686543263620e+02
5.651243273520173416e-02 5.115467681737945895e+02
5.661245474004281131e-02 5.115581823696662127e+02
5.671247674488386764e-02 5.115696110339634401e+02
5.681249874972493785e-02 5.115810539582093952e+02
5.691252075456600112e-02 5.115925109334390299e+02
5.701254275940706440e-02 5.116039817502006031e+02
5.711256476424813461e-02 5.116154661985629559e+02
5.721258676908919094e-02 5.116269640681222768e+02
5.731260877393026809e-02 5.116384751480056252e+02
5.741263077877132442e-02 5.116499992268784922e+02
5.751265278361238770e-02 5.116615360929509393e+02
5.761267478845345791e-02 5.116730855339816344e+02
5.771269679329452118e-02 5.116846473372851278e+02
5.781271879813559139e-02 5.116962212897373092e+02
5.791274080297664772e-02 5.117078071777814330e+02
5.801276280781771100e-02 5.117194047874343141e+02
5.811278481265878121e-02 5.117310139042908190e+02
5.821280681749984448e-02 5.117426343135321645e+02
5.831282882234091469e-02 5.117542657999292146e+02
5.841285082718197796e-02 5.117659081478510643e+02
5.851287283202304124e-02 5.117775611412681087e+02
5.861289483686410451e-02 5.117892245637624455e+02
5.871291684170516778e-02 5.118008981985275341e+02
5.881293884654623799e-02 5.118125818283804165e+02
5.891296085138730126e-02 5.118242752357643894e+02
5.901298285622836454e-02 5.118359782027554274e+02
5.911300486106943475e-02 5.118476905110693451e+02
5.921302686591049802e-02 5.118594119420659467e+02
5.931304887075156129e-02 5.118711422767572685e+02
5.941307087559262456e-02 5.118828812958126377e+02
5.951309288043368784e-02 5.118946287795640728e+02
5.961311488527475805e-02 5.119063845080140709e+02
5.971313689011582132e-02 5.119181482608402121e+02
5.981315889495689153e-02 5.119299198174023218e+02
5.991318089979795480e-02 5.119416989567472456e+02
6.001320290463901114e-02 5.119534854576176599e+02
6.011322490948008135e-02 5.119652790984551416e+02
6.021324691432114462e-02 5.119770796574084670e+02
6.031326891916221483e-02 5.119888869123388986e+02
6.041329092400327810e-02 5.120007006408261532e+02
6.051331292884433444e-02 5.120125206201760193e+02
6.061333493368541159e-02 5.120243466274249613e+02
6.071335693852646792e-02 5.120361784393476228e+02
6.081337894336753813e-02 5.120480158324616013e+02
6.091340094820860140e-02 5.120598585830349521e+02
6.101342295304966468e-02 5.120717064670923264e+02
6.111344495789073489e-02 5.120835592604209978e+02
6.121346696273179122e-02 5.120954167385764322e+02
6.131348896757286837e-02 5.121072786768900187e+02
6.141351097241392470e-02 5.121191448504746404e+02
6.151353297725498798e-02 5.121310150342301313e+02
6.161355498209605819e-02 5.121428890028508931e+02
6.171357698693712146e-02 5.121547665308319210e+02
6.181359899177819167e-02 5.121666473924746015e+02
6.191362099661924800e-02 5.121785313618935334e+02
6.201364300146031128e-02 5.121904182130224399e+02
6.211366500630138149e-02 5.122023077196212171e+02
6.221368701114244476e-02 5.122141996552811634e+02
6.231370901598351497e-02 5.122260937934322556e+02
6.241373102082457824e-02 5.122379899073497427e+02
6.251375302566564152e-02 5.122498877701594893e+02
6.261377503050670479e-02 5.122617871548450239e+02
6.271379703534776806e-02 5.122736878342536784e+02
6.281381904018884521e-02 5.122855895811026130e+02
6.291384104502989461e-02 5.122974921679865474e+02
6.301386304987095788e-02 5.123093953673834449e+02
6.311388505471203503e-02 5.123212989516587186e+02
6.321390705955309830e-02 5.123332026930760321e+02
6.331392906439416157e-02 5.123451063638000278e+02
6.341395106923522484e-02 5.123570097359036026e+02
6.351397307407628812e-02 5.123689125813760938e+02
6.361399507891735139e-02 5.123808146721273715e+02
6.371401708375841466e-02 5.123927157799947736e+02
6.381403908859949181e-02 5.124046156767510638e+02
6.391406109344055508e-02 5.124165141341087519e+02
6.401408309828161836e-02 5.124284109237280518e+02
6.411410510312268163e-02 5.124403058172227929e+02
6.421412710796374490e-02 5.124521985861656503e+02
6.431414911280480817e-02 5.124640890020973529e+02
6.441417111764587144e-02 5.124759768365305490e+02
6.451419312248694860e-02 5.124878618609573095e+02
6.461421512732801187e-02 5.124997438468557220e+02
6.471423713216907514e-02 5.125116225656956885e+02
6.481425913701013841e-02 5.125234977889454058e+02
6.491428114185120168e-02 5.125353692880785275e+02
6.501430314669226496e-02 5.125472368345801897e+02
6.511432515153332823e-02 5.125591001999532637e+02
6.521434715637439150e-02 5.125709591557243812e+02
6.531436916121546865e-02 5.125828134734524610e+02
6.541439116605653192e-02 5.125946629247312103e+02
6.551441317089759520e-02 5.126065072812007202e+02
6.561443517573865847e-02 5.126183463145481483e+02
6.571445718057972174e-02 5.126301797965199967e+02
6.581447918542078501e-02 5.126420074989234763e+02
6.591450119026184828e-02 5.126538291936361702e+02
6.601452319510292543e-02 5.126656446526113768e+02
6.611454519994398871e-02 5.126774536478837945e+02
6.621456720478505198e-02 5.126892559515772518e+02
6.631458920962611525e-02 5.127010513359109609e+02
6.641461121446717852e-02 5.127128395732045192e+02
6.651463321930824180e-02 5.127246204358864361e+02
6.661465522414930507e-02 5.127363936964984532e+02
6.671467722899036834e-02 5.127481591277031612e+02
6.681469923383144549e-02 5.127599165022910483e+02
6.691472123867250876e-02 5.127716655931842524e+02
6.701474324351357204e-02 5.127834061734463376e+02
6.711476524835463531e-02 5.127951380162866144e+02
6.721478725319569858e-02 5.128068608950667340e+02
6.731480925803676185e-02 5.128185745833068268e+02
6.741483126287782512e-02 5.128302788546932334e+02
6.751485326771890227e-02 5.128419734830839616e+02
6.761487527255996555e-02 5.128536582425134611e+02
6.771489727740101494e-02 5.128653329072029692e+02
6.781491928224209209e-02 5.128769972515628979e+02
6.791494128708315536e-02 5.128886510502004512e+02
6.801496329192421864e-02 5.129002940779274695e+02
6.811498529676528191e-02 5.129119261097650906e+02
6.821500730160634518e-02 5.129235469209498888e+02
6.831502930644742233e-02 5.129351562869417194e+02
6.841505131128847172e-02 5.129467539834287209e+02
6.851507331612954887e-02 5.129583397863335676e+02
6.861509532097061215e-02 5.129699134718209734e+02
6.871511732581167542e-02 5.129814748163031481e+02
6.881513933065273869e-02 5.129930235964457097e+02
6.891516133549380196e-02 5.130045595891745052e+02
6.901518334033487911e-02 5.130160825716820909e+02
6.911520534517592851e-02 5.130275923214334171e+02
6.921522735001699178e-02 5.130390886161728758e+02
6.931524935485806893e-02 5.130505712339281672e+02
6.941527135969913220e-02 5.130620399530205304e+02
6.951529336454019548e-02 5.130734945520674728e+02
6.961531536938125875e-02 5.130849348099908411e+02
6.971533737422232202e-02 5.130963605060229611e+02
6.981535937906338529e-02 5.131077714197099340e+02
6.991538138390444856e-02 5.131191673309227781e+02
7.001540338874552571e-02 5.131305480198604982e+02
7.011542539358658899e-02 5.131419132670554291e+02
7.021544739842763838e-02 5.131532628533821025e+02
7.031546940326871553e-02 5.131645965600611135e+02
7.041549140810977880e-02 5.131759141686662815e+02
7.051551341295084208e-02 5.131872154611319274e+02
7.061553541779190535e-02 5.131985002197545782e+02
7.071555742263296862e-02 5.132097682272057000e+02
7.081557942747404577e-02 5.132210192665307886e+02
7.091560143231509517e-02 5.132322531211618752e+02
7.101562343715617232e-02 5.132434695749182083e+02
7.111564544199723559e-02 5.132546684120155760e+02
7.121566744683829886e-02 5.132658494170716494e+02
7.131568945167936213e-02 5.132770123751109850e+02
7.141571145652042540e-02 5.132881570715719590e+02
7.151573346136150255e-02 5.132992832923133619e+02
7.161575546620255195e-02 5.133103908236179223e+02
7.171577747104361522e-02 5.133214794522015154e+02
7.181579947588469237e-02 5.133325489652164606e+02
7.191582148072575564e-02 5.133435991502578872e+02
7.201584348556681892e-02 5.133546297953719204e+02
7.211586549040788219e-02 5.133656406890593189e+02
7.221588749524894546e-02 5.133766316202810458e+02
7.231590950009000873e-02 5.133876023784657718e+02
7.241593150493107200e-02 5.133985527535144229e+02
7.251595350977214915e-02 5.134094825358075695e+02
7.261597551461321243e-02 5.134203915162096337e+02
7.271599751945427570e-02 5.134312794860745726e+02
7.281601952429533897e-02 5.134421462372537235e+02
7.291604152913640224e-02 5.134529915620993279e+02
7.301606353397746552e-02 5.134638152534721485e+02
7.311608553881852879e-02 5.134746171047451071e+02
7.321610754365960594e-02 5.134853969098114703e+02
7.331612954850066921e-02 5.134961544630879189e+02
7.341615155334173248e-02 5.135068895595223921e+02
7.351617355818279576e-02 5.135176019945995449e+02
7.361619556302385903e-02 5.135282915643444994e+02
7.371621756786492230e-02 5.135389580653306894e+02
7.381623957270598557e-02 5.135496012946847486e+02
7.391626157754704884e-02 5.135602210500915135e+02
7.401628358238812599e-02 5.135708171297993658e+02
7.411630558722918927e-02 5.135813893326286461e+02
7.421632759207025254e-02 5.135919374579732448e+02
7.431634959691131581e-02 5.136024613058082195e+02
7.441637160175237908e-02 5.136129606766952520e+02
7.451639360659344236e-02 5.136234353717884460e+02
7.461641561143450563e-02 5.136338851928383065e+02
7.471643761627558278e-02 5.136443099421995839e+02
7.481645962111664605e-02 5.136547094228327524e+02
7.491648162595770932e-02 5.136650834383145821e+02
7.501650363079877259e-02 5.136754317928398450e+02
7.511652563563983587e-02 5.136857542912271128e+02
7.521654764048089914e-02 5.136960507389260329e+02
7.531656964532196241e-02 5.137063209420206249e+02
7.541659165016302568e-02 5.137165647072356478e+02
7.551661365500410283e-02 5.137267818419409195e+02
7.561663565984516611e-02 5.137369721541580248e+02
7.571665766468622938e-02 5.137471354525641800e+02
7.581667966952729265e-02 5.137572715464988278e+02
7.591670167436835592e-02 5.137673802459672743e+02
7.601672367920941920e-02 5.137774613616473971e+02
7.611674568405048247e-02 5.137875147048933968e+02
7.621676768889155962e-02 5.137975400877421635e+02
7.631678969373262289e-02 5.138075373229177103e+02
7.641681169857367228e-02 5.138175062238364035e+02
7.651683370341474943e-02 5.138274466046123052e+02
7.661685570825581271e-02 5.138373582800608119e+02
7.671687771309687598e-02 5.138472410657068394e+02
7.681689971793793925e-02 5.138570947777865285e+02
7.691692172277900252e-02 5.138669192332532702e+02
7.701694372762007967e-02 5.138767142497840723e+02
7.711696573246112907e-02 5.138864796457822877e+02
7.721698773730220622e-02 5.138962152403840946e+02
7.731700974214326949e-02 5.139059208534632717e+02
7.741703174698433276e-02 5.139155963056344945e+02
7.751705375182539604e-02 5.139252414182606117e+02
7.761707575666645931e-02 5.139348560134551462e+02
7.771709776150753646e-02 5.139444399140893438e+02
7.781711976634858585e-02 5.139539929437945602e+02
7.791714177118964912e-02 5.139635149269680596e+02
7.801716377603072627e-02 5.139730056887801766e+02
7.811718578087178955e-02 5.139824650551729519e+02
7.821720778571283894e-02 5.139918928528721835e+02
7.831722979055391609e-02 5.140012889093856074e+02
7.841725179539499324e-02 5.140106530530122200e+02
7.851727380023604264e-02 5.140199851128437558e+02
7.861729580507710591e-02 5.140292849187710544e+02
7.871731780991818306e-02 5.140385523014880391e+02
7.881733981475924633e-02 5.140477870924962644e+02
7.891736181960029572e-02 5.140569891241085543e+02
7.901738382444137287e-02 5.140661582294555956e+02
7.911740582928245002e-02 5.140752942424873027e+02
7.921742783412349942e-02 5.140843969979811163e+02
7.931744983896456269e-02 5.140934663315422313e+02
7.941747184380563984e-02 5.141025020796114404e+02
7.951749384864668924e-02 5.141115040794668403e+02
7.961751585348775251e-02 5.141204721692296289e+02
7.971753785832882966e-02 5.141294061878679713e+02
7.981755986316990681e-02 5.141383059752020017e+02
7.991758186801095620e-02 5.141471713719065519e+02
8.001760387285201948e-02 5.141560022195161537e+02
8.011762587769309663e-02 5.141647983604286765e+02
8.021764788253414602e-02 5.141735596379123763e+02
8.031766988737520929e-02 5.141822858961037355e+02
8.041769189221628644e-02 5.141909769800192862e+02
8.051771389705733584e-02 5.141996327355521998e+02
8.061773590189841299e-02 5.142082530094830872e+02
8.071775790673947626e-02 5.142168376494781796e+02
8.081777991158055341e-02 5.142253865040979690e+02
8.091780191642160280e-02 5.142338994227973217e+02
8.101782392126266608e-02 5.142423762559322995e+02
8.111784592610374323e-02 5.142508168547626610e+02
8.121786793094479262e-02 5.142592210714551584e+02
8.131788993578586977e-02 5.142675887590903585e+02
8.141791194062693304e-02 5.142759197716604831e+02
8.151793394546799632e-02 5.142842139640799815e+02
8.161795595030905959e-02 5.142924711921862126e+02
8.171797795515012286e-02 5.143006913127403550e+02
8.181799995999120001e-02 5.143088741834372968e+02
8.191802196483224940e-02 5.143170196629029078e+02
8.201804396967332655e-02 5.143251276107029071e+02
8.211806597451438983e-02 5.143331978873422941e+02
8.221808797935545310e-02 5.143412303542719428e+02
8.231810998419651637e-02 5.143492248738901935e+02
8.241813198903757964e-02 5.143571813095472862e+02
8.251815399387864292e-02 5.143650995255487715e+02
8.261817599871970619e-02 5.143729793871586935e+02
8.271819800356078334e-02 5.143808207606031146e+02
8.281822000840184661e-02 5.143886235130731848e+02
8.291824201324290988e-02 5.143963875127290066e+02
8.301826401808397315e-02 5.144041126287033876e+02
8.311828602292503643e-02 5.144117987311021807e+02
8.321830802776609970e-02 5.144194456910121289e+02
8.331833003260716297e-02 5.144270533805010928e+02
8.341835203744824012e-02 5.144346216726204375e+02
8.351837404228928952e-02 5.144421504414126503e+02
8.361839604713036667e-02 5.144496395619079294e+02
8.371841805197142994e-02 5.144570889101328248e+02
8.381844005681249321e-02 5.144644983631111472e+02
8.391846206165355648e-02 5.144718677988663558e+02
8.401848406649461976e-02 5.144791970964265602e+02
8.411850607133569691e-02 5.144864861358244070e+02
8.421852807617674630e-02 5.144937347981032190e+02
8.431855008101782345e-02 5.145009429653180177e+02
8.441857208585888672e-02 5.145081105205391623e+02
8.451859409069993612e-02 5.145152373478543950e+02
8.461861609554101327e-02 5.145223233323731620e+02
8.471863810038207654e-02 5.145293683602263854e+02
8.481866010522315369e-02 5.145363723185733988e+02
8.491868211006420308e-02 5.145433350956010372e+02
8.501870411490528023e-02 5.145502565805280710e+02
8.511872611974634351e-02 5.145571366636082757e+02
8.521874812458739290e-02 5.145639752361310002e+02
8.531877012942847005e-02 5.145707721904256005e+02
8.541879213426953332e-02 5.145775274198633724e+02
8.551881413911061047e-02 5.145842408188600530e+02
8.561883614395165987e-02 5.145909122828785485e+02
8.571885814879273702e-02 5.145975417084305263e+02
8.581888015363380029e-02 5.146041289930795983e+02
8.591890215847484968e-02 5.146106740354446174e+02
8.601892416331592683e-02 5.146171767351991093e+02
8.611894616815699011e-02 5.146236369930770707e+02
8.621896817299803950e-02 5.146300547108722867e+02
8.631899017783911665e-02 5.146364297914432200e+02
8.641901218268019380e-02 5.146427621387123281e+02
8.651903418752125707e-02 5.146490516576714072e+02
8.661905619236230647e-02 5.146552982543806820e+02
8.671907819720338362e-02 5.146615018359734677e+02
8.681910020204444689e-02 5.146676623106566240e+02
8.691912220688549628e-02 5.146737795877124881e+02
8.701914421172657343e-02 5.146798535775030814e+02
8.711916621656765058e-02 5.146858841914693130e+02
8.721918822140869998e-02 5.146918713421339362e+02
8.731921022624976325e-02 5.146978149431042766e+02
8.741923223109084040e-02 5.147037149090740513e+02
8.751925423593190367e-02 5.147095711558225730e+02
8.761927624077295307e-02 5.147153836002205480e+02
8.771929824561403022e-02 5.147211521602290532e+02
8.781932025045510737e-02 5.147268767549023778e+02
8.791934225529615676e-02 5.147325573043888198e+02
8.801936426013722004e-02 5.147381937299343235e+02
8.811938626497829719e-02 5.147437859538813427e+02
8.821940826981934658e-02 5.147493338996724788e+02
8.831943027466040985e-02 5.147548374918516174e+02
8.841945227950148700e-02 5.147602966560652931e+02
8.851947428434256415e-02 5.147657113190637119e+02
8.861949628918361355e-02 5.147710814087033668e+02
8.871951829402467682e-02 5.147764068539470372e+02
8.881954029886575397e-02 5.147816875848666314e+02
8.891956230370680336e-02 5.147869235326426178e+02
8.901958430854786664e-02 5.147921146295677772e+02
8.911960631338894379e-02 5.147972608090482254e+02
8.921962831822999318e-02 5.148023620056007985e+02
8.931965032307107033e-02 5.148074181548594197e+02
8.941967232791213360e-02 5.148124291935737347e+02
8.951969433275321075e-02 5.148173950596099075e+02
8.961971633759426015e-02 5.148223156919534631e+02
8.971973834243532342e-02 5.148271910307078087e+02
8.981976034727640057e-02 5.148320210170983273e+02
8.991978235211744996e-02 5.148368055934715812e+02
9.001980435695852711e-02 5.148415447032949714e+02
9.011982636179959039e-02 5.148462382911611712e+02
9.021984836664065366e-02 5.148508863027873304e+02
9.031987037148171693e-02 5.148554886850135972e+02
9.041989237632278020e-02 5.148600453858081210e+02
9.051991438116385735e-02 5.148645563542652326e+02
9.061993638600490675e-02 5.148690215406062407e+02
9.071995839084598390e-02 5.148734408961813642e+02
9.081998039568704717e-02 5.148778143734706418e+02
9.092000240052811044e-02 5.148821419260817720e+02
9.102002440536917371e-02 5.148864235087546604e+02
9.112004641021023699e-02 5.148906590773582366e+02
9.122006841505130026e-02 5.148948485888947744e+02
9.132009041989236353e-02 5.148989920014978452e+02
9.142011242473344068e-02 5.149030892744327730e+02
9.152013442957450395e-02 5.149071403680986805e+02
9.162015643441556723e-02 5.149111452440276935e+02
9.172017843925663050e-02 5.149151038648852818e+02
9.182020044409769377e-02 5.149190161944721922e+02
9.192022244893875704e-02 5.149228821977216057e+02
9.202024445377982032e-02 5.149267018407037995e+02
9.212026645862089747e-02 5.149304750906223944e+02
9.222028846346194686e-02 5.149342019158161747e+02
9.232031046830302401e-02 5.149378822857594287e+02
9.242033247314408728e-02 5.149415161710629718e+02
9.252035447798515055e-02 5.149451035434713049e+02
9.262037648282621383e-02 5.149486443758657970e+02
9.272039848766727710e-02 5.149521386422634350e+02
9.282042049250835425e-02 5.149555863178170512e+02
9.292044249734940364e-02 5.149589873788144132e+02
9.302046450219048079e-02 5.149623418026789068e+02
9.312048650703154407e-02 5.149656495679708996e+02
9.322050851187259346e-02 5.149689106543837624e+02
9.332053051671367061e-02 5.149721250427486439e+02
9.342055252155473388e-02 5.149752927150293544e+02
9.352057452639581103e-02 5.149784136543262321e+02
9.362059653123686043e-02 5.149814878448725040e+02
9.372061853607793758e-02 5.149845152720373562e+02
9.382064054091900085e-02 5.149874959223225233e+02
9.392066254576005024e-02 5.149904297833637656e+02
9.402068455060112739e-02 5.149933168439299607e+02
9.412070655544219067e-02 5.149961570939218518e+02
9.422072856028326782e-02 5.149989505243735266e+02
9.432075056512431721e-02 5.150016971274499156e+02
9.442077256996539436e-02 5.150043968964472469e+02
9.452079457480645763e-02 5.150070498257923646e+02
9.462081657964750703e-02 5.150096559110421595e+02
9.472083858448858418e-02 5.150122151488816371e+02
9.482086058932964745e-02 5.150147275371264186e+02
9.492088259417069684e-02 5.150171930747186479e+02
9.502090459901177399e-02 5.150196117617276741e+02
9.512092660385285114e-02 5.150219835993492552e+02
9.522094860869391442e-02 5.150243085899046491e+02
9.532097061353496381e-02 5.150265867368410682e+02
9.542099261837604096e-02 5.150288180447271316e+02
9.552101462321710423e-02 5.150310025192563899e+02
9.562103662805815363e-02 5.150331401672427774e+02
9.572105863289923078e-02 5.150352309966227722e+02
9.582108063774030793e-02 5.150372750164518720e+02
9.592110264258135732e-02 5.150392722369043668e+02
9.602112464742242059e-02 5.150412226692727700e+02
9.612114665226349774e-02 5.150431263259654315e+02
9.622116865710456102e-02 5.150449832205080156e+02
9.632119066194561041e-02 5.150467933675380436e+02
9.642121266678668756e-02 5.150485567828092144e+02
9.652123467162776471e-02 5.150502734831848102e+02
9.662125667646881411e-02 5.150519434866389474e+02
9.672127868130987738e-02 5.150535668122558945e+02
9.682130068615095453e-02 5.150551434802280255e+02
9.692132269099200392e-02 5.150566735118527504e+02
9.702134469583306720e-02 5.150581569295347890e+02
9.712136670067414435e-02 5.150595937567806004e+02
9.722138870551522150e-02 5.150609840182003154e+02
9.732141071035627089e-02 5.150623277395046671e+02
9.742143271519733416e-02 5.150636249475023760e+02
9.752145472003841131e-02 5.150648756701010598e+02
9.762147672487946071e-02 5.150660799363040496e+02
9.772149872972052398e-02 5.150672377762089127e+02
9.782152073456160113e-02 5.150683492210052918e+02
9.792154273940265052e-02 5.150694143029759289e+02
9.802156474424372767e-02 5.150704330554906392e+02
9.812158674908479095e-02 5.150714055130076758e+02
9.822160875392586810e-02 5.150723317110706603e+02
9.832163075876691749e-02 5.150732116863082410e+02
9.842165276360798076e-02 5.150740454764296601e+02
9.852167476844905791e-02 5.150748331202244117e+02
9.862169677329010731e-02 5.150755746575619014e+02
9.872171877813118446e-02 5.150762701293855343e+02
9.882174078297224773e-02 5.150769195777147615e+02
9.892176278781331100e-02 5.150775230456405325e+02
9.902178479265437427e-02 5.150780805773240445e+02
9.912180679749543755e-02 5.150785922179943555e+02
9.922182880233651470e-02 5.150790580139477015e+02
9.932185080717756409e-02 5.150794780125426087e+02
9.942187281201864124e-02 5.150798522622008022e+02
9.952189481685970451e-02 5.150801808124026593e+02
9.962191682170076779e-02 5.150804637136859583e+02
9.972193882654183106e-02 5.150807010176445146e+02
9.982196083138289433e-02 5.150808927769228376e+02
9.992198283622395760e-02 5.150810390452178353e+02
1.000220048410650209e-01 5.150811398772734719e+02
1.001220268459060980e-01 5.150811953288796303e+02
1.002220488507471613e-01 5.150812054568698386e+02
1.003220708555882246e-01 5.150811703191182005e+02
1.004220928604292878e-01 5.150810899745365532e+02
1.005221148652703511e-01 5.150809644830732168e+02
1.006221368701114144e-01 5.150807939057109479e+02
1.007221588749524777e-01 5.150805783044613690e+02
1.008221808797935548e-01 5.150803177423653096e+02
1.009222028846346042e-01 5.150800122834881449e+02
1.010222248894756814e-01 5.150796619929201370e+02
1.011222468943167446e-01 5.150792669367705230e+02
1.012222688991578079e-01 5.150788271821661510e+02
1.013222909039988712e-01 5.150783427972486379e+02
1.014223129088399344e-01 5.150778138511728912e+02
1.015223349136810116e-01 5.150772404141004017e+02
1.016223569185220610e-01 5.150766225572021995e+02
1.017223789233631381e-01 5.150759603526508954e+02
1.018224009282042014e-01 5.150752538736210226e+02
1.019224229330452508e-01 5.150745031942838068e+02
1.020224449378863280e-01 5.150737083898065976e+02
1.021224669427273912e-01 5.150728695363478664e+02
1.022224889475684684e-01 5.150719867110557288e+02
1.023225109524095178e-01 5.150710599920630557e+02
1.024225329572505949e-01 5.150700894584878142e+02
1.025225549620916582e-01 5.150690751904249964e+02
1.026225769669327076e-01 5.150680172689487790e+02
1.027225989717737847e-01 5.150669157761054748e+02
1.028226209766148480e-01 5.150657707949137603e+02
1.029226429814559252e-01 5.150645824093572855e+02
1.030226649862969746e-01 5.150633507043852433e+02
1.031226869911380517e-01 5.150620757659072524e+02
1.032227089959791150e-01 5.150607576807909709e+02
1.033227310008201644e-01 5.150593965368586851e+02
1.034227530056612415e-01 5.150579924228825348e+02
1.035227750105023048e-01 5.150565454285838314e+02
1.036227970153433542e-01 5.150550556446271457e+02
1.037228190201844313e-01 5.150535231626188306e+02
1.038228410250255085e-01 5.150519480751020183e+02
1.039228630298665718e-01 5.150503304755558247e+02
1.040228850347076212e-01 5.150486704583871642e+02
1.041229070395486983e-01 5.150469681189327957e+02
1.042229290443897616e-01 5.150452235534519332e+02
1.043229510492308110e-01 5.150434368591243128e+02
1.044229730540718881e-01 5.150416081340459868e+02
1.045229950589129653e-01 5.150397374772267085e+02
1.046230170637540147e-01 5.150378249885850437e+02
1.047230390685950779e-01 5.150358707689451876e+02
1.048230610734361551e-01 5.150338749200345774e+02
1.049230830782772184e-01 5.150318375444783214e+02
1.050231050831182678e-01 5.150297587457960162e+02
1.051231270879593449e-01 5.150276386283990178e+02
1.052231490928004221e-01 5.150254772975854394e+02
1.053231710976414714e-01 5.150232748595375369e+02
1.054231931024825347e-01 5.150210314213168203e+02
1.055232151073236119e-01 5.150187470908604155e+02
1.056232371121646613e-01 5.150164219769785632e+02
1.057232591170057245e-01 5.150140561893485938e+02
1.058232811218468017e-01 5.150116498385133355e+02
1.059233031266878788e-01 5.150092030358745205e+02
1.060233251315289282e-01 5.150067158936917622e+02
1.061233471363699915e-01 5.150041885250758469e+02
1.062233691412110687e-01 5.150016210439879387e+02
1.063233911460521181e-01 5.149990135652324170e+02
1.064234131508931813e-01 5.149963662044533521e+02
1.065234351557342585e-01 5.149936790781337095e+02
1.066234571605753079e-01 5.149909523035873917e+02
1.067234791654163850e-01 5.149881859989566237e+02
1.068235011702574483e-01 5.149853802832080873e+02
1.069235231750985254e-01 5.149825352761282602e+02
1.070235451799395748e-01 5.149796510983206872e+02
1.071235671847806381e-01 5.149767278711996141e+02
1.072235891896217153e-01 5.149737657169866907e+02
1.073236111944627647e-01 5.149707647587079009e+02
1.074236331993038418e-01 5.149677251201883337e+02
1.075236552041449051e-01 5.149646469260474078e+02
1.076236772089859683e-01 5.149615303016951202e+02
1.077236992138270316e-01 5.149583753733285221e+02
1.078237212186680949e-01 5.149551822679259203e+02
1.079237432235091720e-01 5.149519511132444904e+02
1.080237652283502214e-01 5.149486820378142511e+02
1.081237872331912986e-01 5.149453751709332892e+02
1.082238092380323619e-01 5.149420306426660545e+02
1.083238312428734251e-01 5.149386485838351746e+02
1.084238532477144884e-01 5.149352291260206584e+02
1.085238752525555517e-01 5.149317724015540989e+02
1.086238972573966149e-01 5.149282785435132155e+02
1.087239192622376782e-01 5.149247476857178754e+02
1.088239412670787554e-01 5.149211799627267965e+02
1.089239632719198186e-01 5.149175755098312948e+02
1.090239852767608819e-01 5.149139344630530104e+02
1.091240072816019452e-01 5.149102569591354950e+02
1.092240292864430085e-01 5.149065431355444389e+02
1.093240512912840717e-01 5.149027931304598269e+02
1.094240732961251350e-01 5.148990070827721865e+02
1.095240953009662122e-01 5.148951851320784954e+02
1.096241173058072615e-01 5.148913274186760418e+02
1.097241393106483387e-01 5.148874340835602652e+02
1.098241613154894020e-01 5.148835052684178208e+02
1.099241833203304652e-01 5.148795411156230557e+02
1.100242053251715285e-01 5.148755417682332336e+02
1.101242273300125918e-01 5.148715073699819413e+02
1.102242493348536689e-01 5.148674380652790887e+02
1.103242713396947183e-01 5.148633339992004494e+02
1.104242933445357955e-01 5.148591953174861828e+02
1.105243153493768588e-01 5.148550221665365143e+02
1.106243373542179081e-01 5.148508146934046863e+02
1.107243593590589853e-01 5.148465730457940026e+02
1.108243813639000486e-01 5.148422973720522577e+02
1.109244033687411257e-01 5.148379878211663936e+02
1.110244253735821751e-01 5.148336445427590888e+02
1.111244473784232523e-01 5.148292676870823925e+02
1.112244693832643155e-01 5.148248574050145407e+02
1.113244913881053649e-01 5.148204138480530219e+02
1.114245133929464421e-01 5.148159371683110521e+02
1.115245353977875054e-01 5.148114275185125734e+02
1.116245574026285825e-01 5.148068850519871376e+02
1.117245794074696319e-01 5.148023099226638806e+02
1.118246014123107090e-01 5.147977022850701587e+02
1.119246234171517723e-01 5.147930622943213166e+02
1.120246454219928217e-01 5.147883901061193228e+02
1.121246674268338989e-01 5.147836858767479953e+02
1.122246894316749621e-01 5.147789497630648157e+02
1.123247114365160115e-01 5.147741819225002473e+02
1.124247334413570887e-01 5.147693825130490950e+02
1.125247554461981658e-01 5.147645516932669807e+02
1.126247774510392291e-01 5.147596896222662508e+02
1.127247994558802785e-01 5.147547964597082455e+02
1.128248214607213556e-01 5.147498723658009112e+02
1.129248434655624189e-01 5.147449175012924343e+02
1.130248654704034683e-01 5.147399320274660113e+02
1.131248874752445455e-01 5.147349161061358700e+02
1.132249094800856226e-01 5.147298698996403346e+02
1.133249314849266720e-01 5.147247935708387558e+02
1.134249534897677353e-01 5.147196872831052588e+02
1.135249754946088124e-01 5.147145512003226031e+02
1.136249974994498757e-01 5.147093854868797962e+02
1.137250195042909251e-01 5.147041903076642484e+02
1.138250415091320022e-01 5.146989658280581352e+02
1.139250635139730794e-01 5.146937122139329404e+02
1.140250855188141288e-01 5.146884296316430891e+02
1.141251075236551921e-01 5.146831182480228790e+02
1.142251295284962692e-01 5.146777782303798858e+02
1.143251515333373186e-01 5.146724097464893930e+02
1.144251735381783819e-01 5.146670129645908673e+02
1.145251955430194590e-01 5.146615880533812515e+02
1.146252175478605362e-01 5.146561351820095069e+02
1.147252395527015856e-01 5.146506545200730898e+02
1.148252615575426488e-01 5.146451462376106747e+02
1.149252835623837260e-01 5.146396105050989718e+02
1.150253055672247754e-01 5.146340474934453368e+02
1.151253275720658387e-01 5.146284573739839061e+02
1.152253495769069158e-01 5.146228403184702529e+02
1.153253715817479652e-01 5.146171964990753622e+02
1.154253935865890424e-01 5.146115260883817655e+02
1.155254155914301056e-01 5.146058292593752412e+02
1.156254375962711828e-01 5.146001061854440195e+02
1.157254596011122322e-01 5.145943570403692320e+02
1.158254816059532954e-01 5.145885819983222973e+02
1.159255036107943726e-01 5.145827812338583271e+02
1.160255256156354220e-01 5.145769549219113514e+02
1.161255476204764991e-01 5.145711032377885203e+02
1.162255696253175624e-01 5.145652263571654430e+02
1.163255916301586257e-01 5.145593244560805033e+02
1.164256136349996890e-01 5.145533977109289481e+02
1.165256356398407522e-01 5.145474462984590218e+02
1.166256576446818294e-01 5.145414703957649181e+02
1.167256796495228788e-01 5.145354701802824593e+02
1.168257016543639559e-01 5.145294458297838673e+02
1.169257236592050192e-01 5.145233975223715106e+02
1.170257456640460825e-01 5.145173254364738114e+02
1.171257676688871457e-01 5.145112297508378560e+02
1.172257896737282090e-01 5.145051106445265532e+02
1.173258116785692723e-01 5.144989682969119258e+02
1.174258336834103356e-01 5.144928028876691997e+02
1.175258556882514127e-01 5.144866145967727107e+02
1.176258776930924760e-01 5.144804036044895383e+02
1.177258996979335393e-01 5.144741700913748446e+02
1.178259217027746025e-01 5.144679142382656210e+02
1.179259437076156658e-01 5.144616362262764824e+02
1.180259657124567291e-01 5.144553362367936415e+02
1.181259877172977923e-01 5.144490144514688836e+02
1.182260097221388695e-01 5.144426710522149051e+02
1.183260317269799189e-01 5.144363062212007662e+02
1.184260537318209960e-01 5.144299201408446152e+02
1.185260757366620593e-01 5.144235129938101636e+02
1.186260977415031226e-01 5.144170849629998656e+02
1.187261197463441859e-01 5.144106362315491197e+02
1.188261417511852491e-01 5.144041669828242220e+02
1.189261637560263263e-01 5.143976774004125900e+02
1.190261857608673757e-01 5.143911676681209428e+02
1.191262077657084528e-01 5.143846379699666613e+02
1.192262297705495161e-01 5.143780884901755144e+02
1.193262517753905655e-01 5.143715194131743829e+02
1.194262737802316426e-01 5.143649309235863711e+02
1.195262957850727059e-01 5.143583232062250090e+02
1.196263177899137831e-01 5.143516964460911822e+02
1.197263397947548325e-01 5.143450508283631279e+02
1.198263617995959096e-01 5.143383865383958664e+02
1.199263838044369729e-01 5.143317037617127880e+02
1.200264058092780223e-01 5.143250026840019018e+02
1.201264278141190994e-01 5.143182834911092414e+02
1.202264498189601627e-01 5.143115463690348861e+02
1.203264718238012398e-01 5.143047915039254576e+02
1.204264938286422892e-01 5.142980190820718462e+02
1.205265158334833664e-01 5.142912292899004569e+02
1.206265378383244297e-01 5.142844223139711630e+02
1.207265598431654791e-01 5.142775983409685523e+02
1.208265818480065562e-01 5.142707575577001080e+02
1.209266038528476195e-01 5.142639001510876824e+02
1.210266258576886689e-01 5.142570263081646544e+02
1.211266478625297460e-01 5.142501362160685403e+02
1.212266698673708232e-01 5.142432300620373553e+02
1.213266918722118864e-01 5.142363080334034748e+02
1.214267138770529358e-01 5.142293703175880637e+02
1.215267358818940130e-01 5.142224171020961876e+02
1.216267578867350763e-01 5.142154485745124930e+02
1.217267798915761257e-01 5.142084649224932491e+02
1.218268018964172028e-01 5.142014663337624825e+02
1.219268239012582800e-01 5.141944529961092485e+02
1.220268459060993294e-01 5.141874250973781955e+02
1.221268679109403926e-01 5.141803828254655855e+02
1.222268899157814698e-01 5.141733263683155428e+02
1.223269119206225330e-01 5.141662559139125506e+02
1.224269339254635824e-01 5.141591716502790632e+02
1.225269559303046596e-01 5.141520737654662980e+02
1.226269779351457367e-01 5.141449624475533255e+02
1.227269999399867861e-01 5.141378378846385431e+02
1.228270219448278494e-01 5.141307002648358093e+02
1.229270439496689266e-01 5.141235497762686464e+02
1.230270659545099760e-01 5.141163866070664881e+02
1.231270879593510392e-01 5.141092109453569492e+02
1.232271099641921164e-01 5.141020229792633245e+02
1.233271319690331935e-01 5.140948228968967442e+02
1.234271539738742429e-01 5.140876108863534455e+02
1.235271759787153062e-01 5.140803871357079515e+02
1.236271979835563833e-01 5.140731518330090921e+02
1.237272199883974327e-01 5.140659051662729553e+02
1.238272419932384960e-01 5.140586473234797040e+02
1.239272639980795732e-01 5.140513784925673235e+02
1.240272860029206226e-01 5.140440988614282105e+02
1.241273080077616997e-01 5.140368086179006468e+02
1.242273300126027630e-01 5.140295079497664119e+02
1.243273520174438401e-01 5.140221970447454396e+02
1.244273740222848895e-01 5.140148760904899063e+02
1.245273960271259528e-01 5.140075452745796838e+02
1.246274180319670299e-01 5.140002047845159723e+02
1.247274400368080793e-01 5.139928548077187997e+02
1.248274620416491565e-01 5.139854955315200868e+02
1.249274840464902198e-01 5.139781271431576215e+02
1.250275060513312830e-01 5.139707498297730126e+02
1.251275280561723324e-01 5.139633637784046414e+02
1.252275500610134096e-01 5.139559691759825455e+02
1.253275720658544867e-01 5.139485662093233032e+02
1.254275940706955361e-01 5.139411550651278731e+02
1.255276160755366133e-01 5.139337359299721584e+02
1.256276380803776904e-01 5.139263089903045056e+02
1.257276600852187398e-01 5.139188744324419531e+02
1.258276820900597892e-01 5.139114324425617042e+02
1.259277040949008664e-01 5.139039832066998770e+02
1.260277260997419158e-01 5.138965269107440008e+02
1.261277481045829929e-01 5.138890637404304016e+02
1.262277701094240701e-01 5.138815938813368120e+02
1.263277921142651472e-01 5.138741175188780517e+02
1.264278141191061966e-01 5.138666348383032982e+02
1.265278361239472460e-01 5.138591460246889255e+02
1.266278581287883231e-01 5.138516512629348654e+02
1.267278801336293725e-01 5.138441507377591506e+02
1.268279021384704497e-01 5.138366446336921172e+02
1.269279241433115268e-01 5.138291331350744713e+02
1.270279461481525762e-01 5.138216164260496726e+02
1.271279681529936534e-01 5.138140946905606370e+02
1.272279901578347028e-01 5.138065681123446211e+02
1.273280121626757799e-01 5.137990368749283334e+02
1.274280341675168293e-01 5.137915011616232732e+02
1.275280561723579065e-01 5.137839611555208421e+02
1.276280781771989836e-01 5.137764170394882512e+02
1.277281001820400330e-01 5.137688689961624959e+02
1.278281221868811102e-01 5.137613172079477408e+02
1.279281441917221596e-01 5.137537618570087261e+02
1.280281661965632367e-01 5.137462031252669021e+02
1.281281882014042861e-01 5.137386411943964504e+02
1.282282102062453633e-01 5.137310762458173485e+02
1.283282322110864404e-01 5.137235084606945748e+02
1.284282542159274898e-01 5.137159380199291263e+02
1.285282762207685670e-01 5.137083651041575649e+02
1.286282982256096163e-01 5.137007898937442860e+02
1.287283202304506935e-01 5.136932125687784492e+02
1.288283422352917429e-01 5.136856333090697717e+02
1.289283642401328200e-01 5.136780522941427307e+02
1.290283862449738972e-01 5.136704697032333797e+02
1.291284082498149466e-01 5.136628857152841192e+02
1.292284302546560237e-01 5.136553005089393764e+02
1.293284522594970731e-01 5.136477142625409442e+02
1.294284742643381503e-01 5.136401271541246842e+02
1.295284962691791997e-01 5.136325393614146151e+02
1.296285182740202768e-01 5.136249510618185923e+02
1.297285402788613262e-01 5.136173624324255798e+02
1.298285622837024034e-01 5.136097736499993971e+02
1.299285842885434805e-01 5.136021848909761047e+02
1.300286062933845299e-01 5.135945963314579785e+02
1.301286282982256071e-01 5.135870081472096444e+02
1.302286503030666565e-01 5.135794205136551227e+02
1.303286723079077336e-01 5.135718336058723708e+02
1.304286943127487830e-01 5.135642475985886222e+02
1.305287163175898602e-01 5.135566626661770897e+02
1.306287383224309373e-01 5.135490789826525315e+02
1.307287603272719867e-01 5.135414967216673858e+02
1.308287823321130638e-01 5.135339160565057455e+02
1.309288043369541132e-01 5.135263371600817663e+02
1.310288263417951904e-01 5.135187602049340967e+02
1.311288483466362398e-01 5.135111853632220118e+02
1.312288703514773169e-01 5.135036128067213212e+02
1.313288923563183941e-01 5.134960427068202762e+02
1.314289143611594435e-01 5.134884752345149082e+02
1.315289363660005206e-01 5.134809105604065280e+02
1.316289583708415700e-01 5.134733488546968374e+02
1.317289803756826472e-01 5.134657902871828128e+02
1.318290023805236966e-01 5.134582350272539770e+02
1.319290243853647737e-01 5.134506832438894435e+02
1.320290463902058509e-01 5.134431351056513222e+02
1.321290683950469003e-01 5.134355907806824462e+02
1.322290903998879774e-01 5.134280504367022786e+02
1.323291124047290268e-01 5.134205142410035023e+02
1.324291344095701040e-01 5.134129823604471312e+02
1.325291564144111534e-01 5.134054549614590996e+02
1.326291784192522305e-01 5.133979322100265108e+02
1.327292004240932799e-01 5.133904142716939987e+02
1.328292224289343570e-01 5.133829013115594080e+02
1.329292444337754342e-01 5.133753934942703836e+02
1.330292664386164836e-01 5.133678909840210736e+02
1.331292884434575607e-01 5.133603939445478090e+02
1.332293104482986101e-01 5.133529025391247842e+02
1.333293324531396873e-01 5.133454169305618962e+02
1.334293544579807367e-01 5.133379372811999701e+02
1.335293764628218138e-01 5.133304637529078036e+02
1.336293984676628910e-01 5.133229965070771641e+02
1.337294204725039404e-01 5.133155357046222207e+02
1.338294424773450175e-01 5.133080815059718134e+02
1.339294644821860669e-01 5.133006340710691120e+02
1.340294864870271441e-01 5.132931935593671824e+02
1.341295084918681935e-01 5.132857601298251211e+02
1.342295304967092706e-01 5.132783339409046448e+02
1.343295525015503478e-01 5.132709151505666796e+02
1.344295745063913972e-01 5.132635039162680641e+02
1.345295965112324743e-01 5.132561003949591623e+02
1.346296185160735237e-01 5.132487047430774965e+02
1.347296405209145731e-01 5.132413171165474068e+02
1.348296625257556502e-01 5.132339376707748215e+02
1.349296845305967274e-01 5.132265665606455514e+02
1.350297065354378045e-01 5.132192039405202877e+02
1.351297285402788539e-01 5.132118499642327833e+02
1.352297505451199311e-01 5.132045047850849642e+02
1.353297725499609805e-01 5.131971685558456784e+02
1.354297945548020299e-01 5.131898414287454671e+02
1.355298165596431070e-01 5.131825235554750861e+02
1.356298385644841842e-01 5.131752150871806180e+02
1.357298605693252336e-01 5.131679161744627891e+02
1.358298825741663107e-01 5.131606269673708312e+02
1.359299045790073879e-01 5.131533476154011169e+02
1.360299265838484373e-01 5.131460782674951133e+02
1.361299485886894867e-01 5.131388190720338116e+02
1.362299705935305638e-01 5.131315701768355666e+02
1.363299925983716410e-01 5.131243317291548465e+02
1.364300146032126904e-01 5.131171038756770031e+02
1.365300366080537675e-01 5.131098867625163393e+02
1.366300586128948447e-01 5.131026805352126985e+02
1.367300806177358941e-01 5.130954853387295316e+02
1.368301026225769434e-01 5.130883013174493499e+02
1.369301246274180206e-01 5.130811286151723607e+02
1.370301466322590977e-01 5.130739673751132841e+02
1.371301686371001471e-01 5.130668177398986245e+02
1.372301906419412243e-01 5.130596798515621231e+02
1.373302126467823014e-01 5.130525538515448716e+02
1.374302346516233508e-01 5.130454398806904237e+02
1.375302566564644002e-01 5.130383380792434309e+02
1.376302786613054774e-01 5.130312485868456633e+02
1.377303006661465545e-01 5.130241715425344182e+02
1.378303226709876039e-01 5.130171070847383135e+02
1.379303446758286811e-01 5.130100553512771739e+02
1.380303666806697582e-01 5.130030164793586209e+02
1.381303886855108076e-01 5.129959906055722740e+02
1.382304106903518570e-01 5.129889778658916839e+02
1.383304326951929342e-01 5.129819783956696710e+02
1.384304547000339836e-01 5.129749923296365068e+02
1.385304767048750607e-01 5.129680198018955934e+02
1.386304987097161379e-01 5.129610609459234638e+02
1.387305207145572150e-01 5.129541158945673942e+02
1.388305427193982644e-01 5.129471847800386968e+02
1.389305647242393138e-01 5.129402677339173806e+02
1.390305867290803910e-01 5.129333648871428295e+02
1.391306087339214403e-01 5.129264763700167578e+02
1.392306307387625175e-01 5.129196023121982080e+02
1.393306527436035946e-01 5.129127428427004816e+02
1.394306747484446440e-01 5.129058980898923892e+02
1.395306967532857212e-01 5.128990681814923391e+02
1.396307187581267706e-01 5.128922532445682236e+02
1.397307407629678477e-01 5.128854534055349177e+02
1.398307627678088971e-01 5.128786687901505275e+02
1.399307847726499743e-01 5.128718995235172997e+02
1.400308067774910514e-01 5.128651457300763923e+02
1.401308287823321008e-01 5.128584075336086698e+02
1.402308507871731780e-01 5.128516850572300427e+02
1.403308727920142274e-01 5.128449784233916944e+02
1.404308947968552768e-01 5.128382877538750790e+02
1.405309168016963539e-01 5.128316131697933997e+02
1.406309388065374311e-01 5.128249547915877429e+02
1.407309608113785082e-01 5.128183127390256004e+02
1.408309828162195576e-01 5.128116871311983687e+02
1.409310048210606348e-01 5.128050780865202114e+02
1.410310268259016842e-01 5.127984857227260136e+02
1.411310488307427335e-01 5.127919101568695623e+02
1.412310708355838107e-01 5.127853515053218416e+02
1.413310928404248878e-01 5.127788098837676216e+02
1.414311148452659372e-01 5.127722854072076188e+02
1.415311368501070144e-01 5.127657781899522433e+02
1.416311588549480915e-01 5.127592883456231903e+02
1.417311808597891409e-01 5.127528159871499156e+02
1.418312028646301903e-01 5.127463612267688404e+02
1.419312248694712675e-01 5.127399241760208497e+02
1.420312468743123446e-01 5.127335049457522018e+02
1.421312688791533940e-01 5.127271036461086169e+02
1.422312908839944712e-01 5.127207203865378915e+02
1.423313128888355483e-01 5.127143552757863745e+02
1.424313348936765977e-01 5.127080084218972615e+02
1.425313568985176471e-01 5.127016799322100269e+02
1.426313789033587243e-01 5.126953699133589453e+02
1.427314009081998014e-01 5.126890784712696814e+02
1.428314229130408508e-01 5.126828057111625867e+02
1.429314449178819280e-01 5.126765517375454237e+02
1.430314669227230051e-01 5.126703166542157533e+02
1.431314889275640545e-01 5.126641005642593427e+02
1.432315109324051039e-01 5.126579035700475515e+02
1.433315329372461810e-01 5.126517257732368762e+02
1.434315549420872304e-01 5.126455672747674726e+02
1.435315769469283076e-01 5.126394281748631556e+02
1.436315989517693847e-01 5.126333085730278754e+02
1.437316209566104619e-01 5.126272085680458304e+02
1.438316429614515113e-01 5.126211282579808994e+02
1.439316649662925607e-01 5.126150677401749363e+02
1.440316869711336378e-01 5.126090271112459504e+02
1.441317089759746872e-01 5.126030064670883348e+02
1.442317309808157644e-01 5.125970059028711603e+02
1.443317529856568415e-01 5.125910255130373798e+02
1.444317749904978909e-01 5.125850653913020096e+02
1.445317969953389681e-01 5.125791256306524701e+02
1.446318190001800175e-01 5.125732063233471081e+02
1.447318410050210946e-01 5.125673075609140596e+02
1.448318630098621440e-01 5.125614294341499999e+02
1.449318850147032212e-01 5.125555720331203702e+02
1.450319070195442983e-01 5.125497354471575591e+02
1.451319290243853477e-01 5.125439197648618119e+02
1.452319510292264249e-01 5.125381250740972519e+02
1.453319730340674742e-01 5.125323514619939260e+02
1.454319950389085514e-01 5.125265990149459867e+02
1.455320170437496008e-01 5.125208678186113502e+02
1.456320390485906779e-01 5.125151579579098780e+02
1.457320610534317551e-01 5.125094695170255363e+02
1.458320830582728045e-01 5.125038025794021905e+02
1.459321050631138816e-01 5.124981572277438318e+02
1.460321270679549310e-01 5.124925335440184426e+02
1.461321490727960082e-01 5.124869316094496980e+02
1.462321710776370576e-01 5.124813515045227632e+02
1.463321930824781347e-01 5.124757933089814514e+02
1.464322150873192119e-01 5.124702571018267463e+02
1.465322370921602613e-01 5.124647429613187342e+02
1.466322590970013384e-01 5.124592509649742169e+02
1.467322811018423878e-01 5.124537811895668256e+02
1.468323031066834650e-01 5.124483337111271339e+02
1.469323251115245144e-01 5.124429086049412945e+02
1.470323471163655915e-01 5.124375059455522887e+02
1.471323691212066409e-01 5.124321258067577674e+02
1.472323911260477181e-01 5.124267682616109596e+02
1.473324131308887952e-01 5.124214333824201049e+02
1.474324351357298446e-01 5.124161212407482253e+02
1.475324571405709217e-01 5.124108319074134670e+02
1.476324791454119711e-01 5.124055654524865986e+02
1.477325011502530483e-01 5.124003219452944222e+02
1.478325231550940977e-01 5.123951014544164764e+02
1.479325451599351748e-01 5.123899040476871960e+02
1.480325671647762520e-01 5.123847297921940935e+02
1.481325891696173014e-01 5.123795787542796916e+02
1.482326111744583785e-01 5.123744509995377712e+02
1.483326331792994279e-01 5.123693465928178057e+02
1.484326551841405051e-01 5.123642655982229144e+02
1.485326771889815545e-01 5.123592080791090666e+02
1.486326991938226316e-01 5.123541740980863324e+02
1.487327211986637088e-01 5.123491637170186550e+02
1.488327432035047582e-01 5.123441769970240784e+02
1.489327652083458353e-01 5.123392139984740652e+02
1.490327872131868847e-01 5.123342747809953153e+02
1.491328092180279619e-01 5.123293594034678335e+02
1.492328312228690113e-01 5.123244679240266350e+02
1.493328532277100884e-01 5.123196004000612902e+02
1.494328752325511656e-01 5.123147568882171754e+02
1.495328972373922150e-01 5.123099374443934266e+02
1.496329192422332921e-01 5.123051421237460090e+02
1.497329412470743415e-01 5.123003709806870347e+02
1.498329632519154186e-01 5.122956240688832850e+02
1.499329852567564680e-01 5.122909014412593933e+02
1.500330072615975452e-01 5.122862031499956856e+02
1.501330292664385946e-01 5.122815292465314769e+02
1.502330512712796717e-01 5.122768797815625703e+02
1.503330732761207489e-01 5.122722548050429623e+02
1.504330952809617983e-01 5.122676543661855249e+02
1.505331172858028754e-01 5.122630785134637108e+02
1.506331392906439248e-01 5.122585272946076884e+02
1.507331612954850020e-01 5.122540007566102531e+02
1.508331833003260514e-01 5.122494989457239853e+02
1.509332053051671285e-01 5.122450219074629558e+02
1.510332273100082057e-01 5.122405696866032940e+02
1.511332493148492551e-01 5.122361423271835292e+02
1.512332713196903322e-01 5.122317398725051589e+02
1.513332933245313816e-01 5.122273623651346952e+02
1.514333153293724588e-01 5.122230098469018458e+02
1.515333373342135082e-01 5.122186823589020150e+02
1.516333593390545853e-01 5.122143799414970999e+02
1.517333813438956625e-01 5.122101026343156036e+02
1.518334033487367118e-01 5.122058504762534312e+02
1.519334253535777890e-01 5.122016235054746858e+02
1.520334473584188384e-01 5.121974217594131460e+02
1.521334693632598878e-01 5.121932452747721527e+02
1.522334913681009649e-01 5.121890940875263141e+02
1.523335133729420421e-01 5.121849682329217330e+02
1.524335353777831192e-01 5.121808677454777126e+02
1.525335573826241686e-01 5.121767926589858462e+02
1.526335793874652458e-01 5.121727430065145654e+02
1.527336013923062952e-01 5.121687188204056156e+02
1.528336233971473446e-01 5.121647201322793990e+02
1.529336454019884217e-01 5.121607469730315643e+02
1.530336674068294989e-01 5.121567993728374404e+02
1.531336894116705483e-01 5.121528773611530596e+02
1.532337114165116254e-01 5.121489809667135660e+02
1.533337334213527026e-01 5.121451102175362848e+02
1.534337554261937520e-01 5.121412651409222008e+02
1.535337774310348014e-01 5.121374457634555029e+02
1.536337994358758785e-01 5.121336521110061994e+02
1.537338214407169557e-01 5.121298842087303456e+02
1.538338434455580050e-01 5.121261420810719756e+02
1.539338654503990822e-01 5.121224257517635579e+02
1.540338874552401593e-01 5.121187352438274729e+02
1.541339094600812087e-01 5.121150705795778322e+02
1.542339314649222581e-01 5.121114317806218423e+02
1.543339534697633353e-01 5.121078188678584411e+02
1.544339754746044124e-01 5.121042318614843225e+02
1.545339974794454618e-01 5.121006707809910949e+02
1.546340194842865390e-01 5.120971356451692600e+02
1.547340414891276161e-01 5.120936264721077578e+02
1.548340634939686655e-01 5.120901432791965817e+02
1.549340854988097149e-01 5.120866860831279155e+02
1.550341075036507921e-01 5.120832548998969287e+02
1.551341295084918692e-01 5.120798497448034823e+02
1.552341515133329186e-01 5.120764706324548570e+02
1.553341735181739958e-01 5.120731175767655259e+02
1.554341955230150729e-01 5.120697905909596557e+02
1.555342175278561223e-01 5.120664896875722434e+02
1.556342395326971717e-01 5.120632148784507081e+02
1.557342615375382489e-01 5.120599661747558002e+02
1.558342835423792982e-01 5.120567435869652400e+02
1.559343055472203754e-01 5.120535471248729209e+02
1.560343275520614525e-01 5.120503767975915252e+02
1.561343495569025297e-01 5.120472326135544563e+02
1.562343715617435791e-01 5.120441145805175438e+02
1.563343935665846285e-01 5.120410227055597261e+02
1.564344155714256779e-01 5.120379569950846417e+02
1.565344375762667550e-01 5.120349174548251767e+02
1.566344595811078322e-01 5.120319040898417597e+02
1.567344815859489093e-01 5.120289169045247490e+02
1.568345035907899865e-01 5.120259559025977296e+02
1.569345255956310359e-01 5.120230210871186500e+02
1.570345476004720853e-01 5.120201124604805045e+02
1.571345696053131347e-01 5.120172300244137205e+02
1.572345916101542118e-01 5.120143737799899100e+02
1.573346136149952890e-01 5.120115437276200510e+02
1.574346356198363661e-01 5.120087398670591483e+02
1.575346576246774433e-01 5.120059621974078254e+02
1.576346796295184927e-01 5.120032107171119833e+02
1.577347016343595421e-01 5.120004854239683709e+02
1.578347236392005914e-01 5.119977863151221413e+02
1.579347456440416686e-01 5.119951133870739568e+02
1.580347676488827457e-01 5.119924666356770899e+02
1.581347896537238229e-01 5.119898460561412321e+02
1.582348116585649000e-01 5.119872516430360179e+02
1.583348336634059217e-01 5.119846833902901722e+02
1.584348556682469988e-01 5.119821412911963989e+02
1.585348776730880482e-01 5.119796253384099032e+02
1.586348996779291254e-01 5.119771355239556669e+02
1.587349216827702025e-01 5.119746718392234470e+02
1.588349436876112797e-01 5.119722342749773247e+02
1.589349656924523568e-01 5.119698228213515563e+02
1.590349876972933785e-01 5.119674374678573372e+02
1.591350097021344556e-01 5.119650782033810401e+02
1.592350317069755050e-01 5.119627450161894444e+02
1.593350537118165822e-01 5.119604378939295657e+02
1.594350757166576593e-01 5.119581568236332600e+02
1.595350977214987365e-01 5.119559017917164283e+02
1.596351197263398136e-01 5.119536727839839614e+02
1.597351417311808353e-01 5.119514697856301382e+02
1.598351637360219124e-01 5.119492927812416383e+02
1.599351857408629618e-01 5.119471417547988494e+02
1.600352077457040390e-01 5.119450166896795054e+02
1.601352297505451161e-01 5.119429175686603344e+02
1.602352517553861933e-01 5.119408443739189352e+02
1.603352737602272149e-01 5.119387970870357094e+02
1.604352957650682920e-01 5.119367756889974430e+02
1.605353177699093692e-01 5.119347801601992387e+02
1.606353397747504186e-01 5.119328104804459372e+02
1.607353617795914957e-01 5.119308666289545613e+02
1.608353837844325729e-01 5.119289485843582383e+02
1.609354057892736500e-01 5.119270563247062569e+02
1.610354277941146717e-01 5.119251898274683867e+02
1.611354497989557488e-01 5.119233490695363571e+02
1.612354718037968260e-01 5.119215340272251638e+02
1.613354938086378754e-01 5.119197446762788104e+02
1.614355158134789525e-01 5.119179809918688306e+02
1.615355378183200297e-01 5.119162429485980965e+02
1.616355598231611068e-01 5.119145305205048544e+02
1.617355818280021285e-01 5.119128436810633502e+02
1.618356038328432056e-01 5.119111824031862170e+02
1.619356258376842828e-01 5.119095466592287380e+02
1.620356478425253322e-01 5.119079364209887331e+02
1.621356698473664093e-01 5.119063516597110493e+02
1.622356918522074865e-01 5.119047923460899483e+02
1.623357138570485636e-01 5.119032584502691634e+02
1.624357358618895852e-01 5.119017499418491752e+02
1.625357578667306624e-01 5.119002667898841423e+02
1.626357798715717395e-01 5.118988089628888360e+02
1.627358018764127889e-01 5.118973764288389816e+02
1.628358238812538661e-01 5.118959691551742708e+02
1.629358458860949432e-01 5.118945871088012041e+02
1.630358678909359926e-01 5.118932302560950234e+02
1.631358898957770420e-01 5.118918985629034637e+02
1.632359119006181192e-01 5.118905919945484015e+02
1.633359339054591963e-01 5.118893105158279013e+02
1.634359559103002457e-01 5.118880540910205355e+02
1.635359779151413229e-01 5.118868226838869759e+02
1.636359999199824000e-01 5.118856162576718134e+02
1.637360219248234494e-01 5.118844347751078203e+02
1.638360439296644988e-01 5.118832781984182247e+02
1.639360659345055760e-01 5.118821464893180178e+02
1.640360879393466531e-01 5.118810396090186714e+02
1.641361099441877025e-01 5.118799575182289345e+02
1.642361319490287797e-01 5.118789001771577318e+02
1.643361539538698568e-01 5.118778675455193934e+02
1.644361759587109062e-01 5.118768595825319494e+02
1.645361979635519556e-01 5.118758762469251451e+02
1.646362199683930327e-01 5.118749174969373712e+02
1.647362419732341099e-01 5.118739832903229967e+02
1.648362639780751593e-01 5.118730735843523689e+02
1.649362859829162364e-01 5.118721883358171567e+02
1.650363079877572858e-01 5.118713275010288157e+02
1.651363299925983630e-01 5.118704910358270581e+02
1.652363519974394124e-01 5.118696788955766692e+02
1.653363740022804895e-01 5.118688910351756363e+02
1.654363960071215667e-01 5.118681274090529882e+02
1.655364180119626161e-01 5.118673879711765835e+02
1.656364400168036932e-01 5.118666726750506655e+02
1.657364620216447426e-01 5.118659814737228544e+02
1.658364840264858198e-01 5.118653143197852273e+02
1.659365060313268692e-01 5.118646711653764214e+02
1.660365280361679463e-01 5.118640519621858402e+02
1.661365500410090235e-01 5.118634566614552455e+02
1.662365720458500729e-01 5.118628852139833612e+02
1.663365940506911500e-01 5.118623375701262148e+02
1.664366160555321994e-01 5.118618136798022533e+02
1.665366380603732765e-01 5.118613134924925703e+02
1.666366600652143259e-01 5.118608369572473293e+02
1.667366820700554031e-01 5.118603840226849684e+02
1.668367040748964802e-01 5.118599546369975428e+02
1.669367260797375296e-01 5.118595487479516351e+02
1.670367480845785790e-01 5.118591663028941525e+02
1.671367700894196562e-01 5.118588072487506224e+02
1.672367920942607333e-01 5.118584715320334908e+02
1.673368140991017827e-01 5.118581590988399626e+02
1.674368361039428599e-01 5.118578698948574583e+02
1.675368581087839370e-01 5.118576038653674232e+02
1.676368801136249864e-01 5.118573609552447579e+02
1.677369021184660358e-01 5.118571411089650383e+02
1.678369241233071130e-01 5.118569442706033215e+02
1.679369461281481901e-01 5.118567703838401144e+02
1.680369681329892395e-01 5.118566193919623970e+02
1.681369901378303167e-01 5.118564912378664076e+02
1.682370121426713938e-01 5.118563858640628723e+02
1.683370341475124432e-01 5.118563032126771759e+02
1.684370561523534926e-01 5.118562432254530563e+02
1.685370781571945697e-01 5.118562058437566975e+02
1.686371001620356469e-01 5.118561910085782074e+02
1.687371221668766963e-01 5.118561986605346874e+02
1.688371441717177734e-01 5.118562287398739272e+02
1.689371661765588506e-01 5.118562811864769628e+02
1.690371881813998722e-01 5.118563559398602365e+02
1.691372101862409494e-01 5.118564529391798601e+02
1.692372321910820265e-01 5.118565721232329224e+02
1.693372541959231037e-01 5.118567134304620367e+02
1.694372762007641531e-01 5.118568767989571597e+02
1.695372982056052302e-01 5.118570621664592295e+02
1.696373202104463074e-01 5.118572694703613593e+02
1.697373422152873290e-01 5.118574986477148059e+02
1.698373642201284062e-01 5.118577496352293110e+02
1.699373862249694833e-01 5.118580223692765685e+02
1.700374082298105605e-01 5.118583167858936349e+02
1.701374302346516099e-01 5.118586328207863971e+02
1.702374522394926870e-01 5.118589704093303681e+02
1.703374742443337642e-01 5.118593294865752341e+02
1.704374962491747858e-01 5.118597099872490617e+02
1.705375182540158630e-01 5.118601118457571602e+02
1.706375402588569401e-01 5.118605349961903244e+02
1.707375622636980173e-01 5.118609793723221060e+02
1.708375842685390666e-01 5.118614449076164306e+02
1.709376062733801438e-01 5.118619315352277681e+02
1.710376282782212209e-01 5.118624391880049984e+02
1.711376502830622426e-01 5.118629677984940827e+02
1.712376722879033197e-01 5.118635172989424404e+02
1.713376942927443969e-01 5.118640876212978696e+02
1.714377162975854740e-01 5.118646786972168456e+02
1.715377383024265234e-01 5.118652904580631571e+02
1.716377603072676006e-01 5.118659228349131922e+02
1.717377823121086222e-01 5.118665757585566780e+02
1.718378043169496994e-01 5.118672491595023075e+02
1.719378263217907765e-01 5.118679429679784221e+02
1.720378483266318537e-01 5.118686571139375019e+02
1.721378703314729308e-01 5.118693915270575303e+02
1.722378923363139802e-01 5.118701461367459160e+02
1.723379143411550574e-01 5.118709208721424488e+02
1.724379363459960790e-01 5.118717156621212325e+02
1.725379583508371562e-01 5.118725304352943795e+02
1.726379803556782333e-01 5.118733651200158192e+02
1.727380023605193105e-01 5.118742196443813555e+02
1.728380243653603876e-01 5.118750939362342933e+02
1.729380463702014370e-01 5.118759879231672016e+02
1.730380683750425141e-01 5.118769015325251530e+02
1.731380903798835358e-01 5.118778346914069175e+02
1.732381123847246129e-01 5.118787873266714996e+02
1.733381343895656901e-01 5.118797593649366604e+02
1.734381563944067672e-01 5.118807507325851134e+02
1.735381783992478444e-01 5.118817613557657182e+02
1.736382004040888938e-01 5.118827911603967777e+02
1.737382224089299432e-01 5.118838400721688231e+02
1.738382444137709926e-01 5.118849080165475698e+02
1.739382664186120697e-01 5.118859949187765324e+02
1.740382884234531469e-01 5.118871007038802645e+02
1.741383104282942240e-01 5.118882252966667465e+02
1.742383324331353012e-01 5.118893686217305685e+02
1.743383544379763506e-01 5.118905306034549767e+02
1.744383764428174000e-01 5.118917111660159662e+02
1.745383984476584494e-01 5.118929102333847254e+02
1.746384204524995265e-01 5.118941277293290000e+02
1.747384424573406037e-01 5.118953635774184363e+02
1.748384644621816808e-01 5.118966177010244678e+02
1.749384864670227580e-01 5.118978900233255445e+02
1.750385084718638073e-01 5.118991804673099750e+02
1.751385304767048567e-01 5.119004889557753017e+02
1.752385524815459061e-01 5.119018154113355195e+02
1.753385744863869833e-01 5.119031597564213598e+02
1.754385964912280604e-01 5.119045219132829061e+02
1.755386184960691376e-01 5.119059018039942544e+02
1.756386405009102147e-01 5.119072993504540250e+02
1.757386625057512364e-01 5.119087144743887166e+02
1.758386845105923135e-01 5.119101470973567984e+02
1.759387065154333629e-01 5.119115971407503025e+02
1.760387285202744401e-01 5.119130645257976653e+02
1.761387505251155172e-01 5.119145491735663995e+02
1.762387725299565944e-01 5.119160510049655954e+02
1.763387945347976715e-01 5.119175699407491038e+02
1.764388165396386932e-01 5.119191059015192309e+02
1.765388385444797703e-01 5.119206588077264541e+02
1.766388605493208197e-01 5.119222285796754477e+02
1.767388825541618969e-01 5.119238151375254802e+02
1.768389045590029740e-01 5.119254184012937117e+02
1.769389265638440512e-01 5.119270382908591728e+02
1.770389485686851283e-01 5.119286747259632762e+02
1.771389705735261499e-01 5.119303276262135682e+02
1.772389925783672271e-01 5.119319969110867987e+02
1.773390145832082765e-01 5.119336824999306828e+02
1.774390365880493536e-01 5.119353843119669705e+02
1.775390585928904308e-01 5.119371022662941186e+02
1.776390805977315079e-01 5.119388362818891665e+02
1.777391026025725296e-01 5.119405862776123968e+02
1.778391246074136067e-01 5.119423521722069950e+02
1.779391466122546839e-01 5.119441338843038807e+02
1.780391686170957333e-01 5.119459313324240952e+02
1.781391906219368104e-01 5.119477444349797679e+02
1.782392126267778876e-01 5.119495731102779246e+02
1.783392346316189647e-01 5.119514172765231024e+02
1.784392566364599864e-01 5.119532768518207035e+02
1.785392786413010635e-01 5.119551517541766543e+02
1.786393006461421407e-01 5.119570419015034304e+02
1.787393226509831901e-01 5.119589472116198294e+02
1.788393446558242672e-01 5.119608676022550071e+02
1.789393666606653444e-01 5.119628029910511486e+02
1.790393886655064215e-01 5.119647532955643214e+02
1.791394106703474431e-01 5.119667184332689089e+02
1.792394326751885203e-01 5.119686983215588043e+02
1.793394546800295974e-01 5.119706928777497978e+02
1.794394766848706468e-01 5.119727020190840676e+02
1.795394986897117240e-01 5.119747256627294405e+02
1.796395206945528011e-01 5.119767637257851334e+02
1.797395426993938783e-01 5.119788161252807299e+02
1.798395647042348999e-01 5.119808827781815808e+02
1.799395867090759771e-01 5.119829636013898835e+02
1.800396087139170542e-01 5.119850585117471269e+02
1.801396307187581036e-01 5.119871674260361942e+02
1.802396527235991808e-01 5.119892902609855128e+02
1.803396747284402579e-01 5.119914269332684853e+02
1.804396967332813073e-01 5.119935773595079809e+02
1.805397187381223567e-01 5.119957414562785516e+02
1.806397407429634339e-01 5.119979191401082517e+02
1.807397627478045110e-01 5.120001103274803427e+02
1.808397847526455604e-01 5.120023149348373863e+02
1.809398067574866376e-01 5.120045328785819265e+02
1.810398287623277147e-01 5.120067640750792179e+02
1.811398507671687641e-01 5.120090084406604092e+02
1.812398727720098135e-01 5.120112658916232249e+02
1.813398947768508906e-01 5.120135363442357175e+02
1.814399167816919678e-01 5.120158197147381998e+02
1.815399387865330172e-01 5.120181159193435860e+02
1.816399607913740943e-01 5.120204248742434174e+02
1.817399827962151715e-01 5.120227464956057020e+02
1.818400048010562209e-01 5.120250806995815083e+02
1.819400268058972703e-01 5.120274274023040562e+02
1.820400488107383474e-01 5.120297865198909903e+02
1.821400708155794246e-01 5.120321579684487006e+02
1.822400928204204740e-01 5.120345416640716394e+02
1.823401148252615511e-01 5.120369375228486888e+02
1.824401368301026005e-01 5.120393454608595221e+02
1.825401588349436777e-01 5.120417653941818799e+02
1.826401808397847271e-01 5.120441972388912291e+02
1.827402028446258042e-01 5.120466409110633776e+02
1.828402248494668814e-01 5.120490963267762936e+02
1.829402468543079308e-01 5.120515634021121514e+02
1.830402688591490079e-01 5.120540420531602877e+02
1.831402908639900573e-01 5.120565321960183383e+02
1.832403128688311345e-01 5.120590337467945119e+02
1.833403348736721838e-01 5.120615466216099776e+02
1.834403568785132610e-01 5.120640707366002289e+02
1.835403788833543381e-01 5.120666060079178123e+02
1.836404008881953875e-01 5.120691523517348287e+02
1.837404228930364647e-01 5.120717096842416822e+02
1.838404448978775141e-01 5.120742779216537883e+02
1.839404669027185912e-01 5.120768569802106640e+02
1.840404889075596406e-01 5.120794467761778606e+02
1.841405109124007178e-01 5.120820472258503742e+02
1.842405329172417949e-01 5.120846582455520775e+02
1.843405549220828443e-01 5.120872797516419723e+02
1.844405769269238937e-01 5.120899116605106656e+02
1.845405989317649709e-01 5.120925538885865080e+02
1.846406209366060480e-01 5.120952063523354809e+02
1.847406429414470974e-01 5.120978689682634695e+02
1.848406649462881746e-01 5.121005416529185368e+02
1.849406869511292517e-01 5.121032243228913785e+02
1.850407089559703011e-01 5.121059168948197566e+02
1.851407309608113505e-01 5.121086192853871353e+02
1.852407529656524277e-01 5.121113314113275692e+02
1.853407749704935048e-01 5.121140531894249079e+02
1.854407969753345542e-01 5.121167845365154108e+02
1.855408189801756313e-01 5.121195253694913845e+02
1.856408409850167085e-01 5.121222756052986824e+02
1.857408629898577579e-01 5.121250351609442077e+02
1.858408849946988073e-01 5.121278039534917070e+02
1.859409069995398844e-01 5.121305819000683641e+02
1.860409290043809616e-01 5.121333689178629811e+02
1.861409510092220110e-01 5.121361649241293890e+02
1.862409730140630881e-01 5.121389698361884939e+02
1.863409950189041653e-01 5.121417835714285047e+02
1.864410170237451869e-01 5.121446060473075477e+02
1.865410390285862641e-01 5.121474371813558264e+02
1.866410610334273412e-01 5.121502768911749399e+02
1.867410830382684184e-01 5.121531250944424301e+02
1.868411050431094678e-01 5.121559817089113267e+02
1.869411270479505449e-01 5.121588466524118530e+02
1.870411490527916221e-01 5.121617198428552911e+02
1.871411710576326437e-01 5.121646011982325035e+02
1.872411930624737209e-01 5.121674906366163214e+02
1.873412150673147980e-01 5.121703880761642722e+02
1.874412370721558752e-01 5.121732934351194899e+02
1.875412590769969245e-01 5.121762066318112829e+02
1.876412810818380017e-01 5.121791275846577491e+02
1.877413030866790788e-01 5.121820562121669127e+02
1.878413250915201005e-01 5.121849924329379746e+02
1.879413470963611776e-01 5.121879361656625633e+02
1.880413691012022548e-01 5.121908873291278042e+02
1.881413911060433319e-01 5.121938458422147278e+02
1.882414131108843813e-01 5.121968116239024766e+02
1.883414351157254585e-01 5.121997845932683049e+02
1.884414571205665356e-01 5.122027646694890564e+02
1.885414791254075573e-01 5.122057517718433246e+02
1.886415011302486344e-01 5.122087458197120213e+02
1.887415231350897116e-01 5.122117467325790585e+02
1.888415451399307887e-01 5.122147544300345317e+02
1.889415671447718381e-01 5.122177688317739239e+02
1.890415891496129153e-01 5.122207898576018579e+02
1.891416111544539369e-01 5.122238174274302764e+02
1.892416331592950141e-01 5.122268514612836725e+02
1.893416551641360912e-01 5.122298918792962468e+02
1.894416771689771684e-01 5.122329386017147499e+02
1.895416991738182455e-01 5.122359915489016657e+02
1.896417211786592949e-01 5.122390506413330513e+02
1.897417431835003720e-01 5.122421157996027432e+02
1.898417651883413937e-01 5.122451869444207659e+02
1.899417871931824708e-01 5.122482639966170836e+02
1.900418091980235480e-01 5.122513468771408043e+02
1.901418312028646251e-01 5.122544355070626807e+02
1.902418532077057023e-01 5.122575298075754517e+02
1.903418752125467517e-01 5.122606296999946380e+02
1.904418972173878288e-01 5.122637351057604747e+02
1.905419192222288505e-01 5.122668459464397301e+02
1.906419412270699276e-01 5.122699621437242286e+02
1.907419632319110048e-01 5.122730836194334643e+02
1.908419852367520819e-01 5.122762102955171031e+02
1.909420072415931591e-01 5.122793420940525948e+02
1.910420292464342085e-01 5.122824789372500618e+02
1.911420512512752579e-01 5.122856207474493431e+02
1.912420732561163073e-01 5.122887674471244281e+02
1.913420952609573844e-01 5.122919189588820927e+02
1.914421172657984616e-01 5.122950752054645136e+02
1.915421392706395387e-01 5.122982361097491548e+02
1.916421612754806159e-01 5.123014015947494499e+02
1.917421832803216653e-01 5.123045715836168483e+02
1.918422052851627146e-01 5.123077459996416110e+02
1.919422272900037640e-01 5.123109247662521284e+02
1.920422492948448412e-01 5.123141078070175354e+02
1.921422712996859183e-01 5.123172950456480521e+02
1.922422933045269955e-01 5.123204864059955526e+02
1.923423153093680726e-01 5.123236818120545877e+02
1.924423373142091220e-01 5.123268811879629538e+02
1.925423593190501714e-01 5.123300844580032845e+02
1.926423813238912208e-01 5.123332915466031636e+02
1.927424033287322980e-01 5.123365023783350125e+02
1.928424253335733751e-01 5.123397168779209778e+02
1.929424473384144523e-01 5.123429349702265654e+02
1.930424693432555294e-01 5.123461565802680298e+02
1.931424913480965511e-01 5.123493816332102142e+02
1.932425133529376282e-01 5.123526100543672328e+02
1.933425353577786776e-01 5.123558417692030389e+02
1.934425573626197548e-01 5.123590767033333577e+02
1.935425793674608319e-01 5.123623147825261412e+02
1.936426013723019091e-01 5.123655559326998628e+02
1.937426233771429862e-01 5.123688000799274960e+02
1.938426453819840078e-01 5.123720471504344687e+02
1.939426673868250850e-01 5.123752970706018459e+02
1.940426893916661344e-01 5.123785497669651932e+02
1.941427113965072115e-01 5.123818051662142352e+02
1.942427334013482887e-01 5.123850631951967216e+02
1.943427554061893658e-01 5.123883237809151296e+02
1.944427774110304430e-01 5.123915868505301887e+02
1.945427994158714646e-01 5.123948523313604255e+02
1.946428214207125418e-01 5.123981201508823915e+02
1.947428434255535912e-01 5.124013902367312312e+02
1.948428654303946683e-01 5.124046625167009097e+02
1.949428874352357455e-01 5.124079369187461452e+02
1.950429094400768226e-01 5.124112133709813861e+02
1.951429314449178443e-01 5.124144918016820611e+02
1.952429534497589214e-01 5.124177721392835565e+02
1.953429754545999986e-01 5.124210543123850812e+02
1.954429974594410480e-01 5.124243382497460289e+02
1.955430194642821251e-01 5.124276238802881380e+02
1.956430414691232023e-01 5.124309111330974247e+02
1.957430634739642794e-01 5.124341999374222496e+02
1.958430854788053010e-01 5.124374902226744553e+02
1.959431074836463782e-01 5.124407819184298205e+02
1.960431294884874553e-01 5.124440749544291975e+02
1.961431514933285047e-01 5.124473692605765791e+02
1.962431734981695819e-01 5.124506647669427366e+02
1.963431955030106590e-01 5.124539614037628326e+02
1.964432175078517362e-01 5.124572591014368754e+02
1.965432395126927578e-01 5.124605577905326754e+02
1.966432615175338350e-01 5.124638574017819792e+02
1.967432835223749121e-01 5.124671578660845626e+02
1.968433055272159615e-01 5.124704591145067525e+02
1.969433275320570387e-01 5.124737610782794945e+02
1.970433495368981158e-01 5.124770636888054014e+02
1.971433715417391930e-01 5.124803668776499990e+02
1.972433935465802146e-01 5.124836705765483202e+02
1.973434155514212918e-01 5.124869747174030863e+02
1.974434375562623689e-01 5.124902792322852747e+02
1.975434595611034183e-01 5.124935840534328690e+02
1.976434815659444955e-01 5.124968891132524504e+02
1.977435035707855726e-01 5.125001943443202208e+02
1.978435255756266220e-01 5.125034996793788196e+02
1.979435475804676714e-01 5.125068050513409617e+02
1.980435695853087485e-01 5.125101103932886417e+02
1.981435915901498257e-01 5.125134156384701782e+02
1.982436135949908751e-01 5.125167207203055568e+02
1.983436355998319522e-01 5.125200255723829059e+02
1.984436576046730294e-01 5.125233301284587242e+02
1.985436796095140788e-01 5.125266343224579941e+02
1.986437016143551282e-01 5.125299380884772518e+02
1.987437236191962053e-01 5.125332413607809485e+02
1.988437456240372825e-01 5.125365440738015650e+02
1.989437676288783319e-01 5.125398461621431352e+02
1.990437896337194090e-01 5.125431475605766991e+02
1.991438116385604862e-01 5.125464482040434859e+02
1.992438336434015356e-01 5.125497480276548004e+02
1.993438556482425850e-01 5.125530469666887257e+02
1.994438776530836621e-01 5.125563449565942165e+02
1.995438996579247393e-01 5.125596419329890523e+02
1.996439216627657887e-01 5.125629378316594966e+02
1.997439436676068658e-01 5.125662325885608652e+02
1.998439656724479152e-01 5.125695261398167304e+02
1.999439876772889924e-01 5.125728184217206262e+02
2.000440096821300417e-01 5.125761093707336613e+02
2.001440316869711189e-01 5.125793989234849732e+02
2.002440536918121960e-01 5.125826870167727520e+02
2.003440756966532454e-01 5.125859735875631031e+02
2.004440977014943226e-01 5.125892585729901612e+02
2.005441197063353720e-01 5.125925419103562035e+02
2.006441417111764491e-01 5.125958235371303999e+02
2.007441637160174985e-01 5.125991033909497219e+02
2.008441857208585757e-01 5.126023814096190563e+02
2.009442077256996528e-01 5.126056575311095003e+02
2.010442297305407022e-01 5.126089316935588158e+02
2.011442517353817794e-01 5.126122038352726804e+02
2.012442737402228288e-01 5.126154738947224132e+02
2.013442957450639059e-01 5.126187418105447478e+02
2.014443177499049553e-01 5.126220075215437646e+02
2.015443397547460325e-01 5.126252709666881628e+02
2.016443617595871096e-01 5.126285320851123970e+02
2.017443837644281590e-01 5.126317908161156538e+02
2.018444057692692084e-01 5.126350470991624206e+02
2.019444277741102856e-01 5.126383008738820308e+02
2.020444497789513627e-01 5.126415520800661625e+02
2.021444717837924121e-01 5.126448006576728176e+02
2.022444937886334893e-01 5.126480465468222292e+02
2.023445157934745664e-01 5.126512896877976573e+02
2.024445377983156158e-01 5.126545300210456162e+02
2.025445598031566652e-01 5.126577674871757608e+02
2.026445818079977423e-01 5.126610020269587267e+02
2.027446038128388195e-01 5.126642335813273803e+02
2.028446258176798689e-01 5.126674620913765921e+02
2.029446478225209460e-01 5.126706874983606212e+02
2.030446698273620232e-01 5.126739097436970951e+02
2.031446918322030726e-01 5.126771287689614383e+02
2.032447138370441220e-01 5.126803445158902832e+02
2.033447358418851991e-01 5.126835569263782872e+02
2.034447578467262763e-01 5.126867659424801786e+02
2.035447798515673257e-01 5.126899715064099610e+02
2.036448018564084028e-01 5.126931735605373888e+02
2.037448238612494800e-01 5.126963720473919466e+02
2.038448458660905016e-01 5.126995669096592110e+02
2.039448678709315788e-01 5.127027580901824422e+02
2.040448898757726559e-01 5.127059455319597419e+02
2.041449118806137331e-01 5.127091291781466680e+02
2.042449338854547825e-01 5.127123089720520284e+02
2.043449558902958596e-01 5.127154848571415187e+02
2.044449778951369368e-01 5.127186567770332886e+02
2.045449998999779584e-01 5.127218246755013524e+02
2.046450219048190355e-01 5.127249884964708144e+02
2.047450439096601127e-01 5.127281481840200286e+02
2.048450659145011898e-01 5.127313036823812809e+02
2.049450879193422392e-01 5.127344549359361281e+02
2.050451099241833164e-01 5.127376018892184675e+02
2.051451319290243935e-01 5.127407444869130586e+02
2.052451539338654152e-01 5.127438826738539319e+02
2.053451759387064923e-01 5.127470163950239339e+02
2.054451979435475695e-01 5.127501455955567735e+02
2.055452199483886466e-01 5.127532702207337252e+02
2.056452419532296960e-01 5.127563902159823783e+02
2.057452639580707732e-01 5.127595055268790247e+02
2.058452859629118503e-01 5.127626160991459301e+02
2.059453079677528720e-01 5.127657218786512203e+02
2.060453299725939491e-01 5.127688228114080857e+02
2.061453519774350263e-01 5.127719188435754631e+02
2.062453739822761034e-01 5.127750099214550801e+02
2.063453959871171528e-01 5.127780959914933874e+02
2.064454179919582300e-01 5.127811770002788307e+02
2.065454399967992516e-01 5.127842528945418508e+02
2.066454620016403287e-01 5.127873236211556787e+02
2.067454840064814059e-01 5.127903891271330394e+02
2.068455060113224830e-01 5.127934493596278571e+02
2.069455280161635602e-01 5.127965042659332084e+02
2.070455500210046096e-01 5.127995537934818913e+02
2.071455720258456867e-01 5.128025978898440371e+02
2.072455940306867084e-01 5.128056365027274524e+02
2.073456160355277855e-01 5.128086695799779591e+02
2.074456380403688627e-01 5.128116970695768941e+02
2.075456600452099398e-01 5.128147189196405407e+02
2.076456820500510170e-01 5.128177350784213786e+02
2.077457040548920664e-01 5.128207454943058110e+02
2.078457260597331435e-01 5.128237501158123450e+02
2.079457480645741652e-01 5.128267488915953436e+02
2.080457700694152423e-01 5.128297417704371810e+02
2.081457920742563195e-01 5.128327287012548368e+02
2.082458140790973966e-01 5.128357096330954619e+02
2.083458360839384738e-01 5.128386845151350144e+02
2.084458580887795232e-01 5.128416532966796240e+02
2.085458800936205725e-01 5.128446159271638862e+02
2.086459020984616219e-01 5.128475723561500672e+02
2.087459241033026991e-01 5.128505225333268527e+02
2.088459461081437762e-01 5.128534664085108261e+02
2.089459681129848534e-01 5.128564039316426033e+02
2.090459901178259305e-01 5.128593350527889925e+02
2.091460121226669799e-01 5.128622597221399246e+02
2.092460341275080293e-01 5.128651778900090221e+02
2.093460561323490787e-01 5.128680895068330301e+02
2.094460781371901559e-01 5.128709945231694292e+02
2.095461001420312330e-01 5.128738928896983680e+02
2.096461221468723102e-01 5.128767845572197075e+02
2.097461441517133873e-01 5.128796694766518840e+02
2.098461661565544367e-01 5.128825475990336145e+02
2.099461881613954861e-01 5.128854188755216228e+02
2.100462101662365355e-01 5.128882832573890482e+02
2.101462321710776127e-01 5.128911406960261274e+02
2.102462541759186898e-01 5.128939911429392851e+02
2.103462761807597670e-01 5.128968345497492010e+02
2.104462981856008441e-01 5.128996708681916061e+02
2.105463201904418657e-01 5.129025000501144405e+02
2.106463421952829429e-01 5.129053220474803538e+02
2.107463642001239923e-01 5.129081368123621587e+02
2.108463862049650694e-01 5.129109442969439669e+02
2.109464082098061466e-01 5.129137444535217583e+02
2.110464302146472237e-01 5.129165372344992875e+02
2.111464522194883009e-01 5.129193225923900172e+02
2.112464742243293225e-01 5.129221004798157537e+02
2.113464962291703997e-01 5.129248708495043729e+02
2.114465182340114491e-01 5.129276336542917534e+02
2.115465402388525262e-01 5.129303888471181381e+02
2.116465622436936034e-01 5.129331363810287030e+02
2.117465842485346805e-01 5.129358762091735571e+02
2.118466062533757577e-01 5.129386082848058095e+02
2.119466282582167793e-01 5.129413325612806602e+02
2.120466502630578565e-01 5.129440489920556274e+02
2.121466722678989059e-01 5.129467575306887284e+02
2.122466942727399830e-01 5.129494581308383658e+02
2.123467162775810602e-01 5.129521507462619638e+02
2.124467382824221373e-01 5.129548353308158539e+02
2.125467602872631590e-01 5.129575118384544794e+02
2.126467822921042361e-01 5.129601802232282353e+02
2.127468042969453133e-01 5.129628404392846051e+02
2.128468263017863626e-01 5.129654924408662282e+02
2.129468483066274398e-01 5.129681361823107864e+02
2.130468703114685169e-01 5.129707716180490706e+02
2.131468923163095941e-01 5.129733987026054365e+02
2.132469143211506157e-01 5.129760173905955298e+02
2.133469363259916929e-01 5.129786276367289020e+02
2.134469583308327700e-01 5.129812293958033251e+02
2.135469803356738194e-01 5.129838226227069526e+02
2.136470023405148966e-01 5.129864072724180915e+02
2.137470243453559737e-01 5.129889833000030421e+02
2.138470463501970509e-01 5.129915506606158715e+02
2.139470683550380725e-01 5.129941093094962525e+02
2.140470903598791497e-01 5.129966592019716245e+02
2.141471123647202268e-01 5.129992002934532138e+02
2.142471343695612762e-01 5.130017325394373984e+02
2.143471563744023534e-01 5.130042558955046843e+02
2.144471783792434305e-01 5.130067703173184555e+02
2.145472003840845077e-01 5.130092757606232681e+02
2.146472223889255293e-01 5.130117721812459877e+02
2.147472443937666065e-01 5.130142595350946522e+02
2.148472663986076836e-01 5.130167377781556297e+02
2.149472884034487330e-01 5.130192068664961198e+02
2.150473104082898101e-01 5.130216667562604016e+02
2.151473324131308873e-01 5.130241174036717666e+02
2.152473544179719367e-01 5.130265587650292218e+02
2.153473764228129861e-01 5.130289907967085128e+02
2.154473984276540632e-01 5.130314134551603047e+02
2.155474204324951404e-01 5.130338266969110919e+02
2.156474424373361898e-01 5.130362304785597871e+02
2.157474644421772669e-01 5.130386247567794271e+02
2.158474864470183441e-01 5.130410094883156944e+02
2.159475084518593935e-01 5.130433846299853258e+02
2.160475304567004429e-01 5.130457501386767944e+02
2.161475524615415200e-01 5.130481059713488321e+02
2.162475744663825972e-01 5.130504520850287236e+02
2.163475964712236466e-01 5.130527884368135574e+02
2.164476184760647237e-01 5.130551149838689753e+02
2.165476404809058009e-01 5.130574316834270121e+02
2.166476624857468503e-01 5.130597384927872326e+02
2.167476844905878997e-01 5.130620353693152538e+02
2.168477064954289768e-01 5.130643222704413802e+02
2.169477285002700540e-01 5.130665991536614001e+02
2.170477505051111033e-01 5.130688659765344255e+02
2.171477725099521805e-01 5.130711226966834602e+02
2.172477945147932299e-01 5.130733692717941494e+02
2.173478165196343070e-01 5.130756056596133021e+02
2.174478385244753564e-01 5.130778318179501412e+02
2.175478605293164336e-01 5.130800477046739161e+02
2.176478825341575107e-01 5.130822532777140168e+02
2.177479045389985601e-01 5.130844484950581545e+02
2.178479265438396373e-01 5.130866333147547493e+02
2.179479485486806867e-01 5.130888076949088372e+02
2.180479705535217638e-01 5.130909715936832072e+02
2.181479925583628132e-01 5.130931249692971505e+02
2.182480145632038904e-01 5.130952677800269157e+02
2.183480365680449675e-01 5.130973999842028661e+02
2.184480585728860169e-01 5.130995215402116401e+02
2.185480805777270941e-01 5.131016324064931950e+02
2.186481025825681435e-01 5.131037325415419446e+02
2.187481245874092206e-01 5.131058219039051664e+02
2.188481465922502700e-01 5.131079004521820934e+02
2.189481685970913472e-01 5.131099681450245953e+02
2.190481906019324243e-01 5.131120249411350187e+02
2.191482126067734737e-01 5.131140707992676653e+02
2.192482346116145231e-01 5.131161056782257219e+02
2.193482566164556002e-01 5.131181295368626252e+02
2.194482786212966774e-01 5.131201423340811516e+02
2.195483006261377268e-01 5.131221440288318263e+02
2.196483226309788039e-01 5.131241345801134912e+02
2.197483446358198811e-01 5.131261139469727368e+02
2.198483666406609305e-01 5.131280820885023104e+02
2.199483886455019799e-01 5.131300389638422530e+02
2.200484106503430570e-01 5.131319845321772846e+02
2.201484326551841342e-01 5.131339187527383956e+02
2.202484546600251836e-01 5.131358415848009145e+02
2.203484766648662607e-01 5.131377529876849621e+02
2.204484986697073379e-01 5.131396529207535195e+02
2.205485206745483873e-01 5.131415413434133370e+02
2.206485426793894367e-01 5.131434182151155028e+02
2.207485646842305138e-01 5.131452834953506681e+02
2.208485866890715910e-01 5.131471371436537083e+02
2.209486086939126404e-01 5.131489791196004262e+02
2.210486306987537175e-01 5.131508093828066421e+02
2.211486527035947947e-01 5.131526278929301270e+02
2.212486747084358163e-01 5.131544346096678737e+02
2.213486967132768934e-01 5.131562294927563244e+02
2.214487187181179706e-01 5.131580125019730758e+02
2.215487407229590477e-01 5.131597835971316499e+02
2.216487627278000971e-01 5.131615427380877463e+02
2.217487847326411743e-01 5.131632898847311708e+02
2.218488067374822514e-01 5.131650249969923152e+02
2.219488287423232731e-01 5.131667480348374966e+02
2.220488507471643502e-01 5.131684589582707758e+02
2.221488727520054274e-01 5.131701577273323664e+02
2.222488947568465045e-01 5.131718443020984068e+02
2.223489167616875539e-01 5.131735186426815289e+02
2.224489387665286311e-01 5.131751807092297213e+02
2.225489607713697082e-01 5.131768304619258743e+02
2.226489827762107299e-01 5.131784678609884622e+02
2.227490047810518070e-01 5.131800928666693835e+02
2.228490267858928842e-01 5.131817054392557793e+02
2.229490487907339613e-01 5.131833055390681011e+02
2.230490707955750107e-01 5.131848931264614748e+02
2.231490928004160879e-01 5.131864681618237682e+02
2.232491148052571650e-01 5.131880306055753636e+02
2.233491368100981866e-01 5.131895804181706353e+02
2.234491588149392638e-01 5.131911175600959041e+02
2.235491808197803409e-01 5.131926419918702322e+02
2.236492028246214181e-01 5.131941536740444008e+02
2.237492248294624675e-01 5.131956525672012503e+02
2.238492468343035446e-01 5.131971386319559087e+02
2.239492688391445663e-01 5.131986118289543128e+02
2.240492908439856434e-01 5.132000721188734360e+02
2.241493128488267206e-01 5.132015194624221976e+02
2.242493348536677977e-01 5.132029538203397578e+02
2.243493568585088749e-01 5.132043751533969953e+02
2.244493788633499243e-01 5.132057834223940063e+02
2.245494008681910014e-01 5.132071785881620372e+02
2.246494228730320231e-01 5.132085606115625751e+02
2.247494448778731002e-01 5.132099294534873479e+02
2.248494668827141774e-01 5.132112850748587789e+02
2.249494888875552545e-01 5.132126274366273719e+02
2.250495108923963317e-01 5.132139564997755770e+02
2.251495328972373811e-01 5.132152722253139245e+02
2.252495549020784582e-01 5.132165745742836407e+02
2.253495769069194798e-01 5.132178635077551689e+02
2.254495989117605570e-01 5.132191389868282840e+02
2.255496209166016341e-01 5.132204009726325467e+02
2.256496429214427113e-01 5.132216494263265076e+02
2.257496649262837884e-01 5.132228843090987311e+02
2.258496869311248378e-01 5.132241055821667715e+02
2.259497089359658872e-01 5.132253132067771730e+02
2.260497309408069366e-01 5.132265071442068347e+02
2.261497529456480138e-01 5.132276873557610770e+02
2.262497749504890909e-01 5.132288538027747791e+02
2.263497969553301681e-01 5.132300064466124923e+02
2.264498189601712452e-01 5.132311452486674170e+02
2.265498409650122946e-01 5.132322701703634493e+02
2.266498629698533440e-01 5.132333811731534752e+02
2.267498849746943934e-01 5.132344782185194845e+02
2.268499069795354706e-01 5.132355612679743899e+02
2.269499289843765477e-01 5.132366302830591849e+02
2.270499509892176249e-01 5.132376852253456718e+02
2.271499729940587020e-01 5.132387260564365761e+02
2.272499949988997514e-01 5.132397527379628173e+02
2.273500170037408008e-01 5.132407652315868063e+02
2.274500390085818502e-01 5.132417634990014221e+02
2.275500610134229273e-01 5.132427475019294434e+02
2.276500830182640045e-01 5.132437172021247989e+02
2.277501050231050816e-01 5.132446725613713170e+02
2.278501270279461588e-01 5.132456135414861365e+02
2.279501490327871804e-01 5.132465401043156135e+02
2.280501710376282576e-01 5.132474522117379365e+02
2.281501930424693070e-01 5.132483498256633538e+02
2.282502150473103841e-01 5.132492329080337186e+02
2.283502370521514613e-01 5.132501014208246488e+02
2.284502590569925384e-01 5.132509553260412076e+02
2.285502810618336156e-01 5.132517945857234736e+02
2.286503030666746372e-01 5.132526191619442670e+02
2.287503250715157144e-01 5.132534290168080133e+02
2.288503470763567638e-01 5.132542241124548354e+02
2.289503690811978409e-01 5.132550044110568024e+02
2.290503910860389181e-01 5.132557698748216808e+02
2.291504130908799952e-01 5.132565204659907749e+02
2.292504350957210724e-01 5.132572561468410868e+02
2.293504571005620940e-01 5.132579768796836106e+02
2.294504791054031712e-01 5.132586826268658342e+02
2.295505011102442205e-01 5.132593733507704883e+02
2.296505231150852977e-01 5.132600490138177065e+02
2.297505451199263748e-01 5.132607095784628655e+02
2.298505671247674520e-01 5.132613550071998816e+02
2.299505891296084736e-01 5.132619852625593921e+02
2.300506111344495508e-01 5.132626003071097784e+02
2.301506331392906279e-01 5.132632001034586438e+02
2.302506551441316773e-01 5.132637846142522449e+02
2.303506771489727545e-01 5.132643538021756058e+02
2.304506991538138316e-01 5.132649076299537683e+02
2.305507211586549088e-01 5.132654460603524740e+02
2.306507431634959304e-01 5.132659690561780508e+02
2.307507651683370076e-01 5.132664765802777538e+02
2.308507871731780847e-01 5.132669685955415844e+02
2.309508091780191341e-01 5.132674450649008122e+02
2.310508311828602113e-01 5.132679059513302491e+02
2.311508531877012884e-01 5.132683512178481351e+02
2.312508751925423656e-01 5.132687808275168209e+02
2.313508971973833872e-01 5.132691947434425401e+02
2.314509192022244644e-01 5.132695929287781382e+02
2.315509412070655415e-01 5.132699753467206847e+02
2.316509632119065909e-01 5.132703419605145427e+02
2.317509852167476680e-01 5.132706927334515967e+02
2.318510072215887452e-01 5.132710276288701152e+02
2.319510292264298223e-01 5.132713466101581616e+02
2.320510512312708440e-01 5.132716496407506384e+02
2.321510732361119211e-01 5.132719366841351984e+02
2.322510952409529983e-01 5.132722077038470161e+02
2.323511172457940477e-01 5.132724626634734477e+02
2.324511392506351248e-01 5.132727015266536910e+02
2.325511612554762020e-01 5.132729242570796941e+02
2.326511832603172514e-01 5.132731308184957015e+02
2.327512052651583008e-01 5.132733211747006408e+02
2.328512272699993779e-01 5.132734952895480092e+02
2.329512492748404551e-01 5.132736531269457601e+02
2.330512712796815045e-01 5.132737946508593723e+02
2.331512932845225816e-01 5.132739198253113955e+02
2.332513152893636588e-01 5.132740286143808817e+02
2.333513372942047082e-01 5.132741209822065684e+02
2.334513592990457576e-01 5.132741968929858558e+02
2.335513813038868347e-01 5.132742563109777620e+02
2.336514033087279119e-01 5.132742992005006499e+02
2.337514253135689613e-01 5.132743255259356374e+02
2.338514473184100384e-01 5.132743352517276207e+02
2.339514693232511156e-01 5.132743283423834555e+02
2.340514913280921649e-01 5.132743047624755945e+02
2.341515133329332143e-01 5.132742644766418607e+02
2.342515353377742915e-01 5.132742074495868110e+02
2.343515573426153686e-01 5.132741336460815091e+02
2.344515793474564180e-01 5.132740430309652311e+02
2.345516013522974952e-01 5.132739355691478522e+02
2.346516233571385446e-01 5.132738112256083696e+02
2.347516453619796217e-01 5.132736699653966070e+02
2.348516673668206711e-01 5.132735117536349208e+02
2.349516893716617483e-01 5.132733365555188811e+02
2.350517113765028254e-01 5.132731443363178414e+02
2.351517333813438748e-01 5.132729350613767565e+02
2.352517553861849520e-01 5.132727086961159557e+02
2.353517773910260014e-01 5.132724652060335302e+02
2.354517993958670785e-01 5.132722045567055602e+02
2.355518214007081279e-01 5.132719267137873658e+02
2.356518434055492051e-01 5.132716316430146435e+02
2.357518654103902822e-01 5.132713193102050582e+02
2.358518874152313316e-01 5.132709896812572197e+02
2.359519094200724088e-01 5.132706427221551166e+02
2.360519314249134581e-01 5.132702783989662976e+02
2.361519534297545353e-01 5.132698966778444856e+02
2.362519754345955847e-01 5.132694975250300331e+02
2.363519974394366618e-01 5.132690809068528779e+02
2.364520194442777390e-01 5.132686467897297007e+02
2.365520414491187884e-01 5.132681951401696097e+02
2.366520634539598378e-01 5.132677259247726624e+02
2.367520854588009149e-01 5.132672391102317988e+02
2.368521074636419921e-01 5.132667346633334091e+02
2.369521294684830415e-01 5.132662125509600628e+02
2.370521514733241186e-01 5.132656727400900536e+02
2.371521734781651958e-01 5.132651151977988775e+02
2.372521954830062452e-01 5.132645398912620749e+02
2.373522174878472946e-01 5.132639467877543211e+02
2.374522394926883717e-01 5.132633358546524960e+02
2.375522614975294489e-01 5.132627070594350016e+02
2.376522835023704983e-01 5.132620603696852868e+02
2.377523055072115754e-01 5.132613957530918469e+02
2.378523275120526526e-01 5.132607131774486788e+02
2.379523495168937020e-01 5.132600126106588050e+02
2.380523715217347513e-01 5.132592940207342735e+02
2.381523935265758285e-01 5.132585573757967268e+02
2.382524155314169056e-01 5.132578026440803569e+02
2.383524375362579550e-01 5.132570297939325883e+02
2.384524595410990322e-01 5.132562387938156689e+02
2.385524815459401093e-01 5.132554296123063295e+02
2.386525035507811310e-01 5.132546022180998762e+02
2.387525255556222081e-01 5.132537565800103039e+02
2.388525475604632853e-01 5.132528926669713201e+02
2.389525695653043624e-01 5.132520104480379359e+02
2.390525915701454118e-01 5.132511098923885129e+02
2.391526135749864890e-01 5.132501909693252173e+02
2.392526355798275661e-01 5.132492536482766354e+02
2.393526575846685878e-01 5.132482978987985689e+02
2.394526795895096649e-01 5.132473236905752856e+02
2.395527015943507421e-01 5.132463309934208837e+02
2.396527235991918192e-01 5.132453197772811109e+02
2.397527456040328686e-01 5.132442900122359788e+02
2.398527676088739458e-01 5.132432416684986265e+02
2.399527896137150229e-01 5.132421747164191856e+02
