0.000000000000000000e+00 5.157285435771004813e+02
1.000220048410650341e-04 5.157296489789548559e+02
2.000440096821300682e-04 5.157307322250871948e+02
3.000660145231950752e-04 5.157317932591154204e+02
4.000880193642601364e-04 5.157328320252661342e+02
5.001100242053251434e-04 5.157338484683762090e+02
6.001320290463901504e-04 5.157348425338939251e+02
7.001540338874551574e-04 5.157358141678805623e+02
8.001760387285202728e-04 5.157367633170114232e+02
9.001980435695852798e-04 5.157376899285786749e+02
1.000220048410650287e-03 5.157385939504908947e+02
1.100242053251715294e-03 5.157394753312754574e+02
1.200264058092780301e-03 5.157403340200797857e+02
1.300286062933845308e-03 5.157411699666728282e+02
1.400308067774910315e-03 5.157419831214459691e+02
1.500330072615975322e-03 5.157427734354145059e+02
1.600352077457040546e-03 5.157435408602199232e+02
1.700374082298105553e-03 5.157442853481284146e+02
1.800396087139170560e-03 5.157450068520353170e+02
1.900418091980235567e-03 5.157457053254656785e+02
2.000440096821300574e-03 5.157463807225726669e+02
2.100462101662365581e-03 5.157470329981422310e+02
2.200484106503430588e-03 5.157476621075935554e+02
2.300506111344495595e-03 5.157482680069783783e+02
2.400528116185560602e-03 5.157488506529841743e+02
2.500550121026625609e-03 5.157494100029340416e+02
2.600572125867690616e-03 5.157499460147882928e+02
2.700594130708756056e-03 5.157504586471460470e+02
2.800616135549820630e-03 5.157509478592454570e+02
2.900638140390886070e-03 5.157514136109647325e+02
3.000660145231950644e-03 5.157518558628237315e+02
3.100682150073016084e-03 5.157522745759847567e+02
3.200704154914081091e-03 5.157526697122539190e+02
3.300726159755145665e-03 5.157530412340812518e+02
3.400748164596211105e-03 5.157533891045621885e+02
3.500770169437275679e-03 5.157537132874388135e+02
3.600792174278341119e-03 5.157540137471004300e+02
3.700814179119406126e-03 5.157542904485837880e+02
3.800836183960471133e-03 5.157545433575751304e+02
3.900858188801536140e-03 5.157547724404115570e+02
4.000880193642601147e-03 5.157549776640790924e+02
4.100902198483666154e-03 5.157551589962166645e+02
4.200924203324731161e-03 5.157553164051145131e+02
4.300946208165796168e-03 5.157554498597173733e+02
4.400968213006861175e-03 5.157555593296225425e+02
4.500990217847926182e-03 5.157556447850831773e+02
4.601012222688991189e-03 5.157557061970067025e+02
4.701034227530056196e-03 5.157557435369571976e+02
4.801056232371121203e-03 5.157557567771563072e+02
4.901078237212187078e-03 5.157557458904817622e+02
5.001100242053251217e-03 5.157557108504699954e+02
5.101122246894316224e-03 5.157556516313175052e+02
5.201144251735381231e-03 5.157555682078780137e+02
5.301166256576447106e-03 5.157554605556659908e+02
5.401188261417512113e-03 5.157553286508575638e+02
5.501210266258576252e-03 5.157551724702886986e+02
5.601232271099641259e-03 5.157549919914577004e+02
5.701254275940706266e-03 5.157547871925247591e+02
5.801276280781772141e-03 5.157545580523133140e+02
5.901298285622837148e-03 5.157543045503083476e+02
6.001320290463901287e-03 5.157540266666608204e+02
6.101342295304966294e-03 5.157537243821848278e+02
6.201364300146032169e-03 5.157533976783574872e+02
6.301386304987097176e-03 5.157530465373237121e+02
6.401408309828162183e-03 5.157526709418910968e+02
6.501430314669226322e-03 5.157522708755344638e+02
6.601452319510291329e-03 5.157518463223943854e+02
6.701474324351357204e-03 5.157513972672767295e+02
6.801496329192422211e-03 5.157509236956559562e+02
6.901518334033487218e-03 5.157504255936714799e+02
7.001540338874551357e-03 5.157499029481311936e+02
7.101562343715617232e-03 5.157493557465103322e+02
7.201584348556682239e-03 5.157487839769515858e+02
7.301606353397747246e-03 5.157481876282653275e+02
7.401628358238812253e-03 5.157475666899306361e+02
7.501650363079876392e-03 5.157469211520943873e+02
7.601672367920942266e-03 5.157462510055717075e+02
7.701694372762007273e-03 5.157455562418476802e+02
7.801716377603072280e-03 5.157448368530740481e+02
7.901738382444137287e-03 5.157440928320731928e+02
8.001760387285202294e-03 5.157433241723348374e+02
8.101782392126267301e-03 5.157425308680186617e+02
8.201804396967332308e-03 5.157417129139525969e+02
8.301826401808397315e-03 5.157408703056344166e+02
8.401848406649462322e-03 5.157400030392302597e+02
8.501870411490527329e-03 5.157391111115756530e+02
8.601892416331592336e-03 5.157381945201736926e+02
8.701914421172657343e-03 5.157372532631987951e+02
8.801936426013722350e-03 5.157362873394915823e+02
8.901958430854787357e-03 5.157352967485634281e+02
9.001980435695852364e-03 5.157342814905929345e+02
9.102002440536917371e-03 5.157332415664276368e+02
9.202024445377982378e-03 5.157321769775837765e+02
9.302046450219047385e-03 5.157310877262444819e+02
9.402068455060112392e-03 5.157299738152623831e+02
9.502090459901177399e-03 5.157288352481568836e+02
9.602112464742242406e-03 5.157276720291143874e+02
9.702134469583307413e-03 5.157264841629897774e+02
9.802156474424374155e-03 5.157252716553043683e+02
9.902178479265437427e-03 5.157240345122453391e+02
1.000220048410650243e-02 5.157227727406673239e+02
1.010222248894756918e-02 5.157214863480904796e+02
1.020224449378863245e-02 5.157201753427009407e+02
1.030226649862969746e-02 5.157188397333495686e+02
1.040228850347076246e-02 5.157174795295526337e+02
1.050231050831182747e-02 5.157160947414913608e+02
1.060233251315289421e-02 5.157146853800096551e+02
1.070235451799395748e-02 5.157132514566164900e+02
1.080237652283502423e-02 5.157117929834831784e+02
1.090239852767608750e-02 5.157103099734446232e+02
1.100242053251715250e-02 5.157088024399968162e+02
1.110244253735821925e-02 5.157072703972984300e+02
1.120246454219928252e-02 5.157057138601685438e+02
1.130248654704034753e-02 5.157041328440868710e+02
1.140250855188141253e-02 5.157025273651944417e+02
1.150253055672247754e-02 5.157008974402897366e+02
1.160255256156354428e-02 5.156992430868315296e+02
1.170257456640460755e-02 5.156975643229355910e+02
1.180259657124567430e-02 5.156958611673769610e+02
1.190261857608673930e-02 5.156941336395857434e+02
1.200264058092780257e-02 5.156923817596490380e+02
1.210266258576886932e-02 5.156906055483095770e+02
1.220268459060993259e-02 5.156888050269635642e+02
1.230270659545099760e-02 5.156869802176627218e+02
1.240272860029206434e-02 5.156851311431120166e+02
1.250275060513312761e-02 5.156832578266672726e+02
1.260277260997419435e-02 5.156813602923371036e+02
1.270279461481525762e-02 5.156794385647813215e+02
1.280281661965632437e-02 5.156774926693085490e+02
1.290283862449738937e-02 5.156755226318771292e+02
1.300286062933845264e-02 5.156735284790939886e+02
1.310288263417951939e-02 5.156715102382120222e+02
1.320290463902058266e-02 5.156694679371323673e+02
1.330292664386164767e-02 5.156674016044004247e+02
1.340294864870271441e-02 5.156653112692069953e+02
1.350297065354377768e-02 5.156631969613850970e+02
1.360299265838484442e-02 5.156610587114114423e+02
1.370301466322590769e-02 5.156588965504045063e+02
1.380303666806697444e-02 5.156567105101225934e+02
1.390305867290803944e-02 5.156545006229630417e+02
1.400308067774910271e-02 5.156522669219634736e+02
1.410310268259016946e-02 5.156500094407965662e+02
1.420312468743123446e-02 5.156477282137732345e+02
1.430314669227229774e-02 5.156454232758385388e+02
1.440316869711336448e-02 5.156430946625714569e+02
1.450319070195442775e-02 5.156407424101844299e+02
1.460321270679549449e-02 5.156383665555213156e+02
1.470323471163655950e-02 5.156359671360556831e+02
1.480325671647762451e-02 5.156335441898918361e+02
1.490327872131868951e-02 5.156310977557609476e+02
1.500330072615975278e-02 5.156286278730220829e+02
1.510332273100081953e-02 5.156261345816582207e+02
1.520334473584188453e-02 5.156236179222785267e+02
1.530336674068294781e-02 5.156210779361139203e+02
1.540338874552401455e-02 5.156185146650169600e+02
1.550341075036507782e-02 5.156159281514619579e+02
1.560343275520614456e-02 5.156133184385400909e+02
1.570345476004721130e-02 5.156106855699619018e+02
1.580347676488827457e-02 5.156080295900530928e+02
1.590349876972933785e-02 5.156053505437548665e+02
1.600352077457040459e-02 5.156026484766214253e+02
1.610354277941146786e-02 5.155999234348198570e+02
1.620356478425253460e-02 5.155971754651259289e+02
1.630358678909359788e-02 5.155944046149259066e+02
1.640360879393466462e-02 5.155916109322131433e+02
1.650363079877573136e-02 5.155887944655875117e+02
1.660365280361679463e-02 5.155859552642535846e+02
1.670367480845786137e-02 5.155830933780168834e+02
1.680369681329892464e-02 5.155802088572874027e+02
1.690371881813999139e-02 5.155773017530724474e+02
1.700374082298105466e-02 5.155743721169790206e+02
1.710376282782211793e-02 5.155714200012100719e+02
1.720378483266318467e-02 5.155684454585644971e+02
1.730380683750424795e-02 5.155654485424332734e+02
1.740382884234531469e-02 5.155624293068000270e+02
1.750385084718638143e-02 5.155593878062385329e+02
1.760387285202744470e-02 5.155563240959099858e+02
1.770389485686851144e-02 5.155532382315630002e+02
1.780391686170957471e-02 5.155501302695308823e+02
1.790393886655063799e-02 5.155470002667301515e+02
1.800396087139170473e-02 5.155438482806591765e+02
1.810398287623276800e-02 5.155406743693945373e+02
1.820400488107383474e-02 5.155374785915926168e+02
1.830402688591490148e-02 5.155342610064842575e+02
1.840404889075596476e-02 5.155310216738754434e+02
1.850407089559703150e-02 5.155277606541438900e+02
1.860409290043809477e-02 5.155244780082384750e+02
1.870411490527916151e-02 5.155211737976761697e+02
1.880413691012022478e-02 5.155178480845405602e+02
1.890415891496129153e-02 5.155145009314810522e+02
1.900418091980235480e-02 5.155111324017087782e+02
1.910420292464341807e-02 5.155077425589970517e+02
1.920422492948448481e-02 5.155043314676773889e+02
1.930424693432555155e-02 5.155008991926372346e+02
1.940426893916661483e-02 5.154974457993225769e+02
1.950429094400768157e-02 5.154939713537288526e+02
1.960431294884874831e-02 5.154904759224048121e+02
1.970433495368981158e-02 5.154869595724469491e+02
1.980435695853087485e-02 5.154834223714995005e+02
1.990437896337193813e-02 5.154798643877509221e+02
2.000440096821300487e-02 5.154762856899337748e+02
2.010442297305407161e-02 5.154726863473196090e+02
2.020444497789513835e-02 5.154690664297204421e+02
2.030446698273619816e-02 5.154654260074834156e+02
2.040448898757726490e-02 5.154617651514909085e+02
2.050451099241833164e-02 5.154580839331573543e+02
2.060453299725939491e-02 5.154543824244265124e+02
2.070455500210046165e-02 5.154506606977706724e+02
2.080457700694152492e-02 5.154469188261881527e+02
2.090459901178259167e-02 5.154431568832002313e+02
2.100462101662365494e-02 5.154393749428492129e+02
2.110464302146472168e-02 5.154355730796970647e+02
2.120466502630578842e-02 5.154317513688221197e+02
2.130468703114684823e-02 5.154279098858165753e+02
2.140470903598791497e-02 5.154240487067866070e+02
2.150473104082898171e-02 5.154201679083464569e+02
2.160475304567004845e-02 5.154162675676186609e+02
2.170477505051111172e-02 5.154123477622304108e+02
2.180479705535217499e-02 5.154084085703138953e+02
2.190481906019323827e-02 5.154044500704985694e+02
2.200484106503430501e-02 5.154004723419154743e+02
2.210486306987537175e-02 5.153964754641882564e+02
2.220488507471643849e-02 5.153924595174364640e+02
2.230490707955749830e-02 5.153884245822695220e+02
2.240492908439856504e-02 5.153843707397858225e+02
2.250495108923963178e-02 5.153802980715692001e+02
2.260497309408069505e-02 5.153762066596881368e+02
2.270499509892176179e-02 5.153720965866918959e+02
2.280501710376282506e-02 5.153679679356079077e+02
2.290503910860389181e-02 5.153638207899402914e+02
2.300506111344495508e-02 5.153596552336680361e+02
2.310508311828602182e-02 5.153554713512394301e+02
2.320510512312708856e-02 5.153512692275720610e+02
2.330512712796814837e-02 5.153470489480512242e+02
2.340514913280921511e-02 5.153428105985231014e+02
2.350517113765028185e-02 5.153385542652972617e+02
2.360519314249134859e-02 5.153342800351409778e+02
2.370521514733241186e-02 5.153299879952760421e+02
2.380523715217347860e-02 5.153256782333796764e+02
2.390525915701453841e-02 5.153213508375787342e+02
2.400528116185560515e-02 5.153170058964478812e+02
2.410530316669667189e-02 5.153126434990065263e+02
2.420532517153773863e-02 5.153082637347185937e+02
2.430534717637880537e-02 5.153038666934863841e+02
2.440536918121986518e-02 5.152994524656504609e+02
2.450539118606093192e-02 5.152950211419852167e+02
2.460541319090199519e-02 5.152905728136980770e+02
2.470543519574306193e-02 5.152861075724247257e+02
2.480545720058412867e-02 5.152816255102277410e+02
2.490547920542519195e-02 5.152771267195940936e+02
2.500550121026625522e-02 5.152726112934303728e+02
2.510552321510732196e-02 5.152680793250621036e+02
2.520554521994838870e-02 5.152635309082310187e+02
2.530556722478945197e-02 5.152589661370903968e+02
2.540558922963051525e-02 5.152543851062044951e+02
2.550561123447158199e-02 5.152497879105435459e+02
2.560563323931264873e-02 5.152451746454825070e+02
2.570565524415371200e-02 5.152405454067982191e+02
2.580567724899477874e-02 5.152359002906655405e+02
2.590569925383583855e-02 5.152312393936553008e+02
2.600572125867690529e-02 5.152265628127310038e+02
2.610574326351797203e-02 5.152218706452474635e+02
2.620576526835903877e-02 5.152171629889439828e+02
2.630578727320010551e-02 5.152124399419463998e+02
2.640580927804116532e-02 5.152077016027611762e+02
2.650583128288223206e-02 5.152029480702730098e+02
2.660585328772329533e-02 5.151981794437424469e+02
2.670587529256436207e-02 5.151933958228023585e+02
2.680589729740542881e-02 5.151885973074549838e+02
2.690591930224649209e-02 5.151837839980695435e+02
2.700594130708755536e-02 5.151789559953790558e+02
2.710596331192862210e-02 5.151741134004770402e+02
2.720598531676968884e-02 5.151692563148145609e+02
2.730600732161075211e-02 5.151643848401984087e+02
2.740602932645181539e-02 5.151594990787855295e+02
2.750605133129288213e-02 5.151545991330827974e+02
2.760607333613394887e-02 5.151496851059430355e+02
2.770609534097501214e-02 5.151447571005608097e+02
2.780611734581607888e-02 5.151398152204704957e+02
2.790613935065714563e-02 5.151348595695433232e+02
2.800616135549820543e-02 5.151298902519839658e+02
2.810618336033927217e-02 5.151249073723279253e+02
2.820620536518033891e-02 5.151199110354375534e+02
2.830622737002140565e-02 5.151149013465000053e+02
2.840624937486246893e-02 5.151098784110226916e+02
2.850627137970353220e-02 5.151048423348321421e+02
2.860629338454459547e-02 5.150997932240702539e+02
2.870631538938566221e-02 5.150947311851898576e+02
2.880633739422672895e-02 5.150896563249521023e+02
2.890635939906779570e-02 5.150845687504250918e+02
2.900638140390885550e-02 5.150794685689786547e+02
2.910640340874992224e-02 5.150743558882824118e+02
2.920642541359098898e-02 5.150692308163017969e+02
2.930644741843205225e-02 5.150640934612954425e+02
2.940646942327311900e-02 5.150589439318111999e+02
2.950649142811418227e-02 5.150537823366850034e+02
2.960651343295524901e-02 5.150486087850348440e+02
2.970653543779631228e-02 5.150434233862595192e+02
2.980655744263737902e-02 5.150382262500354500e+02
2.990657944747844577e-02 5.150330174863121329e+02
3.000660145231950557e-02 5.150277972053099802e+02
3.010662345716057231e-02 5.150225655175171369e+02
3.020664546200163905e-02 5.150173225336855012e+02
3.030666746684270579e-02 5.150120683648278828e+02
3.040668947168376907e-02 5.150068031222152740e+02
3.050671147652483234e-02 5.150015269173736669e+02
3.060673348136589561e-02 5.149962398620787098e+02
3.070675548620696235e-02 5.149909420683557073e+02
3.080677749104802909e-02 5.149856336484729127e+02
3.090679949588909584e-02 5.149803147149419829e+02
3.100682150073015564e-02 5.149749853805103612e+02
3.110684350557122238e-02 5.149696457581624145e+02
3.120686551041228912e-02 5.149642959611132937e+02
3.130688751525335239e-02 5.149589361028067742e+02
3.140690952009442261e-02 5.149535662969095711e+02
3.150693152493547894e-02 5.149481866573136131e+02
3.160695352977654915e-02 5.149427972981264929e+02
3.170697553461761242e-02 5.149373983336715810e+02
3.180699753945867569e-02 5.149319898784839324e+02
3.190701954429974591e-02 5.149265720473067631e+02
3.200704154914080918e-02 5.149211449550884936e+02
3.210706355398187245e-02 5.149157087169801343e+02
3.220708555882293572e-02 5.149102634483290331e+02
3.230710756366400593e-02 5.149048092646789883e+02
3.240712956850506921e-02 5.148993462817650197e+02
3.250715157334613248e-02 5.148938746155104127e+02
3.260717357818719575e-02 5.148883943820238756e+02
3.270719558302826596e-02 5.148829056975947651e+02
3.280721758786932923e-02 5.148774086786910402e+02
3.290723959271039251e-02 5.148719034419555101e+02
3.300726159755146272e-02 5.148663901042023099e+02
3.310728360239252599e-02 5.148608687824138315e+02
3.320730560723358926e-02 5.148553395937368578e+02
3.330732761207465253e-02 5.148498026554789249e+02
3.340734961691572275e-02 5.148442580851068442e+02
3.350737162175678602e-02 5.148387060002403359e+02
3.360739362659784929e-02 5.148331465186514606e+02
3.370741563143891256e-02 5.148275797582580253e+02
3.380743763627998277e-02 5.148220058371248342e+02
3.390745964112104605e-02 5.148164248734551620e+02
3.400748164596210932e-02 5.148108369855906403e+02
3.410750365080317259e-02 5.148052422920070512e+02
3.420752565564423586e-02 5.147996409113102345e+02
3.430754766048530607e-02 5.147940329622332456e+02
3.440756966532636935e-02 5.147884185636332859e+02
3.450759167016743956e-02 5.147827978344880648e+02
3.460761367500849589e-02 5.147771708938904567e+02
3.470763567984956610e-02 5.147715378610492962e+02
3.480765768469062937e-02 5.147658988552814208e+02
3.490767968953169265e-02 5.147602539960103059e+02
3.500770169437276286e-02 5.147546034027647011e+02
3.510772369921381919e-02 5.147489471951702171e+02
3.520774570405488940e-02 5.147432854929500081e+02
3.530776770889595267e-02 5.147376184159197692e+02
3.540778971373702289e-02 5.147319460839856902e+02
3.550781171857808616e-02 5.147262686171374071e+02
3.560783372341914943e-02 5.147205861354494800e+02
3.570785572826021270e-02 5.147148987590738898e+02
3.580787773310127597e-02 5.147092066082384463e+02
3.590789973794234619e-02 5.147035098032438327e+02
3.600792174278340946e-02 5.146978084644581486e+02
3.610794374762447273e-02 5.146921027123152044e+02
3.620796575246553600e-02 5.146863926673111109e+02
3.630798775730660621e-02 5.146806784499988225e+02
3.640800976214766949e-02 5.146749601809874548e+02
3.650803176698873276e-02 5.146692379809370550e+02
3.660805377182980297e-02 5.146635119705551915e+02
3.670807577667086624e-02 5.146577822705938843e+02
3.680809778151192951e-02 5.146520490018466489e+02
3.690811978635299279e-02 5.146463122851446315e+02
3.700814179119406300e-02 5.146405722413509238e+02
3.710816379603512627e-02 5.146348289913624967e+02
3.720818580087618954e-02 5.146290826561012182e+02
3.730820780571725281e-02 5.146233333565127168e+02
3.740822981055832303e-02 5.146175812135638807e+02
3.750825181539938630e-02 5.146118263482376278e+02
3.760827382024044957e-02 5.146060688815298363e+02
3.770829582508151284e-02 5.146003089344472983e+02
3.780831782992258305e-02 5.145945466280020355e+02
3.790833983476364633e-02 5.145887820832101625e+02
3.800836183960470960e-02 5.145830154210862020e+02
3.810838384444577981e-02 5.145772467626412663e+02
3.820840584928683614e-02 5.145714762288786233e+02
3.830842785412790635e-02 5.145657039407913089e+02
3.840844985896896963e-02 5.145599300193575800e+02
3.850847186381003984e-02 5.145541545855379582e+02
3.860849386865110311e-02 5.145483777602720465e+02
3.870851587349216638e-02 5.145425996644738689e+02
3.880853787833322965e-02 5.145368204190302777e+02
3.890855988317429293e-02 5.145310401447972026e+02
3.900858188801536314e-02 5.145252589625937389e+02
3.910860389285641947e-02 5.145194769932019199e+02
3.920862589769749662e-02 5.145136943573616009e+02
3.930864790253855295e-02 5.145079111757669352e+02
3.940866990737962317e-02 5.145021275690647826e+02
3.950869191222068644e-02 5.144963436578477740e+02
3.960871391706174971e-02 5.144905595626545391e+02
3.970873592190281992e-02 5.144847754039640222e+02
3.980875792674387625e-02 5.144789913021934353e+02
3.990877993158495340e-02 5.144732073776933703e+02
4.000880193642600974e-02 5.144674237507463204e+02
4.010882394126707301e-02 5.144616405415603140e+02
4.020884594610814322e-02 5.144558578702694831e+02
4.030886795094920649e-02 5.144500758569270147e+02
4.040888995579027670e-02 5.144442946215041275e+02
4.050891196063133304e-02 5.144385142838850697e+02
4.060893396547239631e-02 5.144327349638651867e+02
4.070895597031346652e-02 5.144269567811466004e+02
4.080897797515452979e-02 5.144211798553347990e+02
4.090899997999560000e-02 5.144154043059359083e+02
4.100902198483666328e-02 5.144096302523524855e+02
4.110904398967772655e-02 5.144038578138805633e+02
4.120906599451878982e-02 5.143980871097069212e+02
4.130908799935985309e-02 5.143923182589045382e+02
4.140911000420092331e-02 5.143865513804302054e+02
4.150913200904198658e-02 5.143807865931202059e+02
4.160915401388304985e-02 5.143750240156879272e+02
4.170917601872412006e-02 5.143692637667201097e+02
4.180919802356518333e-02 5.143635059646732088e+02
4.190922002840624661e-02 5.143577507278707799e+02
4.200924203324730988e-02 5.143519981744992720e+02
4.210926403808837315e-02 5.143462484226060951e+02
4.220928604292944336e-02 5.143405015900939361e+02
4.230930804777050663e-02 5.143347577947201898e+02
4.240933005261157684e-02 5.143290171540915026e+02
4.250935205745264012e-02 5.143232797856614980e+02
4.260937406229369645e-02 5.143175458067278214e+02
4.270939606713476666e-02 5.143118153344270240e+02
4.280941807197582993e-02 5.143060884857337669e+02
4.290944007681690014e-02 5.143003653774569557e+02
4.300946208165796342e-02 5.142946461262332605e+02
4.310948408649901975e-02 5.142889308485288211e+02
4.320950609134009690e-02 5.142832196606331081e+02
4.330952809618115323e-02 5.142775126786555120e+02
4.340955010102222345e-02 5.142718100185225012e+02
4.350957210586328672e-02 5.142661117959768262e+02
4.360959411070434999e-02 5.142604181265689931e+02
4.370961611554542020e-02 5.142547291256589688e+02
4.380963812038647653e-02 5.142490449084107240e+02
4.390966012522755368e-02 5.142433655897898461e+02
4.400968213006861002e-02 5.142376912845588777e+02
4.410970413490967329e-02 5.142320221072756112e+02
4.420972613975074350e-02 5.142263581722897925e+02
4.430974814459180677e-02 5.142206995937390275e+02
4.440977014943287698e-02 5.142150464855460541e+02
4.450979215427393332e-02 5.142093989614163547e+02
4.460981415911499659e-02 5.142037571348330403e+02
4.470983616395606680e-02 5.141981211190559407e+02
4.480985816879713007e-02 5.141924910271176259e+02
4.490988017363820028e-02 5.141868669718185174e+02
4.500990217847926356e-02 5.141812490657270018e+02
4.510992418332032683e-02 5.141756374211738603e+02
4.520994618816139010e-02 5.141700321502498809e+02
4.530996819300245337e-02 5.141644333648021075e+02
4.540999019784352358e-02 5.141588411764332704e+02
4.551001220268458686e-02 5.141532556964943979e+02
4.561003420752565013e-02 5.141476770360861792e+02
4.571005621236672034e-02 5.141421053060525992e+02
4.581007821720778361e-02 5.141365406169788912e+02
4.591010022204884689e-02 5.141309830791906279e+02
4.601012222688991016e-02 5.141254328027464453e+02
4.611014423173097343e-02 5.141198898974382701e+02
4.621016623657204364e-02 5.141143544727872268e+02
4.631018824141310691e-02 5.141088266380406822e+02
4.641021024625417712e-02 5.141033065021698576e+02
4.651023225109524040e-02 5.140977941738644859e+02
4.661025425593629673e-02 5.140922897615336069e+02
4.671027626077736694e-02 5.140867933732981783e+02
4.681029826561843021e-02 5.140813051169928940e+02
4.691032027045950042e-02 5.140758251001586814e+02
4.701034227530056370e-02 5.140703534300430420e+02
4.711036428014163391e-02 5.140648902135955041e+02
4.721038628498269718e-02 5.140594355574645533e+02
4.731040828982375351e-02 5.140539895679953588e+02
4.741043029466482372e-02 5.140485523512270447e+02
4.751045229950588700e-02 5.140431240128885975e+02
4.761047430434695721e-02 5.140377046583985248e+02
4.771049630918802048e-02 5.140322943928581481e+02
4.781051831402907681e-02 5.140268933210508067e+02
4.791054031887015396e-02 5.140215015474404936e+02
4.801056232371121030e-02 5.140161191761668533e+02
4.811058432855228051e-02 5.140107463110415438e+02
4.821060633339334378e-02 5.140053830555489185e+02
4.831062833823440705e-02 5.140000295128390917e+02
4.841065034307547726e-02 5.139946857857287341e+02
4.851067234791653360e-02 5.139893519766952750e+02
4.861069435275761075e-02 5.139840281878761061e+02
4.871071635759866708e-02 5.139787145210651715e+02
4.881073836243973035e-02 5.139734110777098977e+02
4.891076036728080056e-02 5.139681179589076692e+02
4.901078237212186384e-02 5.139628352654065111e+02
4.911080437696293405e-02 5.139575630975975855e+02
4.921082638180399038e-02 5.139523015555161010e+02
4.931084838664505365e-02 5.139470507388359692e+02
4.941087039148612386e-02 5.139418107468698054e+02
4.951089239632718714e-02 5.139365816785646075e+02
4.961091440116825735e-02 5.139313636324978916e+02
4.971093640600932062e-02 5.139261567068780323e+02
4.981095841085038389e-02 5.139209609995392611e+02
4.991098041569144717e-02 5.139157766079397334e+02
5.001100242053251044e-02 5.139106036291586861e+02
5.011102442537358065e-02 5.139054421598943918e+02
5.021104643021464392e-02 5.139002922964610889e+02
5.031106843505570719e-02 5.138951541347867078e+02
5.041109043989677740e-02 5.138900277704084374e+02
5.051111244473784068e-02 5.138849132984742027e+02
5.061113444957890395e-02 5.138798108137359577e+02
5.071115645441996722e-02 5.138747204105483206e+02
5.081117845926103049e-02 5.138696421828688017e+02
5.091120046410210070e-02 5.138645762242502997e+02
5.101122246894316398e-02 5.138595226278431483e+02
5.111124447378423419e-02 5.138544814863898864e+02
5.121126647862529746e-02 5.138494528922241216e+02
5.131128848346635379e-02 5.138444369372660958e+02
5.141131048830742400e-02 5.138394337130235954e+02
5.151133249314848728e-02 5.138344433105863800e+02
5.161135449798955749e-02 5.138294658206258418e+02
5.171137650283062076e-02 5.138245013333896622e+02
5.181139850767167709e-02 5.138195499387044265e+02
5.191142051251275424e-02 5.138146117259670973e+02
5.201144251735381058e-02 5.138096867841476296e+02
5.211146452219488079e-02 5.138047752017844232e+02
5.221148652703594406e-02 5.137998770669817077e+02
5.231150853187700733e-02 5.137949924674079512e+02
5.241153053671807754e-02 5.137901214902935862e+02
5.251155254155913388e-02 5.137852642224270312e+02
5.261157454640021103e-02 5.137804207501563951e+02
5.271159655124126736e-02 5.137755911593820883e+02
5.281161855608233063e-02 5.137707755355575046e+02
5.291164056092340084e-02 5.137659739636866334e+02
5.301166256576446412e-02 5.137611865283216730e+02
5.311168457060553433e-02 5.137564133135603015e+02
5.321170657544659066e-02 5.137516544030428349e+02
5.331172858028765393e-02 5.137469098799516587e+02
5.341175058512872414e-02 5.137421798270086128e+02
5.351177258996978742e-02 5.137374643264712404e+02
5.361179459481085763e-02 5.137327634601324462e+02
5.371181659965192090e-02 5.137280773093184507e+02
5.381183860449298417e-02 5.137234059548840150e+02
5.391186060933404744e-02 5.137187494772151695e+02
5.401188261417511072e-02 5.137141079562202322e+02
5.411190461901618093e-02 5.137094814713351525e+02
5.421192662385724420e-02 5.137048701015150982e+02
5.431194862869830747e-02 5.137002739252372976e+02
5.441197063353937768e-02 5.136956930204962646e+02
5.451199263838044096e-02 5.136911274648017525e+02
5.461201464322150423e-02 5.136865773351778444e+02
5.471203664806256750e-02 5.136820427081605658e+02
5.481205865290363077e-02 5.136775236597949288e+02
5.491208065774470098e-02 5.136730202656349320e+02
5.501210266258576426e-02 5.136685326007400363e+02
5.511212466742683447e-02 5.136640607396730047e+02
5.521214667226789774e-02 5.136596047564991068e+02
5.531216867710895407e-02 5.136551647247847541e+02
5.541219068195002428e-02 5.136507407175922708e+02
5.551221268679108756e-02 5.136463328074820538e+02
5.561223469163215777e-02 5.136419410665082523e+02
5.571225669647322104e-02 5.136375655662176314e+02
5.581227870131429125e-02 5.136332063776478662e+02
5.591230070615535452e-02 5.136288635713257236e+02
5.601232271099641086e-02 5.136245372172639918e+02
5.611234471583748107e-02 5.136202273849618223e+02
5.621236672067854434e-02 5.136159341434013186e+02
5.631238872551961455e-02 5.136116575610467407e+02
5.641241073036067782e-02 5.136073977058424589e+02
5.651243273520173416e-02 5.136031546452095427e+02
5.661245474004281131e-02 5.135989284460480349e+02
5.671247674488386764e-02 5.135947191747311535e+02
5.681249874972493785e-02 5.135905268971052919e+02
5.691252075456600112e-02 5.135863516784894500e+02
5.701254275940706440e-02 5.135821935836710281e+02
5.711256476424813461e-02 5.135780526769060543e+02
5.721258676908919094e-02 5.135739290219188433e+02
5.731260877393026809e-02 5.135698226818959711e+02
5.741263077877132442e-02 5.135657337194884349e+02
5.751265278361238770e-02 5.135616621968097206e+02
5.761267478845345791e-02 5.135576081754323923e+02
5.771269679329452118e-02 5.135535717163893423e+02
5.781271879813559139e-02 5.135495528801683349e+02
5.791274080297664772e-02 5.135455517267145069e+02
5.801276280781771100e-02 5.135415683154271846e+02
5.811278481265878121e-02 5.135376027051570418e+02
5.821280681749984448e-02 5.135336549542073499e+02
5.831282882234091469e-02 5.135297251203303404e+02
5.841285082718197796e-02 5.135258132607268635e+02
5.851287283202304124e-02 5.135219194320438874e+02
5.861289483686410451e-02 5.135180436903760892e+02
5.871291684170516778e-02 5.135141860912600578e+02
5.881293884654623799e-02 5.135103466896757709e+02
5.891296085138730126e-02 5.135065255400454589e+02
5.901298285622836454e-02 5.135027226962304212e+02
5.911300486106943475e-02 5.134989382115319358e+02
5.921302686591049802e-02 5.134951721386871668e+02
5.931304887075156129e-02 5.134914245298710966e+02
5.941307087559262456e-02 5.134876954366925474e+02
5.951309288043368784e-02 5.134839849101945219e+02
5.961311488527475805e-02 5.134802930008528392e+02
5.971313689011582132e-02 5.134766197585738610e+02
5.981315889495689153e-02 5.134729652326952873e+02
5.991318089979795480e-02 5.134693294719813821e+02
6.001320290463901114e-02 5.134657125246261558e+02
6.011322490948008135e-02 5.134621144382501825e+02
6.021324691432114462e-02 5.134585352598987811e+02
6.031326891916221483e-02 5.134549750360416738e+02
6.041329092400327810e-02 5.134514338125713948e+02
6.051331292884433444e-02 5.134479116348039724e+02
6.061333493368541159e-02 5.134444085474759731e+02
6.071335693852646792e-02 5.134409245947427962e+02
6.081337894336753813e-02 5.134374598201814024e+02
6.091340094820860140e-02 5.134340142667842883e+02
6.101342295304966468e-02 5.134305879769623289e+02
6.111344495789073489e-02 5.134271809925425032e+02
6.121346696273179122e-02 5.134237933547663033e+02
6.131348896757286837e-02 5.134204251042897340e+02
6.141351097241392470e-02 5.134170762811822897e+02
6.151353297725498798e-02 5.134137469249253627e+02
6.161355498209605819e-02 5.134104370744117887e+02
6.171357698693712146e-02 5.134071467679453917e+02
6.181359899177819167e-02 5.134038760432391655e+02
6.191362099661924800e-02 5.134006249374158415e+02
6.201364300146031128e-02 5.133973934870053881e+02
6.211366500630138149e-02 5.133941817279452380e+02
6.221368701114244476e-02 5.133909896955796057e+02
6.231370901598351497e-02 5.133878174246581239e+02
6.241373102082457824e-02 5.133846649493359564e+02
6.251375302566564152e-02 5.133815323031708431e+02
6.261377503050670479e-02 5.133784195191266235e+02
6.271379703534776806e-02 5.133753266295677804e+02
6.281381904018884521e-02 5.133722536662615994e+02
6.291384104502989461e-02 5.133692006603768050e+02
6.301386304987095788e-02 5.133661676424840152e+02
6.311388505471203503e-02 5.133631546425519900e+02
6.321390705955309830e-02 5.133601616899508144e+02
6.331392906439416157e-02 5.133571888134481469e+02
6.341395106923522484e-02 5.133542360412117205e+02
6.351397307407628812e-02 5.133513034008054774e+02
6.361399507891735139e-02 5.133483909191919565e+02
6.371401708375841466e-02 5.133454986227291101e+02
6.381403908859949181e-02 5.133426265371725776e+02
6.391406109344055508e-02 5.133397746876734118e+02
6.401408309828161836e-02 5.133369430987767146e+02
6.411410510312268163e-02 5.133341317944244793e+02
6.421412710796374490e-02 5.133313407979508156e+02
6.431414911280480817e-02 5.133285701320866110e+02
6.441417111764587144e-02 5.133258198189531640e+02
6.451419312248694860e-02 5.133230898800682098e+02
6.461421512732801187e-02 5.133203803363397810e+02
6.471423713216907514e-02 5.133176912080696184e+02
6.481425913701013841e-02 5.133150225149518064e+02
6.491428114185120168e-02 5.133123742760710684e+02
6.501430314669226496e-02 5.133097465099050396e+02
6.511432515153332823e-02 5.133071392343217667e+02
6.521434715637439150e-02 5.133045524665807307e+02
6.531436916121546865e-02 5.133019862233319373e+02
6.541439116605653192e-02 5.132994405206161446e+02
6.551441317089759520e-02 5.132969153738642945e+02
6.561443517573865847e-02 5.132944107978969441e+02
6.571445718057972174e-02 5.132919268069264263e+02
6.581447918542078501e-02 5.132894634145512782e+02
6.591450119026184828e-02 5.132870206337640866e+02
6.601452319510292543e-02 5.132845984769446659e+02
6.611454519994398871e-02 5.132821969558615365e+02
6.621456720478505198e-02 5.132798160816740847e+02
6.631458920962611525e-02 5.132774558649301753e+02
6.641461121446717852e-02 5.132751163155669474e+02
6.651463321930824180e-02 5.132727974429118376e+02
6.661465522414930507e-02 5.132704992556793968e+02
6.671467722899036834e-02 5.132682217619749281e+02
6.681469923383144549e-02 5.132659649692919857e+02
6.691472123867250876e-02 5.132637288845143075e+02
6.701474324351357204e-02 5.132615135139139966e+02
6.711476524835463531e-02 5.132593188631534531e+02
6.721478725319569858e-02 5.132571449372836696e+02
6.731480925803676185e-02 5.132549917407451403e+02
6.741483126287782512e-02 5.132528592773680884e+02
6.751485326771890227e-02 5.132507475503737169e+02
6.761487527255996555e-02 5.132486565623711385e+02
6.771489727740101494e-02 5.132465863153615828e+02
6.781491928224209209e-02 5.132445368107348713e+02
6.791494128708315536e-02 5.132425080492724874e+02
6.801496329192421864e-02 5.132405000311462118e+02
6.811498529676528191e-02 5.132385127559186913e+02
6.821500730160634518e-02 5.132365462225441206e+02
6.831502930644742233e-02 5.132346004293690385e+02
6.841505131128847172e-02 5.132326753741291441e+02
6.851507331612954887e-02 5.132307710539550953e+02
6.861509532097061215e-02 5.132288874653684161e+02
6.871511732581167542e-02 5.132270246042842246e+02
6.881513933065273869e-02 5.132251824660106649e+02
6.891516133549380196e-02 5.132233610452482253e+02
6.901518334033487911e-02 5.132215603360933756e+02
6.911520534517592851e-02 5.132197803320354978e+02
6.921522735001699178e-02 5.132180210259593878e+02
6.931524935485806893e-02 5.132162824101443448e+02
6.941527135969913220e-02 5.132145644762663323e+02
6.951529336454019548e-02 5.132128672153964999e+02
6.961531536938125875e-02 5.132111906180033429e+02
6.971533737422232202e-02 5.132095346739527031e+02
6.981535937906338529e-02 5.132078993725075406e+02
6.991538138390444856e-02 5.132062847023294125e+02
7.001540338874552571e-02 5.132046906514784723e+02
7.011542539358658899e-02 5.132031172074144934e+02
7.021544739842763838e-02 5.132015643569978920e+02
7.031546940326871553e-02 5.132000320864880223e+02
7.041549140810977880e-02 5.131985203815470413e+02
7.051551341295084208e-02 5.131970292272391134e+02
7.061553541779190535e-02 5.131955586080292733e+02
7.071555742263296862e-02 5.131941085077879734e+02
7.081557942747404577e-02 5.131926789097882420e+02
7.091560143231509517e-02 5.131912697967078429e+02
7.101562343715617232e-02 5.131898811506304128e+02
7.111564544199723559e-02 5.131885129530460290e+02
7.121566744683829886e-02 5.131871651848510965e+02
7.131568945167936213e-02 5.131858378263497116e+02
7.141571145652042540e-02 5.131845308572540034e+02
7.151573346136150255e-02 5.131832442566879990e+02
7.161575546620255195e-02 5.131819780031826213e+02
7.171577747104361522e-02 5.131807320746818277e+02
7.181579947588469237e-02 5.131795064485398825e+02
7.191582148072575564e-02 5.131783011015254488e+02
7.201584348556681892e-02 5.131771160098194287e+02
7.211586549040788219e-02 5.131759511490192835e+02
7.221588749524894546e-02 5.131748064941356233e+02
7.231590950009000873e-02 5.131736820195964128e+02
7.241593150493107200e-02 5.131725776992474266e+02
7.251595350977214915e-02 5.131714935063524763e+02
7.261597551461321243e-02 5.131704294135950022e+02
7.271599751945427570e-02 5.131693853930779596e+02
7.281601952429533897e-02 5.131683614163266611e+02
7.291604152913640224e-02 5.131673574542888900e+02
7.301606353397746552e-02 5.131663734773347869e+02
7.311608553881852879e-02 5.131654094552602601e+02
7.321610754365960594e-02 5.131644653572864172e+02
7.331612954850066921e-02 5.131635411520613843e+02
7.341615155334173248e-02 5.131626368076604194e+02
7.351617355818279576e-02 5.131617522915887548e+02
7.361619556302385903e-02 5.131608875707811421e+02
7.371621756786492230e-02 5.131600426116040126e+02
7.381623957270598557e-02 5.131592173798563863e+02
7.391626157754704884e-02 5.131584118407705546e+02
7.401628358238812599e-02 5.131576259590133304e+02
7.411630558722918927e-02 5.131568596986893454e+02
7.421632759207025254e-02 5.131561130233396852e+02
7.431634959691131581e-02 5.131553858959433683e+02
7.441637160175237908e-02 5.131546782789200734e+02
7.451639360659344236e-02 5.131539901341311634e+02
7.461641561143450563e-02 5.131533214228794577e+02
7.471643761627558278e-02 5.131526721059134388e+02
7.481645962111664605e-02 5.131520421434235004e+02
7.491648162595770932e-02 5.131514314950502467e+02
7.501650363079877259e-02 5.131508401198801721e+02
7.511652563563983587e-02 5.131502679764485038e+02
7.521654764048089914e-02 5.131497150227432940e+02
7.531656964532196241e-02 5.131491812162025781e+02
7.541659165016302568e-02 5.131486665137193768e+02
7.551661365500410283e-02 5.131481708716406729e+02
7.561663565984516611e-02 5.131476942457707082e+02
7.571665766468622938e-02 5.131472365913703015e+02
7.581667966952729265e-02 5.131467978631611686e+02
7.591670167436835592e-02 5.131463780153243306e+02
7.601672367920941920e-02 5.131459770015050026e+02
7.611674568405048247e-02 5.131455947748103199e+02
7.621676768889155962e-02 5.131452312878146813e+02
7.631678969373262289e-02 5.131448864925580438e+02
7.641681169857367228e-02 5.131445603405492193e+02
7.651683370341474943e-02 5.131442527827681488e+02
7.661685570825581271e-02 5.131439637696654472e+02
7.671687771309687598e-02 5.131436932511650184e+02
7.681689971793793925e-02 5.131434411766664425e+02
7.691692172277900252e-02 5.131432074950454307e+02
7.701694372762007967e-02 5.131429921546563264e+02
7.711696573246112907e-02 5.131427951033333557e+02
7.721698773730220622e-02 5.131426162883913094e+02
7.731700974214326949e-02 5.131424556566306592e+02
7.741703174698433276e-02 5.131423131543339196e+02
7.751705375182539604e-02 5.131421887272723552e+02
7.761707575666645931e-02 5.131420823207057538e+02
7.771709776150753646e-02 5.131419938793831079e+02
7.781711976634858585e-02 5.131419233475460260e+02
7.791714177118964912e-02 5.131418706689287319e+02
7.801716377603072627e-02 5.131418357867642044e+02
7.811718578087178955e-02 5.131418186437786062e+02
7.821720778571283894e-02 5.131418191822002655e+02
7.831722979055391609e-02 5.131418373437568334e+02
7.841725179539499324e-02 5.131418730696799457e+02
7.851727380023604264e-02 5.131419263007054496e+02
7.861729580507710591e-02 5.131419969770755642e+02
7.871731780991818306e-02 5.131420850385414951e+02
7.881733981475924633e-02 5.131421904243643439e+02
7.891736181960029572e-02 5.131423130733178368e+02
7.901738382444137287e-02 5.131424529236894614e+02
7.911740582928245002e-02 5.131426099132830814e+02
7.921742783412349942e-02 5.131427839794203010e+02
7.931744983896456269e-02 5.131429750589431933e+02
7.941747184380563984e-02 5.131431830882160057e+02
7.951749384864668924e-02 5.131434080031262965e+02
7.961751585348775251e-02 5.131436497390877776e+02
7.971753785832882966e-02 5.131439082310417916e+02
7.981755986316990681e-02 5.131441834134609508e+02
7.991758186801095620e-02 5.131444752203484541e+02
8.001760387285201948e-02 5.131447835852426351e+02
8.011762587769309663e-02 5.131451084412165073e+02
8.021764788253414602e-02 5.131454497208831071e+02
8.031766988737520929e-02 5.131458073563945845e+02
8.041769189221628644e-02 5.131461812794459547e+02
8.051771389705733584e-02 5.131465714212760076e+02
8.061773590189841299e-02 5.131469777126704912e+02
8.071775790673947626e-02 5.131474000839642713e+02
8.081777991158055341e-02 5.131478384650426960e+02
8.091780191642160280e-02 5.131482927853438696e+02
8.101782392126266608e-02 5.131487629738617215e+02
8.111784592610374323e-02 5.131492489591470303e+02
8.121786793094479262e-02 5.131497506693093555e+02
8.131788993578586977e-02 5.131502680320221543e+02
8.141791194062693304e-02 5.131508009745193704e+02
8.151793394546799632e-02 5.131513494236047563e+02
8.161795595030905959e-02 5.131519133056484634e+02
8.171797795515012286e-02 5.131524925465906790e+02
8.181799995999120001e-02 5.131530870719465156e+02
8.191802196483224940e-02 5.131536968068041915e+02
8.201804396967332655e-02 5.131543216758307153e+02
8.211806597451438983e-02 5.131549616032707490e+02
8.221808797935545310e-02 5.131556165129535430e+02
8.231810998419651637e-02 5.131562863282907756e+02
8.241813198903757964e-02 5.131569709722813286e+02
8.251815399387864292e-02 5.131576703675127646e+02
8.261817599871970619e-02 5.131583844361641695e+02
8.271819800356078334e-02 5.131591131000078576e+02
8.281822000840184661e-02 5.131598562804123276e+02
8.291824201324290988e-02 5.131606138983441951e+02
8.301826401808397315e-02 5.131613858743710352e+02
8.311828602292503643e-02 5.131621721286625188e+02
8.321830802776609970e-02 5.131629725809951879e+02
8.331833003260716297e-02 5.131637871507526825e+02
8.341835203744824012e-02 5.131646157569284696e+02
8.351837404228928952e-02 5.131654583181297085e+02
8.361839604713036667e-02 5.131663147525774775e+02
8.371841805197142994e-02 5.131671849781114361e+02
8.381844005681249321e-02 5.131680689121905061e+02
8.391846206165355648e-02 5.131689664718969652e+02
8.401848406649461976e-02 5.131698775739374696e+02
8.411850607133569691e-02 5.131708021346455553e+02
8.421852807617674630e-02 5.131717400699855034e+02
8.431855008101782345e-02 5.131726912955537045e+02
8.441857208585888672e-02 5.131736557265817282e+02
8.451859409069993612e-02 5.131746332779381419e+02
8.461861609554101327e-02 5.131756238641314667e+02
8.471863810038207654e-02 5.131766273993125651e+02
8.481866010522315369e-02 5.131776437972782787e+02
8.491868211006420308e-02 5.131786729714717694e+02
8.501870411490528023e-02 5.131797148349872941e+02
8.511872611974634351e-02 5.131807693005712281e+02
8.521874812458739290e-02 5.131818362806252480e+02
8.531877012942847005e-02 5.131829156872094018e+02
8.541879213426953332e-02 5.131840074320433587e+02
8.551881413911061047e-02 5.131851114265102751e+02
8.561883614395165987e-02 5.131862275816596366e+02
8.571885814879273702e-02 5.131873558082074851e+02
8.581888015363380029e-02 5.131884960165422171e+02
8.591890215847484968e-02 5.131896481167254933e+02
8.601892416331592683e-02 5.131908120184946256e+02
8.611894616815699011e-02 5.131919876312657607e+02
8.621896817299803950e-02 5.131931748641370632e+02
8.631899017783911665e-02 5.131943736258906483e+02
8.641901218268019380e-02 5.131955838249947419e+02
8.651903418752125707e-02 5.131968053696077732e+02
8.661905619236230647e-02 5.131980381675801937e+02
8.671907819720338362e-02 5.131992821264566373e+02
8.681910020204444689e-02 5.132005371534805818e+02
8.691912220688549628e-02 5.132018031555935522e+02
8.701914421172657343e-02 5.132030800394426251e+02
8.711916621656765058e-02 5.132043677113786089e+02
8.721918822140869998e-02 5.132056660774612737e+02
8.731921022624976325e-02 5.132069750434617390e+02
8.741923223109084040e-02 5.132082945148649742e+02
8.751925423593190367e-02 5.132096243968717317e+02
8.761927624077295307e-02 5.132109645944027534e+02
8.771929824561403022e-02 5.132123150121009303e+02
8.781932025045510737e-02 5.132136755543338040e+02
8.791934225529615676e-02 5.132150461251967499e+02
8.801936426013722004e-02 5.132164266285152507e+02
8.811938626497829719e-02 5.132178169678480799e+02
8.821940826981934658e-02 5.132192170464892342e+02
8.831943027466040985e-02 5.132206267674731635e+02
8.841945227950148700e-02 5.132220460335740881e+02
8.851947428434256415e-02 5.132234747473116840e+02
8.861949628918361355e-02 5.132249128109525600e+02
8.871951829402467682e-02 5.132263601265127591e+02
8.881954029886575397e-02 5.132278165957618512e+02
8.891956230370680336e-02 5.132292821202238429e+02
8.901958430854786664e-02 5.132307566011827475e+02
8.911960631338894379e-02 5.132322399396832679e+02
8.921962831822999318e-02 5.132337320365331834e+02
8.931965032307107033e-02 5.132352327923084658e+02
8.941967232791213360e-02 5.132367421073547575e+02
8.951969433275321075e-02 5.132382598817896451e+02
8.961971633759426015e-02 5.132397860155068656e+02
8.971973834243532342e-02 5.132413204081786944e+02
8.981976034727640057e-02 5.132428629592571951e+02
8.991978235211744996e-02 5.132444135679809278e+02
9.001980435695852711e-02 5.132459721333725611e+02
9.011982636179959039e-02 5.132475385542477397e+02
9.021984836664065366e-02 5.132491127292129249e+02
9.031987037148171693e-02 5.132506945566698278e+02
9.041989237632278020e-02 5.132522839348207526e+02
9.051991438116385735e-02 5.132538807616674603e+02
9.061993638600490675e-02 5.132554849350170798e+02
9.071995839084598390e-02 5.132570963524825629e+02
9.081998039568704717e-02 5.132587149114896192e+02
9.092000240052811044e-02 5.132603405092746698e+02
9.102002440536917371e-02 5.132619730428916682e+02
9.112004641021023699e-02 5.132636124092118735e+02
9.122006841505130026e-02 5.132652585049289655e+02
9.132009041989236353e-02 5.132669112265629110e+02
9.142011242473344068e-02 5.132685704704589398e+02
9.152013442957450395e-02 5.132702361327942526e+02
9.162015643441556723e-02 5.132719081095794991e+02
9.172017843925663050e-02 5.132735862966610512e+02
9.182020044409769377e-02 5.132752705897262331e+02
9.192022244893875704e-02 5.132769608843021842e+02
9.202024445377982032e-02 5.132786570757644995e+02
9.212026645862089747e-02 5.132803590593341596e+02
9.222028846346194686e-02 5.132820667300849209e+02
9.232031046830302401e-02 5.132837799829445657e+02
9.242033247314408728e-02 5.132854987126970627e+02
9.252035447798515055e-02 5.132872228139876825e+02
9.262037648282621383e-02 5.132889521813232250e+02
9.272039848766727710e-02 5.132906867090782725e+02
9.282042049250835425e-02 5.132924262914950759e+02
9.292044249734940364e-02 5.132941708226876472e+02
9.302046450219048079e-02 5.132959201966459659e+02
9.312048650703154407e-02 5.132976743072372301e+02
9.322050851187259346e-02 5.132994330482083569e+02
9.332053051671367061e-02 5.133011963131922357e+02
9.342055252155473388e-02 5.133029639957068184e+02
9.352057452639581103e-02 5.133047359891601218e+02
9.362059653123686043e-02 5.133065121868530696e+02
9.372061853607793758e-02 5.133082924819829032e+02
9.382064054091900085e-02 5.133100767676436362e+02
9.392066254576005024e-02 5.133118649368334445e+02
9.402068455060112739e-02 5.133136568824528467e+02
9.412070655544219067e-02 5.133154524973107300e+02
9.422072856028326782e-02 5.133172516741273057e+02
9.432075056512431721e-02 5.133190543055352464e+02
9.442077256996539436e-02 5.133208602840845742e+02
9.452079457480645763e-02 5.133226695022447075e+02
9.462081657964750703e-02 5.133244818524062794e+02
9.472083858448858418e-02 5.133262972268869362e+02
9.482086058932964745e-02 5.133281155179325879e+02
9.492088259417069684e-02 5.133299366177204774e+02
9.502090459901177399e-02 5.133317604183616822e+02
9.512092660385285114e-02 5.133335868119052066e+02
9.522094860869391442e-02 5.133354156903402554e+02
9.532097061353496381e-02 5.133372469455998726e+02
9.542099261837604096e-02 5.133390804695629868e+02
9.552101462321710423e-02 5.133409161540575951e+02
9.562103662805815363e-02 5.133427538908649694e+02
9.572105863289923078e-02 5.133445935717206794e+02
9.582108063774030793e-02 5.133464350883200495e+02
9.592110264258135732e-02 5.133482783323175909e+02
9.602112464742242059e-02 5.133501231953341630e+02
9.612114665226349774e-02 5.133519695689561786e+02
9.622116865710456102e-02 5.133538173447414010e+02
9.632119066194561041e-02 5.133556664142197405e+02
9.642121266678668756e-02 5.133575166688985973e+02
9.652123467162776471e-02 5.133593680002642259e+02
9.662125667646881411e-02 5.133612202997835539e+02
9.672127868130987738e-02 5.133630734589103213e+02
9.682130068615095453e-02 5.133649273690856489e+02
9.692132269099200392e-02 5.133667819217406532e+02
9.702134469583306720e-02 5.133686370083031534e+02
9.712136670067414435e-02 5.133704925201952847e+02
9.722138870551522150e-02 5.133723483488402053e+02
9.732141071035627089e-02 5.133742043856644841e+02
9.742143271519733416e-02 5.133760605220992375e+02
9.752145472003841131e-02 5.133779166495850177e+02
9.762147672487946071e-02 5.133797726595745416e+02
9.772149872972052398e-02 5.133816284435353055e+02
9.782152073456160113e-02 5.133834838929508351e+02
9.792154273940265052e-02 5.133853388993281897e+02
9.802156474424372767e-02 5.133871933541953467e+02
9.812158674908479095e-02 5.133890471491077960e+02
9.822160875392586810e-02 5.133909001756509269e+02
9.832163075876691749e-02 5.133927523254419611e+02
9.842165276360798076e-02 5.133946034901339317e+02
9.852167476844905791e-02 5.133964535614169336e+02
9.862169677329010731e-02 5.133983024310239216e+02
9.872171877813118446e-02 5.134001499907313928e+02
9.882174078297224773e-02 5.134019961323622283e+02
9.892176278781331100e-02 5.134038407477900137e+02
9.902178479265437427e-02 5.134056837289413124e+02
9.912180679749543755e-02 5.134075249677974853e+02
9.922182880233651470e-02 5.134093643564001468e+02
9.932185080717756409e-02 5.134112017868512794e+02
9.942187281201864124e-02 5.134130371513180080e+02
9.952189481685970451e-02 5.134148703420349875e+02
9.962191682170076779e-02 5.134167012513065629e+02
9.972193882654183106e-02 5.134185297715110892e+02
9.982196083138289433e-02 5.134203557951030916e+02
9.992198283622395760e-02 5.134221792146149710e+02
1.000220048410650209e-01 5.134239999226625741e+02
1.001220268459060980e-01 5.134258178119451941e+02
1.002220488507471613e-01 5.134276327752506859e+02
1.003220708555882246e-01 5.134294447054572856e+02
1.004220928604292878e-01 5.134312534955362253e+02
1.005221148652703511e-01 5.134330590385546884e+02
1.006221368701114144e-01 5.134348612276803578e+02
1.007221588749524777e-01 5.134366599561815292e+02
1.008221808797935548e-01 5.134384551174319995e+02
1.009222028846346042e-01 5.134402466049126588e+02
1.010222248894756814e-01 5.134420343122152417e+02
1.011222468943167446e-01 5.134438181330451698e+02
1.012222688991578079e-01 5.134455979612237115e+02
1.013222909039988712e-01 5.134473736906902559e+02
1.014223129088399344e-01 5.134491452155079969e+02
1.015223349136810116e-01 5.134509124298627967e+02
1.016223569185220610e-01 5.134526752280685287e+02
1.017223789233631381e-01 5.134544335045700336e+02
1.018224009282042014e-01 5.134561871539440290e+02
1.019224229330452508e-01 5.134579360709043385e+02
1.020224449378863280e-01 5.134596801503017787e+02
1.021224669427273912e-01 5.134614192871298428e+02
1.022224889475684684e-01 5.134631533765260656e+02
1.023225109524095178e-01 5.134648823137738418e+02
1.024225329572505949e-01 5.134666059943083383e+02
1.025225549620916582e-01 5.134683243137143336e+02
1.026225769669327076e-01 5.134700371677341764e+02
1.027225989717737847e-01 5.134717444522676715e+02
1.028226209766148480e-01 5.134734460633748085e+02
1.029226429814559252e-01 5.134751418972791726e+02
1.030226649862969746e-01 5.134768318503696491e+02
1.031226869911380517e-01 5.134785158192062227e+02
1.032227089959791150e-01 5.134801937005187256e+02
1.033227310008201644e-01 5.134818653912112723e+02
1.034227530056612415e-01 5.134835307883660107e+02
1.035227750105023048e-01 5.134851897892438046e+02
1.036227970153433542e-01 5.134868422912886672e+02
1.037228190201844313e-01 5.134884881921293527e+02
1.038228410250255085e-01 5.134901273895812892e+02
1.039228630298665718e-01 5.134917597816535135e+02
1.040228850347076212e-01 5.134933852665441236e+02
1.041229070395486983e-01 5.134950037426497147e+02
1.042229290443897616e-01 5.134966151085642423e+02
1.043229510492308110e-01 5.134982192630830014e+02
1.044229730540718881e-01 5.134998161052042178e+02
1.045229950589129653e-01 5.135014055341342782e+02
1.046230170637540147e-01 5.135029874492859108e+02
1.047230390685950779e-01 5.135045617502852338e+02
1.048230610734361551e-01 5.135061283369719831e+02
1.049230830782772184e-01 5.135076871094024682e+02
1.050231050831182678e-01 5.135092379678524139e+02
1.051231270879593449e-01 5.135107808128195757e+02
1.052231490928004221e-01 5.135123155450255581e+02
1.053231710976414714e-01 5.135138420654199081e+02
1.054231931024825347e-01 5.135153602751814788e+02
1.055232151073236119e-01 5.135168700757205897e+02
1.056232371121646613e-01 5.135183713686833471e+02
1.057232591170057245e-01 5.135198640559523255e+02
1.058232811218468017e-01 5.135213480396502064e+02
1.059233031266878788e-01 5.135228232221412554e+02
1.060233251315289282e-01 5.135242895060355295e+02
1.061233471363699915e-01 5.135257467941896721e+02
1.062233691412110687e-01 5.135271949897105515e+02
1.063233911460521181e-01 5.135286339959566249e+02
1.064234131508931813e-01 5.135300637165420312e+02
1.065234351557342585e-01 5.135314840553373870e+02
1.066234571605753079e-01 5.135328949164729693e+02
1.067234791654163850e-01 5.135342962043417856e+02
1.068235011702574483e-01 5.135356878236009379e+02
1.069235231750985254e-01 5.135370696791748060e+02
1.070235451799395748e-01 5.135384416762560704e+02
1.071235671847806381e-01 5.135398037203112835e+02
1.072235891896217153e-01 5.135411557170792776e+02
1.073236111944627647e-01 5.135424975725768491e+02
1.074236331993038418e-01 5.135438291930993273e+02
1.075236552041449051e-01 5.135451504852234166e+02
1.076236772089859683e-01 5.135464613558089013e+02
1.077236992138270316e-01 5.135477617120034211e+02
1.078237212186680949e-01 5.135490514612420156e+02
1.079237432235091720e-01 5.135503305112500811e+02
1.080237652283502214e-01 5.135515987700476899e+02
1.081237872331912986e-01 5.135528561459484536e+02
1.082238092380323619e-01 5.135541025475658898e+02
1.083238312428734251e-01 5.135553378838114895e+02
1.084238532477144884e-01 5.135565620639009694e+02
1.085238752525555517e-01 5.135577749973539312e+02
1.086238972573966149e-01 5.135589765939965901e+02
1.087239192622376782e-01 5.135601667639652987e+02
1.088239412670787554e-01 5.135613454177073436e+02
1.089239632719198186e-01 5.135625124659836729e+02
1.090239852767608819e-01 5.135636678198716254e+02
1.091240072816019452e-01 5.135648113907664083e+02
1.092240292864430085e-01 5.135659430903832572e+02
1.093240512912840717e-01 5.135670628307609604e+02
1.094240732961251350e-01 5.135681705242627686e+02
1.095240953009662122e-01 5.135692660835787819e+02
1.096241173058072615e-01 5.135703494217282241e+02
1.097241393106483387e-01 5.135714204520616022e+02
1.098241613154894020e-01 5.135724790882633215e+02
1.099241833203304652e-01 5.135735252443536183e+02
1.100242053251715285e-01 5.135745588346895829e+02
1.101242273300125918e-01 5.135755797739685704e+02
1.102242493348536689e-01 5.135765879772309290e+02
1.103242713396947183e-01 5.135775833598592044e+02
1.104242933445357955e-01 5.135785658375845060e+02
1.105243153493768588e-01 5.135795353264842333e+02
1.106243373542179081e-01 5.135804917429870784e+02
1.107243593590589853e-01 5.135814350038741622e+02
1.108243813639000486e-01 5.135823650262807405e+02
1.109244033687411257e-01 5.135832817276996138e+02
1.110244253735821751e-01 5.135841850259798775e+02
1.111244473784232523e-01 5.135850748393332879e+02
1.112244693832643155e-01 5.135859510863339210e+02
1.113244913881053649e-01 5.135868136859189690e+02
1.114245133929464421e-01 5.135876625573937417e+02
1.115245353977875054e-01 5.135884976204320083e+02
1.116245574026285825e-01 5.135893187950764514e+02
1.117245794074696319e-01 5.135901260017428740e+02
1.118246014123107090e-01 5.135909191612236100e+02
1.119246234171517723e-01 5.135916981946837723e+02
1.120246454219928217e-01 5.135924630236692110e+02
1.121246674268338989e-01 5.135932135701049219e+02
1.122246894316749621e-01 5.135939497562969791e+02
1.123247114365160115e-01 5.135946715049373097e+02
1.124247334413570887e-01 5.135953787391024434e+02
1.125247554461981658e-01 5.135960713822566959e+02
1.126247774510392291e-01 5.135967493582538737e+02
1.127247994558802785e-01 5.135974125913388662e+02
1.128248214607213556e-01 5.135980610061500329e+02
1.129248434655624189e-01 5.135986945277201130e+02
1.130248654704034683e-01 5.135993130814795222e+02
1.131248874752445455e-01 5.135999165932558981e+02
1.132249094800856226e-01 5.136005049892785337e+02
1.133249314849266720e-01 5.136010781961776956e+02
1.134249534897677353e-01 5.136016361409876936e+02
1.135249754946088124e-01 5.136021787511491539e+02
1.136249974994498757e-01 5.136027059545087923e+02
1.137250195042909251e-01 5.136032176793233930e+02
1.138250415091320022e-01 5.136037138542595812e+02
1.139250635139730794e-01 5.136041944083968929e+02
1.140250855188141288e-01 5.136046592712285701e+02
1.141251075236551921e-01 5.136051083726638353e+02
1.142251295284962692e-01 5.136055416430294827e+02
1.143251515333373186e-01 5.136059590130709012e+02
1.144251735381783819e-01 5.136063604139543486e+02
1.145251955430194590e-01 5.136067457772687703e+02
1.146252175478605362e-01 5.136071150350260268e+02
1.147252395527015856e-01 5.136074681196644178e+02
1.148252615575426488e-01 5.136078049640491372e+02
1.149252835623837260e-01 5.136081255014730687e+02
1.150253055672247754e-01 5.136084296656612196e+02
1.151253275720658387e-01 5.136087173907681063e+02
1.152253495769069158e-01 5.136089886113827561e+02
1.153253715817479652e-01 5.136092432625290485e+02
1.154253935865890424e-01 5.136094812796674205e+02
1.155254155914301056e-01 5.136097025986942981e+02
1.156254375962711828e-01 5.136099071559481217e+02
1.157254596011122322e-01 5.136100948882055945e+02
1.158254816059532954e-01 5.136102657326873668e+02
1.159255036107943726e-01 5.136104196270567854e+02
1.160255256156354220e-01 5.136105565094226222e+02
1.161255476204764991e-01 5.136106763183399835e+02
1.162255696253175624e-01 5.136107789928115608e+02
1.163255916301586257e-01 5.136108644722905865e+02
1.164256136349996890e-01 5.136109326966794697e+02
1.165256356398407522e-01 5.136109836063335479e+02
1.166256576446818294e-01 5.136110171420613142e+02
1.167256796495228788e-01 5.136110332451261229e+02
1.168257016543639559e-01 5.136110318572469851e+02
1.169257236592050192e-01 5.136110129206009560e+02
1.170257456640460825e-01 5.136109763778231354e+02
1.171257676688871457e-01 5.136109221720088271e+02
1.172257896737282090e-01 5.136108502467149037e+02
1.173258116785692723e-01 5.136107605459602610e+02
1.174258336834103356e-01 5.136106530142280917e+02
1.175258556882514127e-01 5.136105275964659995e+02
1.176258776930924760e-01 5.136103842380880451e+02
1.177258996979335393e-01 5.136102228849761104e+02
1.178259217027746025e-01 5.136100434834798989e+02
1.179259437076156658e-01 5.136098459804200047e+02
1.180259657124567291e-01 5.136096303230873446e+02
1.181259877172977923e-01 5.136093964592447492e+02
1.182260097221388695e-01 5.136091443371290097e+02
1.183260317269799189e-01 5.136088739054507641e+02
1.184260537318209960e-01 5.136085851133966571e+02
1.185260757366620593e-01 5.136082779106299085e+02
1.186260977415031226e-01 5.136079522472911094e+02
1.187261197463441859e-01 5.136076080739999270e+02
1.188261417511852491e-01 5.136072453418565829e+02
1.189261637560263263e-01 5.136068640024406022e+02
1.190261857608673757e-01 5.136064640078152479e+02
1.191262077657084528e-01 5.136060453105262695e+02
1.192262297705495161e-01 5.136056078636026996e+02
1.193262517753905655e-01 5.136051516205586722e+02
1.194262737802316426e-01 5.136046765353955834e+02
1.195262957850727059e-01 5.136041825626009540e+02
1.196263177899137831e-01 5.136036696571502489e+02
1.197263397947548325e-01 5.136031377745074451e+02
1.198263617995959096e-01 5.136025868706270785e+02
1.199263838044369729e-01 5.136020169019545847e+02
1.200264058092780223e-01 5.136014278254257306e+02
1.201264278141190994e-01 5.136008195984700251e+02
1.202264498189601627e-01 5.136001921790103779e+02
1.203264718238012398e-01 5.135995455254628723e+02
1.204264938286422892e-01 5.135988795967402893e+02
1.205265158334833664e-01 5.135981943522501751e+02
1.206265378383244297e-01 5.135974897518973421e+02
1.207265598431654791e-01 5.135967657560839825e+02
1.208265818480065562e-01 5.135960223257110329e+02
1.209266038528476195e-01 5.135952594221779464e+02
1.210266258576886689e-01 5.135944770073856489e+02
1.211266478625297460e-01 5.135936750437336968e+02
1.212266698673708232e-01 5.135928534941248245e+02
1.213266918722118864e-01 5.135920123219627840e+02
1.214267138770529358e-01 5.135911514911551876e+02
1.215267358818940130e-01 5.135902709661120298e+02
1.216267578867350763e-01 5.135893707117496660e+02
1.217267798915761257e-01 5.135884506934867204e+02
1.218268018964172028e-01 5.135875108772489739e+02
1.219268239012582800e-01 5.135865512294689097e+02
1.220268459060993294e-01 5.135855717170855996e+02
1.221268679109403926e-01 5.135845723075444766e+02
1.222268899157814698e-01 5.135835529688009728e+02
1.223269119206225330e-01 5.135825136693176773e+02
1.224269339254635824e-01 5.135814543780671784e+02
1.225269559303046596e-01 5.135803750645322907e+02
1.226269779351457367e-01 5.135792756987058283e+02
1.227269999399867861e-01 5.135781562510911726e+02
1.228270219448278494e-01 5.135770166927038645e+02
1.229270439496689266e-01 5.135758569950717174e+02
1.230270659545099760e-01 5.135746771302343632e+02
1.231270879593510392e-01 5.135734770707443886e+02
1.232271099641921164e-01 5.135722567896682449e+02
1.233271319690331935e-01 5.135710162605859068e+02
1.234271539738742429e-01 5.135697554575929189e+02
1.235271759787153062e-01 5.135684743552978944e+02
1.236271979835563833e-01 5.135671729288255847e+02
1.237272199883974327e-01 5.135658511538166522e+02
1.238272419932384960e-01 5.135645090064274427e+02
1.239272639980795732e-01 5.135631464633299856e+02
1.240272860029206226e-01 5.135617635017142675e+02
1.241273080077616997e-01 5.135603600992864131e+02
1.242273300126027630e-01 5.135589362342709592e+02
1.243273520174438401e-01 5.135574918854090356e+02
1.244273740222848895e-01 5.135560270319610936e+02
1.245273960271259528e-01 5.135545416537050869e+02
1.246274180319670299e-01 5.135530357309374949e+02
1.247274400368080793e-01 5.135515092444741185e+02
1.248274620416491565e-01 5.135499621756499664e+02
1.249274840464902198e-01 5.135483945063198234e+02
1.250275060513312830e-01 5.135468062188566591e+02
1.251275280561723324e-01 5.135451972961551519e+02
1.252275500610134096e-01 5.135435677216290742e+02
1.253275720658544867e-01 5.135419174792116337e+02
1.254275940706955361e-01 5.135402465533591112e+02
1.255276160755366133e-01 5.135385549290450626e+02
1.256276380803776904e-01 5.135368425917656623e+02
1.257276600852187398e-01 5.135351095275378839e+02
1.258276820900597892e-01 5.135333557228995005e+02
1.259277040949008664e-01 5.135315811649086299e+02
1.260277260997419158e-01 5.135297858411454399e+02
1.261277481045829929e-01 5.135279697397120344e+02
1.262277701094240701e-01 5.135261328492297253e+02
1.263277921142651472e-01 5.135242751588427836e+02
1.264278141191061966e-01 5.135223966582165076e+02
1.265278361239472460e-01 5.135204973375372219e+02
1.266278581287883231e-01 5.135185771875145520e+02
1.267278801336293725e-01 5.135166361993771034e+02
1.268279021384704497e-01 5.135146743648759866e+02
1.269279241433115268e-01 5.135126916762841347e+02
1.270279461481525762e-01 5.135106881263950527e+02
1.271279681529936534e-01 5.135086637085242955e+02
1.272279901578347028e-01 5.135066184165079903e+02
1.273280121626757799e-01 5.135045522447046551e+02
1.274280341675168293e-01 5.135024651879922430e+02
1.275280561723579065e-01 5.135003572417713258e+02
1.276280781771989836e-01 5.134982284019617964e+02
1.277281001820400330e-01 5.134960786650060527e+02
1.278281221868811102e-01 5.134939080278649044e+02
1.279281441917221596e-01 5.134917164880212113e+02
1.280281661965632367e-01 5.134895040434778366e+02
1.281281882014042861e-01 5.134872706927575337e+02
1.282282102062453633e-01 5.134850164349030592e+02
1.283282322110864404e-01 5.134827412694766053e+02
1.284282542159274898e-01 5.134804451965596854e+02
1.285282762207685670e-01 5.134781282167537029e+02
1.286282982256096163e-01 5.134757903311782457e+02
1.287283202304506935e-01 5.134734315414723369e+02
1.288283422352917429e-01 5.134710518497928433e+02
1.289283642401328200e-01 5.134686512588150435e+02
1.290283862449738972e-01 5.134662297717321735e+02
1.291284082498149466e-01 5.134637873922547442e+02
1.292284302546560237e-01 5.134613241246106554e+02
1.293284522594970731e-01 5.134588399735442863e+02
1.294284742643381503e-01 5.134563349443169500e+02
1.295284962691791997e-01 5.134538090427066663e+02
1.296285182740202768e-01 5.134512622750056607e+02
1.297285402788613262e-01 5.134486946480226379e+02
1.298285622837024034e-01 5.134461061690813040e+02
1.299285842885434805e-01 5.134434968460197979e+02
1.300286062933845299e-01 5.134408666871903506e+02
1.301286282982256071e-01 5.134382157014582617e+02
1.302286503030666565e-01 5.134355438982029227e+02
1.303286723079077336e-01 5.134328512873169075e+02
1.304286943127487830e-01 5.134301378792034711e+02
1.305287163175898602e-01 5.134274036847800744e+02
1.306287383224309373e-01 5.134246487154728129e+02
1.307287603272719867e-01 5.134218729832202825e+02
1.308287823321130638e-01 5.134190765004711920e+02
1.309288043369541132e-01 5.134162592801835672e+02
1.310288263417951904e-01 5.134134213358242960e+02
1.311288483466362398e-01 5.134105626813700383e+02
1.312288703514773169e-01 5.134076833313043835e+02
1.313288923563183941e-01 5.134047833006193287e+02
1.314289143611594435e-01 5.134018626048124361e+02
1.315289363660005206e-01 5.133989212598884251e+02
1.316289583708415700e-01 5.133959592823583762e+02
1.317289803756826472e-01 5.133929766892367752e+02
1.318290023805236966e-01 5.133899734980426501e+02
1.319290243853647737e-01 5.133869497268007080e+02
1.320290463902058509e-01 5.133839053940356507e+02
1.321290683950469003e-01 5.133808405187759263e+02
1.322290903998879774e-01 5.133777551205529335e+02
1.323291124047290268e-01 5.133746492193962467e+02
1.324291344095701040e-01 5.133715228358379363e+02
1.325291564144111534e-01 5.133683759909082482e+02
1.326291784192522305e-01 5.133652087061369684e+02
1.327292004240932799e-01 5.133620210035505806e+02
1.328292224289343570e-01 5.133588129056743128e+02
1.329292444337754342e-01 5.133555844355286126e+02
1.330292664386164836e-01 5.133523356166300573e+02
1.331292884434575607e-01 5.133490664729897617e+02
1.332293104482986101e-01 5.133457770291134921e+02
1.333293324531396873e-01 5.133424673099993925e+02
1.334293544579807367e-01 5.133391373411379845e+02
1.335293764628218138e-01 5.133357871485118267e+02
1.336293984676628910e-01 5.133324167585941495e+02
1.337294204725039404e-01 5.133290261983471510e+02
1.338294424773450175e-01 5.133256154952221095e+02
1.339294644821860669e-01 5.133221846771584751e+02
1.340294864870271441e-01 5.133187337725838688e+02
1.341295084918681935e-01 5.133152628104093083e+02
1.342295304967092706e-01 5.133117718200337549e+02
1.343295525015503478e-01 5.133082608313388846e+02
1.344295745063913972e-01 5.133047298746907927e+02
1.345295965112324743e-01 5.133011789809369247e+02
1.346296185160735237e-01 5.132976081814065310e+02
1.347296405209145731e-01 5.132940175079090750e+02
1.348296625257556502e-01 5.132904069927343471e+02
1.349296845305967274e-01 5.132867766686488267e+02
1.350297065354378045e-01 5.132831265688981830e+02
1.351297285402788539e-01 5.132794567272031827e+02
1.352297505451199311e-01 5.132757671777604855e+02
1.353297725499609805e-01 5.132720579552405979e+02
1.354297945548020299e-01 5.132683290947886690e+02
1.355298165596431070e-01 5.132645806320194879e+02
1.356298385644841842e-01 5.132608126030213498e+02
1.357298605693252336e-01 5.132570250443509394e+02
1.358298825741663107e-01 5.132532179930337861e+02
1.359299045790073879e-01 5.132493914865650595e+02
1.360299265838484373e-01 5.132455455629041126e+02
1.361299485886894867e-01 5.132416802604773238e+02
1.362299705935305638e-01 5.132377956181748004e+02
1.363299925983716410e-01 5.132338916753502644e+02
1.364300146032126904e-01 5.132299684718191202e+02
1.365300366080537675e-01 5.132260260478576583e+02
1.366300586128948447e-01 5.132220644442018056e+02
1.367300806177358941e-01 5.132180837020466697e+02
1.368301026225769434e-01 5.132140838630433564e+02
1.369301246274180206e-01 5.132100649692995376e+02
1.370301466322590977e-01 5.132060270633779737e+02
1.371301686371001471e-01 5.132019701882960590e+02
1.372301906419412243e-01 5.131978943875202503e+02
1.373302126467823014e-01 5.131937997049720934e+02
1.374302346516233508e-01 5.131896861850198093e+02
1.375302566564644002e-01 5.131855538724820462e+02
1.376302786613054774e-01 5.131814028126237872e+02
1.377303006661465545e-01 5.131772330511565769e+02
1.378303226709876039e-01 5.131730446342352252e+02
1.379303446758286811e-01 5.131688376084595120e+02
1.380303666806697582e-01 5.131646120208715729e+02
1.381303886855108076e-01 5.131603679189519198e+02
1.382304106903518570e-01 5.131561053506225107e+02
1.383304326951929342e-01 5.131518243642422021e+02
1.384304547000339836e-01 5.131475250086074311e+02
1.385304767048750607e-01 5.131432073329481227e+02
1.386304987097161379e-01 5.131388713869299636e+02
1.387305207145572150e-01 5.131345172206506504e+02
1.388305427193982644e-01 5.131301448846373887e+02
1.389305647242393138e-01 5.131257544298495077e+02
1.390305867290803910e-01 5.131213459076732306e+02
1.391306087339214403e-01 5.131169193699209927e+02
1.392306307387625175e-01 5.131124748688326918e+02
1.393306527436035946e-01 5.131080124570694352e+02
1.394306747484446440e-01 5.131035321877170645e+02
1.395306967532857212e-01 5.130990341142814941e+02
1.396307187581267706e-01 5.130945182906882565e+02
1.397307407629678477e-01 5.130899847712810242e+02
1.398307627678088971e-01 5.130854336108199050e+02
1.399307847726499743e-01 5.130808648644801906e+02
1.400308067774910514e-01 5.130762785878506520e+02
1.401308287823321008e-01 5.130716748369328570e+02
1.402308507871731780e-01 5.130670536681375324e+02
1.403308727920142274e-01 5.130624151382863829e+02
1.404308947968552768e-01 5.130577593046056109e+02
1.405309168016963539e-01 5.130530862247303503e+02
1.406309388065374311e-01 5.130483959566985277e+02
1.407309608113785082e-01 5.130436885589513167e+02
1.408309828162195576e-01 5.130389640903304098e+02
1.409310048210606348e-01 5.130342226100783591e+02
1.410310268259016842e-01 5.130294641778343703e+02
1.411310488307427335e-01 5.130246888536355527e+02
1.412310708355838107e-01 5.130198966979125998e+02
1.413310928404248878e-01 5.130150877714895614e+02
1.414311148452659372e-01 5.130102621355839574e+02
1.415311368501070144e-01 5.130054198518004114e+02
1.416311588549480915e-01 5.130005609821339476e+02
1.417311808597891409e-01 5.129956855889655571e+02
1.418312028646301903e-01 5.129907937350609473e+02
1.419312248694712675e-01 5.129858854835700868e+02
1.420312468743123446e-01 5.129809608980237954e+02
1.421312688791533940e-01 5.129760200423331753e+02
1.422312908839944712e-01 5.129710629807881332e+02
1.423313128888355483e-01 5.129660897780547657e+02
1.424313348936765977e-01 5.129611004991744494e+02
1.425313568985176471e-01 5.129560952095607718e+02
1.426313789033587243e-01 5.129510739750008952e+02
1.427314009081998014e-01 5.129460368616496453e+02
1.428314229130408508e-01 5.129409839360318983e+02
1.429314449178819280e-01 5.129359152650371243e+02
1.430314669227230051e-01 5.129308309159202963e+02
1.431314889275640545e-01 5.129257309562991622e+02
1.432315109324051039e-01 5.129206154541531077e+02
1.433315329372461810e-01 5.129154844778195184e+02
1.434315549420872304e-01 5.129103380959950300e+02
1.435315769469283076e-01 5.129051763777304132e+02
1.436315989517693847e-01 5.128999993924320506e+02
1.437316209566104619e-01 5.128948072098573903e+02
1.438316429614515113e-01 5.128895999001146038e+02
1.439316649662925607e-01 5.128843775336615636e+02
1.440316869711336378e-01 5.128791401813004995e+02
1.441317089759746872e-01 5.128738879141812959e+02
1.442317309808157644e-01 5.128686208037953520e+02
1.443317529856568415e-01 5.128633389219770606e+02
1.444317749904978909e-01 5.128580423408980096e+02
1.445317969953389681e-01 5.128527311330693692e+02
1.446318190001800175e-01 5.128474053713373451e+02
1.447318410050210946e-01 5.128420651288829504e+02
1.448318630098621440e-01 5.128367104792177997e+02
1.449318850147032212e-01 5.128313414961851322e+02
1.450319070195442983e-01 5.128259582539558323e+02
1.451319290243853477e-01 5.128205608270277480e+02
1.452319510292264249e-01 5.128151492902238715e+02
1.453319730340674742e-01 5.128097237186880193e+02
1.454319950389085514e-01 5.128042841878868785e+02
1.455320170437496008e-01 5.127988307736054594e+02
1.456320390485906779e-01 5.127933635519447080e+02
1.457320610534317551e-01 5.127878825993232113e+02
1.458320830582728045e-01 5.127823879924694666e+02
1.459321050631138816e-01 5.127768798084260879e+02
1.460321270679549310e-01 5.127713581245441219e+02
1.461321490727960082e-01 5.127658230184816830e+02
1.462321710776370576e-01 5.127602745682021350e+02
1.463321930824781347e-01 5.127547128519732951e+02
1.464322150873192119e-01 5.127491379483644778e+02
1.465322370921602613e-01 5.127435499362434257e+02
1.466322590970013384e-01 5.127379488947774462e+02
1.467322811018423878e-01 5.127323349034284092e+02
1.468323031066834650e-01 5.127267080419518379e+02
1.469323251115245144e-01 5.127210683903950894e+02
1.470323471163655915e-01 5.127154160290967866e+02
1.471323691212066409e-01 5.127097510386809063e+02
1.472323911260477181e-01 5.127040735000592804e+02
1.473324131308887952e-01 5.126983834944264800e+02
1.474324351357298446e-01 5.126926811032590194e+02
1.475324571405709217e-01 5.126869664083142197e+02
1.476324791454119711e-01 5.126812394916264566e+02
1.477325011502530483e-01 5.126755004355059100e+02
1.478325231550940977e-01 5.126697493225361768e+02
1.479325451599351748e-01 5.126639862355739297e+02
1.480325671647762520e-01 5.126582112577442558e+02
1.481325891696173014e-01 5.126524244724415666e+02
1.482326111744583785e-01 5.126466259633234586e+02
1.483326331792994279e-01 5.126408158143144647e+02
1.484326551841405051e-01 5.126349941095975282e+02
1.485326771889815545e-01 5.126291609336177544e+02
1.486326991938226316e-01 5.126233163710761573e+02
1.487327211986637088e-01 5.126174605069298877e+02
1.488327432035047582e-01 5.126115934263901863e+02
1.489327652083458353e-01 5.126057152149180638e+02
1.490327872131868847e-01 5.125998259582255514e+02
1.491328092180279619e-01 5.125939257422703577e+02
1.492328312228690113e-01 5.125880146532562094e+02
1.493328532277100884e-01 5.125820927776306917e+02
1.494328752325511656e-01 5.125761602020810415e+02
1.495328972373922150e-01 5.125702170135342612e+02
1.496329192422332921e-01 5.125642632991535947e+02
1.497329412470743415e-01 5.125582991463373901e+02
1.498329632519154186e-01 5.125523246427173945e+02
1.499329852567564680e-01 5.125463398761547751e+02
1.500330072615975452e-01 5.125403449347397782e+02
1.501330292664385946e-01 5.125343399067893415e+02
1.502330512712796717e-01 5.125283248808443659e+02
1.503330732761207489e-01 5.125222999456675552e+02
1.504330952809617983e-01 5.125162651902420521e+02
1.505331172858028754e-01 5.125102207037697326e+02
1.506331392906439248e-01 5.125041665756666589e+02
1.507331612954850020e-01 5.124981028955643296e+02
1.508331833003260514e-01 5.124920297533044504e+02
1.509332053051671285e-01 5.124859472389397297e+02
1.510332273100082057e-01 5.124798554427293311e+02
1.511332493148492551e-01 5.124737544551371684e+02
1.512332713196903322e-01 5.124676443668312231e+02
1.513332933245313816e-01 5.124615252686802478e+02
1.514333153293724588e-01 5.124553972517513785e+02
1.515333373342135082e-01 5.124492604073091115e+02
1.516333593390545853e-01 5.124431148268125753e+02
1.517333813438956625e-01 5.124369606019123466e+02
1.518334033487367118e-01 5.124307978244504511e+02
1.519334253535777890e-01 5.124246265864566112e+02
1.520334473584188384e-01 5.124184469801460864e+02
1.521334693632598878e-01 5.124122590979191045e+02
1.522334913681009649e-01 5.124060630323564283e+02
1.523335133729420421e-01 5.123998588762193549e+02
1.524335353777831192e-01 5.123936467224456237e+02
1.525335573826241686e-01 5.123874266641487338e+02
1.526335793874652458e-01 5.123811987946157842e+02
1.527336013923062952e-01 5.123749632073045177e+02
1.528336233971473446e-01 5.123687199958402516e+02
1.529336454019884217e-01 5.123624692540169008e+02
1.530336674068294989e-01 5.123562110757911796e+02
1.531336894116705483e-01 5.123499455552828294e+02
1.532337114165116254e-01 5.123436727867720037e+02
1.533337334213527026e-01 5.123373928646963122e+02
1.534337554261937520e-01 5.123311058836488883e+02
1.535337774310348014e-01 5.123248119383769108e+02
1.536337994358758785e-01 5.123185111237795581e+02
1.537338214407169557e-01 5.123122035349039152e+02
1.538338434455580050e-01 5.123058892669455417e+02
1.539338654503990822e-01 5.122995684152441527e+02
1.540338874552401593e-01 5.122932410752819123e+02
1.541339094600812087e-01 5.122869073426824116e+02
1.542339314649222581e-01 5.122805673132074844e+02
1.543339534697633353e-01 5.122742210827541385e+02
1.544339754746044124e-01 5.122678687473551236e+02
1.545339974794454618e-01 5.122615104031734745e+02
1.546340194842865390e-01 5.122551461465035345e+02
1.547340414891276161e-01 5.122487760737658391e+02
1.548340634939686655e-01 5.122424002815064341e+02
1.549340854988097149e-01 5.122360188663950566e+02
1.550341075036507921e-01 5.122296319252220655e+02
1.551341295084918692e-01 5.122232395548959403e+02
1.552341515133329186e-01 5.122168418524438493e+02
1.553341735181739958e-01 5.122104389150050565e+02
1.554341955230150729e-01 5.122040308398326260e+02
1.555342175278561223e-01 5.121976177242893300e+02
1.556342395326971717e-01 5.121911996658454882e+02
1.557342615375382489e-01 5.121847767620765808e+02
1.558342835423792982e-01 5.121783491106635893e+02
1.559343055472203754e-01 5.121719168093873122e+02
1.560343275520614525e-01 5.121654799561273421e+02
1.561343495569025297e-01 5.121590386488612694e+02
1.562343715617435791e-01 5.121525929856617267e+02
1.563343935665846285e-01 5.121461430646930921e+02
1.564344155714256779e-01 5.121396889842104656e+02
1.565344375762667550e-01 5.121332308425573956e+02
1.566344595811078322e-01 5.121267687381638325e+02
1.567344815859489093e-01 5.121203027695428318e+02
1.568345035907899865e-01 5.121138330352899857e+02
1.569345255956310359e-01 5.121073596340797849e+02
1.570345476004720853e-01 5.121008826646653915e+02
1.571345696053131347e-01 5.120944022258730683e+02
1.572345916101542118e-01 5.120879184166046798e+02
1.573346136149952890e-01 5.120814313358305299e+02
1.574346356198363661e-01 5.120749410825908399e+02
1.575346576246774433e-01 5.120684477559933612e+02
1.576346796295184927e-01 5.120619514552076907e+02
1.577347016343595421e-01 5.120554522794687955e+02
1.578347236392005914e-01 5.120489503280680310e+02
1.579347456440416686e-01 5.120424457003581438e+02
1.580347676488827457e-01 5.120359384957459952e+02
1.581347896537238229e-01 5.120294288136910836e+02
1.582348116585649000e-01 5.120229167537058856e+02
1.583348336634059217e-01 5.120164024153511946e+02
1.584348556682469988e-01 5.120098858982356660e+02
1.585348776730880482e-01 5.120033673020114975e+02
1.586348996779291254e-01 5.119968467263756793e+02
1.587349216827702025e-01 5.119903242710630593e+02
1.588349436876112797e-01 5.119838000358502086e+02
1.589349656924523568e-01 5.119772741205467241e+02
1.590349876972933785e-01 5.119707466249994923e+02
1.591350097021344556e-01 5.119642176490847305e+02
1.592350317069755050e-01 5.119576872927096929e+02
1.593350537118165822e-01 5.119511556558096572e+02
1.594350757166576593e-01 5.119446228383446851e+02
1.595350977214987365e-01 5.119380889402989965e+02
1.596351197263398136e-01 5.119315540616782982e+02
1.597351417311808353e-01 5.119250183025056913e+02
1.598351637360219124e-01 5.119184817628238306e+02
1.599351857408629618e-01 5.119119445426885591e+02
1.600352077457040390e-01 5.119054067421689069e+02
1.601352297505451161e-01 5.118988684613443638e+02
1.602352517553861933e-01 5.118923298003040827e+02
1.603352737602272149e-01 5.118857908591415935e+02
1.604352957650682920e-01 5.118792517379562241e+02
1.605353177699093692e-01 5.118727125368498037e+02
1.606353397747504186e-01 5.118661733559227400e+02
1.607353617795914957e-01 5.118596342952743043e+02
1.608353837844325729e-01 5.118530954549998455e+02
1.609354057892736500e-01 5.118465569351873796e+02
1.610354277941146717e-01 5.118400188359178742e+02
1.611354497989557488e-01 5.118334812572609280e+02
1.612354718037968260e-01 5.118269442992731229e+02
1.613354938086378754e-01 5.118204080619983642e+02
1.614355158134789525e-01 5.118138726454620269e+02
1.615355378183200297e-01 5.118073381496706133e+02
1.616355598231611068e-01 5.118008046746105606e+02
1.617355818280021285e-01 5.117942723202452839e+02
1.618356038328432056e-01 5.117877411865117097e+02
1.619356258376842828e-01 5.117812113733218666e+02
1.620356478425253322e-01 5.117746829805565199e+02
1.621356698473664093e-01 5.117681561080662505e+02
1.622356918522074865e-01 5.117616308556679314e+02
1.623357138570485636e-01 5.117551073231422265e+02
1.624357358618895852e-01 5.117485856102348407e+02
1.625357578667306624e-01 5.117420658166483349e+02
1.626357798715717395e-01 5.117355480420462754e+02
1.627358018764127889e-01 5.117290323860479475e+02
1.628358238812538661e-01 5.117225189482258543e+02
1.629358458860949432e-01 5.117160078281060578e+02
1.630358678909359926e-01 5.117094991251647116e+02
1.631358898957770420e-01 5.117029929388255596e+02
1.632359119006181192e-01 5.116964893684591971e+02
1.633359339054591963e-01 5.116899885133792623e+02
1.634359559103002457e-01 5.116834904728420383e+02
1.635359779151413229e-01 5.116769953460449187e+02
1.636359999199824000e-01 5.116705032321212911e+02
1.637360219248234494e-01 5.116640142301421861e+02
1.638360439296644988e-01 5.116575284391118998e+02
1.639360659345055760e-01 5.116510459579677104e+02
1.640360879393466531e-01 5.116445668855756139e+02
1.641361099441877025e-01 5.116380913207308367e+02
1.642361319490287797e-01 5.116316193621529465e+02
1.643361539538698568e-01 5.116251511084877279e+02
1.644361759587109062e-01 5.116186866583014421e+02
1.645361979635519556e-01 5.116122261100813944e+02
1.646362199683930327e-01 5.116057695622322967e+02
1.647362419732341099e-01 5.115993171130756991e+02
1.648362639780751593e-01 5.115928688608462380e+02
1.649362859829162364e-01 5.115864249036920341e+02
1.650363079877572858e-01 5.115799853396708841e+02
1.651363299925983630e-01 5.115735502667484980e+02
1.652363519974394124e-01 5.115671197827970218e+02
1.653363740022804895e-01 5.115606939855945257e+02
1.654363960071215667e-01 5.115542729728191489e+02
1.655364180119626161e-01 5.115478568420518855e+02
1.656364400168036932e-01 5.115414456907695921e+02
1.657364620216447426e-01 5.115350396163489677e+02
1.658364840264858198e-01 5.115286387160592767e+02
1.659365060313268692e-01 5.115222430870629182e+02
1.660365280361679463e-01 5.115158528264144024e+02
1.661365500410090235e-01 5.115094680310550643e+02
1.662365720458500729e-01 5.115030887978161900e+02
1.663365940506911500e-01 5.114967152234112291e+02
1.664366160555321994e-01 5.114903474044401719e+02
1.665366380603732765e-01 5.114839854373819321e+02
1.666366600652143259e-01 5.114776294185961660e+02
1.667366820700554031e-01 5.114712794443194070e+02
1.668367040748964802e-01 5.114649356106647247e+02
1.669367260797375296e-01 5.114585980136188255e+02
1.670367480845785790e-01 5.114522667490413710e+02
1.671367700894196562e-01 5.114459419126604303e+02
1.672367920942607333e-01 5.114396236000741283e+02
1.673368140991017827e-01 5.114333119067462690e+02
1.674368361039428599e-01 5.114270069280057669e+02
1.675368581087839370e-01 5.114207087590442598e+02
1.676368801136249864e-01 5.114144174949130957e+02
1.677369021184660358e-01 5.114081332305260048e+02
1.678369241233071130e-01 5.114018560606507435e+02
1.679369461281481901e-01 5.113955860799129027e+02
1.680369681329892395e-01 5.113893233827907920e+02
1.681369901378303167e-01 5.113830680636143029e+02
1.682370121426713938e-01 5.113768202165651360e+02
1.683370341475124432e-01 5.113705799356713442e+02
1.684370561523534926e-01 5.113643473148094927e+02
1.685370781571945697e-01 5.113581224476992020e+02
1.686371001620356469e-01 5.113519054279039437e+02
1.687371221668766963e-01 5.113456963488291649e+02
1.688371441717177734e-01 5.113394953037182518e+02
1.689371661765588506e-01 5.113333023856533828e+02
1.690371881813998722e-01 5.113271176875530273e+02
1.691372101862409494e-01 5.113209413021690466e+02
1.692372321910820265e-01 5.113147733220859550e+02
1.693372541959231037e-01 5.113086138397195555e+02
1.694372762007641531e-01 5.113024629473140408e+02
1.695372982056052302e-01 5.112963207369419933e+02
1.696373202104463074e-01 5.112901873005000084e+02
1.697373422152873290e-01 5.112840627297103993e+02
1.698373642201284062e-01 5.112779471161163656e+02
1.699373862249694833e-01 5.112718405510818229e+02
1.700374082298105605e-01 5.112657431257895837e+02
1.701374302346516099e-01 5.112596549312406182e+02
1.702374522394926870e-01 5.112535760582495072e+02
1.703374742443337642e-01 5.112475065974456925e+02
1.704374962491747858e-01 5.112414466392702934e+02
1.705375182540158630e-01 5.112353962739761641e+02
1.706375402588569401e-01 5.112293555916231753e+02
1.707375622636980173e-01 5.112233246820787826e+02
1.708375842685390666e-01 5.112173036350176858e+02
1.709376062733801438e-01 5.112112925399152346e+02
1.710376282782212209e-01 5.112052914860520900e+02
1.711376502830622426e-01 5.111993005625076876e+02
1.712376722879033197e-01 5.111933198581617717e+02
1.713376942927443969e-01 5.111873494616895641e+02
1.714377162975854740e-01 5.111813894615642084e+02
1.715377383024265234e-01 5.111754399460523928e+02
1.716377603072676006e-01 5.111695010032127016e+02
1.717377823121086222e-01 5.111635727208948765e+02
1.718378043169496994e-01 5.111576551867386797e+02
1.719378263217907765e-01 5.111517484881721884e+02
1.720378483266318537e-01 5.111458527124080433e+02
1.721378703314729308e-01 5.111399679464456653e+02
1.722378923363139802e-01 5.111340942770663105e+02
1.723379143411550574e-01 5.111282317908332402e+02
1.724379363459960790e-01 5.111223805740901298e+02
1.725379583508371562e-01 5.111165407129590221e+02
1.726379803556782333e-01 5.111107122933395317e+02
1.727380023605193105e-01 5.111048954009054910e+02
1.728380243653603876e-01 5.110990901211064283e+02
1.729380463702014370e-01 5.110932965391635321e+02
1.730380683750425141e-01 5.110875147400691958e+02
1.731380903798835358e-01 5.110817448085855972e+02
1.732381123847246129e-01 5.110759868292424244e+02
1.733381343895656901e-01 5.110702408863369328e+02
1.734381563944067672e-01 5.110645070639301366e+02
1.735381783992478444e-01 5.110587854458483434e+02
1.736382004040888938e-01 5.110530761156787776e+02
1.737382224089299432e-01 5.110473791567704893e+02
1.738382444137709926e-01 5.110416946522308308e+02
1.739382664186120697e-01 5.110360226849258538e+02
1.740382884234531469e-01 5.110303633374779224e+02
1.741383104282942240e-01 5.110247166922640076e+02
1.742383324331353012e-01 5.110190828314161422e+02
1.743383544379763506e-01 5.110134618368163046e+02
1.744383764428174000e-01 5.110078537900988067e+02
1.745383984476584494e-01 5.110022587726485881e+02
1.746384204524995265e-01 5.109966768655958163e+02
1.747384424573406037e-01 5.109911081498194108e+02
1.748384644621816808e-01 5.109855527059429505e+02
1.749384864670227580e-01 5.109800106143340486e+02
1.750385084718638073e-01 5.109744819551041815e+02
1.751385304767048567e-01 5.109689668081030050e+02
1.752385524815459061e-01 5.109634652529232994e+02
1.753385744863869833e-01 5.109579773688951150e+02
1.754385964912280604e-01 5.109525032350854872e+02
1.755386184960691376e-01 5.109470429302983234e+02
1.756386405009102147e-01 5.109415965330716176e+02
1.757386625057512364e-01 5.109361641216760290e+02
1.758386845105923135e-01 5.109307457741159624e+02
1.759387065154333629e-01 5.109253415681249635e+02
1.760387285202744401e-01 5.109199515811673109e+02
1.761387505251155172e-01 5.109145758904346621e+02
1.762387725299565944e-01 5.109092145728462810e+02
1.763387945347976715e-01 5.109038677050460819e+02
1.764388165396386932e-01 5.108985353634033117e+02
1.765388385444797703e-01 5.108932176240106173e+02
1.766388605493208197e-01 5.108879145626822265e+02
1.767388825541618969e-01 5.108826262549522426e+02
1.768389045590029740e-01 5.108773527760763500e+02
1.769389265638440512e-01 5.108720942010263570e+02
1.770389485686851283e-01 5.108668506044926971e+02
1.771389705735261499e-01 5.108616220608806771e+02
1.772389925783672271e-01 5.108564086443109318e+02
1.773390145832082765e-01 5.108512104286180602e+02
1.774390365880493536e-01 5.108460274873475555e+02
1.775390585928904308e-01 5.108408598937577381e+02
1.776390805977315079e-01 5.108357077208153783e+02
1.777391026025725296e-01 5.108305710411977998e+02
1.778391246074136067e-01 5.108254499272883891e+02
1.779391466122546839e-01 5.108203444511784141e+02
1.780391686170957333e-01 5.108152546846644100e+02
1.781391906219368104e-01 5.108101806992465868e+02
1.782392126267778876e-01 5.108051225661290005e+02
1.783392346316189647e-01 5.108000803562170518e+02
1.784392566364599864e-01 5.107950541401182818e+02
1.785392786413010635e-01 5.107900439881393027e+02
1.786393006461421407e-01 5.107850499702861953e+02
1.787393226509831901e-01 5.107800721562623494e+02
1.788393446558242672e-01 5.107751106154683498e+02
1.789393666606653444e-01 5.107701654169997596e+02
1.790393886655064215e-01 5.107652366296471200e+02
1.791394106703474431e-01 5.107603243218947000e+02
1.792394326751885203e-01 5.107554285619188477e+02
1.793394546800295974e-01 5.107505494175882177e+02
1.794394766848706468e-01 5.107456869564606450e+02
1.795394986897117240e-01 5.107408412457850773e+02
1.796395206945528011e-01 5.107360123524975961e+02
1.797395426993938783e-01 5.107312003432214738e+02
1.798395647042348999e-01 5.107264052842683100e+02
1.799395867090759771e-01 5.107216272416330867e+02
1.800396087139170542e-01 5.107168662809967827e+02
1.801396307187581036e-01 5.107121224677229065e+02
1.802396527235991808e-01 5.107073958668589739e+02
1.803396747284402579e-01 5.107026865431324154e+02
1.804396967332813073e-01 5.106979945609522247e+02
1.805397187381223567e-01 5.106933199844070259e+02
1.806397407429634339e-01 5.106886628772650738e+02
1.807397627478045110e-01 5.106840233029710134e+02
1.808397847526455604e-01 5.106794013246471877e+02
1.809398067574866376e-01 5.106747970050934100e+02
1.810398287623277147e-01 5.106702104067820756e+02
1.811398507671687641e-01 5.106656415918624248e+02
1.812398727720098135e-01 5.106610906221550295e+02
1.813398947768508906e-01 5.106565575591546349e+02
1.814399167816919678e-01 5.106520424640272040e+02
1.815399387865330172e-01 5.106475453976092922e+02
1.816399607913740943e-01 5.106430664204076493e+02
1.817399827962151715e-01 5.106386055925978553e+02
1.818400048010562209e-01 5.106341629740246617e+02
1.819400268058972703e-01 5.106297386241998879e+02
1.820400488107383474e-01 5.106253326023022510e+02
1.821400708155794246e-01 5.106209449671754328e+02
1.822400928204204740e-01 5.106165757773291034e+02
1.823401148252615511e-01 5.106122250909378408e+02
1.824401368301026005e-01 5.106078929658381753e+02
1.825401588349436777e-01 5.106035794595306356e+02
1.826401808397847271e-01 5.105992846291769069e+02
1.827402028446258042e-01 5.105950085316006266e+02
1.828402248494668814e-01 5.105907512232857357e+02
1.829402468543079308e-01 5.105865127603747737e+02
1.830402688591490079e-01 5.105822931986718913e+02
1.831402908639900573e-01 5.105780925936364838e+02
1.832403128688311345e-01 5.105739110003871701e+02
1.833403348736721838e-01 5.105697484736997467e+02
1.834403568785132610e-01 5.105656050680041176e+02
1.835403788833543381e-01 5.105614808373880464e+02
1.836404008881953875e-01 5.105573758355933478e+02
1.837404228930364647e-01 5.105532901160145229e+02
1.838404448978775141e-01 5.105492237317009767e+02
1.839404669027185912e-01 5.105451767353543460e+02
1.840404889075596406e-01 5.105411491793282721e+02
1.841405109124007178e-01 5.105371411156283443e+02
1.842405329172417949e-01 5.105331525959098258e+02
1.843405549220828443e-01 5.105291836714794158e+02
1.844405769269238937e-01 5.105252343932922940e+02
1.845405989317649709e-01 5.105213048119534278e+02
1.846406209366060480e-01 5.105173949777152984e+02
1.847406429414470974e-01 5.105135049404784127e+02
1.848406649462881746e-01 5.105096347497909619e+02
1.849406869511292517e-01 5.105057844548466051e+02
1.850407089559703011e-01 5.105019541044862308e+02
1.851407309608113505e-01 5.104981437471942627e+02
1.852407529656524277e-01 5.104943534311016151e+02
1.853407749704935048e-01 5.104905832039837605e+02
1.854407969753345542e-01 5.104868331132576600e+02
1.855408189801756313e-01 5.104831032059864810e+02
1.856408409850167085e-01 5.104793935288727198e+02
1.857408629898577579e-01 5.104757041282640557e+02
1.858408849946988073e-01 5.104720350501474968e+02
1.859409069995398844e-01 5.104683863401530743e+02
1.860409290043809616e-01 5.104647580435505461e+02
1.861409510092220110e-01 5.104611502052489413e+02
1.862409730140630881e-01 5.104575628697983234e+02
1.863409950189041653e-01 5.104539960813868902e+02
1.864410170237451869e-01 5.104504498838430209e+02
1.865410390285862641e-01 5.104469243206317515e+02
1.866410610334273412e-01 5.104434194348570486e+02
1.867410830382684184e-01 5.104399352692595357e+02
1.868411050431094678e-01 5.104364718662172322e+02
1.869411270479505449e-01 5.104330292677431657e+02
1.870411490527916221e-01 5.104296075154896357e+02
1.871411710576326437e-01 5.104262066507420741e+02
1.872411930624737209e-01 5.104228267144213760e+02
1.873412150673147980e-01 5.104194677470841270e+02
1.874412370721558752e-01 5.104161297889209550e+02
1.875412590769969245e-01 5.104128128797568706e+02
1.876412810818380017e-01 5.104095170590500743e+02
1.877413030866790788e-01 5.104062423658930925e+02
1.878413250915201005e-01 5.104029888390109591e+02
1.879413470963611776e-01 5.103997565167602488e+02
1.880413691012022548e-01 5.103965454371324881e+02
1.881413911060433319e-01 5.103933556377487548e+02
1.882414131108843813e-01 5.103901871558625771e+02
1.883414351157254585e-01 5.103870400283597064e+02
1.884414571205665356e-01 5.103839142917553886e+02
1.885414791254075573e-01 5.103808099821972064e+02
1.886415011302486344e-01 5.103777271354621803e+02
1.887415231350897116e-01 5.103746657869581327e+02
1.888415451399307887e-01 5.103716259717220964e+02
1.889415671447718381e-01 5.103686077244207127e+02
1.890415891496129153e-01 5.103656110793509697e+02
1.891416111544539369e-01 5.103626360704379294e+02
1.892416331592950141e-01 5.103596827312359778e+02
1.893416551641360912e-01 5.103567510949280859e+02
1.894416771689771684e-01 5.103538411943255824e+02
1.895416991738182455e-01 5.103509530618677559e+02
1.896417211786592949e-01 5.103480867296220822e+02
1.897417431835003720e-01 5.103452422292841675e+02
1.898417651883413937e-01 5.103424195921759292e+02
1.899417871931824708e-01 5.103396188492476426e+02
1.900418091980235480e-01 5.103368400310765765e+02
1.901418312028646251e-01 5.103340831678671066e+02
1.902418532077057023e-01 5.103313482894495792e+02
1.903418752125467517e-01 5.103286354252815613e+02
1.904418972173878288e-01 5.103259446044478409e+02
1.905419192222288505e-01 5.103232758556586077e+02
1.906419412270699276e-01 5.103206292072493397e+02
1.907419632319110048e-01 5.103180046871843274e+02
1.908419852367520819e-01 5.103154023230509893e+02
1.909420072415931591e-01 5.103128221420639079e+02
1.910420292464342085e-01 5.103102641710635794e+02
1.911420512512752579e-01 5.103077284365153332e+02
1.912420732561163073e-01 5.103052149645100144e+02
1.913420952609573844e-01 5.103027237807650067e+02
1.914421172657984616e-01 5.103002549106215611e+02
1.915421392706395387e-01 5.102978083790472397e+02
1.916421612754806159e-01 5.102953842106342108e+02
1.917421832803216653e-01 5.102929824295997605e+02
1.918422052851627146e-01 5.102906030597869744e+02
1.919422272900037640e-01 5.102882461246630896e+02
1.920422492948448412e-01 5.102859116473209724e+02
1.921422712996859183e-01 5.102835996504783225e+02
1.922422933045269955e-01 5.102813101564772182e+02
1.923423153093680726e-01 5.102790431872854242e+02
1.924423373142091220e-01 5.102767987644949130e+02
1.925423593190501714e-01 5.102745769093235708e+02
1.926423813238912208e-01 5.102723776426131508e+02
1.927424033287322980e-01 5.102702009848308080e+02
1.928424253335733751e-01 5.102680469560701226e+02
1.929424473384144523e-01 5.102659155760464955e+02
1.930424693432555294e-01 5.102638068641025484e+02
1.931424913480965511e-01 5.102617208392059069e+02
1.932425133529376282e-01 5.102596575199489166e+02
1.933425353577786776e-01 5.102576169245483015e+02
1.934425573626197548e-01 5.102555990708480635e+02
1.935425793674608319e-01 5.102536039763158442e+02
1.936426013723019091e-01 5.102516316580449711e+02
1.937426233771429862e-01 5.102496821327550833e+02
1.938426453819840078e-01 5.102477554167890048e+02
1.939426673868250850e-01 5.102458515261193952e+02
1.940426893916661344e-01 5.102439704763409623e+02
1.941427113965072115e-01 5.102421122826758051e+02
1.942427334013482887e-01 5.102402769599719932e+02
1.943427554061893658e-01 5.102384645227033388e+02
1.944427774110304430e-01 5.102366749849706480e+02
1.945427994158714646e-01 5.102349083605004125e+02
1.946428214207125418e-01 5.102331646626461179e+02
1.947428434255535912e-01 5.102314439043879020e+02
1.948428654303946683e-01 5.102297460983327255e+02
1.949428874352357455e-01 5.102280712567150545e+02
1.950429094400768226e-01 5.102264193913954387e+02
1.951429314449178443e-01 5.102247905138631268e+02
1.952429534497589214e-01 5.102231846352342473e+02
1.953429754545999986e-01 5.102216017662535137e+02
1.954429974594410480e-01 5.102200419172928605e+02
1.955430194642821251e-01 5.102185050983518977e+02
1.956430414691232023e-01 5.102169913190606394e+02
1.957430634739642794e-01 5.102155005886759795e+02
1.958430854788053010e-01 5.102140329160844772e+02
1.959431074836463782e-01 5.102125883098017312e+02
1.960431294884874553e-01 5.102111667779727782e+02
1.961431514933285047e-01 5.102097683283720926e+02
1.962431734981695819e-01 5.102083929684043255e+02
1.963431955030106590e-01 5.102070407051038501e+02
1.964432175078517362e-01 5.102057115451362392e+02
1.965432395126927578e-01 5.102044054947969585e+02
1.966432615175338350e-01 5.102031225600131847e+02
1.967432835223749121e-01 5.102018627463427833e+02
1.968433055272159615e-01 5.102006260589755584e+02
1.969433275320570387e-01 5.101994125027320592e+02
1.970433495368981158e-01 5.101982220820682414e+02
1.971433715417391930e-01 5.101970548010685320e+02
1.972433935465802146e-01 5.101959106634530485e+02
1.973434155514212918e-01 5.101947896725738474e+02
1.974434375562623689e-01 5.101936918314171976e+02
1.975434595611034183e-01 5.101926171426021028e+02
1.976434815659444955e-01 5.101915656083829731e+02
1.977435035707855726e-01 5.101905372306485447e+02
1.978435255756266220e-01 5.101895320109218801e+02
1.979435475804676714e-01 5.101885499503617893e+02
1.980435695853087485e-01 5.101875910497633981e+02
1.981435915901498257e-01 5.101866553095561017e+02
1.982436135949908751e-01 5.101857427298074299e+02
1.983436355998319522e-01 5.101848533102214560e+02
1.984436576046730294e-01 5.101839870501390806e+02
1.985436796095140788e-01 5.101831439485381452e+02
1.986437016143551282e-01 5.101823240040365590e+02
1.987437236191962053e-01 5.101815272148892291e+02
1.988437456240372825e-01 5.101807535789905614e+02
1.989437676288783319e-01 5.101800030938735517e+02
1.990437896337194090e-01 5.101792757567121726e+02
1.991438116385604862e-01 5.101785715643195545e+02
1.992438336434015356e-01 5.101778905131500892e+02
1.993438556482425850e-01 5.101772325992992592e+02
1.994438776530836621e-01 5.101765978185039785e+02
1.995438996579247393e-01 5.101759861661430477e+02
1.996439216627657887e-01 5.101753976372387456e+02
1.997439436676068658e-01 5.101748322264551803e+02
1.998439656724479152e-01 5.101742899281008476e+02
1.999439876772889924e-01 5.101737707361276080e+02
2.000440096821300417e-01 5.101732746441329027e+02
2.001440316869711189e-01 5.101728016453579357e+02
2.002440536918121960e-01 5.101723517326899469e+02
2.003440756966532454e-01 5.101719248986626667e+02
2.004440977014943226e-01 5.101715211354551229e+02
2.005441197063353720e-01 5.101711404348954488e+02
2.006441417111764491e-01 5.101707827884575295e+02
2.007441637160174985e-01 5.101704481872644692e+02
2.008441857208585757e-01 5.101701366220879663e+02
2.009442077256996528e-01 5.101698480833488247e+02
2.010442297305407022e-01 5.101695825611168402e+02
2.011442517353817794e-01 5.101693400451141542e+02
2.012442737402228288e-01 5.101691205247130370e+02
2.013442957450639059e-01 5.101689239889360579e+02
2.014443177499049553e-01 5.101687504264594395e+02
2.015443397547460325e-01 5.101685998256116363e+02
2.016443617595871096e-01 5.101684721743745285e+02
2.017443837644281590e-01 5.101683674603832515e+02
2.018444057692692084e-01 5.101682856709285261e+02
2.019444277741102856e-01 5.101682267929555223e+02
2.020444497789513627e-01 5.101681908130650527e+02
2.021444717837924121e-01 5.101681777175144248e+02
2.022444937886334893e-01 5.101681874922188058e+02
2.023445157934745664e-01 5.101682201227487781e+02
2.024445377983156158e-01 5.101682755943362508e+02
2.025445598031566652e-01 5.101683538918691170e+02
2.026445818079977423e-01 5.101684549998964258e+02
2.027446038128388195e-01 5.101685789026269617e+02
2.028446258176798689e-01 5.101687255839307227e+02
2.029446478225209460e-01 5.101688950273382943e+02
2.030446698273620232e-01 5.101690872160441472e+02
2.031446918322030726e-01 5.101693021329037379e+02
2.032447138370441220e-01 5.101695397604372033e+02
2.033447358418851991e-01 5.101698000808284519e+02
2.034447578467262763e-01 5.101700830759268683e+02
2.035447798515673257e-01 5.101703887272469160e+02
2.036448018564084028e-01 5.101707170159695579e+02
2.037448238612494800e-01 5.101710679229423135e+02
2.038448458660905016e-01 5.101714414286814190e+02
2.039448678709315788e-01 5.101718375133707468e+02
2.040448898757726559e-01 5.101722561568637957e+02
2.041449118806137331e-01 5.101726973386840314e+02
2.042449338854547825e-01 5.101731610380245456e+02
2.043449558902958596e-01 5.101736472337511259e+02
2.044449778951369368e-01 5.101741559044010046e+02
2.045449998999779584e-01 5.101746870281847350e+02
2.046450219048190355e-01 5.101752405829858503e+02
2.047450439096601127e-01 5.101758165463622845e+02
2.048450659145011898e-01 5.101764148955479072e+02
2.049450879193422392e-01 5.101770356074517281e+02
2.050451099241833164e-01 5.101776786586599428e+02
2.051451319290243935e-01 5.101783440254355924e+02
2.052451539338654152e-01 5.101790316837207229e+02
2.053451759387064923e-01 5.101797416091347372e+02
2.054451979435475695e-01 5.101804737769793974e+02
2.055452199483886466e-01 5.101812281622360956e+02
2.056452419532296960e-01 5.101820047395663664e+02
2.057452639580707732e-01 5.101828034833145011e+02
2.058452859629118503e-01 5.101836243675095943e+02
2.059453079677528720e-01 5.101844673658622469e+02
2.060453299725939491e-01 5.101853324517687724e+02
2.061453519774350263e-01 5.101862195983111974e+02
2.062453739822761034e-01 5.101871287782570903e+02
2.063453959871171528e-01 5.101880599640628020e+02
2.064454179919582300e-01 5.101890131278700551e+02
2.065454399967992516e-01 5.101899882415116281e+02
2.066454620016403287e-01 5.101909852765091955e+02
2.067454840064814059e-01 5.101920042040752605e+02
2.068455060113224830e-01 5.101930449951125297e+02
2.069455280161635602e-01 5.101941076202176646e+02
2.070455500210046096e-01 5.101951920496797470e+02
2.071455720258456867e-01 5.101962982534815865e+02
2.072455940306867084e-01 5.101974262013008570e+02
2.073456160355277855e-01 5.101985758625114045e+02
2.074456380403688627e-01 5.101997472061832468e+02
2.075456600452099398e-01 5.102009402010845633e+02
2.076456820500510170e-01 5.102021548156811832e+02
2.077457040548920664e-01 5.102033910181385750e+02
2.078457260597331435e-01 5.102046487763229834e+02
2.079457480645741652e-01 5.102059280578009179e+02
2.080457700694152423e-01 5.102072288298408012e+02
2.081457920742563195e-01 5.102085510594143898e+02
2.082458140790973966e-01 5.102098947131981390e+02
2.083458360839384738e-01 5.102112597575717245e+02
2.084458580887795232e-01 5.102126461586218511e+02
2.085458800936205725e-01 5.102140538821404903e+02
2.086459020984616219e-01 5.102154828936285185e+02
2.087459241033026991e-01 5.102169331582944096e+02
2.088459461081437762e-01 5.102184046410567362e+02
2.089459681129848534e-01 5.102198973065440555e+02
2.090459901178259305e-01 5.102214111190963877e+02
2.091460121226669799e-01 5.102229460427661252e+02
2.092460341275080293e-01 5.102245020413186012e+02
2.093460561323490787e-01 5.102260790782342497e+02
2.094460781371901559e-01 5.102276771167072980e+02
2.095461001420312330e-01 5.102292961196491774e+02
2.096461221468723102e-01 5.102309360496885802e+02
2.097461441517133873e-01 5.102325968691714024e+02
2.098461661565544367e-01 5.102342785401634160e+02
2.099461881613954861e-01 5.102359810244503251e+02
2.100462101662365355e-01 5.102377042835381644e+02
2.101462321710776127e-01 5.102394482786565391e+02
2.102462541759186898e-01 5.102412129707570330e+02
2.103462761807597670e-01 5.102429983205148574e+02
2.104462981856008441e-01 5.102448042883323183e+02
2.105463201904418657e-01 5.102466308343347805e+02
2.106463421952829429e-01 5.102484779183778301e+02
2.107463642001239923e-01 5.102503455000425561e+02
2.108463862049650694e-01 5.102522335386410077e+02
2.109464082098061466e-01 5.102541419932145459e+02
2.110464302146472237e-01 5.102560708225357189e+02
2.111464522194883009e-01 5.102580199851098541e+02
2.112464742243293225e-01 5.102599894391746602e+02
2.113464962291703997e-01 5.102619791427022164e+02
2.114465182340114491e-01 5.102639890534011329e+02
2.115465402388525262e-01 5.102660191287154703e+02
2.116465622436936034e-01 5.102680693258259339e+02
2.117465842485346805e-01 5.102701396016524313e+02
2.118466062533757577e-01 5.102722299128559484e+02
2.119466282582167793e-01 5.102743402158347976e+02
2.120466502630578565e-01 5.102764704667321212e+02
2.121466722678989059e-01 5.102786206214311164e+02
2.122466942727399830e-01 5.102807906355609475e+02
2.123467162775810602e-01 5.102829804644940737e+02
2.124467382824221373e-01 5.102851900633497166e+02
2.125467602872631590e-01 5.102874193869934061e+02
2.126467822921042361e-01 5.102896683900399921e+02
2.127468042969453133e-01 5.102919370268514285e+02
2.128468263017863626e-01 5.102942252515418886e+02
2.129468483066274398e-01 5.102965330179762304e+02
2.130468703114685169e-01 5.102988602797718727e+02
2.131468923163095941e-01 5.103012069902982830e+02
2.132469143211506157e-01 5.103035731026819235e+02
2.133469363259916929e-01 5.103059585698036926e+02
2.134469583308327700e-01 5.103083633443014833e+02
2.135469803356738194e-01 5.103107873785704669e+02
2.136470023405148966e-01 5.103132306247663337e+02
2.137470243453559737e-01 5.103156930348038145e+02
2.138470463501970509e-01 5.103181745603594663e+02
2.139470683550380725e-01 5.103206751528719565e+02
2.140470903598791497e-01 5.103231947635437109e+02
2.141471123647202268e-01 5.103257333433416534e+02
2.142471343695612762e-01 5.103282908429977738e+02
2.143471563744023534e-01 5.103308672130128798e+02
2.144471783792434305e-01 5.103334624036543232e+02
2.145472003840845077e-01 5.103360763649591263e+02
2.146472223889255293e-01 5.103387090467342659e+02
2.147472443937666065e-01 5.103413603985587201e+02
2.148472663986076836e-01 5.103440303697834679e+02
2.149472884034487330e-01 5.103467189095343883e+02
2.150473104082898101e-01 5.103494259667107258e+02
2.151473324131308873e-01 5.103521514899894100e+02
2.152473544179719367e-01 5.103548954278234646e+02
2.153473764228129861e-01 5.103576577284445079e+02
2.154473984276540632e-01 5.103604383398646291e+02
2.155474204324951404e-01 5.103632372098750238e+02
2.156474424373361898e-01 5.103660542860503710e+02
2.157474644421772669e-01 5.103688895157466732e+02
2.158474864470183441e-01 5.103717428461065992e+02
2.159475084518593935e-01 5.103746142240555628e+02
2.160475304567004429e-01 5.103775035963078608e+02
2.161475524615415200e-01 5.103804109093639454e+02
2.162475744663825972e-01 5.103833361095139480e+02
2.163475964712236466e-01 5.103862791428379637e+02
2.164476184760647237e-01 5.103892399552073584e+02
2.165476404809058009e-01 5.103922184922859628e+02
2.166476624857468503e-01 5.103952146995321186e+02
2.167476844905878997e-01 5.103982285221975985e+02
2.168477064954289768e-01 5.104012599053315853e+02
2.169477285002700540e-01 5.104043087937794780e+02
2.170477505051111033e-01 5.104073751321860186e+02
2.171477725099521805e-01 5.104104588649950074e+02
2.172477945147932299e-01 5.104135599364524296e+02
2.173478165196343070e-01 5.104166782906038975e+02
2.174478385244753564e-01 5.104198138713011872e+02
2.175478605293164336e-01 5.104229666221988282e+02
2.176478825341575107e-01 5.104261364867576276e+02
2.177479045389985601e-01 5.104293234082446133e+02
2.178479265438396373e-01 5.104325273297366152e+02
2.179479485486806867e-01 5.104357481941185029e+02
2.180479705535217638e-01 5.104389859440858572e+02
2.181479925583628132e-01 5.104422405221469603e+02
2.182480145632038904e-01 5.104455118706222265e+02
2.183480365680449675e-01 5.104487999316469313e+02
2.184480585728860169e-01 5.104521046471717227e+02
2.185480805777270941e-01 5.104554259589640992e+02
2.186481025825681435e-01 5.104587638086090351e+02
2.187481245874092206e-01 5.104621181375116521e+02
2.188481465922502700e-01 5.104654888868971057e+02
2.189481685970913472e-01 5.104688759978120061e+02
2.190481906019324243e-01 5.104722794111257258e+02
2.191482126067734737e-01 5.104756990675332418e+02
2.192482346116145231e-01 5.104791349075530889e+02
2.193482566164556002e-01 5.104825868715315664e+02
2.194482786212966774e-01 5.104860548996433636e+02
2.195483006261377268e-01 5.104895389318911612e+02
2.196483226309788039e-01 5.104930389081087014e+02
2.197483446358198811e-01 5.104965547679612428e+02
2.198483666406609305e-01 5.105000864509476060e+02
2.199483886455019799e-01 5.105036338963999469e+02
2.200484106503430570e-01 5.105071970434863715e+02
2.201484326551841342e-01 5.105107758312119017e+02
2.202484546600251836e-01 5.105143701984187032e+02
2.203484766648662607e-01 5.105179800837897233e+02
2.204484986697073379e-01 5.105216054258467011e+02
2.205485206745483873e-01 5.105252461629536356e+02
2.206485426793894367e-01 5.105289022333192293e+02
2.207485646842305138e-01 5.105325735749939327e+02
2.208485866890715910e-01 5.105362601258758559e+02
2.209486086939126404e-01 5.105399618237086088e+02
2.210486306987537175e-01 5.105436786060850523e+02
2.211486527035947947e-01 5.105474104104462185e+02
2.212486747084358163e-01 5.105511571740854606e+02
2.213486967132768934e-01 5.105549188341463491e+02
2.214487187181179706e-01 5.105586953276271061e+02
2.215487407229590477e-01 5.105624865913796953e+02
2.216487627278000971e-01 5.105662925621124941e+02
2.217487847326411743e-01 5.105701131763904641e+02
2.218488067374822514e-01 5.105739483706369128e+02
2.219488287423232731e-01 5.105777980811345742e+02
2.220488507471643502e-01 5.105816622440291894e+02
2.221488727520054274e-01 5.105855407953259260e+02
2.222488947568465045e-01 5.105894336708946639e+02
2.223489167616875539e-01 5.105933408064711898e+02
2.224489387665286311e-01 5.105972621376555480e+02
2.225489607713697082e-01 5.106011975999164179e+02
2.226489827762107299e-01 5.106051471285912839e+02
2.227490047810518070e-01 5.106091106588862658e+02
2.228490267858928842e-01 5.106130881258805516e+02
2.229490487907339613e-01 5.106170794645246360e+02
2.230490707955750107e-01 5.106210846096436740e+02
2.231490928004160879e-01 5.106251034959374238e+02
2.232491148052571650e-01 5.106291360579828620e+02
2.233491368100981866e-01 5.106331822302342971e+02
2.234491588149392638e-01 5.106372419470247905e+02
2.235491808197803409e-01 5.106413151425686010e+02
2.236492028246214181e-01 5.106454017509616392e+02
2.237492248294624675e-01 5.106495017061814110e+02
2.238492468343035446e-01 5.106536149420927018e+02
2.239492688391445663e-01 5.106577413924428583e+02
2.240492908439856434e-01 5.106618809908675871e+02
2.241493128488267206e-01 5.106660336708905561e+02
2.242493348536677977e-01 5.106701993659253844e+02
2.243493568585088749e-01 5.106743780092764382e+02
2.244493788633499243e-01 5.106785695341397968e+02
2.245494008681910014e-01 5.106827738736052424e+02
2.246494228730320231e-01 5.106869909606574538e+02
2.247494448778731002e-01 5.106912207281779956e+02
2.248494668827141774e-01 5.106954631089440113e+02
2.249494888875552545e-01 5.106997180356333388e+02
2.250495108923963317e-01 5.107039854408226347e+02
2.251495328972373811e-01 5.107082652569904440e+02
2.252495549020784582e-01 5.107125574165182798e+02
2.253495769069194798e-01 5.107168618516902825e+02
2.254495989117605570e-01 5.107211784946977104e+02
2.255496209166016341e-01 5.107255072776376323e+02
2.256496429214427113e-01 5.107298481325145190e+02
2.257496649262837884e-01 5.107342009912438812e+02
2.258496869311248378e-01 5.107385657856494277e+02
2.259497089359658872e-01 5.107429424474687494e+02
2.260497309408069366e-01 5.107473309083519553e+02
2.261497529456480138e-01 5.107517310998637186e+02
2.262497749504890909e-01 5.107561429534845843e+02
2.263497969553301681e-01 5.107605664006122197e+02
2.264498189601712452e-01 5.107650013725633471e+02
2.265498409650122946e-01 5.107694478005732890e+02
2.266498629698533440e-01 5.107739056158002313e+02
2.267498849746943934e-01 5.107783747493234614e+02
2.268499069795354706e-01 5.107828551321478017e+02
2.269499289843765477e-01 5.107873466952008812e+02
2.270499509892176249e-01 5.107918493693384789e+02
2.271499729940587020e-01 5.107963630853438985e+02
2.272499949988997514e-01 5.108008877739287072e+02
2.273500170037408008e-01 5.108054233657359759e+02
2.274500390085818502e-01 5.108099697913402224e+02
2.275500610134229273e-01 5.108145269812490596e+02
2.276500830182640045e-01 5.108190948659042760e+02
2.277501050231050816e-01 5.108236733756832564e+02
2.278501270279461588e-01 5.108282624409015966e+02
2.279501490327871804e-01 5.108328619918117397e+02
2.280501710376282576e-01 5.108374719586070114e+02
2.281501930424693070e-01 5.108420922714206540e+02
2.282502150473103841e-01 5.108467228603296917e+02
2.283502370521514613e-01 5.108513636553547030e+02
2.284502590569925384e-01 5.108560145864594801e+02
2.285502810618336156e-01 5.108606755835557465e+02
2.286503030666746372e-01 5.108653465765031569e+02
2.287503250715157144e-01 5.108700274951088431e+02
2.288503470763567638e-01 5.108747182691323587e+02
2.289503690811978409e-01 5.108794188282830078e+02
2.290503910860389181e-01 5.108841291022237101e+02
2.291504130908799952e-01 5.108888490205721951e+02
2.292504350957210724e-01 5.108935785129012856e+02
2.293504571005620940e-01 5.108983175087415702e+02
2.294504791054031712e-01 5.109030659375803793e+02
2.295505011102442205e-01 5.109078237288653668e+02
2.296505231150852977e-01 5.109125908120062149e+02
2.297505451199263748e-01 5.109173671163731001e+02
2.298505671247674520e-01 5.109221525713011829e+02
2.299505891296084736e-01 5.109269471060896421e+02
2.300506111344495508e-01 5.109317506500042327e+02
2.301506331392906279e-01 5.109365631322784793e+02
2.302506551441316773e-01 5.109413844821141311e+02
2.303506771489727545e-01 5.109462146286837196e+02
2.304506991538138316e-01 5.109510535011309571e+02
2.305507211586549088e-01 5.109559010285729528e+02
2.306507431634959304e-01 5.109607571400998154e+02
2.307507651683370076e-01 5.109656217647781773e+02
2.308507871731780847e-01 5.109704948316513082e+02
2.309508091780191341e-01 5.109753762697404795e+02
2.310508311828602113e-01 5.109802660080458168e+02
2.311508531877012884e-01 5.109851639755495967e+02
2.312508751925423656e-01 5.109900701012149398e+02
2.313508971973833872e-01 5.109949843139883683e+02
2.314509192022244644e-01 5.109999065428018525e+02
2.315509412070655415e-01 5.110048367165729246e+02
2.316509632119065909e-01 5.110097747642067247e+02
2.317509852167476680e-01 5.110147206145971381e+02
2.318510072215887452e-01 5.110196741966273066e+02
2.319510292264298223e-01 5.110246354391728687e+02
2.320510512312708440e-01 5.110296042711003111e+02
2.321510732361119211e-01 5.110345806212718571e+02
2.322510952409529983e-01 5.110395644185439892e+02
2.323511172457940477e-01 5.110445555917700062e+02
2.324511392506351248e-01 5.110495540698008767e+02
2.325511612554762020e-01 5.110545597814868870e+02
2.326511832603172514e-01 5.110595726556785507e+02
2.327512052651583008e-01 5.110645926212291670e+02
2.328512272699993779e-01 5.110696196069937400e+02
2.329512492748404551e-01 5.110746535418321628e+02
2.330512712796815045e-01 5.110796943546102966e+02
2.331512932845225816e-01 5.110847419742009947e+02
2.332513152893636588e-01 5.110897963294852389e+02
2.333513372942047082e-01 5.110948573493537879e+02
2.334513592990457576e-01 5.110999249627080872e+02
2.335513813038868347e-01 5.111049990984619740e+02
2.336514033087279119e-01 5.111100796855427575e+02
2.337514253135689613e-01 5.111151666528926967e+02
2.338514473184100384e-01 5.111202599294702509e+02
2.339514693232511156e-01 5.111253594442511030e+02
2.340514913280921649e-01 5.111304651262294669e+02
2.341515133329332143e-01 5.111355769044198496e+02
2.342515353377742915e-01 5.111406947078585290e+02
2.343515573426153686e-01 5.111458184656031563e+02
2.344515793474564180e-01 5.111509481067363936e+02
2.345516013522974952e-01 5.111560835603660848e+02
2.346516233571385446e-01 5.111612247556259945e+02
2.347516453619796217e-01 5.111663716216781381e+02
2.348516673668206711e-01 5.111715240877124415e+02
2.349516893716617483e-01 5.111766820829512881e+02
2.350517113765028254e-01 5.111818455366466196e+02
2.351517333813438748e-01 5.111870143780847684e+02
2.352517553861849520e-01 5.111921885365852063e+02
2.353517773910260014e-01 5.111973679415035576e+02
2.354517993958670785e-01 5.112025525222328497e+02
2.355518214007081279e-01 5.112077422082026601e+02
2.356518434055492051e-01 5.112129369288820726e+02
2.357518654103902822e-01 5.112181366137826899e+02
2.358518874152313316e-01 5.112233411924553366e+02
2.359519094200724088e-01 5.112285505944965962e+02
2.360519314249134581e-01 5.112337647495452302e+02
2.361519534297545353e-01 5.112389835872868957e+02
2.362519754345955847e-01 5.112442070374542027e+02
2.363519974394366618e-01 5.112494350298284189e+02
2.364520194442777390e-01 5.112546674942385039e+02
2.365520414491187884e-01 5.112599043605665088e+02
2.366520634539598378e-01 5.112651455587450755e+02
2.367520854588009149e-01 5.112703910187607335e+02
2.368521074636419921e-01 5.112756406706541839e+02
2.369521294684830415e-01 5.112808944445225734e+02
2.370521514733241186e-01 5.112861522705200059e+02
2.371521734781651958e-01 5.112914140788581676e+02
2.372521954830062452e-01 5.112966797998095103e+02
2.373522174878472946e-01 5.113019493637062283e+02
2.374522394926883717e-01 5.113072227009436119e+02
2.375522614975294489e-01 5.113124997419802185e+02
2.376522835023704983e-01 5.113177804173382697e+02
2.377523055072115754e-01 5.113230646576071763e+02
2.378523275120526526e-01 5.113283523934426285e+02
2.379523495168937020e-01 5.113336435555687558e+02
2.380523715217347513e-01 5.113389380747798896e+02
2.381523935265758285e-01 5.113442358819402216e+02
2.382524155314169056e-01 5.113495369079870443e+02
2.383524375362579550e-01 5.113548410839304097e+02
2.384524595410990322e-01 5.113601483408555737e+02
2.385524815459401093e-01 5.113654586099222001e+02
2.386525035507811310e-01 5.113707718223685106e+02
2.387525255556222081e-01 5.113760879095103746e+02
2.388525475604632853e-01 5.113814068027430721e+02
2.389525695653043624e-01 5.113867284335427144e+02
2.390525915701454118e-01 5.113920527334676649e+02
2.391526135749864890e-01 5.113973796341590514e+02
2.392526355798275661e-01 5.114027090673419593e+02
2.393526575846685878e-01 5.114080409648286718e+02
2.394526795895096649e-01 5.114133752585173056e+02
2.395527015943507421e-01 5.114187118803935164e+02
2.396527235991918192e-01 5.114240507625326586e+02
2.397527456040328686e-01 5.114293918371013774e+02
2.398527676088739458e-01 5.114347350363570968e+02
2.399527896137150229e-01 5.114400802926500091e+02
