0.000000000000000000e+00 5.153462861189269688e+02
1.000220048410650341e-04 5.153480364279927244e+02
2.000440096821300682e-04 5.153497981118786129e+02
3.000660145231950752e-04 5.153515711094818244e+02
4.000880193642601364e-04 5.153533553587765255e+02
5.001100242053251434e-04 5.153551507968154510e+02
6.001320290463901504e-04 5.153569573597321778e+02
7.001540338874551574e-04 5.153587749827429434e+02
8.001760387285202728e-04 5.153606036001466464e+02
9.001980435695852798e-04 5.153624431453288253e+02
1.000220048410650287e-03 5.153642935507630227e+02
1.100242053251715294e-03 5.153661547480111267e+02
1.200264058092780301e-03 5.153680266677276904e+02
1.300286062933845308e-03 5.153699092396597052e+02
1.400308067774910315e-03 5.153718023926500109e+02
1.500330072615975322e-03 5.153737060546393423e+02
1.600352077457040546e-03 5.153756201526681480e+02
1.700374082298105553e-03 5.153775446128776139e+02
1.800396087139170560e-03 5.153794793605137556e+02
1.900418091980235567e-03 5.153814243199298062e+02
2.000440096821300574e-03 5.153833794145862157e+02
2.100462101662365581e-03 5.153853445670545170e+02
2.200484106503430588e-03 5.153873196990211909e+02
2.300506111344495595e-03 5.153893047312868703e+02
2.400528116185560602e-03 5.153912995837717972e+02
2.500550121026625609e-03 5.153933041755153681e+02
2.600572125867690616e-03 5.153953184246822730e+02
2.700594130708756056e-03 5.153973422485623814e+02
2.800616135549820630e-03 5.153993755635749494e+02
2.900638140390886070e-03 5.154014182852694148e+02
3.000660145231950644e-03 5.154034703283310819e+02
3.100682150073016084e-03 5.154055316065810075e+02
3.200704154914081091e-03 5.154076020329807761e+02
3.300726159755145665e-03 5.154096815196345460e+02
3.400748164596211105e-03 5.154117699777924599e+02
3.500770169437275679e-03 5.154138673178536010e+02
3.600792174278341119e-03 5.154159734493673568e+02
3.700814179119406126e-03 5.154180882810398998e+02
3.800836183960471133e-03 5.154202117207337324e+02
3.900858188801536140e-03 5.154223436754743943e+02
4.000880193642601147e-03 5.154244840514488715e+02
4.100902198483666154e-03 5.154266327540144630e+02
4.200924203324731161e-03 5.154287896876978721e+02
4.300946208165796168e-03 5.154309547562000944e+02
4.400968213006861175e-03 5.154331278623999424e+02
4.500990217847926182e-03 5.154353089083573423e+02
4.601012222688991189e-03 5.154374977953164034e+02
4.701034227530056196e-03 5.154396944237088292e+02
4.801056232371121203e-03 5.154418986931591462e+02
4.901078237212187078e-03 5.154441105024851595e+02
5.001100242053251217e-03 5.154463297497046597e+02
5.101122246894316224e-03 5.154485563320379242e+02
5.201144251735381231e-03 5.154507901459106733e+02
5.301166256576447106e-03 5.154530310869586174e+02
5.401188261417512113e-03 5.154552790500315496e+02
5.501210266258576252e-03 5.154575339291968703e+02
5.601232271099641259e-03 5.154597956177433389e+02
5.701254275940706266e-03 5.154620640081843703e+02
5.801276280781772141e-03 5.154643389922642882e+02
5.901298285622837148e-03 5.154666204609586657e+02
6.001320290463901287e-03 5.154689083044823974e+02
6.101342295304966294e-03 5.154712024122910634e+02
6.201364300146032169e-03 5.154735026730857044e+02
6.301386304987097176e-03 5.154758089748175962e+02
6.401408309828162183e-03 5.154781212046921155e+02
6.501430314669226322e-03 5.154804392491723775e+02
6.601452319510291329e-03 5.154827629939851477e+02
6.701474324351357204e-03 5.154850923241225473e+02
6.801496329192422211e-03 5.154874271238496704e+02
6.901518334033487218e-03 5.154897672767062886e+02
7.001540338874551357e-03 5.154921126655126500e+02
7.101562343715617232e-03 5.154944631723737984e+02
7.201584348556682239e-03 5.154968186786843489e+02
7.301606353397747246e-03 5.154991790651312158e+02
7.401628358238812253e-03 5.155015442117024804e+02
7.501650363079876392e-03 5.155039139976863680e+02
7.601672367920942266e-03 5.155062883016806836e+02
7.701694372762007273e-03 5.155086670015956543e+02
7.801716377603072280e-03 5.155110499746572259e+02
7.901738382444137287e-03 5.155134370974154763e+02
8.001760387285202294e-03 5.155158282457460928e+02
8.101782392126267301e-03 5.155182232948568526e+02
8.201804396967332308e-03 5.155206221192926250e+02
8.301826401808397315e-03 5.155230245929393504e+02
8.401848406649462322e-03 5.155254305890304067e+02
8.501870411490527329e-03 5.155278399801501337e+02
8.601892416331592336e-03 5.155302526382388351e+02
8.701914421172657343e-03 5.155326684346021011e+02
8.801936426013722350e-03 5.155350872399080799e+02
8.901958430854787357e-03 5.155375089242005515e+02
9.001980435695852364e-03 5.155399333568984730e+02
9.102002440536917371e-03 5.155423604068049599e+02
9.202024445377982378e-03 5.155447899421101283e+02
9.302046450219047385e-03 5.155472218303971204e+02
9.402068455060112392e-03 5.155496559386492663e+02
9.502090459901177399e-03 5.155520921332520174e+02
9.602112464742242406e-03 5.155545302800010177e+02
9.702134469583307413e-03 5.155569702441071058e+02
9.802156474424374155e-03 5.155594118902008631e+02
9.902178479265437427e-03 5.155618550823396617e+02
1.000220048410650243e-02 5.155642996840108481e+02
1.010222248894756918e-02 5.155667455581397007e+02
1.020224449378863245e-02 5.155691925670944329e+02
1.030226649862969746e-02 5.155716405726909670e+02
1.040228850347076246e-02 5.155740894361990740e+02
1.050231050831182747e-02 5.155765390183495356e+02
1.060233251315289421e-02 5.155789891793367588e+02
1.070235451799395748e-02 5.155814397788278711e+02
1.080237652283502423e-02 5.155838906759665861e+02
1.090239852767608750e-02 5.155863417293794555e+02
1.100242053251715250e-02 5.155887927971816680e+02
1.110244253735821925e-02 5.155912437369835288e+02
1.120246454219928252e-02 5.155936944058961444e+02
1.130248654704034753e-02 5.155961446605364245e+02
1.140250855188141253e-02 5.155985943570350400e+02
1.150253055672247754e-02 5.156010433510410849e+02
1.160255256156354428e-02 5.156034914977277595e+02
1.170257456640460755e-02 5.156059386517990788e+02
1.180259657124567430e-02 5.156083846674972619e+02
1.190261857608673930e-02 5.156108293986068247e+02
1.200264058092780257e-02 5.156132726984610599e+02
1.210266258576886932e-02 5.156157144199503364e+02
1.220268459060993259e-02 5.156181544155250549e+02
1.230270659545099760e-02 5.156205925372044021e+02
1.240272860029206434e-02 5.156230286365828306e+02
1.250275060513312761e-02 5.156254625648333558e+02
1.260277260997419435e-02 5.156278941727179017e+02
1.270279461481525762e-02 5.156303233105915069e+02
1.280281661965632437e-02 5.156327498284078956e+02
1.290283862449738937e-02 5.156351735757280039e+02
1.300286062933845264e-02 5.156375944017252095e+02
1.310288263417951939e-02 5.156400121551914708e+02
1.320290463902058266e-02 5.156424266845457396e+02
1.330292664386164767e-02 5.156448378378378266e+02
1.340294864870271441e-02 5.156472454627574962e+02
1.350297065354377768e-02 5.156496494066389005e+02
1.360299265838484442e-02 5.156520495164684235e+02
1.370301466322590769e-02 5.156544456388911613e+02
1.380303666806697444e-02 5.156568376202186528e+02
1.390305867290803944e-02 5.156592253064311535e+02
1.400308067774910271e-02 5.156616085431919601e+02
1.410310268259016946e-02 5.156639871758458185e+02
1.420312468743123446e-02 5.156663610494317709e+02
1.430314669227229774e-02 5.156687300086875894e+02
1.440316869711336448e-02 5.156710938980562560e+02
1.450319070195442775e-02 5.156734525616936935e+02
1.460321270679549449e-02 5.156758058434750183e+02
1.470323471163655950e-02 5.156781535870009066e+02
1.480325671647762451e-02 5.156804956356071443e+02
1.490327872131868951e-02 5.156828318323674694e+02
1.500330072615975278e-02 5.156851620201038031e+02
1.510332273100081953e-02 5.156874860413911392e+02
1.520334473584188453e-02 5.156898037385666385e+02
1.530336674068294781e-02 5.156921149537339488e+02
1.540338874552401455e-02 5.156944195287724142e+02
1.550341075036507782e-02 5.156967173053434408e+02
1.560343275520614456e-02 5.156990081248966362e+02
1.570345476004721130e-02 5.157012918286783361e+02
1.580347676488827457e-02 5.157035682577377429e+02
1.590349876972933785e-02 5.157058372529344297e+02
1.600352077457040459e-02 5.157080986549445925e+02
1.610354277941146786e-02 5.157103523042704865e+02
1.620356478425253460e-02 5.157125980412442914e+02
1.630358678909359788e-02 5.157148357060376611e+02
1.640360879393466462e-02 5.157170651386686586e+02
1.650363079877573136e-02 5.157192861790082361e+02
1.660365280361679463e-02 5.157214986667880794e+02
1.670367480845786137e-02 5.157237024416060649e+02
1.680369681329892464e-02 5.157258973429375146e+02
1.690371881813999139e-02 5.157280832101374699e+02
1.700374082298105466e-02 5.157302598824525148e+02
1.710376282782211793e-02 5.157324271990239595e+02
1.720378483266318467e-02 5.157345849988990949e+02
1.730380683750424795e-02 5.157367331210351722e+02
1.740382884234531469e-02 5.157388714043092932e+02
1.750385084718638143e-02 5.157409996875239813e+02
1.760387285202744470e-02 5.157431178094154802e+02
1.770389485686851144e-02 5.157452256086609168e+02
1.780391686170957471e-02 5.157473229238848944e+02
1.790393886655063799e-02 5.157494095936687017e+02
1.800396087139170473e-02 5.157514854565564519e+02
1.810398287623276800e-02 5.157535503510621311e+02
1.820400488107383474e-02 5.157556041156781248e+02
1.830402688591490148e-02 5.157576465888827215e+02
1.840404889075596476e-02 5.157596776091456832e+02
1.850407089559703150e-02 5.157616970149377948e+02
1.860409290043809477e-02 5.157637046447383682e+02
1.870411490527916151e-02 5.157657003370399025e+02
1.880413691012022478e-02 5.157676839303601355e+02
1.890415891496129153e-02 5.157696552632452267e+02
1.900418091980235480e-02 5.157716141742799891e+02
1.910420292464341807e-02 5.157735605020941421e+02
1.920422492948448481e-02 5.157754940853706103e+02
1.930424693432555155e-02 5.157774147628515493e+02
1.940426893916661483e-02 5.157793223733490322e+02
1.950429094400768157e-02 5.157812167557488010e+02
1.960431294884874831e-02 5.157830977490204987e+02
1.970433495368981158e-02 5.157849651922242629e+02
1.980435695853087485e-02 5.157868189245180019e+02
1.990437896337193813e-02 5.157886587851651257e+02
2.000440096821300487e-02 5.157904846135434127e+02
2.010442297305407161e-02 5.157922962491506951e+02
2.020444497789513835e-02 5.157940935316141804e+02
2.030446698273619816e-02 5.157958763006955678e+02
2.040448898757726490e-02 5.157976443963013935e+02
2.050451099241833164e-02 5.157993976584897382e+02
2.060453299725939491e-02 5.158011359274771621e+02
2.070455500210046165e-02 5.158028590436458671e+02
2.080457700694152492e-02 5.158045668475535876e+02
2.090459901178259167e-02 5.158062591799396159e+02
2.100462101662365494e-02 5.158079358817310549e+02
2.110464302146472168e-02 5.158095967940536184e+02
2.120466502630578842e-02 5.158112417582374292e+02
2.130468703114684823e-02 5.158128706158237264e+02
2.140470903598791497e-02 5.158144832085749840e+02
2.150473104082898171e-02 5.158160793784800262e+02
2.160475304567004845e-02 5.158176589677636912e+02
2.170477505051111172e-02 5.158192218188919469e+02
2.180479705535217499e-02 5.158207677745832598e+02
2.190481906019323827e-02 5.158222966778123464e+02
2.200484106503430501e-02 5.158238083718204052e+02
2.210486306987537175e-02 5.158253027001206874e+02
2.220488507471643849e-02 5.158267795065083874e+02
2.230490707955749830e-02 5.158282386350665547e+02
2.240492908439856504e-02 5.158296799301746205e+02
2.250495108923963178e-02 5.158311032365152187e+02
2.260497309408069505e-02 5.158325083990823714e+02
2.270499509892176179e-02 5.158338952631891061e+02
2.280501710376282506e-02 5.158352636744742767e+02
2.290503910860389181e-02 5.158366134789110902e+02
2.300506111344495508e-02 5.158379445228148370e+02
2.310508311828602182e-02 5.158392566528493717e+02
2.320510512312708856e-02 5.158405497160354116e+02
2.330512712796814837e-02 5.158418235597581543e+02
2.340514913280921511e-02 5.158430780317742119e+02
2.350517113765028185e-02 5.158443129802204794e+02
2.360519314249134859e-02 5.158455282536201594e+02
2.370521514733241186e-02 5.158467237008909478e+02
2.380523715217347860e-02 5.158478991713534469e+02
2.390525915701453841e-02 5.158490545147376451e+02
2.400528116185560515e-02 5.158501895811893974e+02
2.410530316669667189e-02 5.158513042212806567e+02
2.420532517153773863e-02 5.158523982860149317e+02
2.430534717637880537e-02 5.158534716268356988e+02
2.440536918121986518e-02 5.158545240956332236e+02
2.450539118606093192e-02 5.158555555447522920e+02
2.460541319090199519e-02 5.158565658270007361e+02
2.470543519574306193e-02 5.158575547956547780e+02
2.480545720058412867e-02 5.158585223044680106e+02
2.490547920542519195e-02 5.158594682076787876e+02
2.500550121026625522e-02 5.158603923600168173e+02
2.510552321510732196e-02 5.158612946167113478e+02
2.520554521994838870e-02 5.158621748334984431e+02
2.530556722478945197e-02 5.158630328666274636e+02
2.540558922963051525e-02 5.158638685728701603e+02
2.550561123447158199e-02 5.158646818095269282e+02
2.560563323931264873e-02 5.158654724344333999e+02
2.570565524415371200e-02 5.158662403059698818e+02
2.580567724899477874e-02 5.158669852830664695e+02
2.590569925383583855e-02 5.158677072252118023e+02
2.600572125867690529e-02 5.158684059924603389e+02
2.610574326351797203e-02 5.158690814454391784e+02
2.620576526835903877e-02 5.158697334453538588e+02
2.630578727320010551e-02 5.158703618539988156e+02
2.640580927804116532e-02 5.158709665337623846e+02
2.650583128288223206e-02 5.158715473476341913e+02
2.660585328772329533e-02 5.158721041592134497e+02
2.670587529256436207e-02 5.158726368327151022e+02
2.680589729740542881e-02 5.158731452329758440e+02
2.690591930224649209e-02 5.158736292254650380e+02
2.700594130708755536e-02 5.158740886762881246e+02
2.710596331192862210e-02 5.158745234521956036e+02
2.720598531676968884e-02 5.158749334205887180e+02
2.730600732161075211e-02 5.158753184495288906e+02
2.740602932645181539e-02 5.158756784077423845e+02
2.750605133129288213e-02 5.158760131646279206e+02
2.760607333613394887e-02 5.158763225902658860e+02
2.770609534097501214e-02 5.158766065554214038e+02
2.780611734581607888e-02 5.158768649315542234e+02
2.790613935065714563e-02 5.158770975908252012e+02
2.800616135549820543e-02 5.158773044061019846e+02
2.810618336033927217e-02 5.158774852509683342e+02
2.820620536518033891e-02 5.158776399997284443e+02
2.830622737002140565e-02 5.158777685274143323e+02
2.840624937486246893e-02 5.158778707097941378e+02
2.850627137970353220e-02 5.158779464233782619e+02
2.860629338454459547e-02 5.158779955454252786e+02
2.870631538938566221e-02 5.158780179539500068e+02
2.880633739422672895e-02 5.158780135277281715e+02
2.890635939906779570e-02 5.158779821463069766e+02
2.900638140390885550e-02 5.158779236900068099e+02
2.910640340874992224e-02 5.158778380399330672e+02
2.920642541359098898e-02 5.158777250779779706e+02
2.930644741843205225e-02 5.158775846868314829e+02
2.940646942327311900e-02 5.158774167499846044e+02
2.950649142811418227e-02 5.158772211517376718e+02
2.960651343295524901e-02 5.158769977772067250e+02
2.970653543779631228e-02 5.158767465123297598e+02
2.980655744263737902e-02 5.158764672438732077e+02
2.990657944747844577e-02 5.158761598594389852e+02
3.000660145231950557e-02 5.158758242474693816e+02
3.010662345716057231e-02 5.158754602972552448e+02
3.020664546200163905e-02 5.158750678989424614e+02
3.030666746684270579e-02 5.158746469435357085e+02
3.040668947168376907e-02 5.158741973229083442e+02
3.050671147652483234e-02 5.158737189298066141e+02
3.060673348136589561e-02 5.158732116578552223e+02
3.070675548620696235e-02 5.158726754015661982e+02
3.080677749104802909e-02 5.158721100563424216e+02
3.090679949588909584e-02 5.158715155184860350e+02
3.100682150073015564e-02 5.158708916852021957e+02
3.110684350557122238e-02 5.158702384546072608e+02
3.120686551041228912e-02 5.158695557257346991e+02
3.130688751525335239e-02 5.158688433985404345e+02
3.140690952009442261e-02 5.158681013739075070e+02
3.150693152493547894e-02 5.158673295536561909e+02
3.160695352977654915e-02 5.158665278405455865e+02
3.170697553461761242e-02 5.158656961382821464e+02
3.180699753945867569e-02 5.158648343515245642e+02
3.190701954429974591e-02 5.158639423858895725e+02
3.200704154914080918e-02 5.158630201479589914e+02
3.210706355398187245e-02 5.158620675452842761e+02
3.220708555882293572e-02 5.158610844863922011e+02
3.230710756366400593e-02 5.158600708807915680e+02
3.240712956850506921e-02 5.158590266389788894e+02
3.250715157334613248e-02 5.158579516724420273e+02
3.260717357818719575e-02 5.158568458936690604e+02
3.270719558302826596e-02 5.158557092161518085e+02
3.280721758786932923e-02 5.158545415543909485e+02
3.290723959271039251e-02 5.158533428239030627e+02
3.300726159755146272e-02 5.158521129412258688e+02
3.310728360239252599e-02 5.158508518239228806e+02
3.320730560723358926e-02 5.158495593905886381e+02
3.330732761207465253e-02 5.158482355608555281e+02
3.340734961691572275e-02 5.158468802553984460e+02
3.350737162175678602e-02 5.158454933959390019e+02
3.360739362659784929e-02 5.158440749052527963e+02
3.370741563143891256e-02 5.158426247071720354e+02
3.380743763627998277e-02 5.158411427265949669e+02
3.390745964112104605e-02 5.158396288894856525e+02
3.400748164596210932e-02 5.158380831228830630e+02
3.410750365080317259e-02 5.158365053549057393e+02
3.420752565564423586e-02 5.158348955147539527e+02
3.430754766048530607e-02 5.158332535327186861e+02
3.440756966532636935e-02 5.158315793401837936e+02
3.450759167016743956e-02 5.158298728696317994e+02
3.460761367500849589e-02 5.158281340546490128e+02
3.470763567984956610e-02 5.158263628299301899e+02
3.480765768469062937e-02 5.158245591312837632e+02
3.490767968953169265e-02 5.158227228956345698e+02
3.500770169437276286e-02 5.158208540610328328e+02
3.510772369921381919e-02 5.158189525666532518e+02
3.520774570405488940e-02 5.158170183528052348e+02
3.530776770889595267e-02 5.158150513609324435e+02
3.540778971373702289e-02 5.158130515336221151e+02
3.550781171857808616e-02 5.158110188146049495e+02
3.560783372341914943e-02 5.158089531487640897e+02
3.570785572826021270e-02 5.158068544821354635e+02
3.580787773310127597e-02 5.158047227619147179e+02
3.590789973794234619e-02 5.158025579364615396e+02
3.600792174278340946e-02 5.158003599553023832e+02
3.610794374762447273e-02 5.157981287691359285e+02
3.620796575246553600e-02 5.157958643298371726e+02
3.630798775730660621e-02 5.157935665904612961e+02
3.640800976214766949e-02 5.157912355052480962e+02
3.650803176698873276e-02 5.157888710296260797e+02
3.660805377182980297e-02 5.157864731202164421e+02
3.670807577667086624e-02 5.157840417348359097e+02
3.680809778151192951e-02 5.157815768325031058e+02
3.690811978635299279e-02 5.157790783734407114e+02
3.700814179119406300e-02 5.157765463190787614e+02
3.710816379603512627e-02 5.157739806320613525e+02
3.720818580087618954e-02 5.157713812762468706e+02
3.730820780571725281e-02 5.157687482167136750e+02
3.740822981055832303e-02 5.157660814197639638e+02
3.750825181539938630e-02 5.157633808529263888e+02
3.760827382024044957e-02 5.157606464849602617e+02
3.770829582508151284e-02 5.157578782858596469e+02
3.780831782992258305e-02 5.157550762268542712e+02
3.790833983476364633e-02 5.157522402804172543e+02
3.800836183960470960e-02 5.157493704202647677e+02
3.810838384444577981e-02 5.157464666213608098e+02
3.820840584928683614e-02 5.157435288599207297e+02
3.830842785412790635e-02 5.157405571134139564e+02
3.840844985896896963e-02 5.157375513605677497e+02
3.850847186381003984e-02 5.157345115813700431e+02
3.860849386865110311e-02 5.157314377570717170e+02
3.870851587349216638e-02 5.157283298701921694e+02
3.880853787833322965e-02 5.157251879045190890e+02
3.890855988317429293e-02 5.157220118451140252e+02
3.900858188801536314e-02 5.157188016783137527e+02
3.910860389285641947e-02 5.157155573917342508e+02
3.920862589769749662e-02 5.157122789742716122e+02
3.930864790253855295e-02 5.157089664161077280e+02
3.940866990737962317e-02 5.157056197087113105e+02
3.950869191222068644e-02 5.157022388448391439e+02
3.960871391706174971e-02 5.156988238185417686e+02
3.970873592190281992e-02 5.156953746251635948e+02
3.980875792674387625e-02 5.156918912613471093e+02
3.990877993158495340e-02 5.156883737250345803e+02
4.000880193642600974e-02 5.156848220154693081e+02
4.010882394126707301e-02 5.156812361332001728e+02
4.020884594610814322e-02 5.156776160800832258e+02
4.030886795094920649e-02 5.156739618592827128e+02
4.040888995579027670e-02 5.156702734752748256e+02
4.050891196063133304e-02 5.156665509338492939e+02
4.060893396547239631e-02 5.156627942421113175e+02
4.070895597031346652e-02 5.156590034084839544e+02
4.080897797515452979e-02 5.156551784427095981e+02
4.090899997999560000e-02 5.156513193558527064e+02
4.100902198483666328e-02 5.156474261603018476e+02
4.110904398967772655e-02 5.156434988697687913e+02
4.120906599451878982e-02 5.156395374992955567e+02
4.130908799935985309e-02 5.156355420652514567e+02
4.140911000420092331e-02 5.156315125853361678e+02
4.150913200904198658e-02 5.156274490785825719e+02
4.160915401388304985e-02 5.156233515653569839e+02
4.170917601872412006e-02 5.156192200673611978e+02
4.180919802356518333e-02 5.156150546076345336e+02
4.190922002840624661e-02 5.156108552105532681e+02
4.200924203324730988e-02 5.156066219018355241e+02
4.210926403808837315e-02 5.156023547085382006e+02
4.220928604292944336e-02 5.155980536590620886e+02
4.230930804777050663e-02 5.155937187831510755e+02
4.240933005261157684e-02 5.155893501118933955e+02
4.250935205745264012e-02 5.155849476777239033e+02
4.260937406229369645e-02 5.155805115144244155e+02
4.270939606713476666e-02 5.155760416571229143e+02
4.280941807197582993e-02 5.155715381422983228e+02
4.290944007681690014e-02 5.155670010077784582e+02
4.300946208165796342e-02 5.155624302927416238e+02
4.310948408649901975e-02 5.155578260377171773e+02
4.320950609134009690e-02 5.155531882845880318e+02
4.330952809618115323e-02 5.155485170765877001e+02
4.340955010102222345e-02 5.155438124583050694e+02
4.350957210586328672e-02 5.155390744756823551e+02
4.360959411070434999e-02 5.155343031760160102e+02
4.370961611554542020e-02 5.155294986079570663e+02
4.380963812038647653e-02 5.155246608215132937e+02
4.390966012522755368e-02 5.155197898680471553e+02
4.400968213006861002e-02 5.155148858002771703e+02
4.410970413490967329e-02 5.155099486722784832e+02
4.420972613975074350e-02 5.155049785394820674e+02
4.430974814459180677e-02 5.154999754586767722e+02
4.440977014943287698e-02 5.154949394880067075e+02
4.450979215427393332e-02 5.154898706869730631e+02
4.460981415911499659e-02 5.154847691164347907e+02
4.470983616395606680e-02 5.154796348386056479e+02
4.480985816879713007e-02 5.154744679170572681e+02
4.490988017363820028e-02 5.154692684167162042e+02
4.500990217847926356e-02 5.154640364038659754e+02
4.510992418332032683e-02 5.154587719461460438e+02
4.520994618816139010e-02 5.154534751125501089e+02
4.530996819300245337e-02 5.154481459734269038e+02
4.540999019784352358e-02 5.154427846004806497e+02
4.551001220268458686e-02 5.154373910667679866e+02
4.561003420752565013e-02 5.154319654467004739e+02
4.571005621236672034e-02 5.154265078160408393e+02
4.581007821720778361e-02 5.154210182519038881e+02
4.591010022204884689e-02 5.154154968327568440e+02
4.601012222688991016e-02 5.154099436384166211e+02
4.611014423173097343e-02 5.154043587500491412e+02
4.621016623657204364e-02 5.153987422501691071e+02
4.631018824141310691e-02 5.153930942226396610e+02
4.641021024625417712e-02 5.153874147526698835e+02
4.651023225109524040e-02 5.153817039268139979e+02
4.661025425593629673e-02 5.153759618329722798e+02
4.671027626077736694e-02 5.153701885603855999e+02
4.681029826561843021e-02 5.153643841996390620e+02
4.691032027045950042e-02 5.153585488426562051e+02
4.701034227530056370e-02 5.153526825827024140e+02
4.711036428014163391e-02 5.153467855143787801e+02
4.721038628498269718e-02 5.153408577336234657e+02
4.731040828982375351e-02 5.153348993377096576e+02
4.741043029466482372e-02 5.153289104252434072e+02
4.751045229950588700e-02 5.153228910961622660e+02
4.761047430434695721e-02 5.153168414517341489e+02
4.771049630918802048e-02 5.153107615945549469e+02
4.781051831402907681e-02 5.153046516285460257e+02
4.791054031887015396e-02 5.152985116589544532e+02
4.801056232371121030e-02 5.152923417923490206e+02
4.811058432855228051e-02 5.152861421366194463e+02
4.821060633339334378e-02 5.152799128009739889e+02
4.831062833823440705e-02 5.152736538959361496e+02
4.841065034307547726e-02 5.152673655333456963e+02
4.851067234791653360e-02 5.152610478263533196e+02
4.861069435275761075e-02 5.152547008894189275e+02
4.871071635759866708e-02 5.152483248383115324e+02
4.881073836243973035e-02 5.152419197901044754e+02
4.891076036728080056e-02 5.152354858631730394e+02
4.901078237212186384e-02 5.152290231771944491e+02
4.911080437696293405e-02 5.152225318531420726e+02
4.921082638180399038e-02 5.152160120132853081e+02
4.931084838664505365e-02 5.152094637811853772e+02
4.941087039148612386e-02 5.152028872816943021e+02
4.951089239632718714e-02 5.151962826409508125e+02
4.961091440116825735e-02 5.151896499863764802e+02
4.971093640600932062e-02 5.151829894466764017e+02
4.981095841085038389e-02 5.151763011518328312e+02
4.991098041569144717e-02 5.151695852331038168e+02
5.001100242053251044e-02 5.151628418230197894e+02
5.011102442537358065e-02 5.151560710553812896e+02
5.021104643021464392e-02 5.151492730652539649e+02
5.031106843505570719e-02 5.151424479889674330e+02
5.041109043989677740e-02 5.151355959641100526e+02
5.051111244473784068e-02 5.151287171295281269e+02
5.061113444957890395e-02 5.151218116253205608e+02
5.071115645441996722e-02 5.151148795928353366e+02
5.081117845926103049e-02 5.151079211746684905e+02
5.091120046410210070e-02 5.151009365146562686e+02
5.101122246894316398e-02 5.150939257578769457e+02
5.111124447378423419e-02 5.150868890506428670e+02
5.121126647862529746e-02 5.150798265404982885e+02
5.131128848346635379e-02 5.150727383762161935e+02
5.141131048830742400e-02 5.150656247077937451e+02
5.151133249314848728e-02 5.150584856864485346e+02
5.161135449798955749e-02 5.150513214646164215e+02
5.171137650283062076e-02 5.150441321959433481e+02
5.181139850767167709e-02 5.150369180352861349e+02
5.191142051251275424e-02 5.150296791387058875e+02
5.201144251735381058e-02 5.150224156634641304e+02
5.211146452219488079e-02 5.150151277680189423e+02
5.221148652703594406e-02 5.150078156120207495e+02
5.231150853187700733e-02 5.150004793563084604e+02
5.241153053671807754e-02 5.149931191629038949e+02
5.251155254155913388e-02 5.149857351950087150e+02
5.261157454640021103e-02 5.149783276170001045e+02
5.271159655124126736e-02 5.149708965944248575e+02
5.281161855608233063e-02 5.149634422939959677e+02
5.291164056092340084e-02 5.149559648835886492e+02
5.301166256576446412e-02 5.149484645322336291e+02
5.311168457060553433e-02 5.149409414101155562e+02
5.321170657544659066e-02 5.149333956885645875e+02
5.331172858028765393e-02 5.149258275400545699e+02
5.341175058512872414e-02 5.149182371381975827e+02
5.351177258996978742e-02 5.149106246577377988e+02
5.361179459481085763e-02 5.149029902745477330e+02
5.371181659965192090e-02 5.148953341656238081e+02
5.381183860449298417e-02 5.148876565090787381e+02
5.391186060933404744e-02 5.148799574841410731e+02
5.401188261417511072e-02 5.148722372711432627e+02
5.411190461901618093e-02 5.148644960515241564e+02
5.421192662385724420e-02 5.148567340078179768e+02
5.431194862869830747e-02 5.148489513236520452e+02
5.441197063353937768e-02 5.148411481837404153e+02
5.451199263838044096e-02 5.148333247738784166e+02
5.461201464322150423e-02 5.148254812809375380e+02
5.471203664806256750e-02 5.148176178928600848e+02
5.481205865290363077e-02 5.148097347986534942e+02
5.491208065774470098e-02 5.148018321883844237e+02
5.501210266258576426e-02 5.147939102531743174e+02
5.511212466742683447e-02 5.147859691851913340e+02
5.521214667226789774e-02 5.147780091776480731e+02
5.531216867710895407e-02 5.147700304247932763e+02
5.541219068195002428e-02 5.147620331219054606e+02
5.551221268679108756e-02 5.147540174652906444e+02
5.561223469163215777e-02 5.147459836522716614e+02
5.571225669647322104e-02 5.147379318811869098e+02
5.581227870131429125e-02 5.147298623513806888e+02
5.591230070615535452e-02 5.147217752631996746e+02
5.601232271099641086e-02 5.147136708179848483e+02
5.611234471583748107e-02 5.147055492180661531e+02
5.621236672067854434e-02 5.146974106667577189e+02
5.631238872551961455e-02 5.146892553683489950e+02
5.641241073036067782e-02 5.146810835281012260e+02
5.651243273520173416e-02 5.146728953522383563e+02
5.661245474004281131e-02 5.146646910479435064e+02
5.671247674488386764e-02 5.146564708233503325e+02
5.681249874972493785e-02 5.146482348875375692e+02
5.691252075456600112e-02 5.146399834505224362e+02
5.701254275940706440e-02 5.146317167232546126e+02
5.711256476424813461e-02 5.146234349176079377e+02
5.721258676908919094e-02 5.146151382463764321e+02
5.731260877393026809e-02 5.146068269232645207e+02
5.741263077877132442e-02 5.145985011628833945e+02
5.751265278361238770e-02 5.145901611807430527e+02
5.761267478845345791e-02 5.145818071932432076e+02
5.771269679329452118e-02 5.145734394176711248e+02
5.781271879813559139e-02 5.145650580721905953e+02
5.791274080297664772e-02 5.145566633758368198e+02
5.801276280781771100e-02 5.145482555485100420e+02
5.811278481265878121e-02 5.145398348109665676e+02
5.821280681749984448e-02 5.145314013848139894e+02
5.831282882234091469e-02 5.145229554925019784e+02
5.841285082718197796e-02 5.145144973573170546e+02
5.851287283202304124e-02 5.145060272033732645e+02
5.861289483686410451e-02 5.144975452556084292e+02
5.871291684170516778e-02 5.144890517397728900e+02
5.881293884654623799e-02 5.144805468824241643e+02
5.891296085138730126e-02 5.144720309109205800e+02
5.901298285622836454e-02 5.144635040534121799e+02
5.911300486106943475e-02 5.144549665388339008e+02
5.921302686591049802e-02 5.144464185968981838e+02
5.931304887075156129e-02 5.144378604580879255e+02
5.941307087559262456e-02 5.144292923536482931e+02
5.951309288043368784e-02 5.144207145155795615e+02
5.961311488527475805e-02 5.144121271766289283e+02
5.971313689011582132e-02 5.144035305702839196e+02
5.981315889495689153e-02 5.143949249307651144e+02
5.991318089979795480e-02 5.143863104930140935e+02
6.001320290463901114e-02 5.143776874926929850e+02
6.011322490948008135e-02 5.143690561661702532e+02
6.021324691432114462e-02 5.143604167505172882e+02
6.031326891916221483e-02 5.143517694834966960e+02
6.041329092400327810e-02 5.143431146035572965e+02
6.051331292884433444e-02 5.143344523498255967e+02
6.061333493368541159e-02 5.143257829620974917e+02
6.071335693852646792e-02 5.143171066808296246e+02
6.081337894336753813e-02 5.143084237471333608e+02
6.091340094820860140e-02 5.142997344027635336e+02
6.101342295304966468e-02 5.142910388901134411e+02
6.111344495789073489e-02 5.142823374522062068e+02
6.121346696273179122e-02 5.142736303326852294e+02
6.131348896757286837e-02 5.142649177758048609e+02
6.141351097241392470e-02 5.142562000264273365e+02
6.151353297725498798e-02 5.142474773300099287e+02
6.161355498209605819e-02 5.142387499325957378e+02
6.171357698693712146e-02 5.142300180808113055e+02
6.181359899177819167e-02 5.142212820218512661e+02
6.191362099661924800e-02 5.142125420034757326e+02
6.201364300146031128e-02 5.142037982739973359e+02
6.211366500630138149e-02 5.141950510822764500e+02
6.221368701114244476e-02 5.141863006777097098e+02
6.231370901598351497e-02 5.141775473102236447e+02
6.241373102082457824e-02 5.141687912302660379e+02
6.251375302566564152e-02 5.141600326887948995e+02
6.261377503050670479e-02 5.141512719372735774e+02
6.271379703534776806e-02 5.141425092276588202e+02
6.281381904018884521e-02 5.141337448123940703e+02
6.291384104502989461e-02 5.141249789444004819e+02
6.301386304987095788e-02 5.141162118770685083e+02
6.311388505471203503e-02 5.141074438642466475e+02
6.321390705955309830e-02 5.140986751602371214e+02
6.331392906439416157e-02 5.140899060197831432e+02
6.341395106923522484e-02 5.140811366980624371e+02
6.351397307407628812e-02 5.140723674506771204e+02
6.361399507891735139e-02 5.140635985336452904e+02
6.371401708375841466e-02 5.140548302033927257e+02
6.381403908859949181e-02 5.140460627167427674e+02
6.391406109344055508e-02 5.140372963309088163e+02
6.401408309828161836e-02 5.140285313034836463e+02
6.411410510312268163e-02 5.140197678924316733e+02
6.421412710796374490e-02 5.140110063560798608e+02
6.431414911280480817e-02 5.140022469531088518e+02
6.441417111764587144e-02 5.139934899425423964e+02
6.451419312248694860e-02 5.139847355837409850e+02
6.461421512732801187e-02 5.139759841363891155e+02
6.471423713216907514e-02 5.139672358604905185e+02
6.481425913701013841e-02 5.139584910163546283e+02
6.491428114185120168e-02 5.139497498645905580e+02
6.501430314669226496e-02 5.139410126660967535e+02
6.511432515153332823e-02 5.139322796820522399e+02
6.521434715637439150e-02 5.139235511739060485e+02
6.531436916121546865e-02 5.139148274033703956e+02
6.541439116605653192e-02 5.139061086324084044e+02
6.551441317089759520e-02 5.138973951232275112e+02
6.561443517573865847e-02 5.138886871382686650e+02
6.571445718057972174e-02 5.138799849401976871e+02
6.581447918542078501e-02 5.138712887918948127e+02
6.591450119026184828e-02 5.138625989564470729e+02
6.601452319510292543e-02 5.138539156971382909e+02
6.611454519994398871e-02 5.138452392774380542e+02
6.621456720478505198e-02 5.138365699609946660e+02
6.631458920962611525e-02 5.138279080116236628e+02
6.641461121446717852e-02 5.138192536933012207e+02
6.651463321930824180e-02 5.138106072701516496e+02
6.661465522414930507e-02 5.138019690064394354e+02
6.671467722899036834e-02 5.137933391665586669e+02
6.681469923383144549e-02 5.137847180150261011e+02
6.691472123867250876e-02 5.137761058164676342e+02
6.701474324351357204e-02 5.137675028356128450e+02
6.711476524835463531e-02 5.137589093372836260e+02
6.721478725319569858e-02 5.137503255863838376e+02
6.731480925803676185e-02 5.137417518478901002e+02
6.741483126287782512e-02 5.137331883868438354e+02
6.751485326771890227e-02 5.137246354683397840e+02
6.761487527255996555e-02 5.137160933575170247e+02
6.771489727740101494e-02 5.137075623195503340e+02
6.781491928224209209e-02 5.136990426196382487e+02
6.791494128708315536e-02 5.136905345229961313e+02
6.801496329192421864e-02 5.136820382948441193e+02
6.811498529676528191e-02 5.136735542003992805e+02
6.821500730160634518e-02 5.136650825048653815e+02
6.831502930644742233e-02 5.136566234734224281e+02
6.841505131128847172e-02 5.136481773712180257e+02
6.851507331612954887e-02 5.136397444633570331e+02
6.861509532097061215e-02 5.136313250148918996e+02
6.871511732581167542e-02 5.136229192908145933e+02
6.881513933065273869e-02 5.136145275560434129e+02
6.891516133549380196e-02 5.136061500754165081e+02
6.901518334033487911e-02 5.135977871136808517e+02
6.911520534517592851e-02 5.135894389354823488e+02
6.921522735001699178e-02 5.135811058053559464e+02
6.931524935485806893e-02 5.135727879877171063e+02
6.941527135969913220e-02 5.135644857468508917e+02
6.951529336454019548e-02 5.135561993469023037e+02
6.961531536938125875e-02 5.135479290518667312e+02
6.971533737422232202e-02 5.135396751255821073e+02
6.981535937906338529e-02 5.135314378317129922e+02
6.991538138390444856e-02 5.135232174337494371e+02
7.001540338874552571e-02 5.135150141949904992e+02
7.011542539358658899e-02 5.135068283785371932e+02
7.021544739842763838e-02 5.134986602472830555e+02
7.031546940326871553e-02 5.134905100639027751e+02
7.041549140810977880e-02 5.134823780908430990e+02
7.051551341295084208e-02 5.134742645903148741e+02
7.061553541779190535e-02 5.134661698242790635e+02
7.071555742263296862e-02 5.134580940544419718e+02
7.081557942747404577e-02 5.134500375422408069e+02
7.091560143231509517e-02 5.134420005488384504e+02
7.101562343715617232e-02 5.134339833351090192e+02
7.111564544199723559e-02 5.134259861616318403e+02
7.121566744683829886e-02 5.134180092886804232e+02
7.131568945167936213e-02 5.134100529762110909e+02
7.141571145652042540e-02 5.134021174838552497e+02
7.151573346136150255e-02 5.133942030709109758e+02
7.161575546620255195e-02 5.133863099963273271e+02
7.171577747104361522e-02 5.133784385187021826e+02
7.181579947588469237e-02 5.133705888962662129e+02
7.191582148072575564e-02 5.133627613868771959e+02
7.201584348556681892e-02 5.133549562480084205e+02
7.211586549040788219e-02 5.133471737367402739e+02
7.221588749524894546e-02 5.133394141097473948e+02
7.231590950009000873e-02 5.133316776232928760e+02
7.241593150493107200e-02 5.133239645332165537e+02
7.251595350977214915e-02 5.133162750949247766e+02
7.261597551461321243e-02 5.133086095633824470e+02
7.271599751945427570e-02 5.133009681931014256e+02
7.281601952429533897e-02 5.132933512381321179e+02
7.291604152913640224e-02 5.132857589520536976e+02
7.301606353397746552e-02 5.132781915879635335e+02
7.311608553881852879e-02 5.132706493984686631e+02
7.321610754365960594e-02 5.132631326356753334e+02
7.331612954850066921e-02 5.132556415511797923e+02
7.341615155334173248e-02 5.132481763960580565e+02
7.351617355818279576e-02 5.132407374208574993e+02
7.361619556302385903e-02 5.132333248755853674e+02
7.371621756786492230e-02 5.132259390097011647e+02
7.381623957270598557e-02 5.132185800721060787e+02
7.391626157754704884e-02 5.132112483111332040e+02
7.401628358238812599e-02 5.132039439745377649e+02
7.411630558722918927e-02 5.131966673094891576e+02
7.421632759207025254e-02 5.131894185625601494e+02
7.431634959691131581e-02 5.131821979797161930e+02
7.441637160175237908e-02 5.131750058063087181e+02
7.451639360659344236e-02 5.131678422870633085e+02
7.461641561143450563e-02 5.131607076660717439e+02
7.471643761627558278e-02 5.131536021867814270e+02
7.481645962111664605e-02 5.131465260919859475e+02
7.491648162595770932e-02 5.131394796238168965e+02
7.501650363079877259e-02 5.131324630237332940e+02
7.511652563563983587e-02 5.131254765325118115e+02
7.521654764048089914e-02 5.131185203902394960e+02
7.531656964532196241e-02 5.131115948363017196e+02
7.541659165016302568e-02 5.131047001093745621e+02
7.551661365500410283e-02 5.130978364474154887e+02
7.561663565984516611e-02 5.130910040876531184e+02
7.571665766468622938e-02 5.130842032665779016e+02
7.581667966952729265e-02 5.130774342199340481e+02
7.591670167436835592e-02 5.130706971827089546e+02
7.601672367920941920e-02 5.130639923891260423e+02
7.611674568405048247e-02 5.130573200726316827e+02
7.621676768889155962e-02 5.130506804658908777e+02
7.631678969373262289e-02 5.130440738007736172e+02
7.641681169857367228e-02 5.130375003083488537e+02
7.651683370341474943e-02 5.130309602188740428e+02
7.661685570825581271e-02 5.130244537617860487e+02
7.671687771309687598e-02 5.130179811656923903e+02
7.681689971793793925e-02 5.130115426583622593e+02
7.691692172277900252e-02 5.130051384667162893e+02
7.701694372762007967e-02 5.129987688168206432e+02
7.711696573246112907e-02 5.129924339338738264e+02
7.721698773730220622e-02 5.129861340422003195e+02
7.731700974214326949e-02 5.129798693652423935e+02
7.741703174698433276e-02 5.129736401255479450e+02
7.751705375182539604e-02 5.129674465447657212e+02
7.761707575666645931e-02 5.129612888436324738e+02
7.771709776150753646e-02 5.129551672419676152e+02
7.781711976634858585e-02 5.129490819586617363e+02
7.791714177118964912e-02 5.129430332116686486e+02
7.801716377603072627e-02 5.129370212179993587e+02
7.811718578087178955e-02 5.129310461937068339e+02
7.821720778571283894e-02 5.129251083538855482e+02
7.831722979055391609e-02 5.129192079126549970e+02
7.841725179539499324e-02 5.129133450831573100e+02
7.851727380023604264e-02 5.129075200775444046e+02
7.861729580507710591e-02 5.129017331069721877e+02
7.871731780991818306e-02 5.128959843815899831e+02
7.881733981475924633e-02 5.128902741105339373e+02
7.891736181960029572e-02 5.128846025019158787e+02
7.901738382444137287e-02 5.128789697628182012e+02
7.911740582928245002e-02 5.128733760992818134e+02
7.921742783412349942e-02 5.128678217163018189e+02
7.931744983896456269e-02 5.128623068178147832e+02
7.941747184380563984e-02 5.128568316066949819e+02
7.951749384864668924e-02 5.128513962847412131e+02
7.961751585348775251e-02 5.128460010526732731e+02
7.971753785832882966e-02 5.128406461101189961e+02
7.981755986316990681e-02 5.128353316556112986e+02
7.991758186801095620e-02 5.128300578865757871e+02
8.001760387285201948e-02 5.128248249993243917e+02
8.011762587769309663e-02 5.128196331890467263e+02
8.021764788253414602e-02 5.128144826498028124e+02
8.031766988737520929e-02 5.128093735745143249e+02
8.041769189221628644e-02 5.128043061549572030e+02
8.051771389705733584e-02 5.127992805817528961e+02
8.061773590189841299e-02 5.127942970443610875e+02
8.071775790673947626e-02 5.127893557310715096e+02
8.081777991158055341e-02 5.127844568289967810e+02
8.091780191642160280e-02 5.127796005240635395e+02
8.101782392126266608e-02 5.127747870010058477e+02
8.111784592610374323e-02 5.127700164433556438e+02
8.121786793094479262e-02 5.127652890334375115e+02
8.131788993578586977e-02 5.127606049523595857e+02
8.141791194062693304e-02 5.127559643800049116e+02
8.151793394546799632e-02 5.127513674950267841e+02
8.161795595030905959e-02 5.127468144748390841e+02
8.171797795515012286e-02 5.127423054956082069e+02
8.181799995999120001e-02 5.127378407322484009e+02
8.191802196483224940e-02 5.127334203584109673e+02
8.201804396967332655e-02 5.127290445464801678e+02
8.211806597451438983e-02 5.127247134675620828e+02
8.221808797935545310e-02 5.127204272914821104e+02
8.231810998419651637e-02 5.127161861867733705e+02
8.241813198903757964e-02 5.127119903206723848e+02
8.251815399387864292e-02 5.127078398591095265e+02
8.261817599871970619e-02 5.127037349667048147e+02
8.271819800356078334e-02 5.126996758067579094e+02
8.281822000840184661e-02 5.126956625412428821e+02
8.291824201324290988e-02 5.126916953308016218e+02
8.301826401808397315e-02 5.126877743347356500e+02
8.311828602292503643e-02 5.126838997109980482e+02
8.321830802776609970e-02 5.126800716161900482e+02
8.331833003260716297e-02 5.126762902055520499e+02
8.341835203744824012e-02 5.126725556329568008e+02
8.351837404228928952e-02 5.126688680509035976e+02
8.361839604713036667e-02 5.126652276105107831e+02
8.371841805197142994e-02 5.126616344615085836e+02
8.381844005681249321e-02 5.126580887522351304e+02
8.391846206165355648e-02 5.126545906296275916e+02
8.401848406649461976e-02 5.126511402392156924e+02
8.411850607133569691e-02 5.126477377251164853e+02
8.421852807617674630e-02 5.126443832300269605e+02
8.431855008101782345e-02 5.126410768952189301e+02
8.441857208585888672e-02 5.126378188605314108e+02
8.451859409069993612e-02 5.126346092643644852e+02
8.461861609554101327e-02 5.126314482436747539e+02
8.471863810038207654e-02 5.126283359339664685e+02
8.481866010522315369e-02 5.126252724692889160e+02
8.491868211006420308e-02 5.126222579822264152e+02
8.501870411490528023e-02 5.126192926038955875e+02
8.511872611974634351e-02 5.126163764639375131e+02
8.521874812458739290e-02 5.126135096905134105e+02
8.531877012942847005e-02 5.126106924102971334e+02
8.541879213426953332e-02 5.126079247484697134e+02
8.551881413911061047e-02 5.126052068287150405e+02
8.561883614395165987e-02 5.126025387732129275e+02
8.571885814879273702e-02 5.125999207026330851e+02
8.581888015363380029e-02 5.125973527361302331e+02
8.591890215847484968e-02 5.125948349913402353e+02
8.601892416331592683e-02 5.125923675843700948e+02
8.611894616815699011e-02 5.125899506297972721e+02
8.621896817299803950e-02 5.125875842406618403e+02
8.631899017783911665e-02 5.125852685284620520e+02
8.641901218268019380e-02 5.125830036031475174e+02
8.651903418752125707e-02 5.125807895731162489e+02
8.661905619236230647e-02 5.125786265452084081e+02
8.671907819720338362e-02 5.125765146247007351e+02
8.681910020204444689e-02 5.125744539153024562e+02
8.691912220688549628e-02 5.125724445191490304e+02
8.701914421172657343e-02 5.125704865367988532e+02
8.711916621656765058e-02 5.125685800672270034e+02
8.721918822140869998e-02 5.125667252078210367e+02
8.731921022624976325e-02 5.125649220543757565e+02
8.741923223109084040e-02 5.125631707010900300e+02
8.751925423593190367e-02 5.125614712405589444e+02
8.761927624077295307e-02 5.125598237637725560e+02
8.771929824561403022e-02 5.125582283601098652e+02
8.781932025045510737e-02 5.125566851173338137e+02
8.791934225529615676e-02 5.125551941215879879e+02
8.801936426013722004e-02 5.125537554573912757e+02
8.811938626497829719e-02 5.125523692076340012e+02
8.821940826981934658e-02 5.125510354535730357e+02
8.831943027466040985e-02 5.125497542748297519e+02
8.841945227950148700e-02 5.125485257493826339e+02
8.851947428434256415e-02 5.125473499535655719e+02
8.861949628918361355e-02 5.125462269620629741e+02
8.871951829402467682e-02 5.125451568479052185e+02
8.881954029886575397e-02 5.125441396824668345e+02
8.891956230370680336e-02 5.125431755354594543e+02
8.901958430854786664e-02 5.125422644749304482e+02
8.911960631338894379e-02 5.125414065672594006e+02
8.921962831822999318e-02 5.125406018771520849e+02
8.931965032307107033e-02 5.125398504676388711e+02
8.941967232791213360e-02 5.125391524000704067e+02
8.951969433275321075e-02 5.125385077341148872e+02
8.961971633759426015e-02 5.125379165277524862e+02
8.971973834243532342e-02 5.125373788372752415e+02
8.981976034727640057e-02 5.125368947172800063e+02
8.991978235211744996e-02 5.125364642206692452e+02
9.001980435695852711e-02 5.125360873986434171e+02
9.011982636179959039e-02 5.125357643007019988e+02
9.021984836664065366e-02 5.125354949746379134e+02
9.031987037148171693e-02 5.125352794665340070e+02
9.041989237632278020e-02 5.125351178207630483e+02
9.051991438116385735e-02 5.125350100799814754e+02
9.061993638600490675e-02 5.125349562851286009e+02
9.071995839084598390e-02 5.125349564754230869e+02
9.081998039568704717e-02 5.125350106883613535e+02
9.092000240052811044e-02 5.125351189597120083e+02
9.102002440536917371e-02 5.125352813235174381e+02
9.112004641021023699e-02 5.125354978120873284e+02
9.122006841505130026e-02 5.125357684559987774e+02
9.132009041989236353e-02 5.125360932840935675e+02
9.142011242473344068e-02 5.125364723234739586e+02
9.152013442957450395e-02 5.125369055995029157e+02
9.162015643441556723e-02 5.125373931357999027e+02
9.172017843925663050e-02 5.125379349542401997e+02
9.182020044409769377e-02 5.125385310749522887e+02
9.192022244893875704e-02 5.125391815163146703e+02
9.202024445377982032e-02 5.125398862949566592e+02
9.212026645862089747e-02 5.125406454257532687e+02
9.222028846346194686e-02 5.125414589218246419e+02
9.232031046830302401e-02 5.125423267945363932e+02
9.242033247314408728e-02 5.125432490534947192e+02
9.252035447798515055e-02 5.125442257065457170e+02
9.262037648282621383e-02 5.125452567597749294e+02
9.272039848766727710e-02 5.125463422175049573e+02
9.282042049250835425e-02 5.125474820822938682e+02
9.292044249734940364e-02 5.125486763549341731e+02
9.302046450219048079e-02 5.125499250344512348e+02
9.312048650703154407e-02 5.125512281181024719e+02
9.322050851187259346e-02 5.125525856013749717e+02
9.332053051671367061e-02 5.125539974779861723e+02
9.342055252155473388e-02 5.125554637398820432e+02
9.352057452639581103e-02 5.125569843772345848e+02
9.362059653123686043e-02 5.125585593784428511e+02
9.372061853607793758e-02 5.125601887301320403e+02
9.382064054091900085e-02 5.125618724171512213e+02
9.392066254576005024e-02 5.125636104225744702e+02
9.402068455060112739e-02 5.125654027276980287e+02
9.412070655544219067e-02 5.125672493120413264e+02
9.422072856028326782e-02 5.125691501533458450e+02
9.432075056512431721e-02 5.125711052275750035e+02
9.442077256996539436e-02 5.125731145089137044e+02
9.452079457480645763e-02 5.125751779697671964e+02
9.462081657964750703e-02 5.125772955807614153e+02
9.472083858448858418e-02 5.125794673107421886e+02
9.482086058932964745e-02 5.125816931267781911e+02
9.492088259417069684e-02 5.125839729941550331e+02
9.502090459901177399e-02 5.125863068763802630e+02
9.512092660385285114e-02 5.125886947351807521e+02
9.522094860869391442e-02 5.125911365305050822e+02
9.532097061353496381e-02 5.125936322205211582e+02
9.542099261837604096e-02 5.125961817616181406e+02
9.552101462321710423e-02 5.125987851084054228e+02
9.562103662805815363e-02 5.126014422137147903e+02
9.572105863289923078e-02 5.126041530285997396e+02
9.582108063774030793e-02 5.126069175023360458e+02
9.592110264258135732e-02 5.126097355824219903e+02
9.602112464742242059e-02 5.126126072145808621e+02
9.612114665226349774e-02 5.126155323427582289e+02
9.622116865710456102e-02 5.126185109091263712e+02
9.632119066194561041e-02 5.126215428540825769e+02
9.642121266678668756e-02 5.126246281162517562e+02
9.652123467162776471e-02 5.126277666324861002e+02
9.662125667646881411e-02 5.126309583378661046e+02
9.672127868130987738e-02 5.126342031657032976e+02
9.682130068615095453e-02 5.126375010475403542e+02
9.692132269099200392e-02 5.126408519131502999e+02
9.702134469583306720e-02 5.126442556905427637e+02
9.712136670067414435e-02 5.126477123059602263e+02
9.722138870551522150e-02 5.126512216838822269e+02
9.732141071035627089e-02 5.126547837470264994e+02
9.742143271519733416e-02 5.126583984163498826e+02
9.752145472003841131e-02 5.126620656110502523e+02
9.762147672487946071e-02 5.126657852485698186e+02
9.772149872972052398e-02 5.126695572445933067e+02
9.782152073456160113e-02 5.126733815130526182e+02
9.792154273940265052e-02 5.126772579661294458e+02
9.802156474424372767e-02 5.126811865142528859e+02
9.812158674908479095e-02 5.126851670661069420e+02
9.822160875392586810e-02 5.126891995286289330e+02
9.832163075876691749e-02 5.126932838070130174e+02
9.842165276360798076e-02 5.126974198047117852e+02
9.852167476844905791e-02 5.127016074234385314e+02
9.862169677329010731e-02 5.127058465631719173e+02
9.872171877813118446e-02 5.127101371221540376e+02
9.882174078297224773e-02 5.127144789968972418e+02
9.892176278781331100e-02 5.127188720821839070e+02
9.902178479265437427e-02 5.127233162710697343e+02
9.912180679749543755e-02 5.127278114548870462e+02
9.922182880233651470e-02 5.127323575232475150e+02
9.932185080717756409e-02 5.127369543640431857e+02
9.942187281201864124e-02 5.127416018634526154e+02
9.952189481685970451e-02 5.127462999059403046e+02
9.962191682170076779e-02 5.127510483742624956e+02
9.972193882654183106e-02 5.127558471494686501e+02
9.982196083138289433e-02 5.127606961109052008e+02
9.992198283622395760e-02 5.127655951362181668e+02
1.000220048410650209e-01 5.127705441013574728e+02
1.001220268459060980e-01 5.127755428805789961e+02
1.002220488507471613e-01 5.127805913464496825e+02
1.003220708555882246e-01 5.127856893698490239e+02
1.004220928604292878e-01 5.127908368199737197e+02
1.005221148652703511e-01 5.127960335643409735e+02
1.006221368701114144e-01 5.128012794687931546e+02
1.007221588749524777e-01 5.128065743974997304e+02
1.008221808797935548e-01 5.128119182129617002e+02
1.009222028846346042e-01 5.128173107760161429e+02
1.010222248894756814e-01 5.128227519458398547e+02
1.011222468943167446e-01 5.128282415799524188e+02
1.012222688991578079e-01 5.128337795342224581e+02
1.013222909039988712e-01 5.128393656628677491e+02
1.014223129088399344e-01 5.128449998184648848e+02
1.015223349136810116e-01 5.128506818519476838e+02
1.016223569185220610e-01 5.128564116126158297e+02
1.017223789233631381e-01 5.128621889481374865e+02
1.018224009282042014e-01 5.128680137045537322e+02
1.019224229330452508e-01 5.128738857262828787e+02
1.020224449378863280e-01 5.128798048561264977e+02
1.021224669427273912e-01 5.128857709352713528e+02
1.022224889475684684e-01 5.128917838032969030e+02
1.023225109524095178e-01 5.128978432981771221e+02
1.024225329572505949e-01 5.129039492562893656e+02
1.025225549620916582e-01 5.129101015124140304e+02
1.026225769669327076e-01 5.129162998997434215e+02
1.027225989717737847e-01 5.129225442498863003e+02
1.028226209766148480e-01 5.129288343928706126e+02
1.029226429814559252e-01 5.129351701571508784e+02
1.030226649862969746e-01 5.129415513696120570e+02
1.031226869911380517e-01 5.129479778555760277e+02
1.032227089959791150e-01 5.129544494388054545e+02
1.033227310008201644e-01 5.129609659415099259e+02
1.034227530056612415e-01 5.129675271843510700e+02
1.035227750105023048e-01 5.129741329864486943e+02
1.036227970153433542e-01 5.129807831653848780e+02
1.037228190201844313e-01 5.129874775372115892e+02
1.038228410250255085e-01 5.129942159164530722e+02
1.039228630298665718e-01 5.130009981161171027e+02
1.040228850347076212e-01 5.130078239476935096e+02
1.041229070395486983e-01 5.130146932211659987e+02
1.042229290443897616e-01 5.130216057450153357e+02
1.043229510492308110e-01 5.130285613262262814e+02
1.044229730540718881e-01 5.130355597702913428e+02
1.045229950589129653e-01 5.130426008812211194e+02
1.046230170637540147e-01 5.130496844615447571e+02
1.047230390685950779e-01 5.130568103123218862e+02
1.048230610734361551e-01 5.130639782331448941e+02
1.049230830782772184e-01 5.130711880221465435e+02
1.050231050831182678e-01 5.130784394760066789e+02
1.051231270879593449e-01 5.130857323899574567e+02
1.052231490928004221e-01 5.130930665577906211e+02
1.053231710976414714e-01 5.131004417718650075e+02
1.054231931024825347e-01 5.131078578231112033e+02
1.055232151073236119e-01 5.131153145010383696e+02
1.056232371121646613e-01 5.131228115937429948e+02
1.057232591170057245e-01 5.131303488879132146e+02
1.058232811218468017e-01 5.131379261688371116e+02
1.059233031266878788e-01 5.131455432204078306e+02
1.060233251315289282e-01 5.131531998251332425e+02
1.061233471363699915e-01 5.131608957641406050e+02
1.062233691412110687e-01 5.131686308171845212e+02
1.063233911460521181e-01 5.131764047626536467e+02
1.064234131508931813e-01 5.131842173775777383e+02
1.065234351557342585e-01 5.131920684376354984e+02
1.066234571605753079e-01 5.131999577171610554e+02
1.067234791654163850e-01 5.132078849891520349e+02
1.068235011702574483e-01 5.132158500252760405e+02
1.069235231750985254e-01 5.132238525958781565e+02
1.070235451799395748e-01 5.132318924699886793e+02
1.071235671847806381e-01 5.132399694153317569e+02
1.072235891896217153e-01 5.132480831983297094e+02
1.073236111944627647e-01 5.132562335841145114e+02
1.074236331993038418e-01 5.132644203365334761e+02
1.075236552041449051e-01 5.132726432181553946e+02
1.076236772089859683e-01 5.132809019902815635e+02
1.077236992138270316e-01 5.132891964129516964e+02
1.078237212186680949e-01 5.132975262449519960e+02
1.079237432235091720e-01 5.133058912438229981e+02
1.080237652283502214e-01 5.133142911658683261e+02
1.081237872331912986e-01 5.133227257661609428e+02
1.082238092380323619e-01 5.133311947985534971e+02
1.083238312428734251e-01 5.133396980156842346e+02
1.084238532477144884e-01 5.133482351689860934e+02
1.085238752525555517e-01 5.133568060086972764e+02
1.086238972573966149e-01 5.133654102838635254e+02
1.087239192622376782e-01 5.133740477423534685e+02
1.088239412670787554e-01 5.133827181308613490e+02
1.089239632719198186e-01 5.133914211949182800e+02
1.090239852767608819e-01 5.134001566789015669e+02
1.091240072816019452e-01 5.134089243260391413e+02
1.092240292864430085e-01 5.134177238784218389e+02
1.093240512912840717e-01 5.134265550770115851e+02
1.094240732961251350e-01 5.134354176616483301e+02
1.095240953009662122e-01 5.134443113710598254e+02
1.096241173058072615e-01 5.134532359428693553e+02
1.097241393106483387e-01 5.134621911136075596e+02
1.098241613154894020e-01 5.134711766187160720e+02
1.099241833203304652e-01 5.134801921925616170e+02
1.100242053251715285e-01 5.134892375684412400e+02
1.101242273300125918e-01 5.134983124785928794e+02
1.102242493348536689e-01 5.135074166542050307e+02
1.103242713396947183e-01 5.135165498254220893e+02
1.104242933445357955e-01 5.135257117213595848e+02
1.105243153493768588e-01 5.135349020701073641e+02
1.106243373542179081e-01 5.135441205987422109e+02
1.107243593590589853e-01 5.135533670333360305e+02
1.108243813639000486e-01 5.135626410989649457e+02
1.109244033687411257e-01 5.135719425197187320e+02
1.110244253735821751e-01 5.135812710187103676e+02
1.111244473784232523e-01 5.135906263180843325e+02
1.112244693832643155e-01 5.136000081390282048e+02
1.113244913881053649e-01 5.136094162017795952e+02
1.114245133929464421e-01 5.136188502256377433e+02
1.115245353977875054e-01 5.136283099289717029e+02
1.116245574026285825e-01 5.136377950292300056e+02
1.117245794074696319e-01 5.136473052429497557e+02
1.118246014123107090e-01 5.136568402857704996e+02
1.119246234171517723e-01 5.136663998724361591e+02
1.120246454219928217e-01 5.136759837168116292e+02
1.121246674268338989e-01 5.136855915318899406e+02
1.122246894316749621e-01 5.136952230297999904e+02
1.123247114365160115e-01 5.137048779218208665e+02
1.124247334413570887e-01 5.137145559183884416e+02
1.125247554461981658e-01 5.137242567291056048e+02
1.126247774510392291e-01 5.137339800627540853e+02
1.127247994558802785e-01 5.137437256273007051e+02
1.128248214607213556e-01 5.137534931299119307e+02
1.129248434655624189e-01 5.137632822769608083e+02
1.130248654704034683e-01 5.137730927740379911e+02
1.131248874752445455e-01 5.137829243259618579e+02
1.132249094800856226e-01 5.137927766367889717e+02
1.133249314849266720e-01 5.138026494098229477e+02
1.134249534897677353e-01 5.138125423476260494e+02
1.135249754946088124e-01 5.138224551520295336e+02
1.136249974994498757e-01 5.138323875241427459e+02
1.137250195042909251e-01 5.138423391643634659e+02
1.138250415091320022e-01 5.138523097723904129e+02
1.139250635139730794e-01 5.138622990472307492e+02
1.140250855188141288e-01 5.138723066872114487e+02
1.141251075236551921e-01 5.138823323899910065e+02
1.142251295284962692e-01 5.138923758525689891e+02
1.143251515333373186e-01 5.139024367712944468e+02
1.144251735381783819e-01 5.139125148418806930e+02
1.145251955430194590e-01 5.139226097594130351e+02
1.146252175478605362e-01 5.139327212183586653e+02
1.147252395527015856e-01 5.139428489125795068e+02
1.148252615575426488e-01 5.139529925353415365e+02
1.149252835623837260e-01 5.139631517793259263e+02
1.150253055672247754e-01 5.139733263366387064e+02
1.151253275720658387e-01 5.139835158988227022e+02
1.152253495769069158e-01 5.139937201568678802e+02
1.153253715817479652e-01 5.140039388012226027e+02
1.154253935865890424e-01 5.140141715218021545e+02
1.155254155914301056e-01 5.140244180080024989e+02
1.156254375962711828e-01 5.140346779487099411e+02
1.157254596011122322e-01 5.140449510323111326e+02
1.158254816059532954e-01 5.140552369467047811e+02
1.159255036107943726e-01 5.140655353793137010e+02
1.160255256156354220e-01 5.140758460170924309e+02
1.161255476204764991e-01 5.140861685465415576e+02
1.162255696253175624e-01 5.140965026537171525e+02
1.163255916301586257e-01 5.141068480242421401e+02
1.164256136349996890e-01 5.141172043433164163e+02
1.165256356398407522e-01 5.141275712957295809e+02
1.166256576446818294e-01 5.141379485658702606e+02
1.167256796495228788e-01 5.141483358377383865e+02
1.168257016543639559e-01 5.141587327949554265e+02
1.169257236592050192e-01 5.141691391207758670e+02
1.170257456640460825e-01 5.141795544980993782e+02
1.171257676688871457e-01 5.141899786094793399e+02
1.172257896737282090e-01 5.142004111371364843e+02
1.173258116785692723e-01 5.142108517629696962e+02
1.174258336834103356e-01 5.142213001685659037e+02
1.175258556882514127e-01 5.142317560352126975e+02
1.176258776930924760e-01 5.142422190439078804e+02
1.177258996979335393e-01 5.142526888753736785e+02
1.178259217027746025e-01 5.142631652100639030e+02
1.179259437076156658e-01 5.142736477281799807e+02
1.180259657124567291e-01 5.142841361096773198e+02
1.181259877172977923e-01 5.142946300342805444e+02
1.182260097221388695e-01 5.143051291814928163e+02
1.183260317269799189e-01 5.143156332306075456e+02
1.184260537318209960e-01 5.143261418607197584e+02
1.185260757366620593e-01 5.143366547507383757e+02
1.186260977415031226e-01 5.143471715793956491e+02
1.187261197463441859e-01 5.143576920252597802e+02
1.188261417511852491e-01 5.143682157667473120e+02
1.189261637560263263e-01 5.143787424821318837e+02
1.190261857608673757e-01 5.143892718495582130e+02
1.191262077657084528e-01 5.143998035470517607e+02
1.192262297705495161e-01 5.144103372525314626e+02
1.193262517753905655e-01 5.144208726438198482e+02
1.194262737802316426e-01 5.144314093986561147e+02
1.195262957850727059e-01 5.144419471947060174e+02
1.196263177899137831e-01 5.144524857095743755e+02
1.197263397947548325e-01 5.144630246208155313e+02
1.198263617995959096e-01 5.144735636059466515e+02
1.199263838044369729e-01 5.144841023424569357e+02
1.200264058092780223e-01 5.144946405078208045e+02
1.201264278141190994e-01 5.145051777795083581e+02
1.202264498189601627e-01 5.145157138349979959e+02
1.203264718238012398e-01 5.145262483517861938e+02
1.204264938286422892e-01 5.145367810074022827e+02
1.205265158334833664e-01 5.145473114794147023e+02
1.206265378383244297e-01 5.145578394454481668e+02
1.207265598431654791e-01 5.145683645831908279e+02
1.208265818480065562e-01 5.145788865704091677e+02
1.209266038528476195e-01 5.145894050849564110e+02
1.210266258576886689e-01 5.145999198047875325e+02
1.211266478625297460e-01 5.146104304079663052e+02
1.212266698673708232e-01 5.146209365726816714e+02
1.213266918722118864e-01 5.146314379772558141e+02
1.214267138770529358e-01 5.146419343001571178e+02
1.215267358818940130e-01 5.146524252200115370e+02
1.216267578867350763e-01 5.146629104156139647e+02
1.217267798915761257e-01 5.146733895659397149e+02
1.218268018964172028e-01 5.146838623501558914e+02
1.219268239012582800e-01 5.146943284476341205e+02
1.220268459060993294e-01 5.147047875379610105e+02
1.221268679109403926e-01 5.147152393009486104e+02
1.222268899157814698e-01 5.147256834166489625e+02
1.223269119206225330e-01 5.147361195653617187e+02
1.224269339254635824e-01 5.147465474276493751e+02
1.225269559303046596e-01 5.147569666843461391e+02
1.226269779351457367e-01 5.147673770165715723e+02
1.227269999399867861e-01 5.147777781057396851e+02
1.228270219448278494e-01 5.147881696335724655e+02
1.229270439496689266e-01 5.147985512821096563e+02
1.230270659545099760e-01 5.148089227337227385e+02
1.231270879593510392e-01 5.148192836711228892e+02
1.232271099641921164e-01 5.148296337773758751e+02
1.233271319690331935e-01 5.148399727359109193e+02
1.234271539738742429e-01 5.148503002305341170e+02
1.235271759787153062e-01 5.148606159454380986e+02
1.236271979835563833e-01 5.148709195652148765e+02
1.237272199883974327e-01 5.148812107748665312e+02
1.238272419932384960e-01 5.148914892598171491e+02
1.239272639980795732e-01 5.149017547059229400e+02
1.240272860029206226e-01 5.149120067994855390e+02
1.241273080077616997e-01 5.149222452272616692e+02
1.242273300126027630e-01 5.149324696764756482e+02
1.243273520174438401e-01 5.149426798348290504e+02
1.244273740222848895e-01 5.149528753905162830e+02
1.245273960271259528e-01 5.149630560322292467e+02
1.246274180319670299e-01 5.149732214491746163e+02
1.247274400368080793e-01 5.149833713310819121e+02
1.248274620416491565e-01 5.149935053682162334e+02
1.249274840464902198e-01 5.150036232513880350e+02
1.250275060513312830e-01 5.150137246719659743e+02
1.251275280561723324e-01 5.150238093218879385e+02
1.252275500610134096e-01 5.150338768936709357e+02
1.253275720658544867e-01 5.150439270804228045e+02
1.254275940706955361e-01 5.150539595758556288e+02
1.255276160755366133e-01 5.150639740742925596e+02
1.256276380803776904e-01 5.150739702706831622e+02
1.257276600852187398e-01 5.150839478606116018e+02
1.258276820900597892e-01 5.150939065403097175e+02
1.259277040949008664e-01 5.151038460066670268e+02
1.260277260997419158e-01 5.151137659572417533e+02
1.261277481045829929e-01 5.151236660902740141e+02
1.262277701094240701e-01 5.151335461046918454e+02
1.263277921142651472e-01 5.151434057001276869e+02
1.264278141191061966e-01 5.151532445769266815e+02
1.265278361239472460e-01 5.151630624361574746e+02
1.266278581287883231e-01 5.151728589796247206e+02
1.267278801336293725e-01 5.151826339098781773e+02
1.268279021384704497e-01 5.151923869302243020e+02
1.269279241433115268e-01 5.152021177447377340e+02
1.270279461481525762e-01 5.152118260582709581e+02
1.271279681529936534e-01 5.152215115764665825e+02
1.272279901578347028e-01 5.152311740057667748e+02
1.273280121626757799e-01 5.152408130534249722e+02
1.274280341675168293e-01 5.152504284275162263e+02
1.275280561723579065e-01 5.152600198369480040e+02
1.276280781771989836e-01 5.152695869914705327e+02
1.277281001820400330e-01 5.152791296016876004e+02
1.278281221868811102e-01 5.152886473790676973e+02
1.279281441917221596e-01 5.152981400359542477e+02
1.280281661965632367e-01 5.153076072855767507e+02
1.281281882014042861e-01 5.153170488420601032e+02
1.282282102062453633e-01 5.153264644204359683e+02
1.283282322110864404e-01 5.153358537366536893e+02
1.284282542159274898e-01 5.153452165075889297e+02
1.285282762207685670e-01 5.153545524510564064e+02
1.286282982256096163e-01 5.153638612858195529e+02
1.287283202304506935e-01 5.153731427315996143e+02
1.288283422352917429e-01 5.153823965090878119e+02
1.289283642401328200e-01 5.153916223399547789e+02
1.290283862449738972e-01 5.154008199468601106e+02
1.291284082498149466e-01 5.154099890534640735e+02
1.292284302546560237e-01 5.154191293844372694e+02
1.293284522594970731e-01 5.154282406654699571e+02
1.294284742643381503e-01 5.154373226232836487e+02
1.295284962691791997e-01 5.154463749856404320e+02
1.296285182740202768e-01 5.154553974813520654e+02
1.297285402788613262e-01 5.154643898402925970e+02
1.298285622837024034e-01 5.154733517934056408e+02
1.299285842885434805e-01 5.154822830727166547e+02
1.300286062933845299e-01 5.154911834113406712e+02
1.301286282982256071e-01 5.155000525434937799e+02
1.302286503030666565e-01 5.155088902045024497e+02
1.303286723079077336e-01 5.155176961308134196e+02
1.304286943127487830e-01 5.155264700600034757e+02
1.305287163175898602e-01 5.155352117307891149e+02
1.306287383224309373e-01 5.155439208830360940e+02
1.307287603272719867e-01 5.155525972577703442e+02
1.308287823321130638e-01 5.155612405971854741e+02
1.309288043369541132e-01 5.155698506446539113e+02
1.310288263417951904e-01 5.155784271447356559e+02
1.311288483466362398e-01 5.155869698431881716e+02
1.312288703514773169e-01 5.155954784869771856e+02
1.313288923563183941e-01 5.156039528242830556e+02
1.314289143611594435e-01 5.156123926045121380e+02
1.315289363660005206e-01 5.156207975783069060e+02
1.316289583708415700e-01 5.156291674975536807e+02
1.317289803756826472e-01 5.156375021153920670e+02
1.318290023805236966e-01 5.156458011862246167e+02
1.319290243853647737e-01 5.156540644657267194e+02
1.320290463902058509e-01 5.156622917108535376e+02
1.321290683950469003e-01 5.156704826798519434e+02
1.322290903998879774e-01 5.156786371322669993e+02
1.323291124047290268e-01 5.156867548289527576e+02
1.324291344095701040e-01 5.156948355320799919e+02
1.325291564144111534e-01 5.157028790051467695e+02
1.326291784192522305e-01 5.157108850129845905e+02
1.327292004240932799e-01 5.157188533217699842e+02
1.328292224289343570e-01 5.157267836990313299e+02
1.329292444337754342e-01 5.157346759136587480e+02
1.330292664386164836e-01 5.157425297359126262e+02
1.331292884434575607e-01 5.157503449374315778e+02
1.332293104482986101e-01 5.157581212912414230e+02
1.333293324531396873e-01 5.157658585717638289e+02
1.334293544579807367e-01 5.157735565548248360e+02
1.335293764628218138e-01 5.157812150176629302e+02
1.336293984676628910e-01 5.157888337389382514e+02
1.337294204725039404e-01 5.157964124987389596e+02
1.338294424773450175e-01 5.158039510785923767e+02
1.339294644821860669e-01 5.158114492614708979e+02
1.340294864870271441e-01 5.158189068318015416e+02
1.341295084918681935e-01 5.158263235754726566e+02
1.342295304967092706e-01 5.158336992798444953e+02
1.343295525015503478e-01 5.158410337337537612e+02
1.344295745063913972e-01 5.158483267275245225e+02
1.345295965112324743e-01 5.158555780529760568e+02
1.346296185160735237e-01 5.158627875034272847e+02
1.347296405209145731e-01 5.158699548737090481e+02
1.348296625257556502e-01 5.158770799601694534e+02
1.349296845305967274e-01 5.158841625606816024e+02
1.350297065354378045e-01 5.158912024746528004e+02
1.351297285402788539e-01 5.158981995030293319e+02
1.352297505451199311e-01 5.159051534483072601e+02
1.353297725499609805e-01 5.159120641145377704e+02
1.354297945548020299e-01 5.159189313073352423e+02
1.355298165596431070e-01 5.159257548338850938e+02
1.356298385644841842e-01 5.159325345029496930e+02
1.357298605693252336e-01 5.159392701248777939e+02
1.358298825741663107e-01 5.159459615116093119e+02
1.359299045790073879e-01 5.159526084766853273e+02
1.360299265838484373e-01 5.159592108352518380e+02
1.361299485886894867e-01 5.159657684040706727e+02
1.362299705935305638e-01 5.159722810015217647e+02
1.363299925983716410e-01 5.159787484476154305e+02
1.364300146032126904e-01 5.159851705639946431e+02
1.365300366080537675e-01 5.159915471739446957e+02
1.366300586128948447e-01 5.159978781023983174e+02
1.367300806177358941e-01 5.160041631759438587e+02
1.368301026225769434e-01 5.160104022228308622e+02
1.369301246274180206e-01 5.160165950729762017e+02
1.370301466322590977e-01 5.160227415579727221e+02
1.371301686371001471e-01 5.160288415110937876e+02
1.372301906419412243e-01 5.160348947672989652e+02
1.373302126467823014e-01 5.160409011632434613e+02
1.374302346516233508e-01 5.160468605372818729e+02
1.375302566564644002e-01 5.160527727294753504e+02
1.376302786613054774e-01 5.160586375815962583e+02
1.377303006661465545e-01 5.160644549371379526e+02
1.378303226709876039e-01 5.160702246413156900e+02
1.379303446758286811e-01 5.160759465410773146e+02
1.380303666806697582e-01 5.160816204851064413e+02
1.381303886855108076e-01 5.160872463238290493e+02
1.382304106903518570e-01 5.160928239094199625e+02
1.383304326951929342e-01 5.160983530958059191e+02
1.384304547000339836e-01 5.161038337386760304e+02
1.385304767048750607e-01 5.161092656954822360e+02
1.386304987097161379e-01 5.161146488254485121e+02
1.387305207145572150e-01 5.161199829895745097e+02
1.388305427193982644e-01 5.161252680506410115e+02
1.389305647242393138e-01 5.161305038732170942e+02
1.390305867290803910e-01 5.161356903236624021e+02
1.391306087339214403e-01 5.161408272701349915e+02
1.392306307387625175e-01 5.161459145825955375e+02
1.393306527436035946e-01 5.161509521328115397e+02
1.394306747484446440e-01 5.161559397943643717e+02
1.395306967532857212e-01 5.161608774426525770e+02
1.396307187581267706e-01 5.161657649548964173e+02
1.397307407629678477e-01 5.161706022101444660e+02
1.398307627678088971e-01 5.161753890892773597e+02
1.399307847726499743e-01 5.161801254750117778e+02
1.400308067774910514e-01 5.161848112519063534e+02
1.401308287823321008e-01 5.161894463063666763e+02
1.402308507871731780e-01 5.161940305266471114e+02
1.403308727920142274e-01 5.161985638028579615e+02
1.404308947968552768e-01 5.162030460269683090e+02
1.405309168016963539e-01 5.162074770928109047e+02
1.406309388065374311e-01 5.162118568960868288e+02
1.407309608113785082e-01 5.162161853343687881e+02
1.408309828162195576e-01 5.162204623071045262e+02
1.409310048210606348e-01 5.162246877156233040e+02
1.410310268259016842e-01 5.162288614631373775e+02
1.411310488307427335e-01 5.162329834547473411e+02
1.412310708355838107e-01 5.162370535974456516e+02
1.413310928404248878e-01 5.162410718001192436e+02
1.414311148452659372e-01 5.162450379735556680e+02
1.415311368501070144e-01 5.162489520304432062e+02
1.416311588549480915e-01 5.162528138853781456e+02
1.417311808597891409e-01 5.162566234548660304e+02
1.418312028646301903e-01 5.162603806573247311e+02
1.419312248694712675e-01 5.162640854130891057e+02
1.420312468743123446e-01 5.162677376444135007e+02
1.421312688791533940e-01 5.162713372754759575e+02
1.422312908839944712e-01 5.162748842323788949e+02
1.423313128888355483e-01 5.162783784431555887e+02
1.424313348936765977e-01 5.162818198377697172e+02
1.425313568985176471e-01 5.162852083481207046e+02
1.426313789033587243e-01 5.162885439080459946e+02
1.427314009081998014e-01 5.162918264533219599e+02
1.428314229130408508e-01 5.162950559216704960e+02
1.429314449178819280e-01 5.162982322527575434e+02
1.430314669227230051e-01 5.163013553881982034e+02
1.431314889275640545e-01 5.163044252715574203e+02
1.432315109324051039e-01 5.163074418483549834e+02
1.433315329372461810e-01 5.163104050660649591e+02
1.434315549420872304e-01 5.163133148741193281e+02
1.435315769469283076e-01 5.163161712239110557e+02
1.436315989517693847e-01 5.163189740687943186e+02
1.437316209566104619e-01 5.163217233640874611e+02
1.438316429614515113e-01 5.163244190670750413e+02
1.439316649662925607e-01 5.163270611370113556e+02
1.440316869711336378e-01 5.163296495351174826e+02
1.441317089759746872e-01 5.163321842245879907e+02
1.442317309808157644e-01 5.163346651705909380e+02
1.443317529856568415e-01 5.163370923402694643e+02
1.444317749904978909e-01 5.163394657027415633e+02
1.445317969953389681e-01 5.163417852291046302e+02
1.446318190001800175e-01 5.163440508924348933e+02
1.447318410050210946e-01 5.163462626677894605e+02
1.448318630098621440e-01 5.163484205322066600e+02
1.449318850147032212e-01 5.163505244647083146e+02
1.450319070195442983e-01 5.163525744463005367e+02
1.451319290243853477e-01 5.163545704599747523e+02
1.452319510292264249e-01 5.163565124907081554e+02
1.453319730340674742e-01 5.163584005254646172e+02
1.454319950389085514e-01 5.163602345531962783e+02
1.455320170437496008e-01 5.163620145648444577e+02
1.456320390485906779e-01 5.163637405533373794e+02
1.457320610534317551e-01 5.163654125135957429e+02
1.458320830582728045e-01 5.163670304425290851e+02
1.459321050631138816e-01 5.163685943390375996e+02
1.460321270679549310e-01 5.163701042040135007e+02
1.461321490727960082e-01 5.163715600403389772e+02
1.462321710776370576e-01 5.163729618528891478e+02
1.463321930824781347e-01 5.163743096485297883e+02
1.464322150873192119e-01 5.163756034361193770e+02
1.465322370921602613e-01 5.163768432265067077e+02
1.466322590970013384e-01 5.163780290325346414e+02
1.467322811018423878e-01 5.163791608690349904e+02
1.468323031066834650e-01 5.163802387528326108e+02
1.469323251115245144e-01 5.163812627027423332e+02
1.470323471163655915e-01 5.163822327395703269e+02
1.471323691212066409e-01 5.163831488861123944e+02
1.472323911260477181e-01 5.163840111671545401e+02
1.473324131308887952e-01 5.163848196094708101e+02
1.474324351357298446e-01 5.163855742418243153e+02
1.475324571405709217e-01 5.163862750949660949e+02
1.476324791454119711e-01 5.163869222016335243e+02
1.477325011502530483e-01 5.163875155965495196e+02
1.478325231550940977e-01 5.163880553164221965e+02
1.479325451599351748e-01 5.163885413999432785e+02
1.480325671647762520e-01 5.163889738877880973e+02
1.481325891696173014e-01 5.163893528226132048e+02
1.482326111744583785e-01 5.163896782490541000e+02
1.483326331792994279e-01 5.163899502137270474e+02
1.484326551841405051e-01 5.163901687652245300e+02
1.485326771889815545e-01 5.163903339541159312e+02
1.486326991938226316e-01 5.163904458329435556e+02
1.487327211986637088e-01 5.163905044562250168e+02
1.488327432035047582e-01 5.163905098804469844e+02
1.489327652083458353e-01 5.163904621640659798e+02
1.490327872131868847e-01 5.163903613675065571e+02
1.491328092180279619e-01 5.163902075531574383e+02
1.492328312228690113e-01 5.163900007853723082e+02
1.493328532277100884e-01 5.163897411304648131e+02
1.494328752325511656e-01 5.163894286567094696e+02
1.495328972373922150e-01 5.163890634343366628e+02
1.496329192422332921e-01 5.163886455355316230e+02
1.497329412470743415e-01 5.163881750344328339e+02
1.498329632519154186e-01 5.163876520071272580e+02
1.499329852567564680e-01 5.163870765316503366e+02
1.500330072615975452e-01 5.163864486879813285e+02
1.501330292664385946e-01 5.163857685580428551e+02
1.502330512712796717e-01 5.163850362256957851e+02
1.503330732761207489e-01 5.163842517767374147e+02
1.504330952809617983e-01 5.163834152988999904e+02
1.505331172858028754e-01 5.163825268818460472e+02
1.506331392906439248e-01 5.163815866171639755e+02
1.507331612954850020e-01 5.163805945983685888e+02
1.508331833003260514e-01 5.163795509208957810e+02
1.509332053051671285e-01 5.163784556820993430e+02
1.510332273100082057e-01 5.163773089812481203e+02
1.511332493148492551e-01 5.163761109195206700e+02
1.512332713196903322e-01 5.163748616000060565e+02
1.513332933245313816e-01 5.163735611276961208e+02
1.514333153293724588e-01 5.163722096094834342e+02
1.515333373342135082e-01 5.163708071541584559e+02
1.516333593390545853e-01 5.163693538724038490e+02
1.517333813438956625e-01 5.163678498767930023e+02
1.518334033487367118e-01 5.163662952817840051e+02
1.519334253535777890e-01 5.163646902037165773e+02
1.520334473584188384e-01 5.163630347608083184e+02
1.521334693632598878e-01 5.163613290731500456e+02
1.522334913681009649e-01 5.163595732627018151e+02
1.523335133729420421e-01 5.163577674532884885e+02
1.524335353777831192e-01 5.163559117705960944e+02
1.525335573826241686e-01 5.163540063421662580e+02
1.526335793874652458e-01 5.163520512973934729e+02
1.527336013923062952e-01 5.163500467675179380e+02
1.528336233971473446e-01 5.163479928856239667e+02
1.529336454019884217e-01 5.163458897866327106e+02
1.530336674068294989e-01 5.163437376072990901e+02
1.531336894116705483e-01 5.163415364862057686e+02
1.532337114165116254e-01 5.163392865637601972e+02
1.533337334213527026e-01 5.163369879821875656e+02
1.534337554261937520e-01 5.163346408855254595e+02
1.535337774310348014e-01 5.163322454196216995e+02
1.536337994358758785e-01 5.163298017321262705e+02
1.537338214407169557e-01 5.163273099724875692e+02
1.538338434455580050e-01 5.163247702919467201e+02
1.539338654503990822e-01 5.163221828435317775e+02
1.540338874552401593e-01 5.163195477820523820e+02
1.541339094600812087e-01 5.163168652640953269e+02
1.542339314649222581e-01 5.163141354480185328e+02
1.543339534697633353e-01 5.163113584939433167e+02
1.544339754746044124e-01 5.163085345637522323e+02
1.545339974794454618e-01 5.163056638210795199e+02
1.546340194842865390e-01 5.163027464313099699e+02
1.547340414891276161e-01 5.162997825615674401e+02
1.548340634939686655e-01 5.162967723807136053e+02
1.549340854988097149e-01 5.162937160593389763e+02
1.550341075036507921e-01 5.162906137697581244e+02
1.551341295084918692e-01 5.162874656860028608e+02
1.552341515133329186e-01 5.162842719838166659e+02
1.553341735181739958e-01 5.162810328406478675e+02
1.554341955230150729e-01 5.162777484356433888e+02
1.555342175278561223e-01 5.162744189496424951e+02
1.556342395326971717e-01 5.162710445651704276e+02
1.557342615375382489e-01 5.162676254664297630e+02
1.558342835423792982e-01 5.162641618392976852e+02
1.559343055472203754e-01 5.162606538713159807e+02
1.560343275520614525e-01 5.162571017516855818e+02
1.561343495569025297e-01 5.162535056712592905e+02
1.562343715617435791e-01 5.162498658225357531e+02
1.563343935665846285e-01 5.162461823996520707e+02
1.564344155714256779e-01 5.162424555983750452e+02
1.565344375762667550e-01 5.162386856160974276e+02
1.566344595811078322e-01 5.162348726518285957e+02
1.567344815859489093e-01 5.162310169061867100e+02
1.568345035907899865e-01 5.162271185813931424e+02
1.569345255956310359e-01 5.162231778812650873e+02
1.570345476004720853e-01 5.162191950112072618e+02
1.571345696053131347e-01 5.162151701782033797e+02
1.572345916101542118e-01 5.162111035908121721e+02
1.573346136149952890e-01 5.162069954591562464e+02
1.574346356198363661e-01 5.162028459949156058e+02
1.575346576246774433e-01 5.161986554113216243e+02
1.576346796295184927e-01 5.161944239231452229e+02
1.577347016343595421e-01 5.161901517466953919e+02
1.578347236392005914e-01 5.161858390998033883e+02
1.579347456440416686e-01 5.161814862018226222e+02
1.580347676488827457e-01 5.161770932736152417e+02
1.581347896537238229e-01 5.161726605375454255e+02
1.582348116585649000e-01 5.161681882174724478e+02
1.583348336634059217e-01 5.161636765387419246e+02
1.584348556682469988e-01 5.161591257281772869e+02
1.585348776730880482e-01 5.161545360140702314e+02
1.586348996779291254e-01 5.161499076261764003e+02
1.587349216827702025e-01 5.161452407957012838e+02
1.588349436876112797e-01 5.161405357552972646e+02
1.589349656924523568e-01 5.161357927390514533e+02
1.590349876972933785e-01 5.161310119824781850e+02
1.591350097021344556e-01 5.161261937225107204e+02
1.592350317069755050e-01 5.161213381974930599e+02
1.593350537118165822e-01 5.161164456471683479e+02
1.594350757166576593e-01 5.161115163126752350e+02
1.595350977214987365e-01 5.161065504365328707e+02
1.596351197263398136e-01 5.161015482626371522e+02
1.597351417311808353e-01 5.160965100362493558e+02
1.598351637360219124e-01 5.160914360039871553e+02
1.599351857408629618e-01 5.160863264138152999e+02
1.600352077457040390e-01 5.160811815150384518e+02
1.601352297505451161e-01 5.160760015582894766e+02
1.602352517553861933e-01 5.160707867955219399e+02
1.603352737602272149e-01 5.160655374800005575e+02
1.604352957650682920e-01 5.160602538662901679e+02
1.605353177699093692e-01 5.160549362102494797e+02
1.606353397747504186e-01 5.160495847690189066e+02
1.607353617795914957e-01 5.160441998010122688e+02
1.608353837844325729e-01 5.160387815659074704e+02
1.609354057892736500e-01 5.160333303246355854e+02
1.610354277941146717e-01 5.160278463393733546e+02
1.611354497989557488e-01 5.160223298735311346e+02
1.612354718037968260e-01 5.160167811917457357e+02
1.613354938086378754e-01 5.160112005598676888e+02
1.614355158134789525e-01 5.160055882449545379e+02
1.615355378183200297e-01 5.159999445152573117e+02
1.616355598231611068e-01 5.159942696402148385e+02
1.617355818280021285e-01 5.159885638904407870e+02
1.618356038328432056e-01 5.159828275377135469e+02
1.619356258376842828e-01 5.159770608549689541e+02
1.620356478425253322e-01 5.159712641162867612e+02
1.621356698473664093e-01 5.159654375968824525e+02
1.622356918522074865e-01 5.159595815730972390e+02
1.623357138570485636e-01 5.159536963223860084e+02
1.624357358618895852e-01 5.159477821233097075e+02
1.625357578667306624e-01 5.159418392555218134e+02
1.626357798715717395e-01 5.159358679997613990e+02
1.627358018764127889e-01 5.159298686378392631e+02
1.628358238812538661e-01 5.159238414526300858e+02
1.629358458860949432e-01 5.159177867280610599e+02
1.630358678909359926e-01 5.159117047491010908e+02
1.631358898957770420e-01 5.159055958017501098e+02
1.632359119006181192e-01 5.158994601730290697e+02
1.633359339054591963e-01 5.158932981509682349e+02
1.634359559103002457e-01 5.158871100245978596e+02
1.635359779151413229e-01 5.158808960839368183e+02
1.636359999199824000e-01 5.158746566199802146e+02
1.637360219248234494e-01 5.158683919246915366e+02
1.638360439296644988e-01 5.158621022909894691e+02
1.639360659345055760e-01 5.158557880127378894e+02
1.640360879393466531e-01 5.158494493847350668e+02
1.641361099441877025e-01 5.158430867027018394e+02
1.642361319490287797e-01 5.158367002632705862e+02
1.643361539538698568e-01 5.158302903639759052e+02
1.644361759587109062e-01 5.158238573032413115e+02
1.645361979635519556e-01 5.158174013803699154e+02
1.646362199683930327e-01 5.158109228955314620e+02
1.647362419732341099e-01 5.158044221497519857e+02
1.648362639780751593e-01 5.157978994449026686e+02
1.649362859829162364e-01 5.157913550836889272e+02
1.650363079877572858e-01 5.157847893696383608e+02
1.651363299925983630e-01 5.157782026070891561e+02
1.652363519974394124e-01 5.157715951011798552e+02
1.653363740022804895e-01 5.157649671578370771e+02
1.654363960071215667e-01 5.157583190837631264e+02
1.655364180119626161e-01 5.157516511864283757e+02
1.656364400168036932e-01 5.157449637740534172e+02
1.657364620216447426e-01 5.157382571556038329e+02
1.658364840264858198e-01 5.157315316407741648e+02
1.659365060313268692e-01 5.157247875399788200e+02
1.660365280361679463e-01 5.157180251643392239e+02
1.661365500410090235e-01 5.157112448256723383e+02
1.662365720458500729e-01 5.157044468364799741e+02
1.663365940506911500e-01 5.156976315099343537e+02
1.664366160555321994e-01 5.156907991598707213e+02
1.665366380603732765e-01 5.156839501007705167e+02
1.666366600652143259e-01 5.156770846477540999e+02
1.667366820700554031e-01 5.156702031165644939e+02
1.668367040748964802e-01 5.156633058235599947e+02
1.669367260797375296e-01 5.156563930856988236e+02
1.670367480845785790e-01 5.156494652205300326e+02
1.671367700894196562e-01 5.156425225461777018e+02
1.672367920942607333e-01 5.156355653813329809e+02
1.673368140991017827e-01 5.156285940452397654e+02
1.674368361039428599e-01 5.156216088576832135e+02
1.675368581087839370e-01 5.156146101389786054e+02
1.676368801136249864e-01 5.156075982099561088e+02
1.677369021184660358e-01 5.156005733919541854e+02
1.678369241233071130e-01 5.155935360068015143e+02
1.679369461281481901e-01 5.155864863768090345e+02
1.680369681329892395e-01 5.155794248247563019e+02
1.681369901378303167e-01 5.155723516738780745e+02
1.682370121426713938e-01 5.155652672478551040e+02
1.683370341475124432e-01 5.155581718707991286e+02
1.684370561523534926e-01 5.155510658672411637e+02
1.685370781571945697e-01 5.155439495621211563e+02
1.686371001620356469e-01 5.155368232807728646e+02
1.687371221668766963e-01 5.155296873489138534e+02
1.688371441717177734e-01 5.155225420926317383e+02
1.689371661765588506e-01 5.155153878383725896e+02
1.690371881813998722e-01 5.155082249129288812e+02
1.691372101862409494e-01 5.155010536434247115e+02
1.692372321910820265e-01 5.154938743573075044e+02
1.693372541959231037e-01 5.154866873823322067e+02
1.694372762007641531e-01 5.154794930465500329e+02
1.695372982056052302e-01 5.154722916782965285e+02
1.696373202104463074e-01 5.154650836061778136e+02
1.697373422152873290e-01 5.154578691590597828e+02
1.698373642201284062e-01 5.154506486660541213e+02
1.699373862249694833e-01 5.154434224565068234e+02
1.700374082298105605e-01 5.154361908599842081e+02
1.701374302346516099e-01 5.154289542062634837e+02
1.702374522394926870e-01 5.154217128253167175e+02
1.703374742443337642e-01 5.154144670472996950e+02
1.704374962491747858e-01 5.154072172025399823e+02
1.705375182540158630e-01 5.153999636215243072e+02
1.706375402588569401e-01 5.153927066348848030e+02
1.707375622636980173e-01 5.153854465733868437e+02
1.708375842685390666e-01 5.153781837679177897e+02
1.709376062733801438e-01 5.153709185494717531e+02
1.710376282782212209e-01 5.153636512491409576e+02
1.711376502830622426e-01 5.153563821980978901e+02
1.712376722879033197e-01 5.153491117275879105e+02
1.713376942927443969e-01 5.153418401689126540e+02
1.714377162975854740e-01 5.153345678534200260e+02
1.715377383024265234e-01 5.153272951124902193e+02
1.716377603072676006e-01 5.153200222775229804e+02
1.717377823121086222e-01 5.153127496799249911e+02
1.718378043169496994e-01 5.153054776510987267e+02
1.719378263217907765e-01 5.152982065224279040e+02
1.720378483266318537e-01 5.152909366252655445e+02
1.721378703314729308e-01 5.152836682909214687e+02
1.722378923363139802e-01 5.152764018506492221e+02
1.723379143411550574e-01 5.152691376356339106e+02
1.724379363459960790e-01 5.152618759769788994e+02
1.725379583508371562e-01 5.152546172056936484e+02
1.726379803556782333e-01 5.152473616526810929e+02
1.727380023605193105e-01 5.152401096487245695e+02
1.728380243653603876e-01 5.152328615244750836e+02
1.729380463702014370e-01 5.152256176104394854e+02
1.730380683750425141e-01 5.152183782369663732e+02
1.731380903798835358e-01 5.152111437342349518e+02
1.732381123847246129e-01 5.152039144322416178e+02
1.733381343895656901e-01 5.151966906607867713e+02
1.734381563944067672e-01 5.151894727494628796e+02
1.735381783992478444e-01 5.151822610276419709e+02
1.736382004040888938e-01 5.151750558244630156e+02
1.737382224089299432e-01 5.151678574688177150e+02
1.738382444137709926e-01 5.151606662893400426e+02
1.739382664186120697e-01 5.151534826143920327e+02
1.740382884234531469e-01 5.151463067720529807e+02
1.741383104282942240e-01 5.151391390901037539e+02
1.742383324331353012e-01 5.151319798960175831e+02
1.743383544379763506e-01 5.151248295169446010e+02
1.744383764428174000e-01 5.151176882797007011e+02
1.745383984476584494e-01 5.151105565107568509e+02
1.746384204524995265e-01 5.151034345362213571e+02
1.747384424573406037e-01 5.150963226818317935e+02
1.748384644621816808e-01 5.150892212729411312e+02
1.749384864670227580e-01 5.150821306345043240e+02
1.750385084718638073e-01 5.150750510910680759e+02
1.751385304767048567e-01 5.150679829667540162e+02
1.752385524815459061e-01 5.150609265852510816e+02
1.753385744863869833e-01 5.150538822698001695e+02
1.754385964912280604e-01 5.150468503431819727e+02
1.755386184960691376e-01 5.150398311277052699e+02
1.756386405009102147e-01 5.150328249451933971e+02
1.757386625057512364e-01 5.150258321169723104e+02
1.758386845105923135e-01 5.150188529638586488e+02
1.759387065154333629e-01 5.150118878061465466e+02
1.760387285202744401e-01 5.150049369635964922e+02
1.761387505251155172e-01 5.149980007554203212e+02
1.762387725299565944e-01 5.149910795002712121e+02
1.763387945347976715e-01 5.149841735162310670e+02
1.764388165396386932e-01 5.149772831207972104e+02
1.765388385444797703e-01 5.149704086308703381e+02
1.766388605493208197e-01 5.149635503627430353e+02
1.767388825541618969e-01 5.149567086320859062e+02
1.768389045590029740e-01 5.149498837539374563e+02
1.769389265638440512e-01 5.149430760426898814e+02
1.770389485686851283e-01 5.149362858120775854e+02
1.771389705735261499e-01 5.149295133751652429e+02
1.772389925783672271e-01 5.149227590443350664e+02
1.773390145832082765e-01 5.149160231312752103e+02
1.774390365880493536e-01 5.149093059469674927e+02
1.775390585928904308e-01 5.149026078016747761e+02
1.776390805977315079e-01 5.148959290049282345e+02
1.777391026025725296e-01 5.148892698655192817e+02
1.778391246074136067e-01 5.148826306914804718e+02
1.779391466122546839e-01 5.148760117900808382e+02
1.780391686170957333e-01 5.148694134678090677e+02
1.781391906219368104e-01 5.148628360303620184e+02
1.782392126267778876e-01 5.148562797826363067e+02
1.783392346316189647e-01 5.148497450287104584e+02
1.784392566364599864e-01 5.148432320718396795e+02
1.785392786413010635e-01 5.148367412144384616e+02
1.786393006461421407e-01 5.148302727580723968e+02
1.787393226509831901e-01 5.148238270034432844e+02
1.788393446558242672e-01 5.148174042503793544e+02
1.789393666606653444e-01 5.148110047978251487e+02
1.790393886655064215e-01 5.148046289438249232e+02
1.791394106703474431e-01 5.147982769855146898e+02
1.792394326751885203e-01 5.147919492191102790e+02
1.793394546800295974e-01 5.147856459398948346e+02
1.794394766848706468e-01 5.147793674422066488e+02
1.795394986897117240e-01 5.147731140194290447e+02
1.796395206945528011e-01 5.147668859639777565e+02
1.797395426993938783e-01 5.147606835672899024e+02
1.798395647042348999e-01 5.147545071198125015e+02
1.799395867090759771e-01 5.147483569109906512e+02
1.800396087139170542e-01 5.147422332292562714e+02
1.801396307187581036e-01 5.147361363620165093e+02
1.802396527235991808e-01 5.147300665956448711e+02
1.803396747284402579e-01 5.147240242154641692e+02
1.804396967332813073e-01 5.147180095057406106e+02
1.805397187381223567e-01 5.147120227496716325e+02
1.806397407429634339e-01 5.147060642293727142e+02
1.807397627478045110e-01 5.147001342258669183e+02
1.808397847526455604e-01 5.146942330190746588e+02
1.809398067574866376e-01 5.146883608878024461e+02
1.810398287623277147e-01 5.146825181097309496e+02
1.811398507671687641e-01 5.146767049614045391e+02
1.812398727720098135e-01 5.146709217182203702e+02
1.813398947768508906e-01 5.146651686544170161e+02
1.814399167816919678e-01 5.146594460430645768e+02
1.815399387865330172e-01 5.146537541560526279e+02
1.816399607913740943e-01 5.146480932640797619e+02
1.817399827962151715e-01 5.146424636366430150e+02
1.818400048010562209e-01 5.146368655420276355e+02
1.819400268058972703e-01 5.146312992472949190e+02
1.820400488107383474e-01 5.146257650182731140e+02
1.821400708155794246e-01 5.146202631195458252e+02
1.822400928204204740e-01 5.146147938144411000e+02
1.823401148252615511e-01 5.146093573650232429e+02
1.824401368301026005e-01 5.146039540320790593e+02
1.825401588349436777e-01 5.145985840751097840e+02
1.826401808397847271e-01 5.145932477523195985e+02
1.827402028446258042e-01 5.145879453206057406e+02
1.828402248494668814e-01 5.145826770355475901e+02
1.829402468543079308e-01 5.145774431513975742e+02
1.830402688591490079e-01 5.145722439210700259e+02
1.831402908639900573e-01 5.145670795961309523e+02
1.832403128688311345e-01 5.145619504267882576e+02
1.833403348736721838e-01 5.145568566618818522e+02
1.834403568785132610e-01 5.145517985488727390e+02
1.835403788833543381e-01 5.145467763338348277e+02
1.836404008881953875e-01 5.145417902614431114e+02
1.837404228930364647e-01 5.145368405749643443e+02
1.838404448978775141e-01 5.145319275162477197e+02
1.839404669027185912e-01 5.145270513257152061e+02
1.840404889075596406e-01 5.145222122423502924e+02
1.841405109124007178e-01 5.145174105036901437e+02
1.842405329172417949e-01 5.145126463458152557e+02
1.843405549220828443e-01 5.145079200033402458e+02
1.844405769269238937e-01 5.145032317094022574e+02
1.845405989317649709e-01 5.144985816956550480e+02
1.846406209366060480e-01 5.144939701922569384e+02
1.847406429414470974e-01 5.144893974278617179e+02
1.848406649462881746e-01 5.144848636296102313e+02
1.849406869511292517e-01 5.144803690231203745e+02
1.850407089559703011e-01 5.144759138324794776e+02
1.851407309608113505e-01 5.144714982802313443e+02
1.852407529656524277e-01 5.144671225873719322e+02
1.853407749704935048e-01 5.144627869733374155e+02
1.854407969753345542e-01 5.144584916559947487e+02
1.855408189801756313e-01 5.144542368516355282e+02
1.856408409850167085e-01 5.144500227749632586e+02
1.857408629898577579e-01 5.144458496390884648e+02
1.858408849946988073e-01 5.144417176555167543e+02
1.859409069995398844e-01 5.144376270341424515e+02
1.860409290043809616e-01 5.144335779832392745e+02
1.861409510092220110e-01 5.144295707094490808e+02
1.862409730140630881e-01 5.144256054177778879e+02
1.863409950189041653e-01 5.144216823115840498e+02
1.864410170237451869e-01 5.144178015925713225e+02
1.865410390285862641e-01 5.144139634607805647e+02
1.866410610334273412e-01 5.144101681145795055e+02
1.867410830382684184e-01 5.144064157506576294e+02
1.868411050431094678e-01 5.144027065640151477e+02
1.869411270479505449e-01 5.143990407479552687e+02
1.870411490527916221e-01 5.143954184940790810e+02
1.871411710576326437e-01 5.143918399922742992e+02
1.872411930624737209e-01 5.143883054307075327e+02
1.873412150673147980e-01 5.143848149958184877e+02
1.874412370721558752e-01 5.143813688723098494e+02
1.875412590769969245e-01 5.143779672431419385e+02
1.876412810818380017e-01 5.143746102895216836e+02
1.877413030866790788e-01 5.143712981908987558e+02
1.878413250915201005e-01 5.143680311249551096e+02
1.879413470963611776e-01 5.143648092675986163e+02
1.880413691012022548e-01 5.143616327929565841e+02
1.881413911060433319e-01 5.143585018733658671e+02
1.882414131108843813e-01 5.143554166793674085e+02
1.883414351157254585e-01 5.143523773796994192e+02
1.884414571205665356e-01 5.143493841412879419e+02
1.885414791254075573e-01 5.143464371292425312e+02
1.886415011302486344e-01 5.143435365068471583e+02
1.887415231350897116e-01 5.143406824355538447e+02
1.888415451399307887e-01 5.143378750749757273e+02
1.889415671447718381e-01 5.143351145828795552e+02
1.890415891496129153e-01 5.143324011151813693e+02
1.891416111544539369e-01 5.143297348259358159e+02
1.892416331592950141e-01 5.143271158673329637e+02
1.893416551641360912e-01 5.143245443896901179e+02
1.894416771689771684e-01 5.143220205414447719e+02
1.895416991738182455e-01 5.143195444691499461e+02
1.896417211786592949e-01 5.143171163174663434e+02
1.897417431835003720e-01 5.143147362291560967e+02
1.898417651883413937e-01 5.143124043450767431e+02
1.899417871931824708e-01 5.143101208041761083e+02
1.900418091980235480e-01 5.143078857434838937e+02
1.901418312028646251e-01 5.143056992981081521e+02
1.902418532077057023e-01 5.143035616012277842e+02
1.903418752125467517e-01 5.143014727840851492e+02
1.904418972173878288e-01 5.142994329759853827e+02
1.905419192222288505e-01 5.142974423042843455e+02
1.906419412270699276e-01 5.142955008943865778e+02
1.907419632319110048e-01 5.142936088697397281e+02
1.908419852367520819e-01 5.142917663518273912e+02
1.909420072415931591e-01 5.142899734601643331e+02
1.910420292464342085e-01 5.142882303122923986e+02
1.911420512512752579e-01 5.142865370237711886e+02
1.912420732561163073e-01 5.142848937081787426e+02
1.913420952609573844e-01 5.142833004771005108e+02
1.914421172657984616e-01 5.142817574401283309e+02
1.915421392706395387e-01 5.142802647048532663e+02
1.916421612754806159e-01 5.142788223768606031e+02
1.917421832803216653e-01 5.142774305597270086e+02
1.918422052851627146e-01 5.142760893550121182e+02
1.919422272900037640e-01 5.142747988622584217e+02
1.920422492948448412e-01 5.142735591789817136e+02
1.921422712996859183e-01 5.142723704006696153e+02
1.922422933045269955e-01 5.142712326207762317e+02
1.923423153093680726e-01 5.142701459307174900e+02
1.924423373142091220e-01 5.142691104198664789e+02
1.925423593190501714e-01 5.142681261755503783e+02
1.926423813238912208e-01 5.142671932830445485e+02
1.927424033287322980e-01 5.142663118255691188e+02
1.928424253335733751e-01 5.142654818842862596e+02
1.929424473384144523e-01 5.142647035382917693e+02
1.930424693432555294e-01 5.142639768646174616e+02
1.931424913480965511e-01 5.142633019382217299e+02
1.932425133529376282e-01 5.142626788319888647e+02
1.933425353577786776e-01 5.142621076167242791e+02
1.934425573626197548e-01 5.142615883611508707e+02
1.935425793674608319e-01 5.142611211319065205e+02
1.936426013723019091e-01 5.142607059935376128e+02
1.937426233771429862e-01 5.142603430084998308e+02
1.938426453819840078e-01 5.142600322371505399e+02
1.939426673868250850e-01 5.142597737377500380e+02
1.940426893916661344e-01 5.142595675664540522e+02
1.941427113965072115e-01 5.142594137773130569e+02
1.942427334013482887e-01 5.142593124222688630e+02
1.943427554061893658e-01 5.142592635511510935e+02
1.944427774110304430e-01 5.142592672116749100e+02
1.945427994158714646e-01 5.142593234494379431e+02
1.946428214207125418e-01 5.142594323079182459e+02
1.947428434255535912e-01 5.142595938284691783e+02
1.948428654303946683e-01 5.142598080503207711e+02
1.949428874352357455e-01 5.142600750105735870e+02
1.950429094400768226e-01 5.142603947441984928e+02
1.951429314449178443e-01 5.142607672840333635e+02
1.952429534497589214e-01 5.142611926607805799e+02
1.953429754545999986e-01 5.142616709030075981e+02
1.954429974594410480e-01 5.142622020371389908e+02
1.955430194642821251e-01 5.142627860874604266e+02
1.956430414691232023e-01 5.142634230761148046e+02
1.957430634739642794e-01 5.142641130230978206e+02
1.958430854788053010e-01 5.142648559462596722e+02
1.959431074836463782e-01 5.142656518613010803e+02
1.960431294884874553e-01 5.142665007817738569e+02
1.961431514933285047e-01 5.142674027190759034e+02
1.962431734981695819e-01 5.142683576824538250e+02
1.963431955030106590e-01 5.142693656789978149e+02
1.964432175078517362e-01 5.142704267136431326e+02
1.965432395126927578e-01 5.142715407891679433e+02
1.966432615175338350e-01 5.142727079061907034e+02
1.967432835223749121e-01 5.142739280631715246e+02
1.968433055272159615e-01 5.142752012564094457e+02
1.969433275320570387e-01 5.142765274800409543e+02
1.970433495368981158e-01 5.142779067260439660e+02
1.971433715417391930e-01 5.142793389842288434e+02
1.972433935465802146e-01 5.142808242422448757e+02
1.973434155514212918e-01 5.142823624855756179e+02
1.974434375562623689e-01 5.142839536975416195e+02
1.975434595611034183e-01 5.142855978592958763e+02
1.976434815659444955e-01 5.142872949498269008e+02
1.977435035707855726e-01 5.142890449459580395e+02
1.978435255756266220e-01 5.142908478223440625e+02
1.979435475804676714e-01 5.142927035514754834e+02
1.980435695853087485e-01 5.142946121036766272e+02
1.981435915901498257e-01 5.142965734471038104e+02
1.982436135949908751e-01 5.142985875477480704e+02
1.983436355998319522e-01 5.143006543694350512e+02
1.984436576046730294e-01 5.143027738738242078e+02
1.985436796095140788e-01 5.143049460204081242e+02
1.986437016143551282e-01 5.143071707665170607e+02
1.987437236191962053e-01 5.143094480673155431e+02
1.988437456240372825e-01 5.143117778758036138e+02
1.989437676288783319e-01 5.143141601428197873e+02
1.990437896337194090e-01 5.143165948170385491e+02
1.991438116385604862e-01 5.143190818449739936e+02
1.992438336434015356e-01 5.143216211709789150e+02
1.993438556482425850e-01 5.143242127372461709e+02
1.994438776530836621e-01 5.143268564838111843e+02
1.995438996579247393e-01 5.143295523485508056e+02
1.996439216627657887e-01 5.143323002671868380e+02
1.997439436676068658e-01 5.143351001732848999e+02
1.998439656724479152e-01 5.143379519982579495e+02
1.999439876772889924e-01 5.143408556713663984e+02
2.000440096821300417e-01 5.143438111197214084e+02
2.001440316869711189e-01 5.143468182682840961e+02
2.002440536918121960e-01 5.143498770398683746e+02
2.003440756966532454e-01 5.143529873551437959e+02
2.004440977014943226e-01 5.143561491326356645e+02
2.005441197063353720e-01 5.143593622887285619e+02
2.006441417111764491e-01 5.143626267376668011e+02
2.007441637160174985e-01 5.143659423915581783e+02
2.008441857208585757e-01 5.143693091603740868e+02
2.009442077256996528e-01 5.143727269519549736e+02
2.010442297305407022e-01 5.143761956720085209e+02
2.011442517353817794e-01 5.143797152241163531e+02
2.012442737402228288e-01 5.143832855097335823e+02
2.013442957450639059e-01 5.143869064281921055e+02
2.014443177499049553e-01 5.143905778767034462e+02
2.015443397547460325e-01 5.143942997503620518e+02
2.016443617595871096e-01 5.143980719421474532e+02
2.017443837644281590e-01 5.144018943429271076e+02
2.018444057692692084e-01 5.144057668414596947e+02
2.019444277741102856e-01 5.144096893243986415e+02
2.020444497789513627e-01 5.144136616762932590e+02
2.021444717837924121e-01 5.144176837795953361e+02
2.022444937886334893e-01 5.144217555146592531e+02
2.023445157934745664e-01 5.144258767597464157e+02
2.024445377983156158e-01 5.144300473910302571e+02
2.025445598031566652e-01 5.144342672825964655e+02
2.026445818079977423e-01 5.144385363064507146e+02
2.027446038128388195e-01 5.144428543325179817e+02
2.028446258176798689e-01 5.144472212286503918e+02
2.029446478225209460e-01 5.144516368606275591e+02
2.030446698273620232e-01 5.144561010921643174e+02
2.031446918322030726e-01 5.144606137849103789e+02
2.032447138370441220e-01 5.144651747984567010e+02
2.033447358418851991e-01 5.144697839903413978e+02
2.034447578467262763e-01 5.144744412160499678e+02
2.035447798515673257e-01 5.144791463290233651e+02
2.036448018564084028e-01 5.144838991806591366e+02
2.037448238612494800e-01 5.144886996203186982e+02
2.038448458660905016e-01 5.144935474953299490e+02
2.039448678709315788e-01 5.144984426509929563e+02
2.040448898757726559e-01 5.145033849305835929e+02
2.041449118806137331e-01 5.145083741753608138e+02
2.042449338854547825e-01 5.145134102245667691e+02
2.043449558902958596e-01 5.145184929154371503e+02
2.044449778951369368e-01 5.145236220832016443e+02
2.045449998999779584e-01 5.145287975610931426e+02
2.046450219048190355e-01 5.145340191803488779e+02
2.047450439096601127e-01 5.145392867702181547e+02
2.048450659145011898e-01 5.145446001579671247e+02
2.049450879193422392e-01 5.145499591688837882e+02
2.050451099241833164e-01 5.145553636262839063e+02
2.051451319290243935e-01 5.145608133515158897e+02
2.052451539338654152e-01 5.145663081639671645e+02
2.053451759387064923e-01 5.145718478810681518e+02
2.054451979435475695e-01 5.145774323183014758e+02
2.055452199483886466e-01 5.145830612892043519e+02
2.056452419532296960e-01 5.145887346053755209e+02
2.057452639580707732e-01 5.145944520764813888e+02
2.058452859629118503e-01 5.146002135102629609e+02
2.059453079677528720e-01 5.146060187125397078e+02
2.060453299725939491e-01 5.146118674872179781e+02
2.061453519774350263e-01 5.146177596362963413e+02
2.062453739822761034e-01 5.146236949598710453e+02
2.063453959871171528e-01 5.146296732561445424e+02
2.064454179919582300e-01 5.146356943214298099e+02
2.065454399967992516e-01 5.146417579501579667e+02
2.066454620016403287e-01 5.146478639348841853e+02
2.067454840064814059e-01 5.146540120662958770e+02
2.068455060113224830e-01 5.146602021332173535e+02
2.069455280161635602e-01 5.146664339226185803e+02
2.070455500210046096e-01 5.146727072196208610e+02
2.071455720258456867e-01 5.146790218075038865e+02
2.072455940306867084e-01 5.146853774677128968e+02
2.073456160355277855e-01 5.146917739798666389e+02
2.074456380403688627e-01 5.146982111217631655e+02
2.075456600452099398e-01 5.147046886693876786e+02
2.076456820500510170e-01 5.147112063969199198e+02
2.077457040548920664e-01 5.147177640767419007e+02
2.078457260597331435e-01 5.147243614794439281e+02
2.079457480645741652e-01 5.147309983738346091e+02
2.080457700694152423e-01 5.147376745269455114e+02
2.081457920742563195e-01 5.147443897040403726e+02
2.082458140790973966e-01 5.147511436686236266e+02
2.083458360839384738e-01 5.147579361824468833e+02
2.084458580887795232e-01 5.147647670055165463e+02
2.085458800936205725e-01 5.147716358961019978e+02
2.086459020984616219e-01 5.147785426107457170e+02
2.087459241033026991e-01 5.147854869042672590e+02
2.088459461081437762e-01 5.147924685297750784e+02
2.089459681129848534e-01 5.147994872386731231e+02
2.090459901178259305e-01 5.148065427806684511e+02
2.091460121226669799e-01 5.148136349037806667e+02
2.092460341275080293e-01 5.148207633543497650e+02
2.093460561323490787e-01 5.148279278770454539e+02
2.094460781371901559e-01 5.148351282148732935e+02
2.095461001420312330e-01 5.148423641091869740e+02
2.096461221468723102e-01 5.148496352996934320e+02
2.097461441517133873e-01 5.148569415244630818e+02
2.098461661565544367e-01 5.148642825199385697e+02
2.099461881613954861e-01 5.148716580209440963e+02
2.100462101662365355e-01 5.148790677606922372e+02
2.101462321710776127e-01 5.148865114707958810e+02
2.102462541759186898e-01 5.148939888812751633e+02
2.103462761807597670e-01 5.149014997205658801e+02
2.104462981856008441e-01 5.149090437155318796e+02
2.105463201904418657e-01 5.149166205914702914e+02
2.106463421952829429e-01 5.149242300721235779e+02
2.107463642001239923e-01 5.149318718796878329e+02
2.108463862049650694e-01 5.149395457348211949e+02
2.109464082098061466e-01 5.149472513566564658e+02
2.110464302146472237e-01 5.149549884628053178e+02
2.111464522194883009e-01 5.149627567693739820e+02
2.112464742243293225e-01 5.149705559909677959e+02
2.113464962291703997e-01 5.149783858407037087e+02
2.114465182340114491e-01 5.149862460302185809e+02
2.115465402388525262e-01 5.149941362696810074e+02
2.116465622436936034e-01 5.150020562677973430e+02
2.117465842485346805e-01 5.150100057318248901e+02
2.118466062533757577e-01 5.150179843675822440e+02
2.119466282582167793e-01 5.150259918794562282e+02
2.120466502630578565e-01 5.150340279704138311e+02
2.121466722678989059e-01 5.150420923420128929e+02
2.122466942727399830e-01 5.150501846944112003e+02
2.123467162775810602e-01 5.150583047263767185e+02
2.124467382824221373e-01 5.150664521352982774e+02
2.125467602872631590e-01 5.150746266171961452e+02
2.126467822921042361e-01 5.150828278667313498e+02
2.127468042969453133e-01 5.150910555772177304e+02
2.128468263017863626e-01 5.150993094406304635e+02
2.129468483066274398e-01 5.151075891476190236e+02
2.130468703114685169e-01 5.151158943875150271e+02
2.131468923163095941e-01 5.151242248483454205e+02
2.132469143211506157e-01 5.151325802168402106e+02
2.133469363259916929e-01 5.151409601784473580e+02
2.134469583308327700e-01 5.151493644173399389e+02
2.135469803356738194e-01 5.151577926164279688e+02
2.136470023405148966e-01 5.151662444573705670e+02
2.137470243453559737e-01 5.151747196205849377e+02
2.138470463501970509e-01 5.151832177852597852e+02
2.139470683550380725e-01 5.151917386293630443e+02
2.140470903598791497e-01 5.152002818296570013e+02
2.141471123647202268e-01 5.152088470617053417e+02
2.142471343695612762e-01 5.152174339998874757e+02
2.143471563744023534e-01 5.152260423174083144e+02
2.144471783792434305e-01 5.152346716863097527e+02
2.145472003840845077e-01 5.152433217774822651e+02
2.146472223889255293e-01 5.152519922606762748e+02
2.147472443937666065e-01 5.152606828045126122e+02
2.148472663986076836e-01 5.152693930764950210e+02
2.149472884034487330e-01 5.152781227430230047e+02
2.150473104082898101e-01 5.152868714693986476e+02
2.151473324131308873e-01 5.152956389198440093e+02
2.152473544179719367e-01 5.153044247575093095e+02
2.153473764228129861e-01 5.153132286444849797e+02
2.154473984276540632e-01 5.153220502418138267e+02
2.155474204324951404e-01 5.153308892095037663e+02
2.156474424373361898e-01 5.153397452065372590e+02
2.157474644421772669e-01 5.153486178908852935e+02
2.158474864470183441e-01 5.153575069195187552e+02
2.159475084518593935e-01 5.153664119484195680e+02
2.160475304567004429e-01 5.153753326325933131e+02
2.161475524615415200e-01 5.153842686260816208e+02
2.162475744663825972e-01 5.153932195819728577e+02
2.163475964712236466e-01 5.154021851524164504e+02
2.164476184760647237e-01 5.154111649886320947e+02
2.165476404809058009e-01 5.154201587409241938e+02
2.166476624857468503e-01 5.154291660586940225e+02
2.167476844905878997e-01 5.154381865904507549e+02
2.168477064954289768e-01 5.154472199838235156e+02
2.169477285002700540e-01 5.154562658855758173e+02
2.170477505051111033e-01 5.154653239416154520e+02
2.171477725099521805e-01 5.154743937970084744e+02
2.172477945147932299e-01 5.154834750959913663e+02
2.173478165196343070e-01 5.154925674819821779e+02
2.174478385244753564e-01 5.155016705975956484e+02
2.175478605293164336e-01 5.155107840846528688e+02
2.176478825341575107e-01 5.155199075841960621e+02
2.177479045389985601e-01 5.155290407364989278e+02
2.178479265438396373e-01 5.155381831810818767e+02
2.179479485486806867e-01 5.155473345567228307e+02
2.180479705535217638e-01 5.155564945014699560e+02
2.181479925583628132e-01 5.155656626526557602e+02
2.182480145632038904e-01 5.155748386469078923e+02
2.183480365680449675e-01 5.155840221201638087e+02
2.184480585728860169e-01 5.155932127076822553e+02
2.185480805777270941e-01 5.156024100440569100e+02
2.186481025825681435e-01 5.156116137632276377e+02
2.187481245874092206e-01 5.156208234984966339e+02
2.188481465922502700e-01 5.156300388825376331e+02
2.189481685970913472e-01 5.156392595474111431e+02
2.190481906019324243e-01 5.156484851245766095e+02
2.191482126067734737e-01 5.156577152449060577e+02
2.192482346116145231e-01 5.156669495386955759e+02
2.193482566164556002e-01 5.156761876356806624e+02
2.194482786212966774e-01 5.156854291650478217e+02
2.195483006261377268e-01 5.156946737554466154e+02
2.196483226309788039e-01 5.157039210350055782e+02
2.197483446358198811e-01 5.157131706313430186e+02
2.198483666406609305e-01 5.157224221715812291e+02
2.199483886455019799e-01 5.157316752823594470e+02
2.200484106503430570e-01 5.157409295898470418e+02
2.201484326551841342e-01 5.157501847197565894e+02
2.202484546600251836e-01 5.157594402973571732e+02
2.203484766648662607e-01 5.157686959474883679e+02
2.204484986697073379e-01 5.157779512945719489e+02
2.205485206745483873e-01 5.157872059626267855e+02
2.206485426793894367e-01 5.157964595752820287e+02
2.207485646842305138e-01 5.158057117557887068e+02
2.208485866890715910e-01 5.158149621270356420e+02
2.209486086939126404e-01 5.158242103115605914e+02
2.210486306987537175e-01 5.158334559315650267e+02
2.211486527035947947e-01 5.158426986089267530e+02
2.212486747084358163e-01 5.158519379652149155e+02
2.213486967132768934e-01 5.158611736217001180e+02
2.214487187181179706e-01 5.158704051993724988e+02
2.215487407229590477e-01 5.158796323189503710e+02
2.216487627278000971e-01 5.158888546008986395e+02
2.217487847326411743e-01 5.158980716654366461e+02
2.218488067374822514e-01 5.159072831325573816e+02
2.219488287423232731e-01 5.159164886220362405e+02
2.220488507471643502e-01 5.159256877534496653e+02
2.221488727520054274e-01 5.159348801461828771e+02
2.222488947568465045e-01 5.159440654194477247e+02
2.223489167616875539e-01 5.159532431922946216e+02
2.224489387665286311e-01 5.159624130836265294e+02
2.225489607713697082e-01 5.159715747122114635e+02
2.226489827762107299e-01 5.159807276966992049e+02
2.227490047810518070e-01 5.159898716556303953e+02
2.228490267858928842e-01 5.159990062074539310e+02
2.229490487907339613e-01 5.160081309705387866e+02
2.230490707955750107e-01 5.160172455631878847e+02
2.231490928004160879e-01 5.160263496036524202e+02
2.232491148052571650e-01 5.160354427101441388e+02
2.233491368100981866e-01 5.160445245008509119e+02
2.234491588149392638e-01 5.160535945939489011e+02
2.235491808197803409e-01 5.160626526076162008e+02
2.236492028246214181e-01 5.160716981600479585e+02
2.237492248294624675e-01 5.160807308694680842e+02
2.238492468343035446e-01 5.160897503541445985e+02
2.239492688391445663e-01 5.160987562324028204e+02
2.240492908439856434e-01 5.161077481226382133e+02
2.241493128488267206e-01 5.161167256433308239e+02
2.242493348536677977e-01 5.161256884130593789e+02
2.243493568585088749e-01 5.161346360505144730e+02
2.244493788633499243e-01 5.161435681745117563e+02
2.245494008681910014e-01 5.161524844040064863e+02
2.246494228730320231e-01 5.161613843581068295e+02
2.247494448778731002e-01 5.161702676560878444e+02
2.248494668827141774e-01 5.161791339174045561e+02
2.249494888875552545e-01 5.161879827617059391e+02
2.250495108923963317e-01 5.161968138088491287e+02
2.251495328972373811e-01 5.162056266789123811e+02
2.252495549020784582e-01 5.162144209922091704e+02
2.253495769069194798e-01 5.162231963693011494e+02
2.254495989117605570e-01 5.162319524310134966e+02
2.255496209166016341e-01 5.162406887984463992e+02
2.256496429214427113e-01 5.162494050929898322e+02
2.257496649262837884e-01 5.162581009363383373e+02
2.258496869311248378e-01 5.162667759505017102e+02
2.259497089359658872e-01 5.162754297578220530e+02
2.260497309408069366e-01 5.162840619809846885e+02
2.261497529456480138e-01 5.162926722430336213e+02
2.262497749504890909e-01 5.163012601673835889e+02
2.263497969553301681e-01 5.163098253778350681e+02
2.264498189601712452e-01 5.163183674985873495e+02
2.265498409650122946e-01 5.163268861542512695e+02
2.266498629698533440e-01 5.163353809698647865e+02
2.267498849746943934e-01 5.163438515709040075e+02
2.268499069795354706e-01 5.163522975832999009e+02
2.269499289843765477e-01 5.163607186334471635e+02
2.270499509892176249e-01 5.163691143482230927e+02
2.271499729940587020e-01 5.163774843549985007e+02
2.272499949988997514e-01 5.163858282816498786e+02
2.273500170037408008e-01 5.163941457565748578e+02
2.274500390085818502e-01 5.164024364087057393e+02
2.275500610134229273e-01 5.164106998675221121e+02
2.276500830182640045e-01 5.164189357630643826e+02
2.277501050231050816e-01 5.164271437259469621e+02
2.278501270279461588e-01 5.164353233873737281e+02
2.279501490327871804e-01 5.164434743791475739e+02
2.280501710376282576e-01 5.164515963336879167e+02
2.281501930424693070e-01 5.164596888840405882e+02
2.282502150473103841e-01 5.164677516638939778e+02
2.283502370521514613e-01 5.164757843075910841e+02
2.284502590569925384e-01 5.164837864501417926e+02
2.285502810618336156e-01 5.164917577272382232e+02
2.286503030666746372e-01 5.164996977752665543e+02
2.287503250715157144e-01 5.165076062313203238e+02
2.288503470763567638e-01 5.165154827332157765e+02
2.289503690811978409e-01 5.165233269195010735e+02
2.290503910860389181e-01 5.165311384294733443e+02
2.291504130908799952e-01 5.165389169031897154e+02
2.292504350957210724e-01 5.165466619814807245e+02
2.293504571005620940e-01 5.165543733059643046e+02
2.294504791054031712e-01 5.165620505190572658e+02
2.295505011102442205e-01 5.165696932639905299e+02
2.296505231150852977e-01 5.165773011848202714e+02
2.297505451199263748e-01 5.165848739264414462e+02
2.298505671247674520e-01 5.165924111346014342e+02
2.299505891296084736e-01 5.165999124559129996e+02
2.300506111344495508e-01 5.166073775378650907e+02
2.301506331392906279e-01 5.166148060288392116e+02
2.302506551441316773e-01 5.166221975781202218e+02
2.303506771489727545e-01 5.166295518359083871e+02
2.304506991538138316e-01 5.166368684533339319e+02
2.305507211586549088e-01 5.166441470824693170e+02
2.306507431634959304e-01 5.166513873763421998e+02
2.307507651683370076e-01 5.166585889889470309e+02
2.308507871731780847e-01 5.166657515752591507e+02
2.309508091780191341e-01 5.166728747912467270e+02
2.310508311828602113e-01 5.166799582938834874e+02
2.311508531877012884e-01 5.166870017411614526e+02
2.312508751925423656e-01 5.166940047921034420e+02
2.313508971973833872e-01 5.167009671067756926e+02
2.314509192022244644e-01 5.167078883463003649e+02
2.315509412070655415e-01 5.167147681728677071e+02
2.316509632119065909e-01 5.167216062497487883e+02
2.317509852167476680e-01 5.167284022413085722e+02
2.318510072215887452e-01 5.167351558130159219e+02
2.319510292264298223e-01 5.167418666314598568e+02
2.320510512312708440e-01 5.167485343643576243e+02
2.321510732361119211e-01 5.167551586805701618e+02
2.322510952409529983e-01 5.167617392501123277e+02
2.323511172457940477e-01 5.167682757441665444e+02
2.324511392506351248e-01 5.167747678350933711e+02
2.325511612554762020e-01 5.167812151964456007e+02
2.326511832603172514e-01 5.167876175029786054e+02
2.327512052651583008e-01 5.167939744306631837e+02
2.328512272699993779e-01 5.168002856566973833e+02
2.329512492748404551e-01 5.168065508595179836e+02
2.330512712796815045e-01 5.168127697188136835e+02
2.331512932845225816e-01 5.168189419155362430e+02
2.332513152893636588e-01 5.168250671319112826e+02
2.333513372942047082e-01 5.168311450514516991e+02
2.334513592990457576e-01 5.168371753589688069e+02
2.335513813038868347e-01 5.168431577405842745e+02
2.336514033087279119e-01 5.168490918837406980e+02
2.337514253135689613e-01 5.168549774772146748e+02
2.338514473184100384e-01 5.168608142111279449e+02
2.339514693232511156e-01 5.168666017769580776e+02
2.340514913280921649e-01 5.168723398675509770e+02
2.341515133329332143e-01 5.168780281771319096e+02
2.342515353377742915e-01 5.168836664013173277e+02
2.343515573426153686e-01 5.168892542371251011e+02
2.344515793474564180e-01 5.168947913829871368e+02
2.345516013522974952e-01 5.169002775387602924e+02
2.346516233571385446e-01 5.169057124057366082e+02
2.347516453619796217e-01 5.169110956866559263e+02
2.348516673668206711e-01 5.169164270857156680e+02
2.349516893716617483e-01 5.169217063085835662e+02
2.350517113765028254e-01 5.169269330624064196e+02
2.351517333813438748e-01 5.169321070558229394e+02
2.352517553861849520e-01 5.169372279989743220e+02
2.353517773910260014e-01 5.169422956035148218e+02
2.354517993958670785e-01 5.169473095826217559e+02
2.355518214007081279e-01 5.169522696510074411e+02
2.356518434055492051e-01 5.169571755249307898e+02
2.357518654103902822e-01 5.169620269222051547e+02
2.358518874152313316e-01 5.169668235622103794e+02
2.359519094200724088e-01 5.169715651659057585e+02
2.360519314249134581e-01 5.169762514558359499e+02
2.361519534297545353e-01 5.169808821561448440e+02
2.362519754345955847e-01 5.169854569925850001e+02
2.363519974394366618e-01 5.169899756925278780e+02
2.364520194442777390e-01 5.169944379849731604e+02
2.365520414491187884e-01 5.169988436005617132e+02
2.366520634539598378e-01 5.170031922715824066e+02
2.367520854588009149e-01 5.170074837319855305e+02
2.368521074636419921e-01 5.170117177173892742e+02
2.369521294684830415e-01 5.170158939650938237e+02
2.370521514733241186e-01 5.170200122140876147e+02
2.371521734781651958e-01 5.170240722050594968e+02
2.372521954830062452e-01 5.170280736804078288e+02
2.373522174878472946e-01 5.170320163842502552e+02
2.374522394926883717e-01 5.170359000624334840e+02
2.375522614975294489e-01 5.170397244625431767e+02
2.376522835023704983e-01 5.170434893339129303e+02
2.377523055072115754e-01 5.170471944276356453e+02
2.378523275120526526e-01 5.170508394965694379e+02
2.379523495168937020e-01 5.170544242953510548e+02
2.380523715217347513e-01 5.170579485804032629e+02
2.381523935265758285e-01 5.170614121099437170e+02
2.382524155314169056e-01 5.170648146439955326e+02
2.383524375362579550e-01 5.170681559443953574e+02
2.384524595410990322e-01 5.170714357748034899e+02
2.385524815459401093e-01 5.170746539007116098e+02
2.386525035507811310e-01 5.170778100894540330e+02
2.387525255556222081e-01 5.170809041102140782e+02
2.388525475604632853e-01 5.170839357340342985e+02
2.389525695653043624e-01 5.170869047338251221e+02
2.390525915701454118e-01 5.170898108843744012e+02
2.391526135749864890e-01 5.170926539623545750e+02
2.392526355798275661e-01 5.170954337463313095e+02
2.393526575846685878e-01 5.170981500167745253e+02
2.394526795895096649e-01 5.171008025560646502e+02
2.395527015943507421e-01 5.171033911485000090e+02
2.396527235991918192e-01 5.171059155803087606e+02
2.397527456040328686e-01 5.171083756396542412e+02
2.398527676088739458e-01 5.171107711166441732e+02
2.399527896137150229e-01 5.171131018033393048e+02
