0.000000000000000000e+00 5.082481654555452337e+02
1.000220048410650341e-04 5.082450273554867408e+02
2.000440096821300682e-04 5.082419164431271952e+02
3.000660145231950752e-04 5.082388326681345347e+02
4.000880193642601364e-04 5.082357759794526828e+02
5.001100242053251434e-04 5.082327463253063229e+02
6.001320290463901504e-04 5.082297436532066968e+02
7.001540338874551574e-04 5.082267679099532529e+02
8.001760387285202728e-04 5.082238190416408088e+02
9.001980435695852798e-04 5.082208969936639278e+02
1.000220048410650287e-03 5.082180017107199319e+02
1.100242053251715294e-03 5.082151331368159504e+02
1.200264058092780301e-03 5.082122912152711933e+02
1.300286062933845308e-03 5.082094758887239436e+02
1.400308067774910315e-03 5.082066870991345127e+02
1.500330072615975322e-03 5.082039247877910384e+02
1.600352077457040546e-03 5.082011888953143739e+02
1.700374082298105553e-03 5.081984793616613842e+02
1.800396087139170560e-03 5.081957961261317109e+02
1.900418091980235567e-03 5.081931391273722056e+02
2.000440096821300574e-03 5.081905083033800565e+02
2.100462101662365581e-03 5.081879035915094391e+02
2.200484106503430588e-03 5.081853249284770300e+02
2.300506111344495595e-03 5.081827722503643372e+02
2.400528116185560602e-03 5.081802454926248060e+02
2.500550121026625609e-03 5.081777445900881958e+02
2.600572125867690616e-03 5.081752694769646155e+02
2.700594130708756056e-03 5.081728200868513454e+02
2.800616135549820630e-03 5.081703963527364749e+02
2.900638140390886070e-03 5.081679982070033930e+02
3.000660145231950644e-03 5.081656255814378937e+02
3.100682150073016084e-03 5.081632784072307913e+02
3.200704154914081091e-03 5.081609566149845705e+02
3.300726159755145665e-03 5.081586601347187298e+02
3.400748164596211105e-03 5.081563888958728512e+02
3.500770169437275679e-03 5.081541428273142174e+02
3.600792174278341119e-03 5.081519218573408807e+02
3.700814179119406126e-03 5.081497259136874618e+02
3.800836183960471133e-03 5.081475549235314588e+02
3.900858188801536140e-03 5.081454088134970561e+02
4.000880193642601147e-03 5.081432875096592170e+02
4.100902198483666154e-03 5.081411909375523237e+02
4.200924203324731161e-03 5.081391190221717125e+02
4.300946208165796168e-03 5.081370716879814609e+02
4.400968213006861175e-03 5.081350488589177985e+02
4.500990217847926182e-03 5.081330504583958145e+02
4.601012222688991189e-03 5.081310764093134367e+02
4.701034227530056196e-03 5.081291266340575135e+02
4.801056232371121203e-03 5.081272010545091575e+02
4.901078237212187078e-03 5.081252995920478952e+02
5.001100242053251217e-03 5.081234221675582603e+02
5.101122246894316224e-03 5.081215687014347395e+02
5.201144251735381231e-03 5.081197391135864336e+02
5.301166256576447106e-03 5.081179333234422870e+02
5.401188261417512113e-03 5.081161512499581363e+02
5.501210266258576252e-03 5.081143928116202346e+02
5.601232271099641259e-03 5.081126579264511065e+02
5.701254275940706266e-03 5.081109465120148911e+02
5.801276280781772141e-03 5.081092584854229699e+02
5.901298285622837148e-03 5.081075937633391959e+02
6.001320290463901287e-03 5.081059522619851236e+02
6.101342295304966294e-03 5.081043338971451249e+02
6.201364300146032169e-03 5.081027385841725845e+02
6.301386304987097176e-03 5.081011662379948461e+02
6.401408309828162183e-03 5.080996167731177593e+02
6.501430314669226322e-03 5.080980901036332966e+02
6.601452319510291329e-03 5.080965861432223392e+02
6.701474324351357204e-03 5.080951048051614976e+02
6.801496329192422211e-03 5.080936460023295922e+02
6.901518334033487218e-03 5.080922096472098701e+02
7.001540338874551357e-03 5.080907956518991000e+02
7.101562343715617232e-03 5.080894039281104142e+02
7.201584348556682239e-03 5.080880343871805849e+02
7.301606353397747246e-03 5.080866869400727523e+02
7.401628358238812253e-03 5.080853614973860317e+02
7.501650363079876392e-03 5.080840579693573318e+02
7.601672367920942266e-03 5.080827762658674942e+02
7.701694372762007273e-03 5.080815162964492515e+02
7.801716377603072280e-03 5.080802779702888188e+02
7.901738382444137287e-03 5.080790611962349885e+02
8.001760387285202294e-03 5.080778658828016319e+02
8.101782392126267301e-03 5.080766919381761113e+02
8.201804396967332308e-03 5.080755392702208155e+02
8.301826401808397315e-03 5.080744077864839028e+02
8.401848406649462322e-03 5.080732973941993578e+02
8.501870411490527329e-03 5.080722080002970529e+02
8.601892416331592336e-03 5.080711395114037714e+02
8.701914421172657343e-03 5.080700918338537235e+02
8.801936426013722350e-03 5.080690648736892285e+02
8.901958430854787357e-03 5.080680585366703781e+02
9.001980435695852364e-03 5.080670727282762300e+02
9.102002440536917371e-03 5.080661073537152106e+02
9.202024445377982378e-03 5.080651623179255694e+02
9.302046450219047385e-03 5.080642375255845877e+02
9.402068455060112392e-03 5.080633328811128990e+02
9.502090459901177399e-03 5.080624482886790929e+02
9.602112464742242406e-03 5.080615836522059681e+02
9.702134469583307413e-03 5.080607388753769555e+02
9.802156474424374155e-03 5.080599138616397568e+02
9.902178479265437427e-03 5.080591085142127099e+02
1.000220048410650243e-02 5.080583227360905880e+02
1.010222248894756918e-02 5.080575564300494307e+02
1.020224449378863245e-02 5.080568094986532515e+02
1.030226649862969746e-02 5.080560818442565392e+02
1.040228850347076246e-02 5.080553733690135800e+02
1.050231050831182747e-02 5.080546839748823231e+02
1.060233251315289421e-02 5.080540135636278478e+02
1.070235451799395748e-02 5.080533620368310039e+02
1.080237652283502423e-02 5.080527292958915382e+02
1.090239852767608750e-02 5.080521152420355975e+02
1.100242053251715250e-02 5.080515197763187984e+02
1.110244253735821925e-02 5.080509427996333898e+02
1.120246454219928252e-02 5.080503842127133112e+02
1.130248654704034753e-02 5.080498439161392525e+02
1.140250855188141253e-02 5.080493218103443382e+02
1.150253055672247754e-02 5.080488177956197546e+02
1.160255256156354428e-02 5.080483317721194680e+02
1.170257456640460755e-02 5.080478636398657954e+02
1.180259657124567430e-02 5.080474132987561688e+02
1.190261857608673930e-02 5.080469806485663753e+02
1.200264058092780257e-02 5.080465655889572645e+02
1.210266258576886932e-02 5.080461680194800920e+02
1.220268459060993259e-02 5.080457878395811235e+02
1.230270659545099760e-02 5.080454249486074332e+02
1.240272860029206434e-02 5.080450792458138949e+02
1.250275060513312761e-02 5.080447506303644332e+02
1.260277260997419435e-02 5.080444390013407201e+02
1.270279461481525762e-02 5.080441442577486555e+02
1.280281661965632437e-02 5.080438662985183100e+02
1.290283862449738937e-02 5.080436050225151803e+02
1.300286062933845264e-02 5.080433603285416098e+02
1.310288263417951939e-02 5.080431321153432691e+02
1.320290463902058266e-02 5.080429202816148972e+02
1.330292664386164767e-02 5.080427247260058152e+02
1.340294864870271441e-02 5.080425453471236210e+02
1.350297065354377768e-02 5.080423820435397033e+02
1.360299265838484442e-02 5.080422347137966881e+02
1.370301466322590769e-02 5.080421032564116786e+02
1.380303666806697444e-02 5.080419875698812575e+02
1.390305867290803944e-02 5.080418875526866600e+02
1.400308067774910271e-02 5.080418031033022999e+02
1.410310268259016946e-02 5.080417341201948602e+02
1.420312468743123446e-02 5.080416805018346622e+02
1.430314669227229774e-02 5.080416421466958923e+02
1.440316869711336448e-02 5.080416189532653561e+02
1.450319070195442775e-02 5.080416108200450935e+02
1.460321270679549449e-02 5.080416176455591426e+02
1.470323471163655950e-02 5.080416393283570642e+02
1.480325671647762451e-02 5.080416757670213883e+02
1.490327872131868951e-02 5.080417268601700016e+02
1.500330072615975278e-02 5.080417925064628548e+02
1.510332273100081953e-02 5.080418726046059987e+02
1.520334473584188453e-02 5.080419670533585759e+02
1.530336674068294781e-02 5.080420757515350374e+02
1.540338874552401455e-02 5.080421985980126465e+02
1.550341075036507782e-02 5.080423354917343204e+02
1.560343275520614456e-02 5.080424863317158497e+02
1.570345476004721130e-02 5.080426510170482857e+02
1.580347676488827457e-02 5.080428294469051025e+02
1.590349876972933785e-02 5.080430215205464606e+02
1.600352077457040459e-02 5.080432271373228446e+02
1.610354277941146786e-02 5.080434461966825097e+02
1.620356478425253460e-02 5.080436785981733010e+02
1.630358678909359788e-02 5.080439242414498722e+02
1.640360879393466462e-02 5.080441830262779490e+02
1.650363079877573136e-02 5.080444548525384221e+02
1.660365280361679463e-02 5.080447396202328036e+02
1.670367480845786137e-02 5.080450372294873205e+02
1.680369681329892464e-02 5.080453475805592234e+02
1.690371881813999139e-02 5.080456705738399705e+02
1.700374082298105466e-02 5.080460061098600590e+02
1.710376282782211793e-02 5.080463540892947094e+02
1.720378483266318467e-02 5.080467144129681287e+02
1.730380683750424795e-02 5.080470869818577739e+02
1.740382884234531469e-02 5.080474716970995246e+02
1.750385084718638143e-02 5.080478684599919461e+02
1.760387285202744470e-02 5.080482771720005530e+02
1.770389485686851144e-02 5.080486977347645734e+02
1.780391686170957471e-02 5.080491300500976308e+02
1.790393886655063799e-02 5.080495740199963279e+02
1.800396087139170473e-02 5.080500295466428042e+02
1.810398287623276800e-02 5.080504965324077489e+02
1.820400488107383474e-02 5.080509748798589271e+02
1.830402688591490148e-02 5.080514644917618625e+02
1.840404889075596476e-02 5.080519652710863738e+02
1.850407089559703150e-02 5.080524771210093604e+02
1.860409290043809477e-02 5.080529999449222487e+02
1.870411490527916151e-02 5.080535336464313332e+02
1.880413691012022478e-02 5.080540781293653936e+02
1.890415891496129153e-02 5.080546332977781958e+02
1.900418091980235480e-02 5.080551990559538353e+02
1.910420292464341807e-02 5.080557753084112278e+02
1.920422492948448481e-02 5.080563619599060985e+02
1.930424693432555155e-02 5.080569589154376331e+02
1.940426893916661483e-02 5.080575660802544462e+02
1.950429094400768157e-02 5.080581833598524781e+02
1.960431294884874831e-02 5.080588106599864204e+02
1.970433495368981158e-02 5.080594478866678401e+02
1.980435695853087485e-02 5.080600949461742175e+02
1.990437896337193813e-02 5.080607517450494015e+02
2.000440096821300487e-02 5.080614181901102029e+02
2.010442297305407161e-02 5.080620941884491231e+02
2.020444497789513835e-02 5.080627796474384468e+02
2.030446698273619816e-02 5.080634744747351874e+02
2.040448898757726490e-02 5.080641785782834745e+02
2.050451099241833164e-02 5.080648918663206359e+02
2.060453299725939491e-02 5.080656142473790169e+02
2.070455500210046165e-02 5.080663456302916074e+02
2.080457700694152492e-02 5.080670859241951121e+02
2.090459901178259167e-02 5.080678350385338717e+02
2.100462101662365494e-02 5.080685928830631610e+02
2.110464302146472168e-02 5.080693593678548723e+02
2.120466502630578842e-02 5.080701344032992779e+02
2.130468703114684823e-02 5.080709179001093503e+02
2.140470903598791497e-02 5.080717097693258779e+02
2.150473104082898171e-02 5.080725099223196253e+02
2.160475304567004845e-02 5.080733182707944025e+02
2.170477505051111172e-02 5.080741347267928631e+02
2.180479705535217499e-02 5.080749592026996879e+02
2.190481906019323827e-02 5.080757916112426074e+02
2.200484106503430501e-02 5.080766318655008149e+02
2.210486306987537175e-02 5.080774798789024089e+02
2.220488507471643849e-02 5.080783355652338855e+02
2.230490707955749830e-02 5.080791988386397975e+02
2.240492908439856504e-02 5.080800696136279271e+02
2.250495108923963178e-02 5.080809478050713892e+02
2.260497309408069505e-02 5.080818333282136905e+02
2.270499509892176179e-02 5.080827260986715146e+02
2.280501710376282506e-02 5.080836260324365981e+02
2.290503910860389181e-02 5.080845330458814715e+02
2.300506111344495508e-02 5.080854470557621880e+02
2.310508311828602182e-02 5.080863679792193466e+02
2.320510512312708856e-02 5.080872957337850266e+02
2.330512712796814837e-02 5.080882302373826747e+02
2.340514913280921511e-02 5.080891714083322768e+02
2.350517113765028185e-02 5.080901191653533715e+02
2.360519314249134859e-02 5.080910734275668119e+02
2.370521514733241186e-02 5.080920341144994836e+02
2.380523715217347860e-02 5.080930011460870901e+02
2.390525915701453841e-02 5.080939744426763696e+02
2.400528116185560515e-02 5.080949539250287899e+02
2.410530316669667189e-02 5.080959395143228221e+02
2.420532517153773863e-02 5.080969311321584883e+02
2.430534717637880537e-02 5.080979287005589526e+02
2.440536918121986518e-02 5.080989321419733642e+02
2.450539118606093192e-02 5.080999413792807218e+02
2.460541319090199519e-02 5.081009563357911247e+02
2.470543519574306193e-02 5.081019769352512299e+02
2.480545720058412867e-02 5.081030031018437967e+02
2.490547920542519195e-02 5.081040347601929739e+02
2.500550121026625522e-02 5.081050718353654929e+02
2.510552321510732196e-02 5.081061142528747041e+02
2.520554521994838870e-02 5.081071619386825091e+02
2.530556722478945197e-02 5.081082148192008390e+02
2.540558922963051525e-02 5.081092728212969405e+02
2.550561123447158199e-02 5.081103358722933763e+02
2.560563323931264873e-02 5.081114038999718900e+02
2.570565524415371200e-02 5.081124768325762489e+02
2.580567724899477874e-02 5.081135545988130957e+02
2.590569925383583855e-02 5.081146371278562128e+02
2.600572125867690529e-02 5.081157243493482270e+02
2.610574326351797203e-02 5.081168161934028262e+02
2.620576526835903877e-02 5.081179125906063518e+02
2.630578727320010551e-02 5.081190134720221181e+02
2.640580927804116532e-02 5.081201187691908103e+02
2.650583128288223206e-02 5.081212284141342934e+02
2.660585328772329533e-02 5.081223423393570897e+02
2.670587529256436207e-02 5.081234604778472885e+02
2.680589729740542881e-02 5.081245827630810936e+02
2.690591930224649209e-02 5.081257091290239032e+02
2.700594130708755536e-02 5.081268395101315036e+02
2.710596331192862210e-02 5.081279738413543328e+02
2.720598531676968884e-02 5.081291120581364567e+02
2.730600732161075211e-02 5.081302540964211971e+02
2.740602932645181539e-02 5.081313998926492559e+02
2.750605133129288213e-02 5.081325493837643421e+02
2.760607333613394887e-02 5.081337025072126607e+02
2.770609534097501214e-02 5.081348592009454705e+02
2.780611734581607888e-02 5.081360194034204483e+02
2.790613935065714563e-02 5.081371830536046446e+02
2.800616135549820543e-02 5.081383500909754503e+02
2.810618336033927217e-02 5.081395204555226428e+02
2.820620536518033891e-02 5.081406940877503189e+02
2.830622737002140565e-02 5.081418709286771218e+02
2.840624937486246893e-02 5.081430509198395953e+02
2.850627137970353220e-02 5.081442340032933771e+02
2.860629338454459547e-02 5.081454201216149613e+02
2.870631538938566221e-02 5.081466092179022667e+02
2.880633739422672895e-02 5.081478012357763419e+02
2.890635939906779570e-02 5.081489961193843783e+02
2.900638140390885550e-02 5.081501938133995964e+02
2.910640340874992224e-02 5.081513942630230645e+02
2.920642541359098898e-02 5.081525974139855748e+02
2.930644741843205225e-02 5.081538032125483824e+02
2.940646942327311900e-02 5.081550116055043986e+02
2.950649142811418227e-02 5.081562225401801243e+02
2.960651343295524901e-02 5.081574359644371839e+02
2.970653543779631228e-02 5.081586518266716439e+02
2.980655744263737902e-02 5.081598700758175369e+02
2.990657944747844577e-02 5.081610906613474867e+02
3.000660145231950557e-02 5.081623135332717993e+02
3.010662345716057231e-02 5.081635386421420435e+02
3.020664546200163905e-02 5.081647659390514491e+02
3.030666746684270579e-02 5.081659953756350774e+02
3.040668947168376907e-02 5.081672269040715264e+02
3.050671147652483234e-02 5.081684604770844089e+02
3.060673348136589561e-02 5.081696960479413860e+02
3.070675548620696235e-02 5.081709335704577484e+02
3.080677749104802909e-02 5.081721729989941991e+02
3.090679949588909584e-02 5.081734142884604921e+02
3.100682150073015564e-02 5.081746573943145222e+02
3.110684350557122238e-02 5.081759022725638602e+02
3.120686551041228912e-02 5.081771488797660368e+02
3.130688751525335239e-02 5.081783971730298504e+02
3.140690952009442261e-02 5.081796471100142298e+02
3.150693152493547894e-02 5.081808986489319295e+02
3.160695352977654915e-02 5.081821517485474828e+02
3.170697553461761242e-02 5.081834063681785665e+02
3.180699753945867569e-02 5.081846624676970805e+02
3.190701954429974591e-02 5.081859200075286935e+02
3.200704154914080918e-02 5.081871789486541502e+02
3.210706355398187245e-02 5.081884392526094985e+02
3.220708555882293572e-02 5.081897008814860328e+02
3.230710756366400593e-02 5.081909637979307490e+02
3.240712956850506921e-02 5.081922279651475378e+02
3.250715157334613248e-02 5.081934933468957070e+02
3.260717357818719575e-02 5.081947599074928803e+02
3.270719558302826596e-02 5.081960276118126671e+02
3.280721758786932923e-02 5.081972964252854581e+02
3.290723959271039251e-02 5.081985663139000735e+02
3.300726159755146272e-02 5.081998372442025698e+02
3.310728360239252599e-02 5.082011091832955572e+02
3.320730560723358926e-02 5.082023820988410989e+02
3.330732761207465253e-02 5.082036559590571869e+02
3.340734961691572275e-02 5.082049307327207543e+02
3.350737162175678602e-02 5.082062063891650610e+02
3.360739362659784929e-02 5.082074828982830468e+02
3.370741563143891256e-02 5.082087602305216478e+02
3.380743763627998277e-02 5.082100383568889583e+02
3.390745964112104605e-02 5.082113172489479780e+02
3.400748164596210932e-02 5.082125968788193404e+02
3.410750365080317259e-02 5.082138772191801195e+02
3.420752565564423586e-02 5.082151582432635450e+02
3.430754766048530607e-02 5.082164399248597420e+02
3.440756966532636935e-02 5.082177222383142521e+02
3.450759167016743956e-02 5.082190051585289439e+02
3.460761367500849589e-02 5.082202886609583175e+02
3.470763567984956610e-02 5.082215727216146206e+02
3.480765768469062937e-02 5.082228573170625054e+02
3.490767968953169265e-02 5.082241424244200516e+02
3.500770169437276286e-02 5.082254280213597895e+02
3.510772369921381919e-02 5.082267140861055168e+02
3.520774570405488940e-02 5.082280005974342885e+02
3.530776770889595267e-02 5.082292875346732899e+02
3.540778971373702289e-02 5.082305748777022245e+02
3.550781171857808616e-02 5.082318626069485958e+02
3.560783372341914943e-02 5.082331507033909475e+02
3.570785572826021270e-02 5.082344391485560777e+02
3.580787773310127597e-02 5.082357279245179598e+02
3.590789973794234619e-02 5.082370170138984804e+02
3.600792174278340946e-02 5.082383063998652233e+02
3.610794374762447273e-02 5.082395960661308436e+02
3.620796575246553600e-02 5.082408859969528976e+02
3.630798775730660621e-02 5.082421761771316824e+02
3.640800976214766949e-02 5.082434665920111456e+02
3.650803176698873276e-02 5.082447572274759864e+02
3.660805377182980297e-02 5.082460480699514846e+02
3.670807577667086624e-02 5.082473391064015686e+02
3.680809778151192951e-02 5.082486303243299517e+02
3.690811978635299279e-02 5.082499217117772332e+02
3.700814179119406300e-02 5.082512132573183976e+02
3.710816379603512627e-02 5.082525049500653722e+02
3.720818580087618954e-02 5.082537967796633893e+02
3.730820780571725281e-02 5.082550887362882577e+02
3.740822981055832303e-02 5.082563808106492047e+02
3.750825181539938630e-02 5.082576729939845563e+02
3.760827382024044957e-02 5.082589652780601455e+02
3.770829582508151284e-02 5.082602576551707330e+02
3.780831782992258305e-02 5.082615501181346644e+02
3.790833983476364633e-02 5.082628426602971103e+02
3.800836183960470960e-02 5.082641352755236994e+02
3.810838384444577981e-02 5.082654279582038725e+02
3.820840584928683614e-02 5.082667207032443457e+02
3.830842785412790635e-02 5.082680135060719522e+02
3.840844985896896963e-02 5.082693063626305161e+02
3.850847186381003984e-02 5.082705992693770440e+02
3.860849386865110311e-02 5.082718922232841123e+02
3.870851587349216638e-02 5.082731852218354334e+02
3.880853787833322965e-02 5.082744782630243776e+02
3.890855988317429293e-02 5.082757713453543147e+02
3.900858188801536314e-02 5.082770644678341796e+02
3.910860389285641947e-02 5.082783576299778474e+02
3.920862589769749662e-02 5.082796508318024280e+02
3.930864790253855295e-02 5.082809440738269586e+02
3.940866990737962317e-02 5.082822373570700165e+02
3.950869191222068644e-02 5.082835306830465925e+02
3.960871391706174971e-02 5.082848240537686024e+02
3.970873592190281992e-02 5.082861174717409085e+02
3.980875792674387625e-02 5.082874109399609210e+02
3.990877993158495340e-02 5.082887044619154153e+02
4.000880193642600974e-02 5.082899980415788264e+02
4.010882394126707301e-02 5.082912916834114867e+02
4.020884594610814322e-02 5.082925853923576938e+02
4.030886795094920649e-02 5.082938791738425834e+02
4.040888995579027670e-02 5.082951730337717322e+02
4.050891196063133304e-02 5.082964669785263823e+02
4.060893396547239631e-02 5.082977610149648626e+02
4.070895597031346652e-02 5.082990551504167343e+02
4.080897797515452979e-02 5.083003493926829037e+02
4.090899997999560000e-02 5.083016437500327811e+02
4.100902198483666328e-02 5.083029382312016651e+02
4.110904398967772655e-02 5.083042328453880714e+02
4.120906599451878982e-02 5.083055276022529938e+02
4.130908799935985309e-02 5.083068225119162094e+02
4.140911000420092331e-02 5.083081175849534361e+02
4.150913200904198658e-02 5.083094128323957648e+02
4.160915401388304985e-02 5.083107082657247133e+02
4.170917601872412006e-02 5.083120038968730796e+02
4.180919802356518333e-02 5.083132997382190865e+02
4.190922002840624661e-02 5.083145958025848472e+02
4.200924203324730988e-02 5.083158921032363082e+02
4.210926403808837315e-02 5.083171886538770536e+02
4.220928604292944336e-02 5.083184854686476797e+02
4.230930804777050663e-02 5.083197825621234642e+02
4.240933005261157684e-02 5.083210799493098193e+02
4.250935205745264012e-02 5.083223776456425753e+02
4.260937406229369645e-02 5.083236756669821261e+02
4.270939606713476666e-02 5.083249740296129744e+02
4.280941807197582993e-02 5.083262727502404346e+02
4.290944007681690014e-02 5.083275718459876771e+02
4.300946208165796342e-02 5.083288713343920904e+02
4.310948408649901975e-02 5.083301712334044851e+02
4.320950609134009690e-02 5.083314715613853991e+02
4.330952809618115323e-02 5.083327723371000957e+02
4.340955010102222345e-02 5.083340735797197567e+02
4.350957210586328672e-02 5.083353753088161966e+02
4.360959411070434999e-02 5.083366775443574852e+02
4.370961611554542020e-02 5.083379803067085163e+02
4.380963812038647653e-02 5.083392836166258348e+02
4.390966012522755368e-02 5.083405874952554768e+02
4.400968213006861002e-02 5.083418919641281946e+02
4.410970413490967329e-02 5.083431970451596840e+02
4.420972613975074350e-02 5.083445027606445024e+02
4.430974814459180677e-02 5.083458091332548747e+02
4.440977014943287698e-02 5.083471161860364305e+02
4.450979215427393332e-02 5.083484239424063276e+02
4.460981415911499659e-02 5.083497324261493304e+02
4.470983616395606680e-02 5.083510416614137171e+02
4.480985816879713007e-02 5.083523516727113929e+02
4.490988017363820028e-02 5.083536624849099894e+02
4.500990217847926356e-02 5.083549741232341148e+02
4.510992418332032683e-02 5.083562866132597264e+02
4.520994618816139010e-02 5.083575999809104360e+02
4.530996819300245337e-02 5.083589142524566000e+02
4.540999019784352358e-02 5.083602294545106588e+02
4.551001220268458686e-02 5.083615456140217361e+02
4.561003420752565013e-02 5.083628627582770036e+02
4.571005621236672034e-02 5.083641809148949733e+02
4.581007821720778361e-02 5.083655001118219730e+02
4.591010022204884689e-02 5.083668203773308960e+02
4.601012222688991016e-02 5.083681417400166538e+02
4.611014423173097343e-02 5.083694642287924239e+02
4.621016623657204364e-02 5.083707878728858418e+02
4.631018824141310691e-02 5.083721127018384891e+02
4.641021024625417712e-02 5.083734387454983334e+02
4.651023225109524040e-02 5.083747660340192169e+02
4.661025425593629673e-02 5.083760945978561381e+02
4.671027626077736694e-02 5.083774244677621823e+02
4.681029826561843021e-02 5.083787556747845429e+02
4.691032027045950042e-02 5.083800882502608829e+02
4.701034227530056370e-02 5.083814222258178006e+02
4.711036428014163391e-02 5.083827576333641218e+02
4.721038628498269718e-02 5.083840945050890809e+02
4.731040828982375351e-02 5.083854328734590808e+02
4.741043029466482372e-02 5.083867727712130318e+02
4.751045229950588700e-02 5.083881142313590544e+02
4.761047430434695721e-02 5.083894572871718083e+02
4.771049630918802048e-02 5.083908019721874894e+02
4.781051831402907681e-02 5.083921483202005334e+02
4.791054031887015396e-02 5.083934963652602050e+02
4.801056232371121030e-02 5.083948461416671876e+02
4.811058432855228051e-02 5.083961976839689783e+02
4.821060633339334378e-02 5.083975510269573874e+02
4.831062833823440705e-02 5.083989062056629109e+02
4.841065034307547726e-02 5.084002632553535932e+02
4.851067234791653360e-02 5.084016222115287746e+02
4.861069435275761075e-02 5.084029831099173862e+02
4.871071635759866708e-02 5.084043459864720376e+02
4.881073836243973035e-02 5.084057108773679943e+02
4.891076036728080056e-02 5.084070778189954467e+02
4.901078237212186384e-02 5.084084468479602492e+02
4.911080437696293405e-02 5.084098180010768147e+02
4.921082638180399038e-02 5.084111913153653290e+02
4.931084838664505365e-02 5.084125668280476020e+02
4.941087039148612386e-02 5.084139445765444520e+02
4.951089239632718714e-02 5.084153245984703062e+02
4.961091440116825735e-02 5.084167069316291645e+02
4.971093640600932062e-02 5.084180916140126101e+02
4.981095841085038389e-02 5.084194786837944093e+02
4.991098041569144717e-02 5.084208681793264759e+02
5.001100242053251044e-02 5.084222601391358580e+02
5.011102442537358065e-02 5.084236546019197363e+02
5.021104643021464392e-02 5.084250516065429224e+02
5.031106843505570719e-02 5.084264511920330847e+02
5.041109043989677740e-02 5.084278533975751770e+02
5.051111244473784068e-02 5.084292582625109844e+02
5.061113444957890395e-02 5.084306658263328700e+02
5.071115645441996722e-02 5.084320761286793413e+02
5.081117845926103049e-02 5.084334892093327198e+02
5.091120046410210070e-02 5.084349051082139113e+02
5.101122246894316398e-02 5.084363238653788812e+02
5.111124447378423419e-02 5.084377455210150174e+02
5.121126647862529746e-02 5.084391701154360703e+02
5.131128848346635379e-02 5.084405976890784586e+02
5.141131048830742400e-02 5.084420282824991091e+02
5.151133249314848728e-02 5.084434619363678962e+02
5.161135449798955749e-02 5.084448986914671877e+02
5.171137650283062076e-02 5.084463385886845685e+02
5.181139850767167709e-02 5.084477816690122154e+02
5.191142051251275424e-02 5.084492279735388820e+02
5.201144251735381058e-02 5.084506775434495580e+02
5.211146452219488079e-02 5.084521304200193867e+02
5.221148652703594406e-02 5.084535866446100272e+02
5.231150853187700733e-02 5.084550462586648791e+02
5.241153053671807754e-02 5.084565093037065253e+02
5.251155254155913388e-02 5.084579758213313880e+02
5.261157454640021103e-02 5.084594458532066028e+02
5.271159655124126736e-02 5.084609194410647319e+02
5.281161855608233063e-02 5.084623966267000696e+02
5.291164056092340084e-02 5.084638774519658000e+02
5.301166256576446412e-02 5.084653619587678577e+02
5.311168457060553433e-02 5.084668501890624839e+02
5.321170657544659066e-02 5.084683421848515081e+02
5.331172858028765393e-02 5.084698379881775736e+02
5.341175058512872414e-02 5.084713376411218064e+02
5.351177258996978742e-02 5.084728411857973356e+02
5.361179459481085763e-02 5.084743486643471329e+02
5.371181659965192090e-02 5.084758601189395222e+02
5.381183860449298417e-02 5.084773755917620406e+02
5.391186060933404744e-02 5.084788951250218929e+02
5.401188261417511072e-02 5.084804187609357768e+02
5.411190461901618093e-02 5.084819465417309061e+02
5.421192662385724420e-02 5.084834785096387009e+02
5.431194862869830747e-02 5.084850147068905244e+02
5.441197063353937768e-02 5.084865551757137609e+02
5.451199263838044096e-02 5.084880999583288599e+02
5.461201464322150423e-02 5.084896490969430829e+02
5.471203664806256750e-02 5.084912026337481734e+02
5.481205865290363077e-02 5.084927606109152975e+02
5.491208065774470098e-02 5.084943230705916903e+02
5.501210266258576426e-02 5.084958900548957672e+02
5.511212466742683447e-02 5.084974616059133155e+02
5.521214667226789774e-02 5.084990377656934584e+02
5.531216867710895407e-02 5.085006185762455289e+02
5.541219068195002428e-02 5.085022040795316798e+02
5.551221268679108756e-02 5.085037943174674524e+02
5.561223469163215777e-02 5.085053893319137046e+02
5.571225669647322104e-02 5.085069891646749625e+02
5.581227870131429125e-02 5.085085938574943611e+02
5.591230070615535452e-02 5.085102034520494954e+02
5.601232271099641086e-02 5.085118179899480992e+02
5.611234471583748107e-02 5.085134375127255453e+02
5.621236672067854434e-02 5.085150620618381936e+02
5.631238872551961455e-02 5.085166916786617435e+02
5.641241073036067782e-02 5.085183264044864586e+02
5.651243273520173416e-02 5.085199662805112553e+02
5.661245474004281131e-02 5.085216113478433044e+02
5.671247674488386764e-02 5.085232616474900738e+02
5.681249874972493785e-02 5.085249172203577359e+02
5.691252075456600112e-02 5.085265781072473601e+02
5.701254275940706440e-02 5.085282443488489434e+02
5.711256476424813461e-02 5.085299159857388531e+02
5.721258676908919094e-02 5.085315930583754493e+02
5.731260877393026809e-02 5.085332756070944242e+02
5.741263077877132442e-02 5.085349636721066418e+02
5.751265278361238770e-02 5.085366572934918850e+02
5.761267478845345791e-02 5.085383565111963549e+02
5.771269679329452118e-02 5.085400613650285777e+02
5.781271879813559139e-02 5.085417718946538912e+02
5.791274080297664772e-02 5.085434881395930233e+02
5.801276280781771100e-02 5.085452101392164650e+02
5.811278481265878121e-02 5.085469379327395814e+02
5.821280681749984448e-02 5.085486715592219298e+02
5.831282882234091469e-02 5.085504110575599270e+02
5.841285082718197796e-02 5.085521564664851439e+02
5.851287283202304124e-02 5.085539078245576547e+02
5.861289483686410451e-02 5.085556651701677424e+02
5.871291684170516778e-02 5.085574285415249847e+02
5.881293884654623799e-02 5.085591979766589361e+02
5.891296085138730126e-02 5.085609735134142966e+02
5.901298285622836454e-02 5.085627551894455678e+02
5.911300486106943475e-02 5.085645430422164281e+02
5.921302686591049802e-02 5.085663371089919451e+02
5.931304887075156129e-02 5.085681374268375521e+02
5.941307087559262456e-02 5.085699440326139893e+02
5.951309288043368784e-02 5.085717569629742911e+02
5.961311488527475805e-02 5.085735762543590681e+02
5.971313689011582132e-02 5.085754019429937216e+02
5.981315889495689153e-02 5.085772340648834984e+02
5.991318089979795480e-02 5.085790726558105916e+02
6.001320290463901114e-02 5.085809177513307304e+02
6.011322490948008135e-02 5.085827693867679500e+02
6.021324691432114462e-02 5.085846275972128865e+02
6.031326891916221483e-02 5.085864924175166948e+02
6.041329092400327810e-02 5.085883638822890589e+02
6.051331292884433444e-02 5.085902420258951224e+02
6.061333493368541159e-02 5.085921268824494064e+02
6.071335693852646792e-02 5.085940184858142175e+02
6.081337894336753813e-02 5.085959168695957260e+02
6.091340094820860140e-02 5.085978220671386225e+02
6.101342295304966468e-02 5.085997341115245263e+02
6.111344495789073489e-02 5.086016530355683471e+02
6.121346696273179122e-02 5.086035788718127719e+02
6.131348896757286837e-02 5.086055116525267294e+02
6.141351097241392470e-02 5.086074514097012980e+02
6.151353297725498798e-02 5.086093981750449871e+02
6.161355498209605819e-02 5.086113519799818050e+02
6.171357698693712146e-02 5.086133128556466545e+02
6.181359899177819167e-02 5.086152808328826040e+02
6.191362099661924800e-02 5.086172559422371933e+02
6.201364300146031128e-02 5.086192382139586243e+02
6.211366500630138149e-02 5.086212276779926924e+02
6.221368701114244476e-02 5.086232243639789203e+02
6.231370901598351497e-02 5.086252283012473754e+02
6.241373102082457824e-02 5.086272395188167366e+02
6.251375302566564152e-02 5.086292580453874734e+02
6.261377503050670479e-02 5.086312839093423577e+02
6.271379703534776806e-02 5.086333171387395851e+02
6.281381904018884521e-02 5.086353577613126618e+02
6.291384104502989461e-02 5.086374058044645494e+02
6.301386304987095788e-02 5.086394612952674379e+02
6.311388505471203503e-02 5.086415242604543892e+02
6.321390705955309830e-02 5.086435947264217816e+02
6.331392906439416157e-02 5.086456727192223184e+02
6.341395106923522484e-02 5.086477582645632083e+02
6.351397307407628812e-02 5.086498513878028689e+02
6.361399507891735139e-02 5.086519521139480844e+02
6.371401708375841466e-02 5.086540604676491171e+02
6.381403908859949181e-02 5.086561764731991957e+02
6.391406109344055508e-02 5.086583001545297975e+02
6.401408309828161836e-02 5.086604315352067829e+02
6.411410510312268163e-02 5.086625706384305659e+02
6.421412710796374490e-02 5.086647174870280423e+02
6.431414911280480817e-02 5.086668721034548071e+02
6.441417111764587144e-02 5.086690345097882755e+02
6.451419312248694860e-02 5.086712047277272859e+02
6.461421512732801187e-02 5.086733827785867561e+02
6.471423713216907514e-02 5.086755686832974561e+02
6.481425913701013841e-02 5.086777624623995848e+02
6.491428114185120168e-02 5.086799641360434521e+02
6.501430314669226496e-02 5.086821737239848176e+02
6.511432515153332823e-02 5.086843912455815939e+02
6.521434715637439150e-02 5.086866167197923687e+02
6.531436916121546865e-02 5.086888501651723118e+02
6.541439116605653192e-02 5.086910915998709584e+02
6.551441317089759520e-02 5.086933410416297647e+02
6.561443517573865847e-02 5.086955985077785840e+02
6.571445718057972174e-02 5.086978640152340745e+02
6.581447918542078501e-02 5.087001375804948680e+02
6.591450119026184828e-02 5.087024192196415697e+02
6.601452319510292543e-02 5.087047089483332911e+02
6.611454519994398871e-02 5.087070067818020220e+02
6.621456720478505198e-02 5.087093127348553026e+02
6.631458920962611525e-02 5.087116268218691175e+02
6.641461121446717852e-02 5.087139490567883513e+02
6.651463321930824180e-02 5.087162794531220129e+02
6.661465522414930507e-02 5.087186180239423834e+02
6.671467722899036834e-02 5.087209647818805820e+02
6.681469923383144549e-02 5.087233197391271915e+02
6.691472123867250876e-02 5.087256829074265738e+02
6.701474324351357204e-02 5.087280542980763585e+02
6.711476524835463531e-02 5.087304339219248277e+02
6.721478725319569858e-02 5.087328217893676765e+02
6.731480925803676185e-02 5.087352179103463641e+02
6.741483126287782512e-02 5.087376222943460675e+02
6.751485326771890227e-02 5.087400349503930101e+02
6.761487527255996555e-02 5.087424558870515057e+02
6.771489727740101494e-02 5.087448851124234466e+02
6.781491928224209209e-02 5.087473226341442114e+02
6.791494128708315536e-02 5.087497684593815848e+02
6.801496329192421864e-02 5.087522225948332562e+02
6.811498529676528191e-02 5.087546850467251716e+02
6.821500730160634518e-02 5.087571558208084639e+02
6.831502930644742233e-02 5.087596349223584866e+02
6.841505131128847172e-02 5.087621223561716306e+02
6.851507331612954887e-02 5.087646181265635619e+02
6.861509532097061215e-02 5.087671222373683122e+02
6.871511732581167542e-02 5.087696346919355506e+02
6.881513933065273869e-02 5.087721554931283094e+02
6.891516133549380196e-02 5.087746846433201426e+02
6.901518334033487911e-02 5.087772221443970011e+02
6.911520534517592851e-02 5.087797679977498433e+02
6.921522735001699178e-02 5.087823222042781026e+02
6.931524935485806893e-02 5.087848847643840600e+02
6.941527135969913220e-02 5.087874556779727868e+02
6.951529336454019548e-02 5.087900349444510084e+02
6.961531536938125875e-02 5.087926225627230110e+02
6.971533737422232202e-02 5.087952185311917219e+02
6.981535937906338529e-02 5.087978228477547873e+02
6.991538138390444856e-02 5.088004355098039468e+02
7.001540338874552571e-02 5.088030565142242949e+02
7.011542539358658899e-02 5.088056858573903014e+02
7.021544739842763838e-02 5.088083235351671760e+02
7.031546940326871553e-02 5.088109695429060935e+02
7.041549140810977880e-02 5.088136238754453871e+02
7.051551341295084208e-02 5.088162865271086730e+02
7.061553541779190535e-02 5.088189574917021218e+02
7.071555742263296862e-02 5.088216367625139469e+02
7.081557942747404577e-02 5.088243243323123579e+02
7.091560143231509517e-02 5.088270201933455610e+02
7.101562343715617232e-02 5.088297243373386891e+02
7.111564544199723559e-02 5.088324367554945979e+02
7.121566744683829886e-02 5.088351574384899436e+02
7.131568945167936213e-02 5.088378863764763196e+02
7.141571145652042540e-02 5.088406235590774145e+02
7.151573346136150255e-02 5.088433689753896942e+02
7.161575546620255195e-02 5.088461226139787072e+02
7.171577747104361522e-02 5.088488844628805055e+02
7.181579947588469237e-02 5.088516545095983474e+02
7.191582148072575564e-02 5.088544327411031531e+02
7.201584348556681892e-02 5.088572191438321397e+02
7.211586549040788219e-02 5.088600137036880824e+02
7.221588749524894546e-02 5.088628164060366998e+02
7.231590950009000873e-02 5.088656272357080184e+02
7.241593150493107200e-02 5.088684461769940413e+02
7.251595350977214915e-02 5.088712732136484647e+02
7.261597551461321243e-02 5.088741083288850859e+02
7.271599751945427570e-02 5.088769515053784289e+02
7.281601952429533897e-02 5.088798027252608449e+02
7.291604152913640224e-02 5.088826619701240475e+02
7.301606353397746552e-02 5.088855292210165544e+02
7.311608553881852879e-02 5.088884044584438584e+02
7.321610754365960594e-02 5.088912876623680290e+02
7.331612954850066921e-02 5.088941788122068601e+02
7.341615155334173248e-02 5.088970778868315961e+02
7.351617355818279576e-02 5.088999848645704560e+02
7.361619556302385903e-02 5.089028997232024949e+02
7.371621756786492230e-02 5.089058224399624351e+02
7.381623957270598557e-02 5.089087529915373693e+02
7.391626157754704884e-02 5.089116913540656242e+02
7.401628358238812599e-02 5.089146375031386924e+02
7.411630558722918927e-02 5.089175914137998120e+02
7.421632759207025254e-02 5.089205530605432841e+02
7.431634959691131581e-02 5.089235224173135634e+02
7.441637160175237908e-02 5.089264994575063383e+02
7.451639360659344236e-02 5.089294841539688719e+02
7.461641561143450563e-02 5.089324764789961932e+02
7.471643761627558278e-02 5.089354764043364412e+02
7.481645962111664605e-02 5.089384839011838153e+02
7.491648162595770932e-02 5.089414989401857383e+02
7.501650363079877259e-02 5.089445214914374560e+02
7.511652563563983587e-02 5.089475515244835151e+02
7.521654764048089914e-02 5.089505890083196391e+02
7.531656964532196241e-02 5.089536339113893177e+02
7.541659165016302568e-02 5.089566862015863080e+02
7.551661365500410283e-02 5.089597458462542363e+02
7.561663565984516611e-02 5.089628128121862005e+02
7.571665766468622938e-02 5.089658870656251111e+02
7.581667966952729265e-02 5.089689685722632362e+02
7.591670167436835592e-02 5.089720572972445893e+02
7.601672367920941920e-02 5.089751532051621439e+02
7.611674568405048247e-02 5.089782562600599363e+02
7.621676768889155962e-02 5.089813664254336345e+02
7.631678969373262289e-02 5.089844836642291739e+02
7.641681169857367228e-02 5.089876079388444623e+02
7.651683370341474943e-02 5.089907392111297781e+02
7.661685570825581271e-02 5.089938774423870314e+02
7.671687771309687598e-02 5.089970225933719803e+02
7.681689971793793925e-02 5.090001746242929812e+02
7.691692172277900252e-02 5.090033334948121819e+02
7.701694372762007967e-02 5.090064991640469998e+02
7.711696573246112907e-02 5.090096715905686438e+02
7.721698773730220622e-02 5.090128507324041038e+02
7.731700974214326949e-02 5.090160365470382544e+02
7.741703174698433276e-02 5.090192289914101593e+02
7.751705375182539604e-02 5.090224280219183584e+02
7.761707575666645931e-02 5.090256335944191051e+02
7.771709776150753646e-02 5.090288456642277879e+02
7.781711976634858585e-02 5.090320641861196691e+02
7.791714177118964912e-02 5.090352891143302259e+02
7.801716377603072627e-02 5.090385204025577082e+02
7.811718578087178955e-02 5.090417580039617746e+02
7.821720778571283894e-02 5.090450018711658231e+02
7.831722979055391609e-02 5.090482519562570474e+02
7.841725179539499324e-02 5.090515082107894500e+02
7.851727380023604264e-02 5.090547705857814549e+02
7.861729580507710591e-02 5.090580390317201704e+02
7.871731780991818306e-02 5.090613134985613328e+02
7.881733981475924633e-02 5.090645939357293628e+02
7.891736181960029572e-02 5.090678802921204920e+02
7.901738382444137287e-02 5.090711725161017398e+02
7.911740582928245002e-02 5.090744705555136989e+02
7.921742783412349942e-02 5.090777743576721264e+02
7.931744983896456269e-02 5.090810838693676033e+02
7.941747184380563984e-02 5.090843990368682057e+02
7.951749384864668924e-02 5.090877198059196189e+02
7.961751585348775251e-02 5.090910461217476950e+02
7.971753785832882966e-02 5.090943779290594193e+02
7.981755986316990681e-02 5.090977151720445590e+02
7.991758186801095620e-02 5.091010577943760040e+02
8.001760387285201948e-02 5.091044057392126092e+02
8.011762587769309663e-02 5.091077589492005018e+02
8.021764788253414602e-02 5.091111173664741614e+02
8.031766988737520929e-02 5.091144809326580116e+02
8.041769189221628644e-02 5.091178495888686939e+02
8.051771389705733584e-02 5.091212232757155789e+02
8.061773590189841299e-02 5.091246019333041772e+02
8.071775790673947626e-02 5.091279855012353437e+02
8.081777991158055341e-02 5.091313739186099951e+02
8.091780191642160280e-02 5.091347671240285422e+02
8.101782392126266608e-02 5.091381650555940723e+02
8.111784592610374323e-02 5.091415676509128616e+02
8.121786793094479262e-02 5.091449748470975578e+02
8.131788993578586977e-02 5.091483865807693974e+02
8.141791194062693304e-02 5.091518027880566706e+02
8.151793394546799632e-02 5.091552234046018839e+02
8.161795595030905959e-02 5.091586483655610209e+02
8.171797795515012286e-02 5.091620776056037130e+02
8.181799995999120001e-02 5.091655110589194919e+02
8.191802196483224940e-02 5.091689486592164258e+02
8.201804396967332655e-02 5.091723903397250410e+02
8.211806597451438983e-02 5.091758360331986637e+02
8.221808797935545310e-02 5.091792856719182510e+02
8.231810998419651637e-02 5.091827391876931301e+02
8.241813198903757964e-02 5.091861965118619651e+02
8.251815399387864292e-02 5.091896575752975878e+02
8.261817599871970619e-02 5.091931223084071121e+02
8.271819800356078334e-02 5.091965906411357423e+02
8.281822000840184661e-02 5.092000625029677394e+02
8.291824201324290988e-02 5.092035378229309686e+02
8.301826401808397315e-02 5.092070165295970696e+02
8.311828602292503643e-02 5.092104985510834467e+02
8.321830802776609970e-02 5.092139838150592936e+02
8.331833003260716297e-02 5.092174722487447411e+02
8.341835203744824012e-02 5.092209637789138128e+02
8.351837404228928952e-02 5.092244583318990294e+02
8.361839604713036667e-02 5.092279558335911815e+02
8.371841805197142994e-02 5.092314562094442749e+02
8.381844005681249321e-02 5.092349593844767242e+02
8.391846206165355648e-02 5.092384652832746497e+02
8.401848406649461976e-02 5.092419738299949472e+02
8.411850607133569691e-02 5.092454849483663111e+02
8.421852807617674630e-02 5.092489985616942931e+02
8.431855008101782345e-02 5.092525145928623260e+02
8.441857208585888672e-02 5.092560329643350201e+02
8.451859409069993612e-02 5.092595535981623698e+02
8.461861609554101327e-02 5.092630764159794126e+02
8.471863810038207654e-02 5.092666013390122544e+02
8.481866010522315369e-02 5.092701282880801728e+02
8.491868211006420308e-02 5.092736571835971517e+02
8.501870411490528023e-02 5.092771879455765429e+02
8.511872611974634351e-02 5.092807204936334529e+02
8.521874812458739290e-02 5.092842547469872443e+02
8.531877012942847005e-02 5.092877906244656288e+02
8.541879213426953332e-02 5.092913280445067130e+02
8.551881413911061047e-02 5.092948669251625802e+02
8.561883614395165987e-02 5.092984071841029277e+02
8.571885814879273702e-02 5.093019487386175683e+02
8.581888015363380029e-02 5.093054915056186474e+02
8.591890215847484968e-02 5.093090354016471224e+02
8.601892416331592683e-02 5.093125803428710014e+02
8.611894616815699011e-02 5.093161262450939830e+02
8.621896817299803950e-02 5.093196730237551151e+02
8.631899017783911665e-02 5.093232205939331152e+02
8.641901218268019380e-02 5.093267688703497242e+02
8.651903418752125707e-02 5.093303177673732307e+02
8.661905619236230647e-02 5.093338671990220519e+02
8.671907819720338362e-02 5.093374170789669506e+02
8.681910020204444689e-02 5.093409673205368904e+02
8.691912220688549628e-02 5.093445178367185804e+02
8.701914421172657343e-02 5.093480685401651726e+02
8.711916621656765058e-02 5.093516193431948977e+02
8.721918822140869998e-02 5.093551701577964081e+02
8.731921022624976325e-02 5.093587208956344057e+02
8.741923223109084040e-02 5.093622714680504941e+02
8.751925423593190367e-02 5.093658217860665900e+02
8.761927624077295307e-02 5.093693717603912887e+02
8.771929824561403022e-02 5.093729213014206039e+02
8.781932025045510737e-02 5.093764703192435945e+02
8.791934225529615676e-02 5.093800187236449233e+02
8.801936426013722004e-02 5.093835664241098584e+02
8.811938626497829719e-02 5.093871133298259792e+02
8.821940826981934658e-02 5.093906593496885762e+02
8.831943027466040985e-02 5.093942043923046867e+02
8.841945227950148700e-02 5.093977483659951417e+02
8.851947428434256415e-02 5.094012911788005340e+02
8.861949628918361355e-02 5.094048327384828667e+02
8.871951829402467682e-02 5.094083729525314652e+02
8.881954029886575397e-02 5.094119117281658191e+02
8.891956230370680336e-02 5.094154489723393908e+02
8.901958430854786664e-02 5.094189845917438788e+02
8.911960631338894379e-02 5.094225184928136514e+02
8.921962831822999318e-02 5.094260505817284752e+02
8.931965032307107033e-02 5.094295807644184606e+02
8.941967232791213360e-02 5.094331089465687228e+02
8.951969433275321075e-02 5.094366350336213145e+02
8.961971633759426015e-02 5.094401589307813083e+02
8.971973834243532342e-02 5.094436805430203208e+02
8.981976034727640057e-02 5.094471997750795254e+02
8.991978235211744996e-02 5.094507165314759618e+02
9.001980435695852711e-02 5.094542307165043553e+02
9.011982636179959039e-02 5.094577422342424029e+02
9.021984836664065366e-02 5.094612509885563441e+02
9.031987037148171693e-02 5.094647568831010176e+02
9.041989237632278020e-02 5.094682598213296956e+02
9.051991438116385735e-02 5.094717597064934580e+02
9.061993638600490675e-02 5.094752564416481277e+02
9.071995839084598390e-02 5.094787499296571696e+02
9.081998039568704717e-02 5.094822400731981134e+02
9.092000240052811044e-02 5.094857267747637479e+02
9.102002440536917371e-02 5.094892099366688853e+02
9.112004641021023699e-02 5.094926894610537147e+02
9.122006841505130026e-02 5.094961652498884632e+02
9.132009041989236353e-02 5.094996372049779438e+02
9.142011242473344068e-02 5.095031052279649657e+02
9.152013442957450395e-02 5.095065692203365870e+02
9.162015643441556723e-02 5.095100290834258772e+02
9.172017843925663050e-02 5.095134847184191358e+02
9.182020044409769377e-02 5.095169360263593603e+02
9.192022244893875704e-02 5.095203829081489175e+02
9.202024445377982032e-02 5.095238252645577290e+02
9.212026645862089747e-02 5.095272629962241808e+02
9.222028846346194686e-02 5.095306960036616033e+02
9.232031046830302401e-02 5.095341241872624209e+02
9.242033247314408728e-02 5.095375474473028135e+02
9.252035447798515055e-02 5.095409656839465242e+02
9.262037648282621383e-02 5.095443787972508858e+02
9.272039848766727710e-02 5.095477866871699462e+02
9.282042049250835425e-02 5.095511892535599827e+02
9.292044249734940364e-02 5.095545863961842770e+02
9.302046450219048079e-02 5.095579780147168094e+02
9.312048650703154407e-02 5.095613640087470912e+02
9.322050851187259346e-02 5.095647442777861897e+02
9.332053051671367061e-02 5.095681187212700820e+02
9.342055252155473388e-02 5.095714872385640888e+02
9.352057452639581103e-02 5.095748497289690704e+02
9.362059653123686043e-02 5.095782060917244962e+02
9.372061853607793758e-02 5.095815562260150955e+02
9.382064054091900085e-02 5.095849000309725056e+02
9.392066254576005024e-02 5.095882374056845379e+02
9.402068455060112739e-02 5.095915682491952907e+02
9.412070655544219067e-02 5.095948924605124830e+02
9.422072856028326782e-02 5.095982099386125128e+02
9.432075056512431721e-02 5.096015205824442091e+02
9.442077256996539436e-02 5.096048242909334931e+02
9.452079457480645763e-02 5.096081209629894033e+02
9.462081657964750703e-02 5.096114104975076202e+02
9.472083858448858418e-02 5.096146927933755819e+02
9.482086058932964745e-02 5.096179677494789075e+02
9.492088259417069684e-02 5.096212352647042962e+02
9.502090459901177399e-02 5.096244952379447000e+02
9.512092660385285114e-02 5.096277475681049509e+02
9.522094860869391442e-02 5.096309921541065933e+02
9.532097061353496381e-02 5.096342288948927148e+02
9.542099261837604096e-02 5.096374576894313009e+02
9.552101462321710423e-02 5.096406784367227942e+02
9.562103662805815363e-02 5.096438910358028807e+02
9.572105863289923078e-02 5.096470953857491395e+02
9.582108063774030793e-02 5.096502913856850228e+02
9.592110264258135732e-02 5.096534789347832088e+02
9.602112464742242059e-02 5.096566579322748680e+02
9.612114665226349774e-02 5.096598282774492645e+02
9.622116865710456102e-02 5.096629898696638179e+02
9.632119066194561041e-02 5.096661426083449555e+02
9.642121266678668756e-02 5.096692863929958435e+02
9.652123467162776471e-02 5.096724211232002517e+02
9.662125667646881411e-02 5.096755466986270449e+02
9.672127868130987738e-02 5.096786630190364349e+02
9.682130068615095453e-02 5.096817699842841876e+02
9.692132269099200392e-02 5.096848674943257720e+02
9.702134469583306720e-02 5.096879554492250008e+02
9.712136670067414435e-02 5.096910337491532914e+02
9.722138870551522150e-02 5.096941022943996131e+02
9.732141071035627089e-02 5.096971609853739551e+02
9.742143271519733416e-02 5.097002097226111346e+02
9.752145472003841131e-02 5.097032484067767655e+02
9.762147672487946071e-02 5.097062769386739092e+02
9.772149872972052398e-02 5.097092952192447228e+02
9.782152073456160113e-02 5.097123031495780197e+02
9.792154273940265052e-02 5.097153006309143279e+02
9.802156474424372767e-02 5.097182875646490743e+02
9.812158674908479095e-02 5.097212638523399733e+02
9.822160875392586810e-02 5.097242293957094716e+02
9.832163075876691749e-02 5.097271840966525360e+02
9.842165276360798076e-02 5.097301278572404044e+02
9.852167476844905791e-02 5.097330605797239400e+02
9.862169677329010731e-02 5.097359821665423283e+02
9.872171877813118446e-02 5.097388925203258623e+02
9.882174078297224773e-02 5.097417915439011153e+02
9.892176278781331100e-02 5.097446791402956023e+02
9.902178479265437427e-02 5.097475552127441460e+02
9.912180679749543755e-02 5.097504196646930268e+02
9.922182880233651470e-02 5.097532723998057804e+02
9.932185080717756409e-02 5.097561133219668932e+02
9.942187281201864124e-02 5.097589423352884523e+02
9.952189481685970451e-02 5.097617593441144663e+02
9.962191682170076779e-02 5.097645642530246732e+02
9.972193882654183106e-02 5.097673569668432378e+02
9.982196083138289433e-02 5.097701373906392064e+02
9.992198283622395760e-02 5.097729054297341236e+02
1.000220048410650209e-01 5.097756609897081717e+02
1.001220268459060980e-01 5.097784039764023873e+02
1.002220488507471613e-01 5.097811342959255398e+02
1.003220708555882246e-01 5.097838518546585647e+02
1.004220928604292878e-01 5.097865565592595090e+02
1.005221148652703511e-01 5.097892483166697843e+02
1.006221368701114144e-01 5.097919270341171796e+02
1.007221588749524777e-01 5.097945926191226818e+02
1.008221808797935548e-01 5.097972449795040006e+02
1.009222028846346042e-01 5.097998840233815372e+02
1.010222248894756814e-01 5.098025096591836700e+02
1.011222468943167446e-01 5.098051217956510754e+02
1.012222688991578079e-01 5.098077203418421277e+02
1.013222909039988712e-01 5.098103052071359684e+02
1.014223129088399344e-01 5.098128763012424542e+02
1.015223349136810116e-01 5.098154335342008494e+02
1.016223569185220610e-01 5.098179768163898871e+02
1.017223789233631381e-01 5.098205060585291903e+02
1.018224009282042014e-01 5.098230211716875147e+02
1.019224229330452508e-01 5.098255220672841688e+02
1.020224449378863280e-01 5.098280086570970298e+02
1.021224669427273912e-01 5.098304808532658967e+02
1.022224889475684684e-01 5.098329385682974930e+02
1.023225109524095178e-01 5.098353817150706959e+02
1.024225329572505949e-01 5.098378102068420503e+02
1.025225549620916582e-01 5.098402239572488952e+02
1.026225769669327076e-01 5.098426228803162985e+02
1.027225989717737847e-01 5.098450068904608088e+02
1.028226209766148480e-01 5.098473759024961964e+02
1.029226429814559252e-01 5.098497298316369779e+02
1.030226649862969746e-01 5.098520685935036454e+02
1.031226869911380517e-01 5.098543921041292606e+02
1.032227089959791150e-01 5.098567002799620695e+02
1.033227310008201644e-01 5.098589930378718122e+02
1.034227530056612415e-01 5.098612702951528490e+02
1.035227750105023048e-01 5.098635319695316639e+02
1.036227970153433542e-01 5.098657779791689109e+02
1.037228190201844313e-01 5.098680082426664057e+02
1.038228410250255085e-01 5.098702226790693999e+02
1.039228630298665718e-01 5.098724212078753339e+02
1.040228850347076212e-01 5.098746037490330991e+02
1.041229070395486983e-01 5.098767702229534962e+02
1.042229290443897616e-01 5.098789205505095765e+02
1.043229510492308110e-01 5.098810546530440888e+02
1.044229730540718881e-01 5.098831724523723210e+02
1.045229950589129653e-01 5.098852738707892058e+02
1.046230170637540147e-01 5.098873588310699461e+02
1.047230390685950779e-01 5.098894272564797916e+02
1.048230610734361551e-01 5.098914790707748352e+02
1.049230830782772184e-01 5.098935141982077539e+02
1.050231050831182678e-01 5.098955325635332088e+02
1.051231270879593449e-01 5.098975340920114263e+02
1.052231490928004221e-01 5.098995187094133144e+02
1.053231710976414714e-01 5.099014863420255779e+02
1.054231931024825347e-01 5.099034369166538454e+02
1.055232151073236119e-01 5.099053703606282966e+02
1.056232371121646613e-01 5.099072866018080958e+02
1.057232591170057245e-01 5.099091855685861674e+02
1.058232811218468017e-01 5.099110671898926626e+02
1.059233031266878788e-01 5.099129313951998483e+02
1.060233251315289282e-01 5.099147781145276213e+02
1.061233471363699915e-01 5.099166072784472590e+02
1.062233691412110687e-01 5.099184188180851152e+02
1.063233911460521181e-01 5.099202126651282470e+02
1.064234131508931813e-01 5.099219887518275982e+02
1.065234351557342585e-01 5.099237470110040817e+02
1.066234571605753079e-01 5.099254873760514215e+02
1.067234791654163850e-01 5.099272097809399611e+02
1.068235011702574483e-01 5.099289141602243944e+02
1.069235231750985254e-01 5.099306004490439364e+02
1.070235451799395748e-01 5.099322685831285185e+02
1.071235671847806381e-01 5.099339184988044735e+02
1.072235891896217153e-01 5.099355501329951039e+02
1.073236111944627647e-01 5.099371634232290944e+02
1.074236331993038418e-01 5.099387583076419901e+02
1.075236552041449051e-01 5.099403347249811986e+02
1.076236772089859683e-01 5.099418926146090030e+02
1.077236992138270316e-01 5.099434319165098941e+02
1.078237212186680949e-01 5.099449525712910827e+02
1.079237432235091720e-01 5.099464545201894907e+02
1.080237652283502214e-01 5.099479377050740823e+02
1.081237872331912986e-01 5.099494020684492170e+02
1.082238092380323619e-01 5.099508475534620970e+02
1.083238312428734251e-01 5.099522741039024254e+02
1.084238532477144884e-01 5.099536816642098529e+02
1.085238752525555517e-01 5.099550701794772181e+02
1.086238972573966149e-01 5.099564395954525367e+02
1.087239192622376782e-01 5.099577898585458229e+02
1.088239412670787554e-01 5.099591209158303400e+02
1.089239632719198186e-01 5.099604327150491372e+02
1.090239852767608819e-01 5.099617252046168119e+02
1.091240072816019452e-01 5.099629983336234886e+02
1.092240292864430085e-01 5.099642520518403330e+02
1.093240512912840717e-01 5.099654863097224506e+02
1.094240732961251350e-01 5.099667010584116724e+02
1.095240953009662122e-01 5.099678962497414432e+02
1.096241173058072615e-01 5.099690718362404596e+02
1.097241393106483387e-01 5.099702277711361376e+02
1.098241613154894020e-01 5.099713640083581367e+02
1.099241833203304652e-01 5.099724805025430214e+02
1.100242053251715285e-01 5.099735772090360797e+02
1.101242273300125918e-01 5.099746540838963824e+02
1.102242493348536689e-01 5.099757110839009897e+02
1.103242713396947183e-01 5.099767481665449509e+02
1.104242933445357955e-01 5.099777652900496605e+02
1.105243153493768588e-01 5.099787624133638246e+02
1.106243373542179081e-01 5.099797394961660757e+02
1.107243593590589853e-01 5.099806964988707136e+02
1.108243813639000486e-01 5.099816333826292407e+02
1.109244033687411257e-01 5.099825501093345110e+02
1.110244253735821751e-01 5.099834466416239138e+02
1.111244473784232523e-01 5.099843229428839777e+02
1.112244693832643155e-01 5.099851789772516781e+02
1.113244913881053649e-01 5.099860147096187006e+02
1.114245133929464421e-01 5.099868301056349083e+02
1.115245353977875054e-01 5.099876251317105016e+02
1.116245574026285825e-01 5.099883997550218737e+02
1.117245794074696319e-01 5.099891539435105869e+02
1.118246014123107090e-01 5.099898876658917857e+02
1.119246234171517723e-01 5.099906008916513542e+02
1.120246454219928217e-01 5.099912935910541592e+02
1.121246674268338989e-01 5.099919657351449587e+02
1.122246894316749621e-01 5.099926172957501649e+02
1.123247114365160115e-01 5.099932482454837555e+02
1.124247334413570887e-01 5.099938585577475578e+02
1.125247554461981658e-01 5.099944482067360809e+02
1.126247774510392291e-01 5.099950171674388457e+02
1.127247994558802785e-01 5.099955654156424316e+02
1.128248214607213556e-01 5.099960929279343986e+02
1.129248434655624189e-01 5.099965996817057885e+02
1.130248654704034683e-01 5.099970856551539669e+02
1.131248874752445455e-01 5.099975508272851812e+02
1.132249094800856226e-01 5.099979951779173462e+02
1.133249314849266720e-01 5.099984186876831700e+02
1.134249534897677353e-01 5.099988213380322577e+02
1.135249754946088124e-01 5.099992031112333279e+02
1.136249974994498757e-01 5.099995639903789879e+02
1.137250195042909251e-01 5.099999039593856764e+02
1.138250415091320022e-01 5.100002230029977000e+02
1.139250635139730794e-01 5.100005211067891082e+02
1.140250855188141288e-01 5.100007982571666503e+02
1.141251075236551921e-01 5.100010544413722187e+02
1.142251295284962692e-01 5.100012896474849526e+02
1.143251515333373186e-01 5.100015038644231709e+02
1.144251735381783819e-01 5.100016970819481230e+02
1.145251955430194590e-01 5.100018692906662636e+02
1.146252175478605362e-01 5.100020204820281720e+02
1.147252395527015856e-01 5.100021506483352596e+02
1.148252615575426488e-01 5.100022597827405662e+02
1.149252835623837260e-01 5.100023478792488163e+02
1.150253055672247754e-01 5.100024149327221608e+02
1.151253275720658387e-01 5.100024609388786985e+02
1.152253495769069158e-01 5.100024858942972514e+02
1.153253715817479652e-01 5.100024897964187289e+02
1.154253935865890424e-01 5.100024726435469233e+02
1.155254155914301056e-01 5.100024344348510681e+02
1.156254375962711828e-01 5.100023751703705557e+02
1.157254596011122322e-01 5.100022948510118113e+02
1.158254816059532954e-01 5.100021934785535791e+02
1.159255036107943726e-01 5.100020710556489121e+02
1.160255256156354220e-01 5.100019275858250012e+02
1.161255476204764991e-01 5.100017630734863587e+02
1.162255696253175624e-01 5.100015775239162394e+02
1.163255916301586257e-01 5.100013709432779478e+02
1.164256136349996890e-01 5.100011433386179078e+02
1.165256356398407522e-01 5.100008947178653216e+02
1.166256576446818294e-01 5.100006250898347275e+02
1.167256796495228788e-01 5.100003344642281036e+02
1.168257016543639559e-01 5.100000228516350376e+02
1.169257236592050192e-01 5.099996902635362517e+02
1.170257456640460825e-01 5.099993367123025223e+02
1.171257676688871457e-01 5.099989622111976360e+02
1.172257896737282090e-01 5.099985667743803788e+02
1.173258116785692723e-01 5.099981504169045365e+02
1.174258336834103356e-01 5.099977131547203157e+02
1.175258556882514127e-01 5.099972550046764468e+02
1.176258776930924760e-01 5.099967759845208093e+02
1.177258996979335393e-01 5.099962761129019100e+02
1.178259217027746025e-01 5.099957554093693943e+02
1.179259437076156658e-01 5.099952138943772866e+02
1.180259657124567291e-01 5.099946515892814318e+02
1.181259877172977923e-01 5.099940685163439866e+02
1.182260097221388695e-01 5.099934646987325095e+02
1.183260317269799189e-01 5.099928401605213253e+02
1.184260537318209960e-01 5.099921949266932870e+02
1.185260757366620593e-01 5.099915290231395488e+02
1.186260977415031226e-01 5.099908424766609301e+02
1.187261197463441859e-01 5.099901353149681427e+02
1.188261417511852491e-01 5.099894075666844628e+02
1.189261637560263263e-01 5.099886592613443099e+02
1.190261857608673757e-01 5.099878904293943833e+02
1.191262077657084528e-01 5.099871011021961635e+02
1.192262297705495161e-01 5.099862913120228995e+02
1.193262517753905655e-01 5.099854610920643836e+02
1.194262737802316426e-01 5.099846104764253596e+02
1.195262957850727059e-01 5.099837395001247273e+02
1.196263177899137831e-01 5.099828481990999194e+02
1.197263397947548325e-01 5.099819366102019558e+02
1.198263617995959096e-01 5.099810047712020378e+02
1.199263838044369729e-01 5.099800527207863752e+02
1.200264058092780223e-01 5.099790804985597106e+02
1.201264278141190994e-01 5.099780881450449215e+02
1.202264498189601627e-01 5.099770757016829634e+02
1.203264718238012398e-01 5.099760432108326427e+02
1.204264938286422892e-01 5.099749907157726625e+02
1.205265158334833664e-01 5.099739182606986105e+02
1.206265378383244297e-01 5.099728258907271083e+02
1.207265598431654791e-01 5.099717136518916050e+02
1.208265818480065562e-01 5.099705815911455602e+02
1.209266038528476195e-01 5.099694297563606824e+02
1.210266258576886689e-01 5.099682581963284065e+02
1.211266478625297460e-01 5.099670669607573359e+02
1.212266698673708232e-01 5.099658561002765396e+02
1.213266918722118864e-01 5.099646256664312887e+02
1.214267138770529358e-01 5.099633757116869788e+02
1.215267358818940130e-01 5.099621062894250372e+02
1.216267578867350763e-01 5.099608174539463334e+02
1.217267798915761257e-01 5.099595092604672573e+02
1.218268018964172028e-01 5.099581817651213669e+02
1.219268239012582800e-01 5.099568350249597870e+02
1.220268459060993294e-01 5.099554690979488214e+02
1.221268679109403926e-01 5.099540840429691571e+02
1.222268899157814698e-01 5.099526799198187632e+02
1.223269119206225330e-01 5.099512567892072639e+02
1.224269339254635824e-01 5.099498147127596894e+02
1.225269559303046596e-01 5.099483537530139756e+02
1.226269779351457367e-01 5.099468739734196561e+02
1.227269999399867861e-01 5.099453754383383171e+02
1.228270219448278494e-01 5.099438582130420627e+02
1.229270439496689266e-01 5.099423223637137426e+02
1.230270659545099760e-01 5.099407679574440522e+02
1.231270879593510392e-01 5.099391950622330683e+02
1.232271099641921164e-01 5.099376037469876906e+02
1.233271319690331935e-01 5.099359940815203913e+02
1.234271539738742429e-01 5.099343661365501248e+02
1.235271759787153062e-01 5.099327199836991440e+02
1.236271979835563833e-01 5.099310556954935691e+02
1.237272199883974327e-01 5.099293733453607160e+02
1.238272419932384960e-01 5.099276730076290391e+02
1.239272639980795732e-01 5.099259547575260854e+02
1.240272860029206226e-01 5.099242186711790055e+02
1.241273080077616997e-01 5.099224648256097794e+02
1.242273300126027630e-01 5.099206932987381151e+02
1.243273520174438401e-01 5.099189041693763329e+02
1.244273740222848895e-01 5.099170975172307863e+02
1.245273960271259528e-01 5.099152734228988493e+02
1.246274180319670299e-01 5.099134319678665861e+02
1.247274400368080793e-01 5.099115732345103993e+02
1.248274620416491565e-01 5.099096973060918003e+02
1.249274840464902198e-01 5.099078042667575801e+02
1.250275060513312830e-01 5.099058942015387288e+02
1.251275280561723324e-01 5.099039671963479918e+02
1.252275500610134096e-01 5.099020233379769707e+02
1.253275720658544867e-01 5.099000627140957249e+02
1.254275940706955361e-01 5.098980854132524314e+02
1.255276160755366133e-01 5.098960915248668471e+02
1.256276380803776904e-01 5.098940811392335490e+02
1.257276600852187398e-01 5.098920543475171030e+02
1.258276820900597892e-01 5.098900112417507557e+02
1.259277040949008664e-01 5.098879519148339341e+02
1.260277260997419158e-01 5.098858764605308238e+02
1.261277481045829929e-01 5.098837849734691758e+02
1.262277701094240701e-01 5.098816775491354747e+02
1.263277921142651472e-01 5.098795542838749952e+02
1.264278141191061966e-01 5.098774152748887332e+02
1.265278361239472460e-01 5.098752606202317565e+02
1.266278581287883231e-01 5.098730904188107047e+02
1.267278801336293725e-01 5.098709047703808324e+02
1.268279021384704497e-01 5.098687037755429401e+02
1.269279241433115268e-01 5.098664875357436586e+02
1.270279461481525762e-01 5.098642561532705031e+02
1.271279681529936534e-01 5.098620097312506800e+02
1.272279901578347028e-01 5.098597483736475624e+02
1.273280121626757799e-01 5.098574721852590983e+02
1.274280341675168293e-01 5.098551812717146277e+02
1.275280561723579065e-01 5.098528757394724380e+02
1.276280781771989836e-01 5.098505556958164107e+02
1.277281001820400330e-01 5.098482212488542586e+02
1.278281221868811102e-01 5.098458725075144002e+02
1.279281441917221596e-01 5.098435095815430032e+02
1.280281661965632367e-01 5.098411325815010855e+02
1.281281882014042861e-01 5.098387416187622421e+02
1.282282102062453633e-01 5.098363368055082674e+02
1.283282322110864404e-01 5.098339182547285873e+02
1.284282542159274898e-01 5.098314860802137787e+02
1.285282762207685670e-01 5.098290403965564792e+02
1.286282982256096163e-01 5.098265813191454754e+02
1.287283202304506935e-01 5.098241089641630879e+02
1.288283422352917429e-01 5.098216234485837504e+02
1.289283642401328200e-01 5.098191248901685526e+02
1.290283862449738972e-01 5.098166134074628530e+02
1.291284082498149466e-01 5.098140891197930955e+02
1.292284302546560237e-01 5.098115521472642513e+02
1.293284522594970731e-01 5.098090026107545327e+02
1.294284742643381503e-01 5.098064406319136879e+02
1.295284962691791997e-01 5.098038663331602720e+02
1.296285182740202768e-01 5.098012798376745423e+02
1.297285402788613262e-01 5.097986812693995375e+02
1.298285622837024034e-01 5.097960707530341438e+02
1.299285842885434805e-01 5.097934484140316727e+02
1.300286062933845299e-01 5.097908143785946322e+02
1.301286282982256071e-01 5.097881687736722824e+02
1.302286503030666565e-01 5.097855117269560878e+02
1.303286723079077336e-01 5.097828433668770458e+02
1.304286943127487830e-01 5.097801638226001160e+02
1.305287163175898602e-01 5.097774732240233675e+02
1.306287383224309373e-01 5.097747717017702485e+02
1.307287603272719867e-01 5.097720593871895289e+02
1.308287823321130638e-01 5.097693364123492756e+02
1.309288043369541132e-01 5.097666029100324749e+02
1.310288263417951904e-01 5.097638590137351571e+02
1.311288483466362398e-01 5.097611048576602570e+02
1.312288703514773169e-01 5.097583405767152271e+02
1.313288923563183941e-01 5.097555663065064664e+02
1.314289143611594435e-01 5.097527821833365351e+02
1.315289363660005206e-01 5.097499883441984707e+02
1.316289583708415700e-01 5.097471849267745370e+02
1.317289803756826472e-01 5.097443720694279250e+02
1.318290023805236966e-01 5.097415499112012185e+02
1.319290243853647737e-01 5.097387185918123009e+02
1.320290463902058509e-01 5.097358782516475344e+02
1.321290683950469003e-01 5.097330290317603954e+02
1.322290903998879774e-01 5.097301710738654492e+02
1.323291124047290268e-01 5.097273045203339734e+02
1.324291344095701040e-01 5.097244295141898647e+02
1.325291564144111534e-01 5.097215461991049210e+02
1.326291784192522305e-01 5.097186547193945785e+02
1.327292004240932799e-01 5.097157552200130795e+02
1.328292224289343570e-01 5.097128478465488115e+02
1.329292444337754342e-01 5.097099327452199304e+02
1.330292664386164836e-01 5.097070100628698128e+02
1.331292884434575607e-01 5.097040799469615990e+02
1.332293104482986101e-01 5.097011425455746689e+02
1.333293324531396873e-01 5.096981980073980480e+02
1.334293544579807367e-01 5.096952464817288160e+02
1.335293764628218138e-01 5.096922881184631251e+02
1.336293984676628910e-01 5.096893230680943816e+02
1.337294204725039404e-01 5.096863514817074474e+02
1.338294424773450175e-01 5.096833735109739223e+02
1.339294644821860669e-01 5.096803893081458909e+02
1.340294864870271441e-01 5.096773990260528535e+02
1.341295084918681935e-01 5.096744028180960413e+02
1.342295304967092706e-01 5.096714008382427892e+02
1.343295525015503478e-01 5.096683932410215334e+02
1.344295745063913972e-01 5.096653801815173210e+02
1.345295965112324743e-01 5.096623618153672624e+02
1.346296185160735237e-01 5.096593382987524592e+02
1.347296405209145731e-01 5.096563097883959585e+02
1.348296625257556502e-01 5.096532764415566135e+02
1.349296845305967274e-01 5.096502384160228871e+02
1.350297065354378045e-01 5.096471958701085327e+02
1.351297285402788539e-01 5.096441489626474777e+02
1.352297505451199311e-01 5.096410978529861495e+02
1.353297725499609805e-01 5.096380427009819414e+02
1.354297945548020299e-01 5.096349836669950264e+02
1.355298165596431070e-01 5.096319209118828439e+02
1.356298385644841842e-01 5.096288545969965753e+02
1.357298605693252336e-01 5.096257848841736973e+02
1.358298825741663107e-01 5.096227119357336619e+02
1.359299045790073879e-01 5.096196359144715871e+02
1.360299265838484373e-01 5.096165569836535951e+02
1.361299485886894867e-01 5.096134753070101056e+02
1.362299705935305638e-01 5.096103910487303779e+02
1.363299925983716410e-01 5.096073043734578505e+02
1.364300146032126904e-01 5.096042154462842291e+02
1.365300366080537675e-01 5.096011244327415852e+02
1.366300586128948447e-01 5.095980314987999122e+02
1.367300806177358941e-01 5.095949368108590534e+02
1.368301026225769434e-01 5.095918405357439838e+02
1.369301246274180206e-01 5.095887428406978188e+02
1.370301466322590977e-01 5.095856438933780623e+02
1.371301686371001471e-01 5.095825438618488761e+02
1.372301906419412243e-01 5.095794429145745426e+02
1.373302126467823014e-01 5.095763412204161682e+02
1.374302346516233508e-01 5.095732389486242369e+02
1.375302566564644002e-01 5.095701362688321296e+02
1.376302786613054774e-01 5.095670333510506111e+02
1.377303006661465545e-01 5.095639303656624861e+02
1.378303226709876039e-01 5.095608274834147551e+02
1.379303446758286811e-01 5.095577248754147490e+02
1.380303666806697582e-01 5.095546227131233081e+02
1.381303886855108076e-01 5.095515211683472216e+02
1.382304106903518570e-01 5.095484204132341688e+02
1.383304326951929342e-01 5.095453206202676597e+02
1.384304547000339836e-01 5.095422219622588500e+02
1.385304767048750607e-01 5.095391246123411975e+02
1.386304987097161379e-01 5.095360287439651756e+02
1.387305207145572150e-01 5.095329345308905431e+02
1.388305427193982644e-01 5.095298421471794086e+02
1.389305647242393138e-01 5.095267517671935025e+02
1.390305867290803910e-01 5.095236635655833197e+02
1.391306087339214403e-01 5.095205777172849935e+02
1.392306307387625175e-01 5.095174943975129054e+02
1.393306527436035946e-01 5.095144137817522960e+02
1.394306747484446440e-01 5.095113360457553426e+02
1.395306967532857212e-01 5.095082613655315527e+02
1.396307187581267706e-01 5.095051899173442393e+02
1.397307407629678477e-01 5.095021218777021090e+02
1.398307627678088971e-01 5.094990574233531788e+02
1.399307847726499743e-01 5.094959967312786944e+02
1.400308067774910514e-01 5.094929399786870476e+02
1.401308287823321008e-01 5.094898873430053072e+02
1.402308507871731780e-01 5.094868390018759783e+02
1.403308727920142274e-01 5.094837951331467139e+02
1.404308947968552768e-01 5.094807559148649716e+02
1.405309168016963539e-01 5.094777215252729548e+02
1.406309388065374311e-01 5.094746921427997108e+02
1.407309608113785082e-01 5.094716679460545379e+02
1.408309828162195576e-01 5.094686491138190831e+02
1.409310048210606348e-01 5.094656358250437620e+02
1.410310268259016842e-01 5.094626282588382082e+02
1.411310488307427335e-01 5.094596265944654760e+02
1.412310708355838107e-01 5.094566310113358441e+02
1.413310928404248878e-01 5.094536416889988004e+02
1.414311148452659372e-01 5.094506588071387796e+02
1.415311368501070144e-01 5.094476825455640210e+02
1.416311588549480915e-01 5.094447130842046363e+02
1.417311808597891409e-01 5.094417506031025482e+02
1.418312028646301903e-01 5.094387952824059198e+02
1.419312248694712675e-01 5.094358473023610259e+02
1.420312468743123446e-01 5.094329068433084444e+02
1.421312688791533940e-01 5.094299740856732797e+02
1.422312908839944712e-01 5.094270492099574312e+02
1.423313128888355483e-01 5.094241323967373773e+02
1.424313348936765977e-01 5.094212238266514987e+02
1.425313568985176471e-01 5.094183236803976342e+02
1.426313789033587243e-01 5.094154321387247819e+02
1.427314009081998014e-01 5.094125493824234354e+02
1.428314229130408508e-01 5.094096755923243336e+02
1.429314449178819280e-01 5.094068109492851590e+02
1.430314669227230051e-01 5.094039556341886055e+02
1.431314889275640545e-01 5.094011098279312364e+02
1.432315109324051039e-01 5.093982737114210408e+02
1.433315329372461810e-01 5.093954474655660078e+02
1.434315549420872304e-01 5.093926312712694653e+02
1.435315769469283076e-01 5.093898253094228608e+02
1.436315989517693847e-01 5.093870297608990541e+02
1.437316209566104619e-01 5.093842448065426538e+02
1.438316429614515113e-01 5.093814706271666068e+02
1.439316649662925607e-01 5.093787074035436717e+02
1.440316869711336378e-01 5.093759553163971532e+02
1.441317089759746872e-01 5.093732145463974348e+02
1.442317309808157644e-01 5.093704852741529407e+02
1.443317529856568415e-01 5.093677676802032011e+02
1.444317749904978909e-01 5.093650619450107797e+02
1.445317969953389681e-01 5.093623682489566704e+02
1.446318190001800175e-01 5.093596867723307469e+02
1.447318410050210946e-01 5.093570176953261353e+02
1.448318630098621440e-01 5.093543611980303467e+02
1.449318850147032212e-01 5.093517174604207298e+02
1.450319070195442983e-01 5.093490866623543525e+02
1.451319290243853477e-01 5.093464689835631134e+02
1.452319510292264249e-01 5.093438646036464661e+02
1.453319730340674742e-01 5.093412737020616419e+02
1.454319950389085514e-01 5.093386964581198413e+02
1.455320170437496008e-01 5.093361330509776508e+02
1.456320390485906779e-01 5.093335836596277773e+02
1.457320610534317551e-01 5.093310484628969448e+02
1.458320830582728045e-01 5.093285276394330481e+02
1.459321050631138816e-01 5.093260213677013439e+02
1.460321270679549310e-01 5.093235298259771753e+02
1.461321490727960082e-01 5.093210531923362510e+02
1.462321710776370576e-01 5.093185916446508372e+02
1.463321930824781347e-01 5.093161453605800943e+02
1.464322150873192119e-01 5.093137145175639375e+02
1.465322370921602613e-01 5.093112992928148515e+02
1.466322590970013384e-01 5.093088998633122628e+02
1.467322811018423878e-01 5.093065164057940706e+02
1.468323031066834650e-01 5.093041490967494269e+02
1.469323251115245144e-01 5.093017981124122571e+02
1.470323471163655915e-01 5.092994636287531875e+02
1.471323691212066409e-01 5.092971458214737481e+02
1.472323911260477181e-01 5.092948448659971064e+02
1.473324131308887952e-01 5.092925609374623264e+02
1.474324351357298446e-01 5.092902942107162971e+02
1.475324571405709217e-01 5.092880448603089008e+02
1.476324791454119711e-01 5.092858130604807343e+02
1.477325011502530483e-01 5.092835989851615182e+02
1.478325231550940977e-01 5.092814028079590116e+02
1.479325451599351748e-01 5.092792247021540675e+02
1.480325671647762520e-01 5.092770648406919918e+02
1.481325891696173014e-01 5.092749233961768596e+02
1.482326111744583785e-01 5.092728005408611693e+02
1.483326331792994279e-01 5.092706964466432282e+02
1.484326551841405051e-01 5.092686112850557834e+02
1.485326771889815545e-01 5.092665452272615312e+02
1.486326991938226316e-01 5.092644984440449889e+02
1.487327211986637088e-01 5.092624711058045932e+02
1.488327432035047582e-01 5.092604633825476981e+02
1.489327652083458353e-01 5.092584754438798313e+02
1.490327872131868847e-01 5.092565074590017957e+02
1.491328092180279619e-01 5.092545595966990959e+02
1.492328312228690113e-01 5.092526320253357426e+02
1.493328532277100884e-01 5.092507249128485114e+02
1.494328752325511656e-01 5.092488384267388142e+02
1.495328972373922150e-01 5.092469727340646273e+02
1.496329192422332921e-01 5.092451280014338408e+02
1.497329412470743415e-01 5.092433043949985176e+02
1.498329632519154186e-01 5.092415020804467645e+02
1.499329852567564680e-01 5.092397212229950014e+02
1.500330072615975452e-01 5.092379619873817092e+02
1.501330292664385946e-01 5.092362245378604939e+02
1.502330512712796717e-01 5.092345090381925274e+02
1.503330732761207489e-01 5.092328156516392141e+02
1.504330952809617983e-01 5.092311445409557678e+02
1.505331172858028754e-01 5.092294958683850155e+02
1.506331392906439248e-01 5.092278697956469387e+02
1.507331612954850020e-01 5.092262664839358877e+02
1.508331833003260514e-01 5.092246860939110320e+02
1.509332053051671285e-01 5.092231287856906192e+02
1.510332273100082057e-01 5.092215947188431642e+02
1.511332493148492551e-01 5.092200840523826173e+02
1.512332713196903322e-01 5.092185969447600655e+02
1.513332933245313816e-01 5.092171335538574795e+02
1.514333153293724588e-01 5.092156940369802101e+02
1.515333373342135082e-01 5.092142785508501674e+02
1.516333593390545853e-01 5.092128872515992271e+02
1.517333813438956625e-01 5.092115202947622947e+02
1.518334033487367118e-01 5.092101778352705423e+02
1.519334253535777890e-01 5.092088600274424834e+02
1.520334473584188384e-01 5.092075670249814721e+02
1.521334693632598878e-01 5.092062989809642204e+02
1.522334913681009649e-01 5.092050560478373313e+02
1.523335133729420421e-01 5.092038383774082035e+02
1.524335353777831192e-01 5.092026461208393471e+02
1.525335573826241686e-01 5.092014794286420170e+02
1.526335793874652458e-01 5.092003384506682551e+02
1.527336013923062952e-01 5.091992233361057743e+02
1.528336233971473446e-01 5.091981342334685223e+02
1.529336454019884217e-01 5.091970712905930441e+02
1.530336674068294989e-01 5.091960346546295000e+02
1.531336894116705483e-01 5.091950244720360956e+02
1.532337114165116254e-01 5.091940408885729425e+02
1.533337334213527026e-01 5.091930840492940433e+02
1.534337554261937520e-01 5.091921540985404135e+02
1.535337774310348014e-01 5.091912511799350227e+02
1.536337994358758785e-01 5.091903754363763710e+02
1.537338214407169557e-01 5.091895270100296784e+02
1.538338434455580050e-01 5.091887060423229627e+02
1.539338654503990822e-01 5.091879126739378307e+02
1.540338874552401593e-01 5.091871470448047603e+02
1.541339094600812087e-01 5.091864092940967907e+02
1.542339314649222581e-01 5.091856995602231564e+02
1.543339534697633353e-01 5.091850179808192820e+02
1.544339754746044124e-01 5.091843646927465556e+02
1.545339974794454618e-01 5.091837398320803914e+02
1.546340194842865390e-01 5.091831435341075007e+02
1.547340414891276161e-01 5.091825759333163433e+02
1.548340634939686655e-01 5.091820371633942841e+02
1.549340854988097149e-01 5.091815273572181582e+02
1.550341075036507921e-01 5.091810466468501772e+02
1.551341295084918692e-01 5.091805951635294605e+02
1.552341515133329186e-01 5.091801730376690216e+02
1.553341735181739958e-01 5.091797803988463329e+02
1.554341955230150729e-01 5.091794173757980388e+02
1.555342175278561223e-01 5.091790840964159202e+02
1.556342395326971717e-01 5.091787806877375147e+02
1.557342615375382489e-01 5.091785072759407740e+02
1.558342835423792982e-01 5.091782639863405961e+02
1.559343055472203754e-01 5.091780509433792759e+02
1.560343275520614525e-01 5.091778682706221844e+02
1.561343495569025297e-01 5.091777160907519146e+02
1.562343715617435791e-01 5.091775945255620286e+02
1.563343935665846285e-01 5.091775036959499516e+02
1.564344155714256779e-01 5.091774437219121410e+02
1.565344375762667550e-01 5.091774147225391971e+02
1.566344595811078322e-01 5.091774168160079057e+02
1.567344815859489093e-01 5.091774501195756670e+02
1.568345035907899865e-01 5.091775147495754936e+02
1.569345255956310359e-01 5.091776108214111787e+02
1.570345476004720853e-01 5.091777384495488263e+02
1.571345696053131347e-01 5.091778977475128727e+02
1.572345916101542118e-01 5.091780888278802308e+02
1.573346136149952890e-01 5.091783118022743793e+02
1.574346356198363661e-01 5.091785667813588248e+02
1.575346576246774433e-01 5.091788538748337487e+02
1.576346796295184927e-01 5.091791731914277079e+02
1.577347016343595421e-01 5.091795248388946220e+02
1.578347236392005914e-01 5.091799089240043372e+02
1.579347456440416686e-01 5.091803255525429677e+02
1.580347676488827457e-01 5.091807748293021518e+02
1.581347896537238229e-01 5.091812568580760967e+02
1.582348116585649000e-01 5.091817717416549840e+02
1.583348336634059217e-01 5.091823195818207068e+02
1.584348556682469988e-01 5.091829004793417539e+02
1.585348776730880482e-01 5.091835145339654218e+02
1.586348996779291254e-01 5.091841618444155415e+02
1.587349216827702025e-01 5.091848425083847474e+02
1.588349436876112797e-01 5.091855566225318626e+02
1.589349656924523568e-01 5.091863042824738272e+02
1.590349876972933785e-01 5.091870855827830837e+02
1.591350097021344556e-01 5.091879006169803006e+02
1.592350317069755050e-01 5.091887494775304503e+02
1.593350537118165822e-01 5.091896322558374663e+02
1.594350757166576593e-01 5.091905490422403773e+02
1.595350977214987365e-01 5.091914999260049512e+02
1.596351197263398136e-01 5.091924849953233547e+02
1.597351417311808353e-01 5.091935043373051144e+02
1.598351637360219124e-01 5.091945580379753551e+02
1.599351857408629618e-01 5.091956461822668416e+02
1.600352077457040390e-01 5.091967688540187851e+02
1.601352297505451161e-01 5.091979261359682596e+02
1.602352517553861933e-01 5.091991181097488379e+02
1.603352737602272149e-01 5.092003448558833725e+02
1.604352957650682920e-01 5.092016064537803572e+02
1.605353177699093692e-01 5.092029029817298351e+02
1.606353397747504186e-01 5.092042345168975430e+02
1.607353617795914957e-01 5.092056011353212170e+02
1.608353837844325729e-01 5.092070029119062156e+02
1.609354057892736500e-01 5.092084399204193232e+02
1.610354277941146717e-01 5.092099122334872163e+02
1.611354497989557488e-01 5.092114199225891298e+02
1.612354718037968260e-01 5.092129630580546404e+02
1.613354938086378754e-01 5.092145417090577553e+02
1.614355158134789525e-01 5.092161559436141829e+02
1.615355378183200297e-01 5.092178058285746829e+02
1.616355598231611068e-01 5.092194914296239290e+02
1.617355818280021285e-01 5.092212128112739720e+02
1.618356038328432056e-01 5.092229700368605450e+02
1.619356258376842828e-01 5.092247631685401643e+02
1.620356478425253322e-01 5.092265922672843317e+02
1.621356698473664093e-01 5.092284573928765212e+02
1.622356918522074865e-01 5.092303586039085985e+02
1.623357138570485636e-01 5.092322959577744541e+02
1.624357358618895852e-01 5.092342695106710835e+02
1.625357578667306624e-01 5.092362793175884690e+02
1.626357798715717395e-01 5.092383254323101482e+02
1.627358018764127889e-01 5.092404079074086098e+02
1.628358238812538661e-01 5.092425267942396090e+02
1.629358458860949432e-01 5.092446821429409169e+02
1.630358678909359926e-01 5.092468740024282852e+02
1.631358898957770420e-01 5.092491024203891925e+02
1.632359119006181192e-01 5.092513674432837547e+02
1.633359339054591963e-01 5.092536691163363685e+02
1.634359559103002457e-01 5.092560074835361092e+02
1.635359779151413229e-01 5.092583825876317860e+02
1.636359999199824000e-01 5.092607944701265410e+02
1.637360219248234494e-01 5.092632431712789867e+02
1.638360439296644988e-01 5.092657287300957023e+02
1.639360659345055760e-01 5.092682511843303246e+02
1.640360879393466531e-01 5.092708105704790000e+02
1.641361099441877025e-01 5.092734069237784524e+02
1.642361319490287797e-01 5.092760402782010942e+02
1.643361539538698568e-01 5.092787106664544581e+02
1.644361759587109062e-01 5.092814181199750010e+02
1.645361979635519556e-01 5.092841626689287295e+02
1.646362199683930327e-01 5.092869443422045492e+02
1.647362419732341099e-01 5.092897631674135255e+02
1.648362639780751593e-01 5.092926191708857573e+02
1.649362859829162364e-01 5.092955123776675350e+02
1.650363079877572858e-01 5.092984428115175319e+02
1.651363299925983630e-01 5.093014104949057810e+02
1.652363519974394124e-01 5.093044154490093547e+02
1.653363740022804895e-01 5.093074576937115125e+02
1.654363960071215667e-01 5.093105372475956756e+02
1.655364180119626161e-01 5.093136541279488370e+02
1.656364400168036932e-01 5.093168083507512165e+02
1.657364620216447426e-01 5.093199999306812629e+02
1.658364840264858198e-01 5.093232288811087756e+02
1.659365060313268692e-01 5.093264952140929154e+02
1.660365280361679463e-01 5.093297989403824886e+02
1.661365500410090235e-01 5.093331400694096374e+02
1.662365720458500729e-01 5.093365186092918862e+02
1.663365940506911500e-01 5.093399345668262868e+02
1.664366160555321994e-01 5.093433879474904415e+02
1.665366380603732765e-01 5.093468787554373876e+02
1.666366600652143259e-01 5.093504069934957670e+02
1.667366820700554031e-01 5.093539726631661892e+02
1.668367040748964802e-01 5.093575757646220268e+02
1.669367260797375296e-01 5.093612162967031622e+02
1.670367480845785790e-01 5.093648942569193423e+02
1.671367700894196562e-01 5.093686096414429585e+02
1.672367920942607333e-01 5.093723624451121736e+02
1.673368140991017827e-01 5.093761526614255786e+02
1.674368361039428599e-01 5.093799802825428173e+02
1.675368581087839370e-01 5.093838452992815746e+02
1.676368801136249864e-01 5.093877477011166093e+02
1.677369021184660358e-01 5.093916874761792428e+02
1.678369241233071130e-01 5.093956646112527551e+02
1.679369461281481901e-01 5.093996790917751127e+02
1.680369681329892395e-01 5.094037309018344217e+02
1.681369901378303167e-01 5.094078200241690979e+02
1.682370121426713938e-01 5.094119464401661617e+02
1.683370341475124432e-01 5.094161101298606127e+02
1.684370561523534926e-01 5.094203110719321330e+02
1.685370781571945697e-01 5.094245492437077587e+02
1.686371001620356469e-01 5.094288246211569344e+02
1.687371221668766963e-01 5.094331371788927072e+02
1.688371441717177734e-01 5.094374868901701916e+02
1.689371661765588506e-01 5.094418737268861719e+02
1.690371881813998722e-01 5.094462976595775672e+02
1.691372101862409494e-01 5.094507586574196125e+02
1.692372321910820265e-01 5.094552566882279052e+02
1.693372541959231037e-01 5.094597917184551648e+02
1.694372762007641531e-01 5.094643637131911760e+02
1.695372982056052302e-01 5.094689726361639828e+02
1.696373202104463074e-01 5.094736184497351701e+02
1.697373422152873290e-01 5.094783011149042409e+02
1.698373642201284062e-01 5.094830205913051486e+02
1.699373862249694833e-01 5.094877768372062405e+02
1.700374082298105605e-01 5.094925698095095754e+02
1.701374302346516099e-01 5.094973994637531973e+02
1.702374522394926870e-01 5.095022657541077251e+02
1.703374742443337642e-01 5.095071686333763523e+02
1.704374962491747858e-01 5.095121080529979736e+02
1.705375182540158630e-01 5.095170839630431487e+02
1.706375402588569401e-01 5.095220963122161493e+02
1.707375622636980173e-01 5.095271450478541624e+02
1.708375842685390666e-01 5.095322301159283711e+02
1.709376062733801438e-01 5.095373514610419647e+02
1.710376282782212209e-01 5.095425090264336063e+02
1.711376502830622426e-01 5.095477027539731125e+02
1.712376722879033197e-01 5.095529325841677064e+02
1.713376942927443969e-01 5.095581984561547984e+02
1.714377162975854740e-01 5.095635003077097736e+02
1.715377383024265234e-01 5.095688380752409898e+02
1.716377603072676006e-01 5.095742116937933019e+02
1.717377823121086222e-01 5.095796210970464699e+02
1.718378043169496994e-01 5.095850662173186834e+02
1.719378263217907765e-01 5.095905469855631509e+02
1.720378483266318537e-01 5.095960633313716244e+02
1.721378703314729308e-01 5.096016151829750243e+02
1.722378923363139802e-01 5.096072024672423595e+02
1.723379143411550574e-01 5.096128251096840245e+02
1.724379363459960790e-01 5.096184830344500938e+02
1.725379583508371562e-01 5.096241761643331074e+02
1.726379803556782333e-01 5.096299044207687530e+02
1.727380023605193105e-01 5.096356677238359225e+02
1.728380243653603876e-01 5.096414659922588726e+02
1.729380463702014370e-01 5.096472991434081905e+02
1.730380683750425141e-01 5.096531670933005671e+02
1.731380903798835358e-01 5.096590697566019799e+02
1.732381123847246129e-01 5.096650070466285456e+02
1.733381343895656901e-01 5.096709788753469752e+02
1.734381563944067672e-01 5.096769851533759379e+02
1.735381783992478444e-01 5.096830257899893013e+02
1.736382004040888938e-01 5.096891006931149377e+02
1.737382224089299432e-01 5.096952097693389305e+02
1.738382444137709926e-01 5.097013529239048353e+02
1.739382664186120697e-01 5.097075300607170902e+02
1.740382884234531469e-01 5.097137410823419827e+02
1.741383104282942240e-01 5.097199858900086156e+02
1.742383324331353012e-01 5.097262643836133975e+02
1.743383544379763506e-01 5.097325764617178265e+02
1.744383764428174000e-01 5.097389220215530941e+02
1.745383984476584494e-01 5.097453009590238935e+02
1.746384204524995265e-01 5.097517131687045548e+02
1.747384424573406037e-01 5.097581585438473439e+02
1.748384644621816808e-01 5.097646369763801886e+02
1.749384864670227580e-01 5.097711483569106576e+02
1.750385084718638073e-01 5.097776925747305086e+02
1.751385304767048567e-01 5.097842695178114809e+02
1.752385524815459061e-01 5.097908790728148460e+02
1.753385744863869833e-01 5.097975211250893608e+02
1.754385964912280604e-01 5.098041955586743939e+02
1.755386184960691376e-01 5.098109022563040753e+02
1.756386405009102147e-01 5.098176410994078651e+02
1.757386625057512364e-01 5.098244119681131679e+02
1.758386845105923135e-01 5.098312147412505055e+02
1.759387065154333629e-01 5.098380492963527217e+02
1.760387285202744401e-01 5.098449155096608365e+02
1.761387505251155172e-01 5.098518132561243306e+02
1.762387725299565944e-01 5.098587424094051812e+02
1.763387945347976715e-01 5.098657028418806476e+02
1.764388165396386932e-01 5.098726944246468520e+02
1.765388385444797703e-01 5.098797170275196322e+02
1.766388605493208197e-01 5.098867705190402830e+02
1.767388825541618969e-01 5.098938547664762382e+02
1.768389045590029740e-01 5.099009696358267547e+02
1.769389265638440512e-01 5.099081149918234246e+02
1.770389485686851283e-01 5.099152906979355748e+02
1.771389705735261499e-01 5.099224966163715749e+02
1.772389925783672271e-01 5.099297326080836683e+02
1.773390145832082765e-01 5.099369985327722929e+02
1.774390365880493536e-01 5.099442942488862514e+02
1.775390585928904308e-01 5.099516196136290773e+02
1.776390805977315079e-01 5.099589744829610822e+02
1.777391026025725296e-01 5.099663587116052099e+02
1.778391246074136067e-01 5.099737721530461840e+02
1.779391466122546839e-01 5.099812146595389208e+02
1.780391686170957333e-01 5.099886860821106893e+02
1.781391906219368104e-01 5.099961862705624753e+02
1.782392126267778876e-01 5.100037150734767692e+02
1.783392346316189647e-01 5.100112723382179638e+02
1.784392566364599864e-01 5.100188579109407669e+02
1.785392786413010635e-01 5.100264716365874165e+02
1.786393006461421407e-01 5.100341133588993898e+02
1.787393226509831901e-01 5.100417829204147893e+02
1.788393446558242672e-01 5.100494801624766410e+02
1.789393666606653444e-01 5.100572049252367037e+02
1.790393886655064215e-01 5.100649570476569465e+02
1.791394106703474431e-01 5.100727363675171659e+02
1.792394326751885203e-01 5.100805427214178280e+02
1.793394546800295974e-01 5.100883759447837065e+02
1.794394766848706468e-01 5.100962358718694531e+02
1.795394986897117240e-01 5.101041223357640320e+02
1.796395206945528011e-01 5.101120351683953231e+02
1.797395426993938783e-01 5.101199742005329085e+02
1.798395647042348999e-01 5.101279392617951771e+02
1.799395867090759771e-01 5.101359301806525650e+02
1.800396087139170542e-01 5.101439467844330125e+02
1.801396307187581036e-01 5.101519888993253176e+02
1.802396527235991808e-01 5.101600563503870944e+02
1.803396747284402579e-01 5.101681489615449436e+02
1.804396967332813073e-01 5.101762665556025809e+02
1.805397187381223567e-01 5.101844089542463507e+02
1.806397407429634339e-01 5.101925759780480121e+02
1.807397627478045110e-01 5.102007674464707634e+02
1.808397847526455604e-01 5.102089831778741882e+02
1.809398067574866376e-01 5.102172229895199962e+02
1.810398287623277147e-01 5.102254866975764571e+02
1.811398507671687641e-01 5.102337741171238008e+02
1.812398727720098135e-01 5.102420850621592763e+02
1.813398947768508906e-01 5.102504193456039729e+02
1.814399167816919678e-01 5.102587767793060038e+02
1.815399387865330172e-01 5.102671571740463037e+02
1.816399607913740943e-01 5.102755603395464732e+02
1.817399827962151715e-01 5.102839860844703708e+02
1.818400048010562209e-01 5.102924342164336053e+02
1.819400268058972703e-01 5.103009045420066059e+02
1.820400488107383474e-01 5.103093968667205900e+02
1.821400708155794246e-01 5.103179109950737029e+02
1.822400928204204740e-01 5.103264467305367020e+02
1.823401148252615511e-01 5.103350038755590390e+02
1.824401368301026005e-01 5.103435822315737482e+02
1.825401588349436777e-01 5.103521815990038704e+02
1.826401808397847271e-01 5.103608017772688186e+02
1.827402028446258042e-01 5.103694425647892103e+02
1.828402248494668814e-01 5.103781037589936886e+02
1.829402468543079308e-01 5.103867851563239810e+02
1.830402688591490079e-01 5.103954865522434829e+02
1.831402908639900573e-01 5.104042077412397589e+02
1.832403128688311345e-01 5.104129485168331257e+02
1.833403348736721838e-01 5.104217086715827918e+02
1.834403568785132610e-01 5.104304879970911770e+02
1.835403788833543381e-01 5.104392862840125531e+02
1.836404008881953875e-01 5.104481033220589552e+02
1.837404228930364647e-01 5.104569389000045589e+02
1.838404448978775141e-01 5.104657928056938090e+02
1.839404669027185912e-01 5.104746648260481265e+02
1.840404889075596406e-01 5.104835547470713095e+02
1.841405109124007178e-01 5.104924623538568653e+02
1.842405329172417949e-01 5.105013874305932973e+02
1.843405549220828443e-01 5.105103297605729722e+02
1.844405769269238937e-01 5.105192891261966679e+02
1.845405989317649709e-01 5.105282653089810765e+02
1.846406209366060480e-01 5.105372580895660235e+02
1.847406429414470974e-01 5.105462672477191290e+02
1.848406649462881746e-01 5.105552925623462670e+02
1.849406869511292517e-01 5.105643338114946914e+02
1.850407089559703011e-01 5.105733907723626999e+02
1.851407309608113505e-01 5.105824632213040672e+02
1.852407529656524277e-01 5.105915509338381071e+02
1.853407749704935048e-01 5.106006536846533095e+02
1.854407969753345542e-01 5.106097712476161519e+02
1.855408189801756313e-01 5.106189033957790002e+02
1.856408409850167085e-01 5.106280499013839744e+02
1.857408629898577579e-01 5.106372105358753970e+02
1.858408849946988073e-01 5.106463850699008731e+02
1.859409069995398844e-01 5.106555732733232276e+02
1.860409290043809616e-01 5.106647749152263600e+02
1.861409510092220110e-01 5.106739897639199626e+02
1.862409730140630881e-01 5.106832175869511161e+02
1.863409950189041653e-01 5.106924581511092356e+02
1.864410170237451869e-01 5.107017112224328343e+02
1.865410390285862641e-01 5.107109765662194150e+02
1.866410610334273412e-01 5.107202539470297893e+02
1.867410830382684184e-01 5.107295431286993335e+02
1.868411050431094678e-01 5.107388438743413985e+02
1.869411270479505449e-01 5.107481559463574285e+02
1.870411490527916221e-01 5.107574791064453734e+02
1.871411710576326437e-01 5.107668131156045774e+02
1.872411930624737209e-01 5.107761577341448174e+02
1.873412150673147980e-01 5.107855127216952269e+02
1.874412370721558752e-01 5.107948778372093557e+02
1.875412590769969245e-01 5.108042528389761401e+02
1.876412810818380017e-01 5.108136374846240528e+02
1.877413030866790788e-01 5.108230315311325285e+02
1.878413250915201005e-01 5.108324347348371361e+02
1.879413470963611776e-01 5.108418468514386745e+02
1.880413691012022548e-01 5.108512676360115847e+02
1.881413911060433319e-01 5.108606968430104871e+02
1.882414131108843813e-01 5.108701342262791059e+02
1.883414351157254585e-01 5.108795795390581134e+02
1.884414571205665356e-01 5.108890325339928609e+02
1.885414791254075573e-01 5.108984929631430987e+02
1.886415011302486344e-01 5.109079605779879785e+02
1.887415231350897116e-01 5.109174351294362850e+02
1.888415451399307887e-01 5.109269163678351902e+02
1.889415671447718381e-01 5.109364040429768465e+02
1.890415891496129153e-01 5.109458979041073690e+02
1.891416111544539369e-01 5.109553976999345650e+02
1.892416331592950141e-01 5.109649031786376554e+02
1.893416551641360912e-01 5.109744140878731287e+02
1.894416771689771684e-01 5.109839301747859963e+02
1.895416991738182455e-01 5.109934511860154771e+02
1.896417211786592949e-01 5.110029768677048310e+02
1.897417431835003720e-01 5.110125069655101129e+02
1.898417651883413937e-01 5.110220412246069372e+02
1.899417871931824708e-01 5.110315793897005392e+02
1.900418091980235480e-01 5.110411212050340737e+02
1.901418312028646251e-01 5.110506664143955504e+02
1.902418532077057023e-01 5.110602147611299415e+02
1.903418752125467517e-01 5.110697659881422510e+02
1.904418972173878288e-01 5.110793198379109299e+02
1.905419192222288505e-01 5.110888760524956069e+02
1.906419412270699276e-01 5.110984343735434550e+02
1.907419632319110048e-01 5.111079945422994797e+02
1.908419852367520819e-01 5.111175562996153303e+02
1.909420072415931591e-01 5.111271193859579398e+02
1.910420292464342085e-01 5.111366835414179377e+02
1.911420512512752579e-01 5.111462485057176082e+02
1.912420732561163073e-01 5.111558140182220882e+02
1.913420952609573844e-01 5.111653798179447108e+02
1.914421172657984616e-01 5.111749456435588854e+02
1.915421392706395387e-01 5.111845112334056580e+02
1.916421612754806159e-01 5.111940763255021238e+02
1.917421832803216653e-01 5.112036406575513752e+02
1.918422052851627146e-01 5.112132039669508003e+02
1.919422272900037640e-01 5.112227659908001556e+02
1.920422492948448412e-01 5.112323264659128768e+02
1.921422712996859183e-01 5.112418851288226733e+02
1.922422933045269955e-01 5.112514417157925664e+02
1.923423153093680726e-01 5.112609959628263141e+02
1.924423373142091220e-01 5.112705476056744942e+02
1.925423593190501714e-01 5.112800963798455882e+02
1.926423813238912208e-01 5.112896420206138828e+02
1.927424033287322980e-01 5.112991842630289057e+02
1.928424253335733751e-01 5.113087228419253165e+02
1.929424473384144523e-01 5.113182574919294439e+02
1.930424693432555294e-01 5.113277879474716201e+02
1.931424913480965511e-01 5.113373139427929459e+02
1.932425133529376282e-01 5.113468352119564315e+02
1.933425353577786776e-01 5.113563514888533064e+02
1.934425573626197548e-01 5.113658625072155246e+02
1.935425793674608319e-01 5.113753680006230411e+02
1.936426013723019091e-01 5.113848677025123379e+02
1.937426233771429862e-01 5.113943613461875088e+02
1.938426453819840078e-01 5.114038486648273647e+02
1.939426673868250850e-01 5.114133293914984506e+02
1.940426893916661344e-01 5.114228032591593092e+02
1.941427113965072115e-01 5.114322700006728155e+02
1.942427334013482887e-01 5.114417293488154996e+02
1.943427554061893658e-01 5.114511810362853339e+02
1.944427774110304430e-01 5.114606247957117375e+02
1.945427994158714646e-01 5.114700603596666042e+02
1.946428214207125418e-01 5.114794874606701569e+02
1.947428434255535912e-01 5.114889058312028283e+02
1.948428654303946683e-01 5.114983152037141281e+02
1.949428874352357455e-01 5.115077153106319656e+02
1.950429094400768226e-01 5.115171058843710057e+02
1.951429314449178443e-01 5.115264866573440372e+02
1.952429534497589214e-01 5.115358573619689651e+02
1.953429754545999986e-01 5.115452177306807471e+02
1.954429974594410480e-01 5.115545674959385565e+02
1.955430194642821251e-01 5.115639063902362977e+02
1.956430414691232023e-01 5.115732341461117016e+02
1.957430634739642794e-01 5.115825504961566708e+02
1.958430854788053010e-01 5.115918551730250670e+02
1.959431074836463782e-01 5.116011479094430570e+02
1.960431294884874553e-01 5.116104284382195715e+02
1.961431514933285047e-01 5.116196964922526718e+02
1.962431734981695819e-01 5.116289518045430214e+02
1.963431955030106590e-01 5.116381941082001958e+02
1.964432175078517362e-01 5.116474231364534262e+02
1.965432395126927578e-01 5.116566386226614327e+02
1.966432615175338350e-01 5.116658403003208377e+02
1.967432835223749121e-01 5.116750279030763409e+02
1.968433055272159615e-01 5.116842011647298705e+02
1.969433275320570387e-01 5.116933598192497925e+02
1.970433495368981158e-01 5.117025036007831318e+02
1.971433715417391930e-01 5.117116322436593236e+02
1.972433935465802146e-01 5.117207454824055617e+02
1.973434155514212918e-01 5.117298430517530505e+02
1.974434375562623689e-01 5.117389246866472945e+02
1.975434595611034183e-01 5.117479901222573062e+02
1.976434815659444955e-01 5.117570390939864637e+02
1.977435035707855726e-01 5.117660713374791612e+02
1.978435255756266220e-01 5.117750865886341671e+02
1.979435475804676714e-01 5.117840845836097401e+02
1.980435695853087485e-01 5.117930650588378398e+02
1.981435915901498257e-01 5.118020277510284473e+02
1.982436135949908751e-01 5.118109723971837184e+02
1.983436355998319522e-01 5.118198987346058857e+02
1.984436576046730294e-01 5.118288065009043635e+02
1.985436796095140788e-01 5.118376954340077418e+02
1.986437016143551282e-01 5.118465652721744164e+02
1.987437236191962053e-01 5.118554157539990683e+02
1.988437456240372825e-01 5.118642466184229534e+02
1.989437676288783319e-01 5.118730576047449858e+02
1.990437896337194090e-01 5.118818484526298107e+02
1.991438116385604862e-01 5.118906189021170690e+02
1.992438336434015356e-01 5.118993686936320273e+02
1.993438556482425850e-01 5.119080975679933658e+02
1.994438776530836621e-01 5.119168052664245465e+02
1.995438996579247393e-01 5.119254915305609757e+02
1.996439216627657887e-01 5.119341561024625662e+02
1.997439436676068658e-01 5.119427987246201610e+02
1.998439656724479152e-01 5.119514191399654237e+02
1.999439876772889924e-01 5.119600170918824915e+02
2.000440096821300417e-01 5.119685923242147396e+02
2.001440316869711189e-01 5.119771445812759794e+02
2.002440536918121960e-01 5.119856736078574500e+02
2.003440756966532454e-01 5.119941791492408925e+02
2.004440977014943226e-01 5.120026609512042342e+02
2.005441197063353720e-01 5.120111187600340372e+02
2.006441417111764491e-01 5.120195523225321494e+02
2.007441637160174985e-01 5.120279613860263908e+02
2.008441857208585757e-01 5.120363456983801598e+02
2.009442077256996528e-01 5.120447050080016425e+02
2.010442297305407022e-01 5.120530390638512017e+02
2.011442517353817794e-01 5.120613476154538830e+02
2.012442737402228288e-01 5.120696304129068039e+02
2.013442957450639059e-01 5.120778872068874534e+02
2.014443177499049553e-01 5.120861177486658562e+02
2.015443397547460325e-01 5.120943217901108255e+02
2.016443617595871096e-01 5.121024990837004225e+02
2.017443837644281590e-01 5.121106493825318466e+02
2.018444057692692084e-01 5.121187724403299626e+02
2.019444277741102856e-01 5.121268680114567360e+02
2.020444497789513627e-01 5.121349358509185095e+02
2.021444717837924121e-01 5.121429757143789629e+02
2.022444937886334893e-01 5.121509873581651391e+02
2.023445157934745664e-01 5.121589705392765381e+02
2.024445377983156158e-01 5.121669250153969415e+02
2.025445598031566652e-01 5.121748505449011191e+02
2.026445818079977423e-01 5.121827468868639244e+02
2.027446038128388195e-01 5.121906138010700715e+02
2.028446258176798689e-01 5.121984510480236850e+02
2.029446478225209460e-01 5.122062583889559164e+02
2.030446698273620232e-01 5.122140355858356315e+02
2.031446918322030726e-01 5.122217824013766858e+02
2.032447138370441220e-01 5.122294985990474743e+02
2.033447358418851991e-01 5.122371839430804812e+02
2.034447578467262763e-01 5.122448381984806929e+02
2.035447798515673257e-01 5.122524611310344653e+02
2.036448018564084028e-01 5.122600525073189601e+02
2.037448238612494800e-01 5.122676120947090794e+02
2.038448458660905016e-01 5.122751396613897441e+02
2.039448678709315788e-01 5.122826349763611233e+02
2.040448898757726559e-01 5.122900978094501170e+02
2.041449118806137331e-01 5.122975279313168357e+02
2.042449338854547825e-01 5.123049251134655151e+02
2.043449558902958596e-01 5.123122891282521323e+02
2.044449778951369368e-01 5.123196197488925918e+02
2.045449998999779584e-01 5.123269167494735257e+02
2.046450219048190355e-01 5.123341799049577503e+02
2.047450439096601127e-01 5.123414089911949532e+02
2.048450659145011898e-01 5.123486037849307877e+02
2.049450879193422392e-01 5.123557640638141493e+02
2.050451099241833164e-01 5.123628896064060427e+02
2.051451319290243935e-01 5.123699801921890185e+02
2.052451539338654152e-01 5.123770356015738798e+02
2.053451759387064923e-01 5.123840556159090056e+02
2.054451979435475695e-01 5.123910400174908091e+02
2.055452199483886466e-01 5.123979885895689677e+02
2.056452419532296960e-01 5.124049011163563137e+02
2.057452639580707732e-01 5.124117773830371334e+02
2.058452859629118503e-01 5.124186171757751254e+02
2.059453079677528720e-01 5.124254202817232908e+02
2.060453299725939491e-01 5.124321864890299594e+02
2.061453519774350263e-01 5.124389155868479975e+02
2.062453739822761034e-01 5.124456073653434487e+02
2.063453959871171528e-01 5.124522616157039465e+02
2.064454179919582300e-01 5.124588781301448535e+02
2.065454399967992516e-01 5.124654567019201750e+02
2.066454620016403287e-01 5.124719971253286985e+02
2.067454840064814059e-01 5.124784991957229749e+02
2.068455060113224830e-01 5.124849627095167079e+02
2.069455280161635602e-01 5.124913874641933944e+02
2.070455500210046096e-01 5.124977732583154193e+02
2.071455720258456867e-01 5.125041198915280347e+02
2.072455940306867084e-01 5.125104271645714107e+02
2.073456160355277855e-01 5.125166948792871153e+02
2.074456380403688627e-01 5.125229228386257319e+02
2.075456600452099398e-01 5.125291108466543619e+02
2.076456820500510170e-01 5.125352587085648111e+02
2.077457040548920664e-01 5.125413662306825699e+02
2.078457260597331435e-01 5.125474332204714756e+02
2.079457480645741652e-01 5.125534594865454210e+02
2.080457700694152423e-01 5.125594448386711974e+02
2.081457920742563195e-01 5.125653890877807726e+02
2.082458140790973966e-01 5.125712920459762927e+02
2.083458360839384738e-01 5.125771535265386092e+02
2.084458580887795232e-01 5.125829733439325082e+02
2.085458800936205725e-01 5.125887513138180793e+02
2.086459020984616219e-01 5.125944872530552630e+02
2.087459241033026991e-01 5.126001809797112401e+02
2.088459461081437762e-01 5.126058323130700956e+02
2.089459681129848534e-01 5.126114410736377067e+02
2.090459901178259305e-01 5.126170070831501562e+02
2.091460121226669799e-01 5.126225301645806667e+02
2.092460341275080293e-01 5.126280101421467634e+02
2.093460561323490787e-01 5.126334468413178911e+02
2.094460781371901559e-01 5.126388400888216665e+02
2.095461001420312330e-01 5.126441897126525191e+02
2.096461221468723102e-01 5.126494955420771475e+02
2.097461441517133873e-01 5.126547574076417959e+02
2.098461661565544367e-01 5.126599751411791885e+02
2.099461881613954861e-01 5.126651485758179660e+02
2.100462101662365355e-01 5.126702775459841632e+02
2.101462321710776127e-01 5.126753618874143967e+02
2.102462541759186898e-01 5.126804014371577978e+02
2.103462761807597670e-01 5.126853960335844249e+02
2.104462981856008441e-01 5.126903455163931085e+02
2.105463201904418657e-01 5.126952497266163391e+02
2.106463421952829429e-01 5.127001085066281121e+02
2.107463642001239923e-01 5.127049217001499528e+02
2.108463862049650694e-01 5.127096891522570559e+02
2.109464082098061466e-01 5.127144107093864704e+02
2.110464302146472237e-01 5.127190862193415342e+02
2.111464522194883009e-01 5.127237155312991490e+02
2.112464742243293225e-01 5.127282984958171710e+02
2.113464962291703997e-01 5.127328349648385029e+02
2.114465182340114491e-01 5.127373247916992796e+02
2.115465402388525262e-01 5.127417678311345526e+02
2.116465622436936034e-01 5.127461639392839743e+02
2.117465842485346805e-01 5.127505129736985054e+02
2.118466062533757577e-01 5.127548147933467817e+02
2.119466282582167793e-01 5.127590692586202294e+02
2.120466502630578565e-01 5.127632762313402282e+02
2.121466722678989059e-01 5.127674355747624304e+02
2.122466942727399830e-01 5.127715471535849474e+02
2.123467162775810602e-01 5.127756108339521006e+02
2.124467382824221373e-01 5.127796264834615840e+02
2.125467602872631590e-01 5.127835939711695801e+02
2.126467822921042361e-01 5.127875131675963303e+02
2.127468042969453133e-01 5.127913839447332975e+02
2.128468263017863626e-01 5.127952061760468041e+02
2.129468483066274398e-01 5.127989797364848528e+02
2.130468703114685169e-01 5.128027045024822428e+02
2.131468923163095941e-01 5.128063803519654584e+02
2.132469143211506157e-01 5.128100071643594902e+02
2.133469363259916929e-01 5.128135848205934053e+02
2.134469583308327700e-01 5.128171132031029629e+02
2.135469803356738194e-01 5.128205921958383442e+02
2.136470023405148966e-01 5.128240216842693826e+02
2.137470243453559737e-01 5.128274015553901108e+02
2.138470463501970509e-01 5.128307316977237633e+02
2.139470683550380725e-01 5.128340120013272099e+02
2.140470903598791497e-01 5.128372423577981181e+02
2.141471123647202268e-01 5.128404226602777953e+02
2.142471343695612762e-01 5.128435528034571007e+02
2.143471563744023534e-01 5.128466326835821292e+02
2.144471783792434305e-01 5.128496621984568264e+02
2.145472003840845077e-01 5.128526412474502649e+02
2.146472223889255293e-01 5.128555697314989175e+02
2.147472443937666065e-01 5.128584475531140470e+02
2.148472663986076836e-01 5.128612746163828433e+02
2.149472884034487330e-01 5.128640508269775182e+02
2.150473104082898101e-01 5.128667760921554191e+02
2.151473324131308873e-01 5.128694503207669868e+02
2.152473544179719367e-01 5.128720734232567793e+02
2.153473764228129861e-01 5.128746453116712019e+02
2.154473984276540632e-01 5.128771658996606675e+02
2.155474204324951404e-01 5.128796351024839169e+02
2.156474424373361898e-01 5.128820528370139300e+02
2.157474644421772669e-01 5.128844190217396317e+02
2.158474864470183441e-01 5.128867335767719169e+02
2.159475084518593935e-01 5.128889964238471748e+02
2.160475304567004429e-01 5.128912074863303587e+02
2.161475524615415200e-01 5.128933666892204428e+02
2.162475744663825972e-01 5.128954739591531506e+02
2.163475964712236466e-01 5.128975292244040247e+02
2.164476184760647237e-01 5.128995324148954751e+02
2.165476404809058009e-01 5.129014834621962109e+02
2.166476624857468503e-01 5.129033822995280616e+02
2.167476844905878997e-01 5.129052288617683644e+02
2.168477064954289768e-01 5.129070230854526926e+02
2.169477285002700540e-01 5.129087649087805403e+02
2.170477505051111033e-01 5.129104542716161177e+02
2.171477725099521805e-01 5.129120911154938085e+02
2.172477945147932299e-01 5.129136753836205571e+02
2.173478165196343070e-01 5.129152070208789382e+02
2.174478385244753564e-01 5.129166859738309086e+02
2.175478605293164336e-01 5.129181121907208762e+02
2.176478825341575107e-01 5.129194856214779747e+02
2.177479045389985601e-01 5.129208062177202692e+02
2.178479265438396373e-01 5.129220739327565752e+02
2.179479485486806867e-01 5.129232887215900973e+02
2.180479705535217638e-01 5.129244505409218391e+02
2.181479925583628132e-01 5.129255593491513991e+02
2.182480145632038904e-01 5.129266151063822008e+02
2.183480365680449675e-01 5.129276177744217193e+02
2.184480585728860169e-01 5.129285673167860296e+02
2.185480805777270941e-01 5.129294636987015110e+02
2.186481025825681435e-01 5.129303068871068945e+02
2.187481245874092206e-01 5.129310968506570134e+02
2.188481465922502700e-01 5.129318335597240548e+02
2.189481685970913472e-01 5.129325169864006284e+02
2.190481906019324243e-01 5.129331471045002218e+02
2.191482126067734737e-01 5.129337238895632254e+02
2.192482346116145231e-01 5.129342473188538634e+02
2.193482566164556002e-01 5.129347173713665597e+02
2.194482786212966774e-01 5.129351340278274165e+02
2.195483006261377268e-01 5.129354972706928493e+02
2.196483226309788039e-01 5.129358070841552717e+02
2.197483446358198811e-01 5.129360634541437776e+02
2.198483666406609305e-01 5.129362663683243682e+02
2.199483886455019799e-01 5.129364158161043861e+02
2.200484106503430570e-01 5.129365117886311509e+02
2.201484326551841342e-01 5.129365542787967343e+02
2.202484546600251836e-01 5.129365432812367089e+02
2.203484766648662607e-01 5.129364787923333324e+02
2.204484986697073379e-01 5.129363608102156604e+02
2.205485206745483873e-01 5.129361893347628438e+02
2.206485426793894367e-01 5.129359643676036740e+02
2.207485646842305138e-01 5.129356859121178331e+02
2.208485866890715910e-01 5.129353539734385095e+02
2.209486086939126404e-01 5.129349685584516010e+02
2.210486306987537175e-01 5.129345296757990127e+02
2.211486527035947947e-01 5.129340373358768375e+02
2.212486747084358163e-01 5.129334915508392214e+02
2.213486967132768934e-01 5.129328923345964313e+02
2.214487187181179706e-01 5.129322397028186060e+02
2.215487407229590477e-01 5.129315336729335968e+02
2.216487627278000971e-01 5.129307742641301502e+02
2.217487847326411743e-01 5.129299614973558619e+02
2.218488067374822514e-01 5.129290953953203598e+02
2.219488287423232731e-01 5.129281759824931441e+02
2.220488507471643502e-01 5.129272032851088170e+02
2.221488727520054274e-01 5.129261773311601473e+02
2.222488947568465045e-01 5.129250981504046649e+02
2.223489167616875539e-01 5.129239657743621592e+02
2.224489387665286311e-01 5.129227802363150204e+02
2.225489607713697082e-01 5.129215415713084667e+02
2.226489827762107299e-01 5.129202498161516814e+02
2.227490047810518070e-01 5.129189050094155391e+02
2.228490267858928842e-01 5.129175071914354476e+02
2.229490487907339613e-01 5.129160564043072554e+02
2.230490707955750107e-01 5.129145526918925952e+02
2.231490928004160879e-01 5.129129960998129718e+02
2.232491148052571650e-01 5.129113866754521496e+02
2.233491368100981866e-01 5.129097244679568348e+02
2.234491588149392638e-01 5.129080095282341745e+02
2.235491808197803409e-01 5.129062419089515288e+02
2.236492028246214181e-01 5.129044216645370398e+02
2.237492248294624675e-01 5.129025488511780395e+02
2.238492468343035446e-01 5.129006235268209366e+02
2.239492688391445663e-01 5.128986457511699655e+02
2.240492908439856434e-01 5.128966155856862770e+02
2.241493128488267206e-01 5.128945330935875973e+02
2.242493348536677977e-01 5.128923983398465225e+02
2.243493568585088749e-01 5.128902113911910874e+02
2.244493788633499243e-01 5.128879723161019228e+02
2.245494008681910014e-01 5.128856811848110056e+02
2.246494228730320231e-01 5.128833380693019990e+02
2.247494448778731002e-01 5.128809430433087755e+02
2.248494668827141774e-01 5.128784961823131425e+02
2.249494888875552545e-01 5.128759975635426827e+02
2.250495108923963317e-01 5.128734472659720041e+02
2.251495328972373811e-01 5.128708453703186478e+02
2.252495549020784582e-01 5.128681919590438838e+02
2.253495769069194798e-01 5.128654871163474809e+02
2.254495989117605570e-01 5.128627309281706630e+02
2.255496209166016341e-01 5.128599234821903110e+02
2.256496429214427113e-01 5.128570648678188491e+02
2.257496649262837884e-01 5.128541551762035624e+02
2.258496869311248378e-01 5.128511945002217089e+02
2.259497089359658872e-01 5.128481829344812013e+02
2.260497309408069366e-01 5.128451205753168551e+02
2.261497529456480138e-01 5.128420075207892523e+02
2.262497749504890909e-01 5.128388438706820125e+02
2.263497969553301681e-01 5.128356297264990644e+02
2.264498189601712452e-01 5.128323651914638504e+02
2.265498409650122946e-01 5.128290503705155743e+02
2.266498629698533440e-01 5.128256853703064735e+02
2.267498849746943934e-01 5.128222702992007953e+02
2.268499069795354706e-01 5.128188052672718413e+02
2.269499289843765477e-01 5.128152903862977610e+02
2.270499509892176249e-01 5.128117257697592777e+02
2.271499729940587020e-01 5.128081115328411670e+02
2.272499949988997514e-01 5.128044477924217972e+02
2.273500170037408008e-01 5.128007346670761990e+02
2.274500390085818502e-01 5.127969722770715180e+02
2.275500610134229273e-01 5.127931607443629218e+02
2.276500830182640045e-01 5.127893001925917815e+02
2.277501050231050816e-01 5.127853907470816921e+02
2.278501270279461588e-01 5.127814325348365401e+02
2.279501490327871804e-01 5.127774256845353875e+02
2.280501710376282576e-01 5.127733703265306531e+02
2.281501930424693070e-01 5.127692665928439055e+02
2.282502150473103841e-01 5.127651146171631353e+02
2.283502370521514613e-01 5.127609145348390030e+02
2.284502590569925384e-01 5.127566664828801777e+02
2.285502810618336156e-01 5.127523705999517460e+02
2.286503030666746372e-01 5.127480270263695274e+02
2.287503250715157144e-01 5.127436359040978004e+02
2.288503470763567638e-01 5.127391973767446416e+02
2.289503690811978409e-01 5.127347115895589695e+02
2.290503910860389181e-01 5.127301786894249744e+02
2.291504130908799952e-01 5.127255988248602989e+02
2.292504350957210724e-01 5.127209721460095579e+02
2.293504571005620940e-01 5.127162988046432019e+02
2.294504791054031712e-01 5.127115789541498998e+02
2.295505011102442205e-01 5.127068127495349472e+02
2.296505231150852977e-01 5.127020003474150371e+02
2.297505451199263748e-01 5.126971419060140533e+02
2.298505671247674520e-01 5.126922375851586366e+02
2.299505891296084736e-01 5.126872875462735237e+02
2.300506111344495508e-01 5.126822919523767723e+02
2.301506331392906279e-01 5.126772509680765779e+02
2.302506551441316773e-01 5.126721647595649074e+02
2.303506771489727545e-01 5.126670334946135199e+02
2.304506991538138316e-01 5.126618573425694194e+02
2.305507211586549088e-01 5.126566364743493978e+02
2.306507431634959304e-01 5.126513710624367377e+02
2.307507651683370076e-01 5.126460612808734822e+02
2.308507871731780847e-01 5.126407073052583883e+02
2.309508091780191341e-01 5.126353093127401053e+02
2.310508311828602113e-01 5.126298674820121732e+02
2.311508531877012884e-01 5.126243819933084751e+02
2.312508751925423656e-01 5.126188530283984619e+02
2.313508971973833872e-01 5.126132807705797632e+02
2.314509192022244644e-01 5.126076654046751173e+02
2.315509412070655415e-01 5.126020071170260053e+02
2.316509632119065909e-01 5.125963060954873072e+02
2.317509852167476680e-01 5.125905625294215042e+02
2.318510072215887452e-01 5.125847766096936766e+02
2.319510292264298223e-01 5.125789485286654781e+02
2.320510512312708440e-01 5.125730784801887694e+02
2.321510732361119211e-01 5.125671666596024352e+02
2.322510952409529983e-01 5.125612132637230616e+02
2.323511172457940477e-01 5.125552184908419804e+02
2.324511392506351248e-01 5.125491825407173110e+02
2.325511612554762020e-01 5.125431056145697539e+02
2.326511832603172514e-01 5.125369879150752013e+02
2.327512052651583008e-01 5.125308296463601891e+02
2.328512272699993779e-01 5.125246310139933712e+02
2.329512492748404551e-01 5.125183922249811985e+02
2.330512712796815045e-01 5.125121134877622353e+02
2.331512932845225816e-01 5.125057950121987460e+02
2.332513152893636588e-01 5.124994370095721479e+02
2.333513372942047082e-01 5.124930396925756213e+02
2.334513592990457576e-01 5.124866032753081981e+02
2.335513813038868347e-01 5.124801279732679404e+02
2.336514033087279119e-01 5.124736140033455740e+02
2.337514253135689613e-01 5.124670615838178946e+02
2.338514473184100384e-01 5.124604709343418563e+02
2.339514693232511156e-01 5.124538422759450214e+02
2.340514913280921649e-01 5.124471758310226051e+02
2.341515133329332143e-01 5.124404718233275844e+02
2.342515353377742915e-01 5.124337304779670603e+02
2.343515573426153686e-01 5.124269520213912301e+02
2.344515793474564180e-01 5.124201366813894083e+02
2.345516013522974952e-01 5.124132846870827507e+02
2.346516233571385446e-01 5.124063962689158416e+02
2.347516453619796217e-01 5.123994716586505547e+02
2.348516673668206711e-01 5.123925110893588908e+02
2.349516893716617483e-01 5.123855147954146787e+02
2.350517113765028254e-01 5.123784830124881182e+02
2.351517333813438748e-01 5.123714159775372536e+02
2.352517553861849520e-01 5.123643139288006978e+02
2.353517773910260014e-01 5.123571771057897877e+02
2.354517993958670785e-01 5.123500057492824453e+02
2.355518214007081279e-01 5.123428001013145376e+02
2.356518434055492051e-01 5.123355604051720320e+02
2.357518654103902822e-01 5.123282869053851982e+02
2.358518874152313316e-01 5.123209798477180357e+02
2.359519094200724088e-01 5.123136394791644079e+02
2.360519314249134581e-01 5.123062660479362194e+02
2.361519534297545353e-01 5.122988598034578445e+02
2.362519754345955847e-01 5.122914209963585108e+02
2.363519974394366618e-01 5.122839498784636589e+02
2.364520194442777390e-01 5.122764467027859610e+02
2.365520414491187884e-01 5.122689117235204321e+02
2.366520634539598378e-01 5.122613451960323800e+02
2.367520854588009149e-01 5.122537473768530845e+02
2.368521074636419921e-01 5.122461185236684287e+02
2.369521294684830415e-01 5.122384588953134426e+02
2.370521514733241186e-01 5.122307687517624117e+02
2.371521734781651958e-01 5.122230483541203512e+02
2.372521954830062452e-01 5.122152979646167523e+02
2.373522174878472946e-01 5.122075178465945555e+02
2.374522394926883717e-01 5.121997082645038972e+02
2.375522614975294489e-01 5.121918694838921056e+02
2.376522835023704983e-01 5.121840017713965381e+02
2.377523055072115754e-01 5.121761053947351456e+02
2.378523275120526526e-01 5.121681806226979461e+02
2.379523495168937020e-01 5.121602277251389523e+02
2.380523715217347513e-01 5.121522469729666227e+02
2.381523935265758285e-01 5.121442386381368124e+02
2.382524155314169056e-01 5.121362029936417457e+02
2.383524375362579550e-01 5.121281403135028540e+02
2.384524595410990322e-01 5.121200508727620218e+02
2.385524815459401093e-01 5.121119349474710134e+02
2.386525035507811310e-01 5.121037928146846525e+02
2.387525255556222081e-01 5.120956247524504761e+02
2.388525475604632853e-01 5.120874310398003217e+02
2.389525695653043624e-01 5.120792119567418013e+02
2.390525915701454118e-01 5.120709677842478413e+02
2.391526135749864890e-01 5.120626988042490666e+02
2.392526355798275661e-01 5.120544052996223172e+02
2.393526575846685878e-01 5.120460875541854193e+02
2.394526795895096649e-01 5.120377458526845658e+02
2.395527015943507421e-01 5.120293804807849938e+02
2.396527235991918192e-01 5.120209917250642775e+02
2.397527456040328686e-01 5.120125798730019824e+02
2.398527676088739458e-01 5.120041452129676145e+02
2.399527896137150229e-01 5.119956880342156751e+02
