0.000000000000000000e+00 5.109727610637907560e+02
1.000220048410650341e-04 5.109790204534854183e+02
2.000440096821300682e-04 5.109852618396832895e+02
3.000660145231950752e-04 5.109914852320734440e+02
4.000880193642601364e-04 5.109976906413440929e+02
5.001100242053251434e-04 5.110038780791799695e+02
6.001320290463901504e-04 5.110100475582581794e+02
7.001540338874551574e-04 5.110161990922438235e+02
8.001760387285202728e-04 5.110223326957864174e+02
9.001980435695852798e-04 5.110284483845172190e+02
1.000220048410650287e-03 5.110345461750433742e+02
1.100242053251715294e-03 5.110406260849450177e+02
1.200264058092780301e-03 5.110466881327726583e+02
1.300286062933845308e-03 5.110527323380398457e+02
1.400308067774910315e-03 5.110587587212214657e+02
1.500330072615975322e-03 5.110647673037498180e+02
1.600352077457040546e-03 5.110707581080093860e+02
1.700374082298105553e-03 5.110767311573336542e+02
1.800396087139170560e-03 5.110826864759983437e+02
1.900418091980235567e-03 5.110886240892219234e+02
2.000440096821300574e-03 5.110945440231563452e+02
2.100462101662365581e-03 5.111004463048851676e+02
2.200484106503430588e-03 5.111063309624197473e+02
2.300506111344495595e-03 5.111121980246933276e+02
2.400528116185560602e-03 5.111180475215562637e+02
2.500550121026625609e-03 5.111238794837739761e+02
2.600572125867690616e-03 5.111296939430195607e+02
2.700594130708756056e-03 5.111354909318712316e+02
2.800616135549820630e-03 5.111412704838062382e+02
2.900638140390886070e-03 5.111470326331977958e+02
3.000660145231950644e-03 5.111527774153088899e+02
3.100682150073016084e-03 5.111585048662875579e+02
3.200704154914081091e-03 5.111642150231641040e+02
3.300726159755145665e-03 5.111699079238435957e+02
3.400748164596211105e-03 5.111755836071034764e+02
3.500770169437275679e-03 5.111812421125869150e+02
3.600792174278341119e-03 5.111868834807980875e+02
3.700814179119406126e-03 5.111925077530985959e+02
3.800836183960471133e-03 5.111981149717007611e+02
3.900858188801536140e-03 5.112037051796643254e+02
4.000880193642601147e-03 5.112092784208892908e+02
4.100902198483666154e-03 5.112148347401125648e+02
4.200924203324731161e-03 5.112203741829029013e+02
4.300946208165796168e-03 5.112258967956538527e+02
4.400968213006861175e-03 5.112314026255806994e+02
4.500990217847926182e-03 5.112368917207141976e+02
4.601012222688991189e-03 5.112423641298952930e+02
4.701034227530056196e-03 5.112478199027702317e+02
4.801056232371121203e-03 5.112532590897852174e+02
4.901078237212187078e-03 5.112586817421803858e+02
5.001100242053251217e-03 5.112640879119849728e+02
5.101122246894316224e-03 5.112694776520128244e+02
5.201144251735381231e-03 5.112748510158542672e+02
5.301166256576447106e-03 5.112802080578732102e+02
5.401188261417512113e-03 5.112855488332011191e+02
5.501210266258576252e-03 5.112908733977302518e+02
5.601232271099641259e-03 5.112961818081097363e+02
5.701254275940706266e-03 5.113014741217380674e+02
5.801276280781772141e-03 5.113067503967596394e+02
5.901298285622837148e-03 5.113120106920572994e+02
6.001320290463901287e-03 5.113172550672476859e+02
6.101342295304966294e-03 5.113224835826748631e+02
6.201364300146032169e-03 5.113276962994051473e+02
6.301386304987097176e-03 5.113328932792207411e+02
6.401408309828162183e-03 5.113380745846149580e+02
6.501430314669226322e-03 5.113432402787846058e+02
6.601452319510291329e-03 5.113483904256257233e+02
6.701474324351357204e-03 5.113535250897270430e+02
6.801496329192422211e-03 5.113586443363648755e+02
6.901518334033487218e-03 5.113637482314949807e+02
7.001540338874551357e-03 5.113688368417495553e+02
7.101562343715617232e-03 5.113739102344290473e+02
7.201584348556682239e-03 5.113789684774968123e+02
7.301606353397747246e-03 5.113840116395729751e+02
7.401628358238812253e-03 5.113890397899297682e+02
7.501650363079876392e-03 5.113940529984816408e+02
7.601672367920942266e-03 5.113990513357844065e+02
7.701694372762007273e-03 5.114040348730246706e+02
7.801716377603072280e-03 5.114090036820153955e+02
7.901738382444137287e-03 5.114139578351907289e+02
8.001760387285202294e-03 5.114188974055972494e+02
8.101782392126267301e-03 5.114238224668904422e+02
8.201804396967332308e-03 5.114287330933259454e+02
8.301826401808397315e-03 5.114336293597560257e+02
8.401848406649462322e-03 5.114385113416200284e+02
8.501870411490527329e-03 5.114433791149419335e+02
8.601892416331592336e-03 5.114482327563186459e+02
8.701914421172657343e-03 5.114530723429203363e+02
8.801936426013722350e-03 5.114578979524774809e+02
8.901958430854787357e-03 5.114627096632801226e+02
9.001980435695852364e-03 5.114675075541667866e+02
9.102002440536917371e-03 5.114722917045210693e+02
9.202024445377982378e-03 5.114770621942639650e+02
9.302046450219047385e-03 5.114818191038472150e+02
9.402068455060112392e-03 5.114865625142481349e+02
9.502090459901177399e-03 5.114912925069606899e+02
9.602112464742242406e-03 5.114960091639915163e+02
9.702134469583307413e-03 5.115007125678514512e+02
9.802156474424374155e-03 5.115054028015496783e+02
9.902178479265437427e-03 5.115100799485886682e+02
1.000220048410650243e-02 5.115147440929533218e+02
1.010222248894756918e-02 5.115193953191096057e+02
1.020224449378863245e-02 5.115240337119937521e+02
1.030226649862969746e-02 5.115286593570079390e+02
1.040228850347076246e-02 5.115332723400128998e+02
1.050231050831182747e-02 5.115378727473208755e+02
1.060233251315289421e-02 5.115424606656890774e+02
1.070235451799395748e-02 5.115470361823133771e+02
1.080237652283502423e-02 5.115515993848216567e+02
1.090239852767608750e-02 5.115561503612664183e+02
1.100242053251715250e-02 5.115606892001175652e+02
1.110244253735821925e-02 5.115652159902577978e+02
1.120246454219928252e-02 5.115697308209730636e+02
1.130248654704034753e-02 5.115742337819474415e+02
1.140250855188141253e-02 5.115787249632568319e+02
1.150253055672247754e-02 5.115832044553600895e+02
1.160255256156354428e-02 5.115876723490940776e+02
1.170257456640460755e-02 5.115921287356650282e+02
1.180259657124567430e-02 5.115965737066444490e+02
1.190261857608673930e-02 5.116010073539588348e+02
1.200264058092780257e-02 5.116054297698856317e+02
1.210266258576886932e-02 5.116098410470444833e+02
1.220268459060993259e-02 5.116142412783914324e+02
1.230270659545099760e-02 5.116186305572115884e+02
1.240272860029206434e-02 5.116230089771116241e+02
1.250275060513312761e-02 5.116273766320139771e+02
1.260277260997419435e-02 5.116317336161499725e+02
1.270279461481525762e-02 5.116360800240513527e+02
1.280281661965632437e-02 5.116404159505438543e+02
1.290283862449738937e-02 5.116447414907423763e+02
1.300286062933845264e-02 5.116490567400402938e+02
1.310288263417951939e-02 5.116533617941057628e+02
1.320290463902058266e-02 5.116576567488727960e+02
1.330292664386164767e-02 5.116619417005352943e+02
1.340294864870271441e-02 5.116662167455399981e+02
1.350297065354377768e-02 5.116704819805776765e+02
1.360299265838484442e-02 5.116747375025790916e+02
1.370301466322590769e-02 5.116789834087063582e+02
1.380303666806697444e-02 5.116832197963460658e+02
1.390305867290803944e-02 5.116874467631004677e+02
1.400308067774910271e-02 5.116916644067856055e+02
1.410310268259016946e-02 5.116958728254174957e+02
1.420312468743123446e-02 5.117000721172115050e+02
1.430314669227229774e-02 5.117042623805707535e+02
1.440316869711336448e-02 5.117084437140800901e+02
1.450319070195442775e-02 5.117126162165016012e+02
1.460321270679549449e-02 5.117167799867645499e+02
1.470323471163655950e-02 5.117209351239588386e+02
1.480325671647762451e-02 5.117250817273296661e+02
1.490327872131868951e-02 5.117292198962692282e+02
1.500330072615975278e-02 5.117333497303097261e+02
1.510332273100081953e-02 5.117374713291148964e+02
1.520334473584188453e-02 5.117415847924773402e+02
1.530336674068294781e-02 5.117456902203073241e+02
1.540338874552401455e-02 5.117497877126261301e+02
1.550341075036507782e-02 5.117538773695615646e+02
1.560343275520614456e-02 5.117579592913385795e+02
1.570345476004721130e-02 5.117620335782729626e+02
1.580347676488827457e-02 5.117661003307642318e+02
1.590349876972933785e-02 5.117701596492894964e+02
1.600352077457040459e-02 5.117742116343949874e+02
1.610354277941146786e-02 5.117782563866901455e+02
1.620356478425253460e-02 5.117822940068392654e+02
1.630358678909359788e-02 5.117863245955562093e+02
1.640360879393466462e-02 5.117903482535972444e+02
1.650363079877573136e-02 5.117943650817516641e+02
1.660365280361679463e-02 5.117983751808384909e+02
1.670367480845786137e-02 5.118023786516953351e+02
1.680369681329892464e-02 5.118063755951753819e+02
1.690371881813999139e-02 5.118103661121381833e+02
1.700374082298105466e-02 5.118143503034427795e+02
1.710376282782211793e-02 5.118183282699403662e+02
1.720378483266318467e-02 5.118223001124702591e+02
1.730380683750424795e-02 5.118262659318484111e+02
1.740382884234531469e-02 5.118302258288641156e+02
1.750385084718638143e-02 5.118341799042715934e+02
1.760387285202744470e-02 5.118381282587823762e+02
1.770389485686851144e-02 5.118420709930604744e+02
1.780391686170957471e-02 5.118460082077128277e+02
1.790393886655063799e-02 5.118499400032851554e+02
1.800396087139170473e-02 5.118538664802534868e+02
1.810398287623276800e-02 5.118577877390161461e+02
1.820400488107383474e-02 5.118617038798897738e+02
1.830402688591490148e-02 5.118656150031004017e+02
1.840404889075596476e-02 5.118695212087772575e+02
1.850407089559703150e-02 5.118734225969453178e+02
1.860409290043809477e-02 5.118773192675193968e+02
1.870411490527916151e-02 5.118812113202970409e+02
1.880413691012022478e-02 5.118850988549511385e+02
1.890415891496129153e-02 5.118889819710241227e+02
1.900418091980235480e-02 5.118928607679204674e+02
1.910420292464341807e-02 5.118967353448994118e+02
1.920422492948448481e-02 5.119006058010706965e+02
1.930424693432555155e-02 5.119044722353830821e+02
1.940426893916661483e-02 5.119083347466245186e+02
1.950429094400768157e-02 5.119121934334079356e+02
1.960431294884874831e-02 5.119160483941706161e+02
1.970433495368981158e-02 5.119198997271635676e+02
1.980435695853087485e-02 5.119237475304470308e+02
1.990437896337193813e-02 5.119275919018820673e+02
2.000440096821300487e-02 5.119314329391266369e+02
2.010442297305407161e-02 5.119352707396269011e+02
2.020444497789513835e-02 5.119391054006106287e+02
2.030446698273619816e-02 5.119429370190806026e+02
2.040448898757726490e-02 5.119467656918095599e+02
2.050451099241833164e-02 5.119505915153322917e+02
2.060453299725939491e-02 5.119544145859392756e+02
2.070455500210046165e-02 5.119582349996699122e+02
2.080457700694152492e-02 5.119620528523078633e+02
2.090459901178259167e-02 5.119658682393715594e+02
2.100462101662365494e-02 5.119696812561098227e+02
2.110464302146472168e-02 5.119734919974958416e+02
2.120466502630578842e-02 5.119773005582187579e+02
2.130468703114684823e-02 5.119811070326791764e+02
2.140470903598791497e-02 5.119849115149818317e+02
2.150473104082898171e-02 5.119887140989288810e+02
2.160475304567004845e-02 5.119925148780150721e+02
2.170477505051111172e-02 5.119963139454197858e+02
2.180479705535217499e-02 5.120001113940020332e+02
2.190481906019323827e-02 5.120039073162927252e+02
2.200484106503430501e-02 5.120077018044905799e+02
2.210486306987537175e-02 5.120114949504531978e+02
2.220488507471643849e-02 5.120152868456931401e+02
2.230490707955749830e-02 5.120190775813708797e+02
2.240492908439856504e-02 5.120228672482890033e+02
2.250495108923963178e-02 5.120266559368847084e+02
2.260497309408069505e-02 5.120304437372259372e+02
2.270499509892176179e-02 5.120342307390036467e+02
2.280501710376282506e-02 5.120380170315257828e+02
2.290503910860389181e-02 5.120418027037118236e+02
2.300506111344495508e-02 5.120455878440882316e+02
2.310508311828602182e-02 5.120493725407778811e+02
2.320510512312708856e-02 5.120531568814999446e+02
2.330512712796814837e-02 5.120569409535594332e+02
2.340514913280921511e-02 5.120607248438435590e+02
2.350517113765028185e-02 5.120645086388155960e+02
2.360519314249134859e-02 5.120682924245079448e+02
2.370521514733241186e-02 5.120720762865171309e+02
2.380523715217347860e-02 5.120758603099989159e+02
2.390525915701453841e-02 5.120796445796610215e+02
2.400528116185560515e-02 5.120834291797576725e+02
2.410530316669667189e-02 5.120872141940837992e+02
2.420532517153773863e-02 5.120909997059709440e+02
2.430534717637880537e-02 5.120947857982797586e+02
2.440536918121986518e-02 5.120985725533942059e+02
2.450539118606093192e-02 5.121023600532180353e+02
2.460541319090199519e-02 5.121061483791668252e+02
2.470543519574306193e-02 5.121099376121644582e+02
2.480545720058412867e-02 5.121137278326358455e+02
2.490547920542519195e-02 5.121175191205031751e+02
2.500550121026625522e-02 5.121213115551785222e+02
2.510552321510732196e-02 5.121251052155595289e+02
2.520554521994838870e-02 5.121289001800257665e+02
2.530556722478945197e-02 5.121326965264294131e+02
2.540558922963051525e-02 5.121364943320933207e+02
2.550561123447158199e-02 5.121402936738038534e+02
2.560563323931264873e-02 5.121440946278064530e+02
2.570565524415371200e-02 5.121478972698007510e+02
2.580567724899477874e-02 5.121517016749339746e+02
2.590569925383583855e-02 5.121555079177967400e+02
2.600572125867690529e-02 5.121593160724191875e+02
2.610574326351797203e-02 5.121631262122630233e+02
2.620576526835903877e-02 5.121669384102179947e+02
2.630578727320010551e-02 5.121707527385973435e+02
2.640580927804116532e-02 5.121745692691324621e+02
2.650583128288223206e-02 5.121783880729674365e+02
2.660585328772329533e-02 5.121822092206543857e+02
2.670587529256436207e-02 5.121860327821484589e+02
2.680589729740542881e-02 5.121898588268034018e+02
2.690591930224649209e-02 5.121936874233662138e+02
2.700594130708755536e-02 5.121975186399725999e+02
2.710596331192862210e-02 5.122013525441426509e+02
2.720598531676968884e-02 5.122051892027747044e+02
2.730600732161075211e-02 5.122090286821429572e+02
2.740602932645181539e-02 5.122128710478900757e+02
2.750605133129288213e-02 5.122167163650250359e+02
2.760607333613394887e-02 5.122205646979168705e+02
2.770609534097501214e-02 5.122244161102913722e+02
2.780611734581607888e-02 5.122282706652250681e+02
2.790613935065714563e-02 5.122321284251423776e+02
2.800616135549820543e-02 5.122359894518106103e+02
2.810618336033927217e-02 5.122398538063346223e+02
2.820620536518033891e-02 5.122437215491542020e+02
2.830622737002140565e-02 5.122475927400375895e+02
2.840624937486246893e-02 5.122514674380794304e+02
2.850627137970353220e-02 5.122553457016953189e+02
2.860629338454459547e-02 5.122592275886178186e+02
2.870631538938566221e-02 5.122631131558921425e+02
2.880633739422672895e-02 5.122670024598722875e+02
2.890635939906779570e-02 5.122708955562164874e+02
2.900638140390885550e-02 5.122747924998839153e+02
2.910640340874992224e-02 5.122786933451303639e+02
2.920642541359098898e-02 5.122825981455034707e+02
2.930644741843205225e-02 5.122865069538404441e+02
2.940646942327311900e-02 5.122904198222624927e+02
2.950649142811418227e-02 5.122943368021720971e+02
2.960651343295524901e-02 5.122982579442485758e+02
2.970653543779631228e-02 5.123021832984447883e+02
2.980655744263737902e-02 5.123061129139834975e+02
2.990657944747844577e-02 5.123100468393524807e+02
3.000660145231950557e-02 5.123139851223021424e+02
3.010662345716057231e-02 5.123179278098421037e+02
3.020664546200163905e-02 5.123218749482365411e+02
3.030666746684270579e-02 5.123258265830007758e+02
3.040668947168376907e-02 5.123297827588994551e+02
3.050671147652483234e-02 5.123337435199409811e+02
3.060673348136589561e-02 5.123377089093750101e+02
3.070675548620696235e-02 5.123416789696894966e+02
3.080677749104802909e-02 5.123456537426063733e+02
3.090679949588909584e-02 5.123496332690804138e+02
3.100682150073015564e-02 5.123536175892919573e+02
3.110684350557122238e-02 5.123576067426479312e+02
3.120686551041228912e-02 5.123616007677775315e+02
3.130688751525335239e-02 5.123655997025276747e+02
3.140690952009442261e-02 5.123696035839601564e+02
3.150693152493547894e-02 5.123736124483513095e+02
3.160695352977654915e-02 5.123776263311859793e+02
3.170697553461761242e-02 5.123816452671557045e+02
3.180699753945867569e-02 5.123856692901561019e+02
3.190701954429974591e-02 5.123896984332830016e+02
3.200704154914080918e-02 5.123937327288318784e+02
3.210706355398187245e-02 5.123977722082931905e+02
3.220708555882293572e-02 5.124018169023488554e+02
3.230710756366400593e-02 5.124058668408728181e+02
3.240712956850506921e-02 5.124099220529246850e+02
3.250715157334613248e-02 5.124139825667500645e+02
3.260717357818719575e-02 5.124180484097770432e+02
3.270719558302826596e-02 5.124221196086132295e+02
3.280721758786932923e-02 5.124261961890431394e+02
3.290723959271039251e-02 5.124302781760275138e+02
3.300726159755146272e-02 5.124343655936987716e+02
3.310728360239252599e-02 5.124384584653605543e+02
3.320730560723358926e-02 5.124425568134838613e+02
3.330732761207465253e-02 5.124466606597061400e+02
3.340734961691572275e-02 5.124507700248291258e+02
3.350737162175678602e-02 5.124548849288145220e+02
3.360739362659784929e-02 5.124590053907859328e+02
3.370741563143891256e-02 5.124631314290214732e+02
3.380743763627998277e-02 5.124672630609588850e+02
3.390745964112104605e-02 5.124714003031856464e+02
3.400748164596210932e-02 5.124755431714434053e+02
3.410750365080317259e-02 5.124796916806226363e+02
3.420752565564423586e-02 5.124838458447620724e+02
3.430754766048530607e-02 5.124880056770472265e+02
3.440756966532636935e-02 5.124921711898077774e+02
3.450759167016743956e-02 5.124963423945170007e+02
3.460761367500849589e-02 5.125005193017884721e+02
3.470763567984956610e-02 5.125047019213768635e+02
3.480765768469062937e-02 5.125088902621744182e+02
3.490767968953169265e-02 5.125130843322095870e+02
3.500770169437276286e-02 5.125172841386481650e+02
3.510772369921381919e-02 5.125214896877878346e+02
3.520774570405488940e-02 5.125257009850600980e+02
3.530776770889595267e-02 5.125299180350275492e+02
3.540778971373702289e-02 5.125341408413837598e+02
3.550781171857808616e-02 5.125383694069493004e+02
3.560783372341914943e-02 5.125426037336752643e+02
3.570785572826021270e-02 5.125468438226372427e+02
3.580787773310127597e-02 5.125510896740372573e+02
3.590789973794234619e-02 5.125553412872029639e+02
3.600792174278340946e-02 5.125595986605840153e+02
3.610794374762447273e-02 5.125638617917547890e+02
3.620796575246553600e-02 5.125681306774094992e+02
3.630798775730660621e-02 5.125724053133656071e+02
3.640800976214766949e-02 5.125766856945597283e+02
3.650803176698873276e-02 5.125809718150487697e+02
3.660805377182980297e-02 5.125852636680086789e+02
3.670807577667086624e-02 5.125895612457329662e+02
3.680809778151192951e-02 5.125938645396339552e+02
3.690811978635299279e-02 5.125981735402414188e+02
3.700814179119406300e-02 5.126024882372004186e+02
3.710816379603512627e-02 5.126068086192746023e+02
3.720818580087618954e-02 5.126111346743423383e+02
3.730820780571725281e-02 5.126154663893977386e+02
3.740822981055832303e-02 5.126198037505503180e+02
3.750825181539938630e-02 5.126241467430254488e+02
3.760827382024044957e-02 5.126284953511625417e+02
3.770829582508151284e-02 5.126328495584173197e+02
3.780831782992258305e-02 5.126372093473578389e+02
3.790833983476364633e-02 5.126415746996697180e+02
3.800836183960470960e-02 5.126459455961514777e+02
3.810838384444577981e-02 5.126503220167169275e+02
3.820840584928683614e-02 5.126547039403945973e+02
3.830842785412790635e-02 5.126590913453279654e+02
3.840844985896896963e-02 5.126634842087765946e+02
3.850847186381003984e-02 5.126678825071142001e+02
3.860849386865110311e-02 5.126722862158305816e+02
3.870851587349216638e-02 5.126766953095329882e+02
3.880853787833322965e-02 5.126811097619427073e+02
3.890855988317429293e-02 5.126855295459006356e+02
3.900858188801536314e-02 5.126899546333630724e+02
3.910860389285641947e-02 5.126943849954051302e+02
3.920862589769749662e-02 5.126988206022198256e+02
3.930864790253855295e-02 5.127032614231198977e+02
3.940866990737962317e-02 5.127077074265381498e+02
3.950869191222068644e-02 5.127121585800268804e+02
3.960871391706174971e-02 5.127166148502602709e+02
3.970873592190281992e-02 5.127210762030346132e+02
3.980875792674387625e-02 5.127255426032694459e+02
3.990877993158495340e-02 5.127300140150077823e+02
4.000880193642600974e-02 5.127344904014173608e+02
4.010882394126707301e-02 5.127389717247922363e+02
4.020884594610814322e-02 5.127434579465528941e+02
4.030886795094920649e-02 5.127479490272480689e+02
4.040888995579027670e-02 5.127524449265563362e+02
4.050891196063133304e-02 5.127569456032852031e+02
4.060893396547239631e-02 5.127614510153748597e+02
4.070895597031346652e-02 5.127659611198984067e+02
4.080897797515452979e-02 5.127704758730620824e+02
4.090899997999560000e-02 5.127749952302090151e+02
4.100902198483666328e-02 5.127795191458187674e+02
4.110904398967772655e-02 5.127840475735092696e+02
4.120906599451878982e-02 5.127885804660392068e+02
4.130908799935985309e-02 5.127931177753084739e+02
4.140911000420092331e-02 5.127976594523597669e+02
4.150913200904198658e-02 5.128022054473808566e+02
4.160915401388304985e-02 5.128067557097070903e+02
4.170917601872412006e-02 5.128113101878213911e+02
4.180919802356518333e-02 5.128158688293571004e+02
4.190922002840624661e-02 5.128204315810985463e+02
4.200924203324730988e-02 5.128249983889860459e+02
4.210926403808837315e-02 5.128295691981145410e+02
4.220928604292944336e-02 5.128341439527363264e+02
4.230930804777050663e-02 5.128387225962650291e+02
4.240933005261157684e-02 5.128433050712751538e+02
4.250935205745264012e-02 5.128478913195057203e+02
4.260937406229369645e-02 5.128524812818625378e+02
4.270939606713476666e-02 5.128570748984185457e+02
4.280941807197582993e-02 5.128616721084190431e+02
4.290944007681690014e-02 5.128662728502824848e+02
4.300946208165796342e-02 5.128708770616003676e+02
4.310948408649901975e-02 5.128754846791443924e+02
4.320950609134009690e-02 5.128800956388668055e+02
4.330952809618115323e-02 5.128847098759006258e+02
4.340955010102222345e-02 5.128893273245654427e+02
4.350957210586328672e-02 5.128939479183694630e+02
4.360959411070434999e-02 5.128985715900098512e+02
4.370961611554542020e-02 5.129031982713780735e+02
4.380963812038647653e-02 5.129078278935609205e+02
4.390966012522755368e-02 5.129124603868443728e+02
4.400968213006861002e-02 5.129170956807161019e+02
4.410970413490967329e-02 5.129217337038667210e+02
4.420972613975074350e-02 5.129263743841956966e+02
4.430974814459180677e-02 5.129310176488116895e+02
4.440977014943287698e-02 5.129356634240367612e+02
4.450979215427393332e-02 5.129403116354094436e+02
4.460981415911499659e-02 5.129449622076872402e+02
4.470983616395606680e-02 5.129496150648495814e+02
4.480985816879713007e-02 5.129542701301026000e+02
4.490988017363820028e-02 5.129589273258793582e+02
4.500990217847926356e-02 5.129635865738459870e+02
4.510992418332032683e-02 5.129682477949044141e+02
4.520994618816139010e-02 5.129729109091936152e+02
4.530996819300245337e-02 5.129775758360950704e+02
4.540999019784352358e-02 5.129822424942366297e+02
4.551001220268458686e-02 5.129869108014921721e+02
4.561003420752565013e-02 5.129915806749911553e+02
4.571005621236672034e-02 5.129962520311166827e+02
4.581007821720778361e-02 5.130009247855109606e+02
4.591010022204884689e-02 5.130055988530813238e+02
4.601012222688991016e-02 5.130102741480000077e+02
4.611014423173097343e-02 5.130149505837097195e+02
4.621016623657204364e-02 5.130196280729269347e+02
4.631018824141310691e-02 5.130243065276471270e+02
4.641021024625417712e-02 5.130289858591471557e+02
4.651023225109524040e-02 5.130336659779881074e+02
4.661025425593629673e-02 5.130383467940222317e+02
4.671027626077736694e-02 5.130430282163940774e+02
4.681029826561843021e-02 5.130477101535457223e+02
4.691032027045950042e-02 5.130523925132206386e+02
4.701034227530056370e-02 5.130570752024684680e+02
4.711036428014163391e-02 5.130617581276477495e+02
4.721038628498269718e-02 5.130664411944298990e+02
4.731040828982375351e-02 5.130711243078059169e+02
4.741043029466482372e-02 5.130758073720874108e+02
4.751045229950588700e-02 5.130804902909131897e+02
4.761047430434695721e-02 5.130851729672524471e+02
4.771049630918802048e-02 5.130898553034093084e+02
4.781051831402907681e-02 5.130945372010269239e+02
4.791054031887015396e-02 5.130992185610928118e+02
4.801056232371121030e-02 5.131038992839422690e+02
4.811058432855228051e-02 5.131085792692631458e+02
4.821060633339334378e-02 5.131132584161013028e+02
4.831062833823440705e-02 5.131179366228628851e+02
4.841065034307547726e-02 5.131226137873214839e+02
4.851067234791653360e-02 5.131272898066217749e+02
4.861069435275761075e-02 5.131319645772830427e+02
4.871071635759866708e-02 5.131366379952066836e+02
4.881073836243973035e-02 5.131413099556772295e+02
4.891076036728080056e-02 5.131459803533697368e+02
4.901078237212186384e-02 5.131506490823552440e+02
4.911080437696293405e-02 5.131553160361017945e+02
4.921082638180399038e-02 5.131599811074844411e+02
4.931084838664505365e-02 5.131646441887853598e+02
4.941087039148612386e-02 5.131693051717024900e+02
4.951089239632718714e-02 5.131739639473527177e+02
4.961091440116825735e-02 5.131786204062766501e+02
4.971093640600932062e-02 5.131832744384445277e+02
4.981095841085038389e-02 5.131879259332614538e+02
4.991098041569144717e-02 5.131925747795714869e+02
5.001100242053251044e-02 5.131972208656627572e+02
5.011102442537358065e-02 5.132018640792754240e+02
5.021104643021464392e-02 5.132065043076025859e+02
5.031106843505570719e-02 5.132111414372988065e+02
5.041109043989677740e-02 5.132157753544834122e+02
5.051111244473784068e-02 5.132204059447478812e+02
5.061113444957890395e-02 5.132250330931587996e+02
5.071115645441996722e-02 5.132296566842653647e+02
5.081117845926103049e-02 5.132342766021034777e+02
5.091120046410210070e-02 5.132388927302012007e+02
5.101122246894316398e-02 5.132435049515852370e+02
5.111124447378423419e-02 5.132481131487857056e+02
5.121126647862529746e-02 5.132527172038414847e+02
5.131128848346635379e-02 5.132573169983055550e+02
5.141131048830742400e-02 5.132619124132525030e+02
5.151133249314848728e-02 5.132665033292819317e+02
5.161135449798955749e-02 5.132710896265247129e+02
5.171137650283062076e-02 5.132756711846486724e+02
5.181139850767167709e-02 5.132802478828658650e+02
5.191142051251275424e-02 5.132848195999354175e+02
5.201144251735381058e-02 5.132893862141718273e+02
5.211146452219488079e-02 5.132939476034492827e+02
5.221148652703594406e-02 5.132985036452078020e+02
5.231150853187700733e-02 5.133030542164601684e+02
5.241153053671807754e-02 5.133075991937961362e+02
5.251155254155913388e-02 5.133121384533886840e+02
5.261157454640021103e-02 5.133166718710019722e+02
5.271159655124126736e-02 5.133211993219940723e+02
5.281161855608233063e-02 5.133257206813251514e+02
5.291164056092340084e-02 5.133302358235632710e+02
5.301166256576446412e-02 5.133347446228890476e+02
5.311168457060553433e-02 5.133392469531040661e+02
5.321170657544659066e-02 5.133437426876346308e+02
5.331172858028765393e-02 5.133482316995390420e+02
5.341175058512872414e-02 5.133527138615143031e+02
5.351177258996978742e-02 5.133571890459004408e+02
5.361179459481085763e-02 5.133616571246878948e+02
5.371181659965192090e-02 5.133661179695251349e+02
5.381183860449298417e-02 5.133705714517207070e+02
5.391186060933404744e-02 5.133750174422557393e+02
5.401188261417511072e-02 5.133794558117830320e+02
5.411190461901618093e-02 5.133838864306386540e+02
5.421192662385724420e-02 5.133883091688466038e+02
5.431194862869830747e-02 5.133927238961254034e+02
5.441197063353937768e-02 5.133971304818933277e+02
5.451199263838044096e-02 5.134015287952763629e+02
5.461201464322150423e-02 5.134059187051134359e+02
5.471203664806256750e-02 5.134103000799633492e+02
5.481205865290363077e-02 5.134146727881114884e+02
5.491208065774470098e-02 5.134190366975757343e+02
5.501210266258576426e-02 5.134233916761133969e+02
5.511212466742683447e-02 5.134277375912273556e+02
5.521214667226789774e-02 5.134320743101727658e+02
5.531216867710895407e-02 5.134364016999643354e+02
5.541219068195002428e-02 5.134407196273803038e+02
5.551221268679108756e-02 5.134450279589732418e+02
5.561223469163215777e-02 5.134493265610722119e+02
5.571225669647322104e-02 5.134536152997935687e+02
5.581227870131429125e-02 5.134578940410434598e+02
5.591230070615535452e-02 5.134621626505278300e+02
5.601232271099641086e-02 5.134664209937573105e+02
5.611234471583748107e-02 5.134706689360544942e+02
5.621236672067854434e-02 5.134749063425604163e+02
5.631238872551961455e-02 5.134791330782411478e+02
5.641241073036067782e-02 5.134833490078963223e+02
5.651243273520173416e-02 5.134875539961618642e+02
5.661245474004281131e-02 5.134917479075211304e+02
5.671247674488386764e-02 5.134959306063090025e+02
5.681249874972493785e-02 5.135001019567198455e+02
5.691252075456600112e-02 5.135042618228137599e+02
5.701254275940706440e-02 5.135084100685232897e+02
5.711256476424813461e-02 5.135125465576610395e+02
5.721258676908919094e-02 5.135166711539261541e+02
5.731260877393026809e-02 5.135207837209098898e+02
5.741263077877132442e-02 5.135248841221053908e+02
5.751265278361238770e-02 5.135289722209120100e+02
5.761267478845345791e-02 5.135330478806426981e+02
5.771269679329452118e-02 5.135371109645325305e+02
5.781271879813559139e-02 5.135411613357421174e+02
5.791274080297664772e-02 5.135451988573693143e+02
5.801276280781771100e-02 5.135492233924526317e+02
5.811278481265878121e-02 5.135532348039785120e+02
5.821280681749984448e-02 5.135572329548899688e+02
5.831282882234091469e-02 5.135612177080922720e+02
5.841285082718197796e-02 5.135651889264604506e+02
5.851287283202304124e-02 5.135691464728444089e+02
5.861289483686410451e-02 5.135730902100808635e+02
5.871291684170516778e-02 5.135770200009945938e+02
5.881293884654623799e-02 5.135809357084081057e+02
5.891296085138730126e-02 5.135848371951497029e+02
5.901298285622836454e-02 5.135887243240583757e+02
5.911300486106943475e-02 5.135925969579921002e+02
5.921302686591049802e-02 5.135964549598344320e+02
5.931304887075156129e-02 5.136002981925017821e+02
5.941307087559262456e-02 5.136041265189503520e+02
5.951309288043368784e-02 5.136079398021834095e+02
5.961311488527475805e-02 5.136117379052582237e+02
5.971313689011582132e-02 5.136155206912922040e+02
5.981315889495689153e-02 5.136192880234731319e+02
5.991318089979795480e-02 5.136230397650608666e+02
6.001320290463901114e-02 5.136267757794000772e+02
6.011322490948008135e-02 5.136304959299237680e+02
6.021324691432114462e-02 5.136342000801620316e+02
6.031326891916221483e-02 5.136378880937472786e+02
6.041329092400327810e-02 5.136415598344243563e+02
6.051331292884433444e-02 5.136452151660542995e+02
6.061333493368541159e-02 5.136488539526238810e+02
6.071335693852646792e-02 5.136524760582524323e+02
6.081337894336753813e-02 5.136560813471970732e+02
6.091340094820860140e-02 5.136596696838619209e+02
6.101342295304966468e-02 5.136632409328043423e+02
6.111344495789073489e-02 5.136667949587425710e+02
6.121346696273179122e-02 5.136703316265613921e+02
6.131348896757286837e-02 5.136738508013212368e+02
6.141351097241392470e-02 5.136773523482644350e+02
6.151353297725498798e-02 5.136808361328210140e+02
6.161355498209605819e-02 5.136843020206179062e+02
6.171357698693712146e-02 5.136877498774855439e+02
6.181359899177819167e-02 5.136911795694634293e+02
6.191362099661924800e-02 5.136945909628096842e+02
6.201364300146031128e-02 5.136979839240059391e+02
6.211366500630138149e-02 5.137013583197662001e+02
6.221368701114244476e-02 5.137047140170417379e+02
6.231370901598351497e-02 5.137080508830308645e+02
6.241373102082457824e-02 5.137113687851849591e+02
6.251375302566564152e-02 5.137146675912132423e+02
6.261377503050670479e-02 5.137179471690947139e+02
6.271379703534776806e-02 5.137212073870806535e+02
6.281381904018884521e-02 5.137244481137032608e+02
6.291384104502989461e-02 5.137276692177838413e+02
6.301386304987095788e-02 5.137308705684395136e+02
6.311388505471203503e-02 5.137340520350875295e+02
6.321390705955309830e-02 5.137372134874570975e+02
6.331392906439416157e-02 5.137403547955917702e+02
6.341395106923522484e-02 5.137434758298595625e+02
6.351397307407628812e-02 5.137465764609592043e+02
6.361399507891735139e-02 5.137496565599261658e+02
6.371401708375841466e-02 5.137527159981400473e+02
6.381403908859949181e-02 5.137557546473336743e+02
6.391406109344055508e-02 5.137587723795973034e+02
6.401408309828161836e-02 5.137617690673855577e+02
6.411410510312268163e-02 5.137647445835277722e+02
6.421412710796374490e-02 5.137676988012304946e+02
6.431414911280480817e-02 5.137706315940888544e+02
6.441417111764587144e-02 5.137735428360888363e+02
6.451419312248694860e-02 5.137764324016195587e+02
6.461421512732801187e-02 5.137793001654741829e+02
6.471423713216907514e-02 5.137821460028624188e+02
6.481425913701013841e-02 5.137849697894140490e+02
6.491428114185120168e-02 5.137877714011863191e+02
6.501430314669226496e-02 5.137905507146715536e+02
6.511432515153332823e-02 5.137933076068044329e+02
6.521434715637439150e-02 5.137960419549664266e+02
6.531436916121546865e-02 5.137987536369964801e+02
6.541439116605653192e-02 5.138014425311936293e+02
6.551441317089759520e-02 5.138041085163271191e+02
6.561443517573865847e-02 5.138067514716408368e+02
6.571445718057972174e-02 5.138093712768628620e+02
6.581447918542078501e-02 5.138119678122086498e+02
6.591450119026184828e-02 5.138145409583909213e+02
6.601452319510292543e-02 5.138170905966253486e+02
6.611454519994398871e-02 5.138196166086356698e+02
6.621456720478505198e-02 5.138221188766631258e+02
6.631458920962611525e-02 5.138245972834707800e+02
6.641461121446717852e-02 5.138270517123524996e+02
6.651463321930824180e-02 5.138294820471377307e+02
6.661465522414930507e-02 5.138318881721979778e+02
6.671467722899036834e-02 5.138342699724554450e+02
6.681469923383144549e-02 5.138366273333876961e+02
6.691472123867250876e-02 5.138389601410344767e+02
6.701474324351357204e-02 5.138412682820064674e+02
6.711476524835463531e-02 5.138435516434876718e+02
6.721478725319569858e-02 5.138458101132459888e+02
6.731480925803676185e-02 5.138480435796383290e+02
6.741483126287782512e-02 5.138502519316147072e+02
6.751485326771890227e-02 5.138524350587299523e+02
6.761487527255996555e-02 5.138545928511439342e+02
6.771489727740101494e-02 5.138567251996335017e+02
6.781491928224209209e-02 5.138588319955955512e+02
6.791494128708315536e-02 5.138609131310531666e+02
6.801496329192421864e-02 5.138629684986655093e+02
6.811498529676528191e-02 5.138649979917298651e+02
6.821500730160634518e-02 5.138670015041909664e+02
6.831502930644742233e-02 5.138689789306457669e+02
6.841505131128847172e-02 5.138709301663495808e+02
6.851507331612954887e-02 5.138728551072242681e+02
6.861509532097061215e-02 5.138747536498618729e+02
6.871511732581167542e-02 5.138766256915321264e+02
6.881513933065273869e-02 5.138784711301898369e+02
6.891516133549380196e-02 5.138802898644775041e+02
6.901518334033487911e-02 5.138820817937357788e+02
6.911520534517592851e-02 5.138838468180061909e+02
6.921522735001699178e-02 5.138855848380391080e+02
6.931524935485806893e-02 5.138872957552981688e+02
6.941527135969913220e-02 5.138889794719681277e+02
6.951529336454019548e-02 5.138906358909601977e+02
6.961531536938125875e-02 5.138922649159172806e+02
6.971533737422232202e-02 5.138938664512207879e+02
6.981535937906338529e-02 5.138954404019958702e+02
6.991538138390444856e-02 5.138969866741177839e+02
7.001540338874552571e-02 5.138985051742182577e+02
7.011542539358658899e-02 5.138999958096890168e+02
7.021544739842763838e-02 5.139014584886917874e+02
7.031546940326871553e-02 5.139028931201592059e+02
7.041549140810977880e-02 5.139042996138040280e+02
7.051551341295084208e-02 5.139056778801241308e+02
7.061553541779190535e-02 5.139070278304061503e+02
7.071555742263296862e-02 5.139083493767345772e+02
7.081557942747404577e-02 5.139096424319948255e+02
7.091560143231509517e-02 5.139109069098797136e+02
7.101562343715617232e-02 5.139121427248943519e+02
7.111564544199723559e-02 5.139133497923627374e+02
7.121566744683829886e-02 5.139145280284333239e+02
7.131568945167936213e-02 5.139156773500831150e+02
7.141571145652042540e-02 5.139167976751235756e+02
7.151573346136150255e-02 5.139178889222080215e+02
7.161575546620255195e-02 5.139189510108335526e+02
7.171577747104361522e-02 5.139199838613494649e+02
7.181579947588469237e-02 5.139209873949607754e+02
7.191582148072575564e-02 5.139219615337336791e+02
7.201584348556681892e-02 5.139229062006021422e+02
7.211586549040788219e-02 5.139238213193717684e+02
7.221588749524894546e-02 5.139247068147249138e+02
7.231590950009000873e-02 5.139255626122264857e+02
7.241593150493107200e-02 5.139263886383289446e+02
7.251595350977214915e-02 5.139271848203775335e+02
7.261597551461321243e-02 5.139279510866145984e+02
7.271599751945427570e-02 5.139286873661851587e+02
7.281601952429533897e-02 5.139293935891419096e+02
7.291604152913640224e-02 5.139300696864502243e+02
7.301606353397746552e-02 5.139307155899924737e+02
7.311608553881852879e-02 5.139313312325733705e+02
7.321610754365960594e-02 5.139319165479249705e+02
7.331612954850066921e-02 5.139324714707111070e+02
7.341615155334173248e-02 5.139329959365318246e+02
7.351617355818279576e-02 5.139334898819295177e+02
7.361619556302385903e-02 5.139339532443915459e+02
7.371621756786492230e-02 5.139343859623562594e+02
7.381623957270598557e-02 5.139347879752178869e+02
7.391626157754704884e-02 5.139351592233301744e+02
7.401628358238812599e-02 5.139354996480102500e+02
7.411630558722918927e-02 5.139358091915461273e+02
7.421632759207025254e-02 5.139360877971978425e+02
7.431634959691131581e-02 5.139363354092033660e+02
7.441637160175237908e-02 5.139365519727818992e+02
7.451639360659344236e-02 5.139367374341418326e+02
7.461641561143450563e-02 5.139368917404792683e+02
7.471643761627558278e-02 5.139370148399881373e+02
7.481645962111664605e-02 5.139371066818584950e+02
7.491648162595770932e-02 5.139371672162862978e+02
7.501650363079877259e-02 5.139371963944741992e+02
7.511652563563983587e-02 5.139371941686365517e+02
7.521654764048089914e-02 5.139371604920038408e+02
7.531656964532196241e-02 5.139370953188249587e+02
7.541659165016302568e-02 5.139369986043743666e+02
7.551661365500410283e-02 5.139368703049531177e+02
7.561663565984516611e-02 5.139367103778938599e+02
7.571665766468622938e-02 5.139365187815642457e+02
7.581667966952729265e-02 5.139362954753727308e+02
7.591670167436835592e-02 5.139360404197685739e+02
7.601672367920941920e-02 5.139357535762499083e+02
7.611674568405048247e-02 5.139354349073622643e+02
7.621676768889155962e-02 5.139350843767086872e+02
7.631678969373262289e-02 5.139347019489476907e+02
7.641681169857367228e-02 5.139342875897991689e+02
7.651683370341474943e-02 5.139338412660481481e+02
7.661685570825581271e-02 5.139333629455471737e+02
7.671687771309687598e-02 5.139328525972211992e+02
7.681689971793793925e-02 5.139323101910694049e+02
7.691692172277900252e-02 5.139317356981688363e+02
7.701694372762007967e-02 5.139311290906798604e+02
7.711696573246112907e-02 5.139304903418458252e+02
7.721698773730220622e-02 5.139298194259984029e+02
7.731700974214326949e-02 5.139291163185615687e+02
7.741703174698433276e-02 5.139283809960517146e+02
7.751705375182539604e-02 5.139276134360843571e+02
7.761707575666645931e-02 5.139268136173739094e+02
7.771709776150753646e-02 5.139259815197392527e+02
7.781711976634858585e-02 5.139251171241049860e+02
7.791714177118964912e-02 5.139242204125037006e+02
7.801716377603072627e-02 5.139232913680830279e+02
7.811718578087178955e-02 5.139223299751016611e+02
7.821720778571283894e-02 5.139213362189391319e+02
7.831722979055391609e-02 5.139203100860918312e+02
7.841725179539499324e-02 5.139192515641823320e+02
7.851727380023604264e-02 5.139181606419552963e+02
7.861729580507710591e-02 5.139170373092865702e+02
7.871731780991818306e-02 5.139158815571806826e+02
7.881733981475924633e-02 5.139146933777757340e+02
7.891736181960029572e-02 5.139134727643444194e+02
7.901738382444137287e-02 5.139122197112983486e+02
7.911740582928245002e-02 5.139109342141883872e+02
7.921742783412349942e-02 5.139096162697082946e+02
7.931744983896456269e-02 5.139082658756956334e+02
7.941747184380563984e-02 5.139068830311357488e+02
7.951749384864668924e-02 5.139054677361624499e+02
7.961751585348775251e-02 5.139040199920597161e+02
7.971753785832882966e-02 5.139025398012652204e+02
7.981755986316990681e-02 5.139010271673724901e+02
7.991758186801095620e-02 5.138994820951298834e+02
8.001760387285201948e-02 5.138979045904468421e+02
8.011762587769309663e-02 5.138962946603912769e+02
8.021764788253414602e-02 5.138946523131953654e+02
8.031766988737520929e-02 5.138929775582543016e+02
8.041769189221628644e-02 5.138912704061291379e+02
8.051771389705733584e-02 5.138895308685491727e+02
8.061773590189841299e-02 5.138877589584120642e+02
8.071775790673947626e-02 5.138859546897861037e+02
8.081777991158055341e-02 5.138841180779124898e+02
8.091780191642160280e-02 5.138822491392044185e+02
8.101782392126266608e-02 5.138803478912524270e+02
8.111784592610374323e-02 5.138784143528204140e+02
8.121786793094479262e-02 5.138764485438520069e+02
8.131788993578586977e-02 5.138744504854693105e+02
8.141791194062693304e-02 5.138724201999725665e+02
8.151793394546799632e-02 5.138703577108453828e+02
8.161795595030905959e-02 5.138682630427537106e+02
8.171797795515012286e-02 5.138661362215443660e+02
8.181799995999120001e-02 5.138639772742507148e+02
8.191802196483224940e-02 5.138617862290901712e+02
8.201804396967332655e-02 5.138595631154669263e+02
8.211806597451438983e-02 5.138573079639708112e+02
8.221808797935545310e-02 5.138550208063808213e+02
8.231810998419651637e-02 5.138527016756636385e+02
8.241813198903757964e-02 5.138503506059746542e+02
8.251815399387864292e-02 5.138479676326600156e+02
8.261817599871970619e-02 5.138455527922553756e+02
8.271819800356078334e-02 5.138431061224871428e+02
8.281822000840184661e-02 5.138406276622735049e+02
8.291824201324290988e-02 5.138381174517246563e+02
8.301826401808397315e-02 5.138355755321420020e+02
8.311828602292503643e-02 5.138330019460196354e+02
8.321830802776609970e-02 5.138303967370449072e+02
8.331833003260716297e-02 5.138277599500972883e+02
8.341835203744824012e-02 5.138250916312500749e+02
8.351837404228928952e-02 5.138223918277695930e+02
8.361839604713036667e-02 5.138196605881148571e+02
8.371841805197142994e-02 5.138168979619380252e+02
8.381844005681249321e-02 5.138141040000859903e+02
8.391846206165355648e-02 5.138112787545969695e+02
8.401848406649461976e-02 5.138084222787039153e+02
8.411850607133569691e-02 5.138055346268303083e+02
8.421852807617674630e-02 5.138026158545944782e+02
8.431855008101782345e-02 5.137996660188059650e+02
8.441857208585888672e-02 5.137966851774657471e+02
8.451859409069993612e-02 5.137936733897670365e+02
8.461861609554101327e-02 5.137906307160938013e+02
8.471863810038207654e-02 5.137875572180199697e+02
8.481866010522315369e-02 5.137844529583107942e+02
8.491868211006420308e-02 5.137813180009189864e+02
8.501870411490528023e-02 5.137781524109877864e+02
8.511872611974634351e-02 5.137749562548477797e+02
8.521874812458739290e-02 5.137717296000153056e+02
8.531877012942847005e-02 5.137684725151954126e+02
8.541879213426953332e-02 5.137651850702765159e+02
8.551881413911061047e-02 5.137618673363331254e+02
8.561883614395165987e-02 5.137585193856226624e+02
8.571885814879273702e-02 5.137551412915848914e+02
8.581888015363380029e-02 5.137517331288408968e+02
8.591890215847484968e-02 5.137482949731934241e+02
8.601892416331592683e-02 5.137448269016223321e+02
8.611894616815699011e-02 5.137413289922868671e+02
8.621896817299803950e-02 5.137378013245220245e+02
8.631899017783911665e-02 5.137342439788391175e+02
8.641901218268019380e-02 5.137306570369220253e+02
8.651903418752125707e-02 5.137270405816271932e+02
8.661905619236230647e-02 5.137233946969827230e+02
8.671907819720338362e-02 5.137197194681855308e+02
8.681910020204444689e-02 5.137160149816006651e+02
8.691912220688549628e-02 5.137122813247580098e+02
8.701914421172657343e-02 5.137085185863536481e+02
8.711916621656765058e-02 5.137047268562447471e+02
8.721918822140869998e-02 5.137009062254500122e+02
8.731921022624976325e-02 5.136970567861463906e+02
8.741923223109084040e-02 5.136931786316690705e+02
8.751925423593190367e-02 5.136892718565067071e+02
8.761927624077295307e-02 5.136853365563021043e+02
8.771929824561403022e-02 5.136813728278482358e+02
8.781932025045510737e-02 5.136773807690874492e+02
8.791934225529615676e-02 5.136733604791081689e+02
8.801936426013722004e-02 5.136693120581434187e+02
8.811938626497829719e-02 5.136652356075687749e+02
8.821940826981934658e-02 5.136611312298983876e+02
8.831943027466040985e-02 5.136569990287855489e+02
8.841945227950148700e-02 5.136528391090165542e+02
8.851947428434256415e-02 5.136486515765116110e+02
8.861949628918361355e-02 5.136444365383201784e+02
8.871951829402467682e-02 5.136401941026188069e+02
8.881954029886575397e-02 5.136359243787102287e+02
8.891956230370680336e-02 5.136316274770164227e+02
8.901958430854786664e-02 5.136273035090814574e+02
8.911960631338894379e-02 5.136229525875644413e+02
8.921962831822999318e-02 5.136185748262375910e+02
8.931965032307107033e-02 5.136141703399850940e+02
8.941967232791213360e-02 5.136097392447983339e+02
8.951969433275321075e-02 5.136052816577735030e+02
8.961971633759426015e-02 5.136007976971080780e+02
8.971973834243532342e-02 5.135962874820990010e+02
8.981976034727640057e-02 5.135917511331381320e+02
8.991978235211744996e-02 5.135871887717099753e+02
9.001980435695852711e-02 5.135826005203865634e+02
9.011982636179959039e-02 5.135779865028282529e+02
9.021984836664065366e-02 5.135733468437764486e+02
9.031987037148171693e-02 5.135686816690503065e+02
9.041989237632278020e-02 5.135639911055470748e+02
9.051991438116385735e-02 5.135592752812341359e+02
9.061993638600490675e-02 5.135545343251482109e+02
9.071995839084598390e-02 5.135497683673897882e+02
9.081998039568704717e-02 5.135449775391222147e+02
9.092000240052811044e-02 5.135401619725661249e+02
9.102002440536917371e-02 5.135353218009944385e+02
9.112004641021023699e-02 5.135304571587312239e+02
9.122006841505130026e-02 5.135255681811471504e+02
9.132009041989236353e-02 5.135206550046544862e+02
9.142011242473344068e-02 5.135157177667038013e+02
9.152013442957450395e-02 5.135107566057806707e+02
9.162015643441556723e-02 5.135057716614001038e+02
9.172017843925663050e-02 5.135007630741040430e+02
9.182020044409769377e-02 5.134957309854565892e+02
9.192022244893875704e-02 5.134906755380385448e+02
9.202024445377982032e-02 5.134855968754465039e+02
9.212026645862089747e-02 5.134804951422852355e+02
9.222028846346194686e-02 5.134753704841638182e+02
9.232031046830302401e-02 5.134702230476937075e+02
9.242033247314408728e-02 5.134650529804820280e+02
9.252035447798515055e-02 5.134598604311272538e+02
9.262037648282621383e-02 5.134546455492156838e+02
9.272039848766727710e-02 5.134494084853168943e+02
9.282042049250835425e-02 5.134441493909778274e+02
9.292044249734940364e-02 5.134388684187191529e+02
9.302046450219048079e-02 5.134335657220306075e+02
9.312048650703154407e-02 5.134282414553665603e+02
9.322050851187259346e-02 5.134228957741387376e+02
9.332053051671367061e-02 5.134175288347158812e+02
9.342055252155473388e-02 5.134121407944144266e+02
9.352057452639581103e-02 5.134067318114965701e+02
9.362059653123686043e-02 5.134013020451632201e+02
9.372061853607793758e-02 5.133958516555516098e+02
9.382064054091900085e-02 5.133903808037263161e+02
9.392066254576005024e-02 5.133848896516785771e+02
9.402068455060112739e-02 5.133793783623182208e+02
9.412070655544219067e-02 5.133738470994685485e+02
9.422072856028326782e-02 5.133682960278626979e+02
9.432075056512431721e-02 5.133627253131373891e+02
9.442077256996539436e-02 5.133571351218276959e+02
9.452079457480645763e-02 5.133515256213613611e+02
9.462081657964750703e-02 5.133458969800537943e+02
9.472083858448858418e-02 5.133402493671015918e+02
9.482086058932964745e-02 5.133345829525803765e+02
9.492088259417069684e-02 5.133288979074350209e+02
9.502090459901177399e-02 5.133231944034758953e+02
9.512092660385285114e-02 5.133174726133738659e+02
9.522094860869391442e-02 5.133117327106533594e+02
9.532097061353496381e-02 5.133059748696883844e+02
9.542099261837604096e-02 5.133001992656946868e+02
9.552101462321710423e-02 5.132944060747249750e+02
9.562103662805815363e-02 5.132885954736632357e+02
9.572105863289923078e-02 5.132827676402189354e+02
9.582108063774030793e-02 5.132769227529211093e+02
9.592110264258135732e-02 5.132710609911113124e+02
9.602112464742242059e-02 5.132651825349397541e+02
9.612114665226349774e-02 5.132592875653557485e+02
9.622116865710456102e-02 5.132533762641065778e+02
9.632119066194561041e-02 5.132474488137261233e+02
9.642121266678668756e-02 5.132415053975338424e+02
9.652123467162776471e-02 5.132355461996237409e+02
9.662125667646881411e-02 5.132295714048615309e+02
9.672127868130987738e-02 5.132235811988764453e+02
9.682130068615095453e-02 5.132175757680571451e+02
9.692132269099200392e-02 5.132115552995417147e+02
9.702134469583306720e-02 5.132055199812159572e+02
9.712136670067414435e-02 5.131994700017025934e+02
9.722138870551522150e-02 5.131934055503567151e+02
9.732141071035627089e-02 5.131873268172606686e+02
9.742143271519733416e-02 5.131812339932150735e+02
9.752145472003841131e-02 5.131751272697326840e+02
9.762147672487946071e-02 5.131690068390345232e+02
9.772149872972052398e-02 5.131628728940387418e+02
9.782152073456160113e-02 5.131567256283567531e+02
9.792154273940265052e-02 5.131505652362877754e+02
9.802156474424372767e-02 5.131443919128082598e+02
9.812158674908479095e-02 5.131382058535680244e+02
9.822160875392586810e-02 5.131320072548820690e+02
9.832163075876691749e-02 5.131257963137253455e+02
9.842165276360798076e-02 5.131195732277235493e+02
9.852167476844905791e-02 5.131133381951474348e+02
9.862169677329010731e-02 5.131070914149072451e+02
9.872171877813118446e-02 5.131008330865424796e+02
9.882174078297224773e-02 5.130945634102173472e+02
9.892176278781331100e-02 5.130882825867132624e+02
9.902178479265437427e-02 5.130819908174206603e+02
9.912180679749543755e-02 5.130756883043330845e+02
9.922182880233651470e-02 5.130693752500405935e+02
9.932185080717756409e-02 5.130630518577197563e+02
9.942187281201864124e-02 5.130567183311294457e+02
9.952189481685970451e-02 5.130503748746026531e+02
9.962191682170076779e-02 5.130440216930376209e+02
9.972193882654183106e-02 5.130376589918934087e+02
9.982196083138289433e-02 5.130312869771792066e+02
9.992198283622395760e-02 5.130249058554503563e+02
1.000220048410650209e-01 5.130185158337978919e+02
1.001220268459060980e-01 5.130121171198441061e+02
1.002220488507471613e-01 5.130057099217325458e+02
1.003220708555882246e-01 5.129992944481207360e+02
1.004220928604292878e-01 5.129928709081739271e+02
1.005221148652703511e-01 5.129864395115572506e+02
1.006221368701114144e-01 5.129800004684284431e+02
1.007221588749524777e-01 5.129735539894280691e+02
1.008221808797935548e-01 5.129671002856740643e+02
1.009222028846346042e-01 5.129606395687528675e+02
1.010222248894756814e-01 5.129541720507140781e+02
1.011222468943167446e-01 5.129476979440590867e+02
1.012222688991578079e-01 5.129412174617359597e+02
1.013222909039988712e-01 5.129347308171300028e+02
1.014223129088399344e-01 5.129282382240588731e+02
1.015223349136810116e-01 5.129217398967596182e+02
1.016223569185220610e-01 5.129152360498868575e+02
1.017223789233631381e-01 5.129087268984997081e+02
1.018224009282042014e-01 5.129022126580576924e+02
1.019224229330452508e-01 5.128956935444097098e+02
1.020224449378863280e-01 5.128891697737891491e+02
1.021224669427273912e-01 5.128826415628025188e+02
1.022224889475684684e-01 5.128761091284254690e+02
1.023225109524095178e-01 5.128695726879901713e+02
1.024225329572505949e-01 5.128630324591819090e+02
1.025225549620916582e-01 5.128564886600264572e+02
1.026225769669327076e-01 5.128499415088861042e+02
1.027225989717737847e-01 5.128433912244491921e+02
1.028226209766148480e-01 5.128368380257228409e+02
1.029226429814559252e-01 5.128302821320228304e+02
1.030226649862969746e-01 5.128237237629683705e+02
1.031226869911380517e-01 5.128171631384727789e+02
1.032227089959791150e-01 5.128106004787346137e+02
1.033227310008201644e-01 5.128040360042298289e+02
1.034227530056612415e-01 5.127974699357027930e+02
1.035227750105023048e-01 5.127909024941606049e+02
1.036227970153433542e-01 5.127843339008604744e+02
1.037228190201844313e-01 5.127777643773064256e+02
1.038228410250255085e-01 5.127711941452358815e+02
1.039228630298665718e-01 5.127646234266168221e+02
1.040228850347076212e-01 5.127580524436332325e+02
1.041229070395486983e-01 5.127514814186815784e+02
1.042229290443897616e-01 5.127449105743611426e+02
1.043229510492308110e-01 5.127383401334637938e+02
1.044229730540718881e-01 5.127317703189679605e+02
1.045229950589129653e-01 5.127252013540287408e+02
1.046230170637540147e-01 5.127186334619697163e+02
1.047230390685950779e-01 5.127120668662746539e+02
1.048230610734361551e-01 5.127055017905789782e+02
1.049230830782772184e-01 5.126989384586615870e+02
1.050231050831182678e-01 5.126923770944350736e+02
1.051231270879593449e-01 5.126858179219381100e+02
1.052231490928004221e-01 5.126792611653276026e+02
1.053231710976414714e-01 5.126727070488689151e+02
1.054231931024825347e-01 5.126661557969274554e+02
1.055232151073236119e-01 5.126596076339600359e+02
1.056232371121646613e-01 5.126530627845075969e+02
1.057232591170057245e-01 5.126465214731844071e+02
1.058232811218468017e-01 5.126399839246713555e+02
1.059233031266878788e-01 5.126334503637052649e+02
1.060233251315289282e-01 5.126269210150730942e+02
1.061233471363699915e-01 5.126203961036001147e+02
1.062233691412110687e-01 5.126138758541437710e+02
1.063233911460521181e-01 5.126073604915841315e+02
1.064234131508931813e-01 5.126008502408129743e+02
1.065234351557342585e-01 5.125943453267304903e+02
1.066234571605753079e-01 5.125878459742297082e+02
1.067234791654163850e-01 5.125813524081935384e+02
1.068235011702574483e-01 5.125748648534838594e+02
1.069235231750985254e-01 5.125683835349306037e+02
1.070235451799395748e-01 5.125619086773270965e+02
1.071235671847806381e-01 5.125554405054188010e+02
1.072235891896217153e-01 5.125489792438943368e+02
1.073236111944627647e-01 5.125425251173780907e+02
1.074236331993038418e-01 5.125360783504211213e+02
1.075236552041449051e-01 5.125296391674911547e+02
1.076236772089859683e-01 5.125232077929642855e+02
1.077236992138270316e-01 5.125167844511183830e+02
1.078237212186680949e-01 5.125103693661210400e+02
1.079237432235091720e-01 5.125039627620226383e+02
1.080237652283502214e-01 5.124975648627477085e+02
1.081237872331912986e-01 5.124911758920839020e+02
1.082238092380323619e-01 5.124847960736767618e+02
1.083238312428734251e-01 5.124784256310167621e+02
1.084238532477144884e-01 5.124720647874356700e+02
1.085238752525555517e-01 5.124657137660922217e+02
1.086238972573966149e-01 5.124593727899668920e+02
1.087239192622376782e-01 5.124530420818518905e+02
1.088239412670787554e-01 5.124467218643426349e+02
1.089239632719198186e-01 5.124404123598286560e+02
1.090239852767608819e-01 5.124341137904845027e+02
1.091240072816019452e-01 5.124278263782618978e+02
1.092240292864430085e-01 5.124215503448801883e+02
1.093240512912840717e-01 5.124152859118179322e+02
1.094240732961251350e-01 5.124090333003026672e+02
1.095240953009662122e-01 5.124027927313047712e+02
1.096241173058072615e-01 5.123965644255262077e+02
1.097241393106483387e-01 5.123903486033929084e+02
1.098241613154894020e-01 5.123841454850455648e+02
1.099241833203304652e-01 5.123779552903309877e+02
1.100242053251715285e-01 5.123717782387936950e+02
1.101242273300125918e-01 5.123656145496657928e+02
1.102242493348536689e-01 5.123594644418601547e+02
1.103242713396947183e-01 5.123533281339591667e+02
1.104242933445357955e-01 5.123472058442085881e+02
1.105243153493768588e-01 5.123410977905072059e+02
1.106243373542179081e-01 5.123350041903971714e+02
1.107243593590589853e-01 5.123289252610584299e+02
1.108243813639000486e-01 5.123228612192964420e+02
1.109244033687411257e-01 5.123168122815359311e+02
1.110244253735821751e-01 5.123107786638098560e+02
1.111244473784232523e-01 5.123047605817531576e+02
1.112244693832643155e-01 5.122987582505921864e+02
1.113244913881053649e-01 5.122927718851365171e+02
1.114245133929464421e-01 5.122868016997708764e+02
1.115245353977875054e-01 5.122808479084455939e+02
1.116245574026285825e-01 5.122749107246681888e+02
1.117245794074696319e-01 5.122689903614937066e+02
1.118246014123107090e-01 5.122630870315197171e+02
1.119246234171517723e-01 5.122572009468718761e+02
1.120246454219928217e-01 5.122513323191998325e+02
1.121246674268338989e-01 5.122454813596671102e+02
1.122246894316749621e-01 5.122396482789417860e+02
1.123247114365160115e-01 5.122338332871893272e+02
1.124247334413570887e-01 5.122280365940628144e+02
1.125247554461981658e-01 5.122222584086945290e+02
1.126247774510392291e-01 5.122164989396876535e+02
1.127247994558802785e-01 5.122107583951077459e+02
1.128248214607213556e-01 5.122050369824735299e+02
1.129248434655624189e-01 5.121993349087498473e+02
1.130248654704034683e-01 5.121936523803370847e+02
1.131248874752445455e-01 5.121879896030638974e+02
1.132249094800856226e-01 5.121823467821792519e+02
1.133249314849266720e-01 5.121767241223419660e+02
1.134249534897677353e-01 5.121711218276145701e+02
1.135249754946088124e-01 5.121655401014529616e+02
1.136249974994498757e-01 5.121599791466996976e+02
1.137250195042909251e-01 5.121544391655730806e+02
1.138250415091320022e-01 5.121489203596620428e+02
1.139250635139730794e-01 5.121434229299150047e+02
1.140250855188141288e-01 5.121379470766325994e+02
1.141251075236551921e-01 5.121324929994592594e+02
1.142251295284962692e-01 5.121270608973755998e+02
1.143251515333373186e-01 5.121216509686877316e+02
1.144251735381783819e-01 5.121162634110219187e+02
1.145251955430194590e-01 5.121108984213160511e+02
1.146252175478605362e-01 5.121055561958073667e+02
1.147252395527015856e-01 5.121002369300292685e+02
1.148252615575426488e-01 5.120949408188007510e+02
1.149252835623837260e-01 5.120896680562185566e+02
1.150253055672247754e-01 5.120844188356481936e+02
1.151253275720658387e-01 5.120791933497172295e+02
1.152253495769069158e-01 5.120739917903061951e+02
1.153253715817479652e-01 5.120688143485416504e+02
1.154253935865890424e-01 5.120636612147854976e+02
1.155254155914301056e-01 5.120585325786291833e+02
1.156254375962711828e-01 5.120534286288868770e+02
1.157254596011122322e-01 5.120483495535827387e+02
1.158254816059532954e-01 5.120432955399485309e+02
1.159255036107943726e-01 5.120382667744115679e+02
1.160255256156354220e-01 5.120332634425885772e+02
1.161255476204764991e-01 5.120282857292777408e+02
1.162255696253175624e-01 5.120233338184491458e+02
1.163255916301586257e-01 5.120184078932404645e+02
1.164256136349996890e-01 5.120135081359455853e+02
1.165256356398407522e-01 5.120086347280083601e+02
1.166256576446818294e-01 5.120037878500145325e+02
1.167256796495228788e-01 5.119989676816843485e+02
1.168257016543639559e-01 5.119941744018644840e+02
1.169257236592050192e-01 5.119894081885198602e+02
1.170257456640460825e-01 5.119846692187277313e+02
1.171257676688871457e-01 5.119799576686673390e+02
1.172257896737282090e-01 5.119752737136155929e+02
1.173258116785692723e-01 5.119706175279361560e+02
1.174258336834103356e-01 5.119659892850738174e+02
1.175258556882514127e-01 5.119613891575470461e+02
1.176258776930924760e-01 5.119568173169395777e+02
1.177258996979335393e-01 5.119522739338941619e+02
1.178259217027746025e-01 5.119477591781027854e+02
1.179259437076156658e-01 5.119432732183029202e+02
1.180259657124567291e-01 5.119388162222667233e+02
1.181259877172977923e-01 5.119343883567949547e+02
1.182260097221388695e-01 5.119299897877112926e+02
1.183260317269799189e-01 5.119256206798516473e+02
1.184260537318209960e-01 5.119212811970598409e+02
1.185260757366620593e-01 5.119169715021797060e+02
1.186260977415031226e-01 5.119126917570467867e+02
1.187261197463441859e-01 5.119084421224823700e+02
1.188261417511852491e-01 5.119042227582866644e+02
1.189261637560263263e-01 5.119000338232297054e+02
1.190261857608673757e-01 5.118958754750470916e+02
1.191262077657084528e-01 5.118917478704305495e+02
1.192262297705495161e-01 5.118876511650227030e+02
1.193262517753905655e-01 5.118835855134082067e+02
1.194262737802316426e-01 5.118795510691106756e+02
1.195262957850727059e-01 5.118755479845802938e+02
1.196263177899137831e-01 5.118715764111921089e+02
1.197263397947548325e-01 5.118676364992358003e+02
1.198263617995959096e-01 5.118637283979104495e+02
1.199263838044369729e-01 5.118598522553185148e+02
1.200264058092780223e-01 5.118560082184563953e+02
1.201264278141190994e-01 5.118521964332117022e+02
1.202264498189601627e-01 5.118484170443530843e+02
1.203264718238012398e-01 5.118446701955257936e+02
1.204264938286422892e-01 5.118409560292444667e+02
1.205265158334833664e-01 5.118372746868865306e+02
1.206265378383244297e-01 5.118336263086866325e+02
1.207265598431654791e-01 5.118300110337284536e+02
1.208265818480065562e-01 5.118264289999403900e+02
1.209266038528476195e-01 5.118228803440878210e+02
1.210266258576886689e-01 5.118193652017674822e+02
1.211266478625297460e-01 5.118158837074008716e+02
1.212266698673708232e-01 5.118124359942286219e+02
1.213266918722118864e-01 5.118090221943036795e+02
1.214267138770529358e-01 5.118056424384848242e+02
1.215267358818940130e-01 5.118022968564323492e+02
1.216267578867350763e-01 5.117989855766007850e+02
1.217267798915761257e-01 5.117957087262321920e+02
1.218268018964172028e-01 5.117924664313513858e+02
1.219268239012582800e-01 5.117892588167599115e+02
1.220268459060993294e-01 5.117860860060305299e+02
1.221268679109403926e-01 5.117829481214993166e+02
1.222268899157814698e-01 5.117798452842636152e+02
1.223269119206225330e-01 5.117767776141711806e+02
1.224269339254635824e-01 5.117737452298204062e+02
1.225269559303046596e-01 5.117707482485496939e+02
1.226269779351457367e-01 5.117677867864355221e+02
1.227269999399867861e-01 5.117648609582833501e+02
1.228270219448278494e-01 5.117619708776254583e+02
1.229270439496689266e-01 5.117591166567136725e+02
1.230270659545099760e-01 5.117562984065142473e+02
1.231270879593510392e-01 5.117535162367023531e+02
1.232271099641921164e-01 5.117507702556576987e+02
1.233271319690331935e-01 5.117480605704576533e+02
1.234271539738742429e-01 5.117453872868734948e+02
1.235271759787153062e-01 5.117427505093645550e+02
1.236271979835563833e-01 5.117401503410735586e+02
1.237272199883974327e-01 5.117375868838200290e+02
1.238272419932384960e-01 5.117350602380979012e+02
1.239272639980795732e-01 5.117325705030676772e+02
1.240272860029206226e-01 5.117301177765541524e+02
1.241273080077616997e-01 5.117277021550388554e+02
1.242273300126027630e-01 5.117253237336574898e+02
1.243273520174438401e-01 5.117229826061937956e+02
1.244273740222848895e-01 5.117206788650761382e+02
1.245273960271259528e-01 5.117184126013702894e+02
1.246274180319670299e-01 5.117161839047774947e+02
1.247274400368080793e-01 5.117139928636287891e+02
1.248274620416491565e-01 5.117118395648799378e+02
1.249274840464902198e-01 5.117097240941078553e+02
1.250275060513312830e-01 5.117076465355054324e+02
1.251275280561723324e-01 5.117056069718783533e+02
1.252275500610134096e-01 5.117036054846390130e+02
1.253275720658544867e-01 5.117016421538027657e+02
1.254275940706955361e-01 5.116997170579855947e+02
1.255276160755366133e-01 5.116978302743964377e+02
1.256276380803776904e-01 5.116959818788358803e+02
1.257276600852187398e-01 5.116941719456917781e+02
1.258276820900597892e-01 5.116924005479335165e+02
1.259277040949008664e-01 5.116906677571094519e+02
1.260277260997419158e-01 5.116889736433421945e+02
1.261277481045829929e-01 5.116873182753274136e+02
1.262277701094240701e-01 5.116857017203246869e+02
1.263277921142651472e-01 5.116841240441585228e+02
1.264278141191061966e-01 5.116825853112133586e+02
1.265278361239472460e-01 5.116810855844282742e+02
1.266278581287883231e-01 5.116796249252957409e+02
1.267278801336293725e-01 5.116782033938566769e+02
1.268279021384704497e-01 5.116768210486961834e+02
1.269279241433115268e-01 5.116754779469430900e+02
1.270279461481525762e-01 5.116741741442626790e+02
1.271279681529936534e-01 5.116729096948562301e+02
1.272279901578347028e-01 5.116716846514568715e+02
1.273280121626757799e-01 5.116704990653270215e+02
1.274280341675168293e-01 5.116693529862524770e+02
1.275280561723579065e-01 5.116682464625433795e+02
1.276280781771989836e-01 5.116671795410273944e+02
1.277281001820400330e-01 5.116661522670502222e+02
1.278281221868811102e-01 5.116651646844688912e+02
1.279281441917221596e-01 5.116642168356520415e+02
1.280281661965632367e-01 5.116633087614760029e+02
1.281281882014042861e-01 5.116624405013211572e+02
1.282282102062453633e-01 5.116616120930702891e+02
1.283282322110864404e-01 5.116608235731060290e+02
1.284282542159274898e-01 5.116600749763064186e+02
1.285282762207685670e-01 5.116593663360450819e+02
1.286282982256096163e-01 5.116586976841870182e+02
1.287283202304506935e-01 5.116580690510859881e+02
1.288283422352917429e-01 5.116574804655833759e+02
1.289283642401328200e-01 5.116569319550054047e+02
1.290283862449738972e-01 5.116564235451592140e+02
1.291284082498149466e-01 5.116559552603333714e+02
1.292284302546560237e-01 5.116555271232937230e+02
1.293284522594970731e-01 5.116551391552820860e+02
1.294284742643381503e-01 5.116547913760150550e+02
1.295284962691791997e-01 5.116544838036801934e+02
1.296285182740202768e-01 5.116542164549344989e+02
1.297285402788613262e-01 5.116539893449040619e+02
1.298285622837024034e-01 5.116538024871808830e+02
1.299285842885434805e-01 5.116536558938215649e+02
1.300286062933845299e-01 5.116535495753458918e+02
1.301286282982256071e-01 5.116534835407341006e+02
1.302286503030666565e-01 5.116534577974265972e+02
1.303286723079077336e-01 5.116534723513221365e+02
1.304286943127487830e-01 5.116535272067757774e+02
1.305287163175898602e-01 5.116536223665984835e+02
1.306287383224309373e-01 5.116537578320542252e+02
1.307287603272719867e-01 5.116539336028610592e+02
1.308287823321130638e-01 5.116541496771877746e+02
1.309288043369541132e-01 5.116544060516527566e+02
1.310288263417951904e-01 5.116547027213255205e+02
1.311288483466362398e-01 5.116550396797220515e+02
1.312288703514773169e-01 5.116554169188069636e+02
1.313288923563183941e-01 5.116558344289907723e+02
1.314289143611594435e-01 5.116562921991287567e+02
1.315289363660005206e-01 5.116567902165219834e+02
1.316289583708415700e-01 5.116573284669157147e+02
1.317289803756826472e-01 5.116579069344967934e+02
1.318290023805236966e-01 5.116585256018965993e+02
1.319290243853647737e-01 5.116591844501885475e+02
1.320290463902058509e-01 5.116598834588863838e+02
1.321290683950469003e-01 5.116606226059460027e+02
1.322290903998879774e-01 5.116614018677643116e+02
1.323291124047290268e-01 5.116622212191783774e+02
1.324291344095701040e-01 5.116630806334658814e+02
1.325291564144111534e-01 5.116639800823445512e+02
1.326291784192522305e-01 5.116649195359724445e+02
1.327292004240932799e-01 5.116658989629466987e+02
1.328292224289343570e-01 5.116669183303051796e+02
1.329292444337754342e-01 5.116679776035252871e+02
1.330292664386164836e-01 5.116690767465253202e+02
1.331292884434575607e-01 5.116702157216621458e+02
1.332293104482986101e-01 5.116713944897354054e+02
1.333293324531396873e-01 5.116726130099838770e+02
1.334293544579807367e-01 5.116738712400882036e+02
1.335293764628218138e-01 5.116751691361707799e+02
1.336293984676628910e-01 5.116765066527953536e+02
1.337294204725039404e-01 5.116778837429691293e+02
1.338294424773450175e-01 5.116793003581423136e+02
1.339294644821860669e-01 5.116807564482085127e+02
1.340294864870271441e-01 5.116822519615070632e+02
1.341295084918681935e-01 5.116837868448211566e+02
1.342295304967092706e-01 5.116853610433819881e+02
1.343295525015503478e-01 5.116869745008661994e+02
1.344295745063913972e-01 5.116886271594001983e+02
1.345295965112324743e-01 5.116903189595585673e+02
1.346296185160735237e-01 5.116920498403670194e+02
1.347296405209145731e-01 5.116938197393010341e+02
1.348296625257556502e-01 5.116956285922906886e+02
1.349296845305967274e-01 5.116974763337185550e+02
1.350297065354378045e-01 5.116993628964237928e+02
1.351297285402788539e-01 5.117012882117010122e+02
1.352297505451199311e-01 5.117032522093033435e+02
1.353297725499609805e-01 5.117052548174436879e+02
1.354297945548020299e-01 5.117072959627968203e+02
1.355298165596431070e-01 5.117093755704988780e+02
1.356298385644841842e-01 5.117114935641513966e+02
1.357298605693252336e-01 5.117136498658229584e+02
1.358298825741663107e-01 5.117158443960489649e+02
1.359299045790073879e-01 5.117180770738361275e+02
1.360299265838484373e-01 5.117203478166622972e+02
1.361299485886894867e-01 5.117226565404795906e+02
1.362299705935305638e-01 5.117250031597160955e+02
1.363299925983716410e-01 5.117273875872784288e+02
1.364300146032126904e-01 5.117298097345540100e+02
1.365300366080537675e-01 5.117322695114112321e+02
1.366300586128948447e-01 5.117347668262052593e+02
1.367300806177358941e-01 5.117373015857782548e+02
1.368301026225769434e-01 5.117398736954611991e+02
1.369301246274180206e-01 5.117424830590779266e+02
1.370301466322590977e-01 5.117451295789475694e+02
1.371301686371001471e-01 5.117478131558863197e+02
1.372301906419412243e-01 5.117505336892101013e+02
1.373302126467823014e-01 5.117532910767385488e+02
1.374302346516233508e-01 5.117560852147956325e+02
1.375302566564644002e-01 5.117589159982155707e+02
1.376302786613054774e-01 5.117617833203421469e+02
1.377303006661465545e-01 5.117646870730355886e+02
1.378303226709876039e-01 5.117676271466707476e+02
1.379303446758286811e-01 5.117706034301458544e+02
1.380303666806697582e-01 5.117736158108820632e+02
1.381303886855108076e-01 5.117766641748258394e+02
1.382304106903518570e-01 5.117797484064553828e+02
1.383304326951929342e-01 5.117828683887818215e+02
1.384304547000339836e-01 5.117860240033537593e+02
1.385304767048750607e-01 5.117892151302588672e+02
1.386304987097161379e-01 5.117924416481299090e+02
1.387305207145572150e-01 5.117957034341472990e+02
1.388305427193982644e-01 5.117990003640402392e+02
1.389305647242393138e-01 5.118023323120959276e+02
1.390305867290803910e-01 5.118056991511571141e+02
1.391306087339214403e-01 5.118091007526306271e+02
1.392306307387625175e-01 5.118125369864887944e+02
1.393306527436035946e-01 5.118160077212738770e+02
1.394306747484446440e-01 5.118195128241025600e+02
1.395306967532857212e-01 5.118230521606693628e+02
1.396307187581267706e-01 5.118266255952511870e+02
1.397307407629678477e-01 5.118302329907111243e+02
1.398307627678088971e-01 5.118338742085025501e+02
1.399307847726499743e-01 5.118375491086737838e+02
1.400308067774910514e-01 5.118412575498720116e+02
1.401308287823321008e-01 5.118449993893490273e+02
1.402308507871731780e-01 5.118487744829635631e+02
1.403308727920142274e-01 5.118525826851875991e+02
1.404308947968552768e-01 5.118564238491080687e+02
1.405309168016963539e-01 5.118602978264361241e+02
1.406309388065374311e-01 5.118642044675079887e+02
1.407309608113785082e-01 5.118681436212908125e+02
1.408309828162195576e-01 5.118721151353873324e+02
1.409310048210606348e-01 5.118761188560416144e+02
1.410310268259016842e-01 5.118801546281424635e+02
1.411310488307427335e-01 5.118842222952299608e+02
1.412310708355838107e-01 5.118883216994988743e+02
1.413310928404248878e-01 5.118924526818047980e+02
1.414311148452659372e-01 5.118966150816693244e+02
1.415311368501070144e-01 5.119008087372835121e+02
1.416311588549480915e-01 5.119050334855162987e+02
1.417311808597891409e-01 5.119092891619167744e+02
1.418312028646301903e-01 5.119135756007207192e+02
1.419312248694712675e-01 5.119178926348556615e+02
1.420312468743123446e-01 5.119222400959480979e+02
1.421312688791533940e-01 5.119266178143256525e+02
1.422312908839944712e-01 5.119310256190246946e+02
1.423313128888355483e-01 5.119354633377969890e+02
1.424313348936765977e-01 5.119399307971132203e+02
1.425313568985176471e-01 5.119444278221686773e+02
1.426313789033587243e-01 5.119489542368922343e+02
1.427314009081998014e-01 5.119535098639468060e+02
1.428314229130408508e-01 5.119580945247410000e+02
1.429314449178819280e-01 5.119627080394301970e+02
1.430314669227230051e-01 5.119673502269267260e+02
1.431314889275640545e-01 5.119720209049005462e+02
1.432315109324051039e-01 5.119767198897922071e+02
1.433315329372461810e-01 5.119814469968126787e+02
1.434315549420872304e-01 5.119862020399531843e+02
1.435315769469283076e-01 5.119909848319904313e+02
1.436315989517693847e-01 5.119957951844930335e+02
1.437316209566104619e-01 5.120006329078266845e+02
1.438316429614515113e-01 5.120054978111627406e+02
1.439316649662925607e-01 5.120103897024830530e+02
1.440316869711336378e-01 5.120153083885863907e+02
1.441317089759746872e-01 5.120202536750960007e+02
1.442317309808157644e-01 5.120252253664652926e+02
1.443317529856568415e-01 5.120302232659860238e+02
1.444317749904978909e-01 5.120352471757914827e+02
1.445317969953389681e-01 5.120402968968677442e+02
1.446318190001800175e-01 5.120453722290567384e+02
1.447318410050210946e-01 5.120504729710656875e+02
1.448318630098621440e-01 5.120555989204715388e+02
1.449318850147032212e-01 5.120607498737309697e+02
1.450319070195442983e-01 5.120659256261837982e+02
1.451319290243853477e-01 5.120711259720635553e+02
1.452319510292264249e-01 5.120763507045016922e+02
1.453319730340674742e-01 5.120815996155358789e+02
1.454319950389085514e-01 5.120868724961176213e+02
1.455320170437496008e-01 5.120921691361187413e+02
1.456320390485906779e-01 5.120974893243385395e+02
1.457320610534317551e-01 5.121028328485126622e+02
1.458320830582728045e-01 5.121081994953174217e+02
1.459321050631138816e-01 5.121135890503798009e+02
1.460321270679549310e-01 5.121190012982852977e+02
1.461321490727960082e-01 5.121244360225815626e+02
1.462321710776370576e-01 5.121298930057913594e+02
1.463321930824781347e-01 5.121353720294151799e+02
1.464322150873192119e-01 5.121408728739424987e+02
1.465322370921602613e-01 5.121463953188565483e+02
1.466322590970013384e-01 5.121519391426451193e+02
1.467322811018423878e-01 5.121575041228059035e+02
1.468323031066834650e-01 5.121630900358537701e+02
1.469323251115245144e-01 5.121686966573317932e+02
1.470323471163655915e-01 5.121743237618161402e+02
1.471323691212066409e-01 5.121799711229251670e+02
1.472323911260477181e-01 5.121856385133276035e+02
1.473324131308887952e-01 5.121913257047497154e+02
1.474324351357298446e-01 5.121970324679837177e+02
1.475324571405709217e-01 5.122027585728972099e+02
1.476324791454119711e-01 5.122085037884386338e+02
1.477325011502530483e-01 5.122142678826472775e+02
1.478325231550940977e-01 5.122200506226615744e+02
1.479325451599351748e-01 5.122258517747266069e+02
1.480325671647762520e-01 5.122316711042028601e+02
1.481325891696173014e-01 5.122375083755739524e+02
1.482326111744583785e-01 5.122433633524552761e+02
1.483326331792994279e-01 5.122492357976034327e+02
1.484326551841405051e-01 5.122551254729227139e+02
1.485326771889815545e-01 5.122610321394754465e+02
1.486326991938226316e-01 5.122669555574889273e+02
1.487327211986637088e-01 5.122728954863659965e+02
1.488327432035047582e-01 5.122788516846914035e+02
1.489327652083458353e-01 5.122848239102413572e+02
1.490327872131868847e-01 5.122908119199933026e+02
1.491328092180279619e-01 5.122968154701325147e+02
1.492328312228690113e-01 5.123028343160617624e+02
1.493328532277100884e-01 5.123088682124116531e+02
1.494328752325511656e-01 5.123149169130471137e+02
1.495328972373922150e-01 5.123209801710771671e+02
1.496329192422332921e-01 5.123270577388634592e+02
1.497329412470743415e-01 5.123331493680303765e+02
1.498329632519154186e-01 5.123392548094727772e+02
1.499329852567564680e-01 5.123453738133656543e+02
1.500330072615975452e-01 5.123515061291716393e+02
1.501330292664385946e-01 5.123576515056529388e+02
1.502330512712796717e-01 5.123638096908778152e+02
1.503330732761207489e-01 5.123699804322302498e+02
1.504330952809617983e-01 5.123761634764199471e+02
1.505331172858028754e-01 5.123823585694925669e+02
1.506331392906439248e-01 5.123885654568334758e+02
1.507331612954850020e-01 5.123947838831850277e+02
1.508331833003260514e-01 5.124010135926487237e+02
1.509332053051671285e-01 5.124072543286996506e+02
1.510332273100082057e-01 5.124135058341926197e+02
1.511332493148492551e-01 5.124197678513726260e+02
1.512332713196903322e-01 5.124260401218840570e+02
1.513332933245313816e-01 5.124323223867806973e+02
1.514333153293724588e-01 5.124386143865343684e+02
1.515333373342135082e-01 5.124449158610445920e+02
1.516333593390545853e-01 5.124512265496492773e+02
1.517333813438956625e-01 5.124575461911318826e+02
1.518334033487367118e-01 5.124638745237333524e+02
1.519334253535777890e-01 5.124702112851597349e+02
1.520334473584188384e-01 5.124765562125935503e+02
1.521334693632598878e-01 5.124829090427024312e+02
1.522334913681009649e-01 5.124892695116485584e+02
1.523335133729420421e-01 5.124956373550993476e+02
1.524335353777831192e-01 5.125020123082359760e+02
1.525335573826241686e-01 5.125083941057637276e+02
1.526335793874652458e-01 5.125147824819227935e+02
1.527336013923062952e-01 5.125211771704954344e+02
1.528336233971473446e-01 5.125275779048189406e+02
1.529336454019884217e-01 5.125339844177926807e+02
1.530336674068294989e-01 5.125403964418891292e+02
1.531336894116705483e-01 5.125468137091650078e+02
1.532337114165116254e-01 5.125532359512685616e+02
1.533337334213527026e-01 5.125596628994521780e+02
1.534337554261937520e-01 5.125660942845794352e+02
1.535337774310348014e-01 5.125725298371380632e+02
1.536337994358758785e-01 5.125789692872480146e+02
1.537338214407169557e-01 5.125854123646718108e+02
1.538338434455580050e-01 5.125918587988246600e+02
1.539338654503990822e-01 5.125983083187857119e+02
1.540338874552401593e-01 5.126047606533045382e+02
1.541339094600812087e-01 5.126112155308159117e+02
1.542339314649222581e-01 5.126176726794474234e+02
1.543339534697633353e-01 5.126241318270282363e+02
1.544339754746044124e-01 5.126305927011026142e+02
1.545339974794454618e-01 5.126370550289367429e+02
1.546340194842865390e-01 5.126435185375316905e+02
1.547340414891276161e-01 5.126499829536317066e+02
1.548340634939686655e-01 5.126564480037350222e+02
1.549340854988097149e-01 5.126629134141040822e+02
1.550341075036507921e-01 5.126693789107757766e+02
1.551341295084918692e-01 5.126758442195714451e+02
1.552341515133329186e-01 5.126823090661076776e+02
1.553341735181739958e-01 5.126887731758067730e+02
1.554341955230150729e-01 5.126952362739052660e+02
1.555342175278561223e-01 5.127016980854668873e+02
1.556342395326971717e-01 5.127081583353904080e+02
1.557342615375382489e-01 5.127146167484206671e+02
1.558342835423792982e-01 5.127210730491614186e+02
1.559343055472203754e-01 5.127275269620813560e+02
1.560343275520614525e-01 5.127339782115269600e+02
1.561343495569025297e-01 5.127404265217337525e+02
1.562343715617435791e-01 5.127468716168341416e+02
1.563343935665846285e-01 5.127533132208704956e+02
1.564344155714256779e-01 5.127597510578027595e+02
1.565344375762667550e-01 5.127661848515210750e+02
1.566344595811078322e-01 5.127726143258560114e+02
1.567344815859489093e-01 5.127790392045867520e+02
1.568345035907899865e-01 5.127854592114547359e+02
1.569345255956310359e-01 5.127918740701720708e+02
1.570345476004720853e-01 5.127982835044324474e+02
1.571345696053131347e-01 5.128046872379209162e+02
1.572345916101542118e-01 5.128110849943263929e+02
1.573346136149952890e-01 5.128174764973493893e+02
1.574346356198363661e-01 5.128238614707150873e+02
1.575346576246774433e-01 5.128302396381820927e+02
1.576346796295184927e-01 5.128366107235524396e+02
1.577347016343595421e-01 5.128429744506854604e+02
1.578347236392005914e-01 5.128493305435026741e+02
1.579347456440416686e-01 5.128556787260042711e+02
1.580347676488827457e-01 5.128620187222766162e+02
1.581347896537238229e-01 5.128683502565006620e+02
1.582348116585649000e-01 5.128746730529672959e+02
1.583348336634059217e-01 5.128809868360833661e+02
1.584348556682469988e-01 5.128872913303863470e+02
1.585348776730880482e-01 5.128935862605496823e+02
1.586348996779291254e-01 5.128998713513992698e+02
1.587349216827702025e-01 5.129061463279184636e+02
1.588349436876112797e-01 5.129124109152628535e+02
1.589349656924523568e-01 5.129186648387679952e+02
1.590349876972933785e-01 5.129249078239610071e+02
1.591350097021344556e-01 5.129311395965714837e+02
1.592350317069755050e-01 5.129373598825410454e+02
1.593350537118165822e-01 5.129435684080333431e+02
1.594350757166576593e-01 5.129497648994479277e+02
1.595350977214987365e-01 5.129559490834260487e+02
1.596351197263398136e-01 5.129621206868646368e+02
1.597351417311808353e-01 5.129682794369249450e+02
1.598351637360219124e-01 5.129744250610438030e+02
1.599351857408629618e-01 5.129805572869438492e+02
1.600352077457040390e-01 5.129866758426448996e+02
1.601352297505451161e-01 5.129927804564722464e+02
1.602352517553861933e-01 5.129988708570698464e+02
1.603352737602272149e-01 5.130049467734082782e+02
1.604352957650682920e-01 5.130110079347970213e+02
1.605353177699093692e-01 5.130170540708942326e+02
1.606353397747504186e-01 5.130230849117169782e+02
1.607353617795914957e-01 5.130291001876514656e+02
1.608353837844325729e-01 5.130350996294647530e+02
1.609354057892736500e-01 5.130410829683135034e+02
1.610354277941146717e-01 5.130470499357553535e+02
1.611354497989557488e-01 5.130530002637591451e+02
1.612354718037968260e-01 5.130589336847151571e+02
1.613354938086378754e-01 5.130648499314456785e+02
1.614355158134789525e-01 5.130707487372161495e+02
1.615355378183200297e-01 5.130766298357415280e+02
1.616355598231611068e-01 5.130824929612034566e+02
1.617355818280021285e-01 5.130883378482551507e+02
1.618356038328432056e-01 5.130941642320328810e+02
1.619356258376842828e-01 5.130999718481682521e+02
1.620356478425253322e-01 5.131057604327954778e+02
1.621356698473664093e-01 5.131115297225645691e+02
1.622356918522074865e-01 5.131172794546498608e+02
1.623357138570485636e-01 5.131230093667589927e+02
1.624357358618895852e-01 5.131287191971482571e+02
1.625357578667306624e-01 5.131344086846261234e+02
1.626357798715717395e-01 5.131400775685677900e+02
1.627358018764127889e-01 5.131457255889249609e+02
1.628358238812538661e-01 5.131513524862339182e+02
1.629358458860949432e-01 5.131569580016282544e+02
1.630358678909359926e-01 5.131625418768468307e+02
1.631358898957770420e-01 5.131681038542458282e+02
1.632359119006181192e-01 5.131736436768073872e+02
1.633359339054591963e-01 5.131791610881496126e+02
1.634359559103002457e-01 5.131846558325379419e+02
1.635359779151413229e-01 5.131901276548945816e+02
1.636359999199824000e-01 5.131955763008071472e+02
1.637360219248234494e-01 5.132010015165413961e+02
1.638360439296644988e-01 5.132064030490487312e+02
1.639360659345055760e-01 5.132117806459775693e+02
1.640360879393466531e-01 5.132171340556827772e+02
1.641361099441877025e-01 5.132224630272357899e+02
1.642361319490287797e-01 5.132277673104333644e+02
1.643361539538698568e-01 5.132330466558101989e+02
1.644361759587109062e-01 5.132383008146448446e+02
1.645361979635519556e-01 5.132435295389744851e+02
1.646362199683930327e-01 5.132487325815995973e+02
1.647362419732341099e-01 5.132539096960966845e+02
1.648362639780751593e-01 5.132590606368282806e+02
1.649362859829162364e-01 5.132641851589512498e+02
1.650363079877572858e-01 5.132692830184267905e+02
1.651363299925983630e-01 5.132743539720307808e+02
1.652363519974394124e-01 5.132793977773631013e+02
1.653363740022804895e-01 5.132844141928574118e+02
1.654363960071215667e-01 5.132894029777895639e+02
1.655364180119626161e-01 5.132943638922899936e+02
1.656364400168036932e-01 5.132992966973491775e+02
1.657364620216447426e-01 5.133042011548311621e+02
1.658364840264858198e-01 5.133090770274806118e+02
1.659365060313268692e-01 5.133139240789327005e+02
1.660365280361679463e-01 5.133187420737234561e+02
1.661365500410090235e-01 5.133235307772977194e+02
1.662365720458500729e-01 5.133282899560201713e+02
1.663365940506911500e-01 5.133330193771826089e+02
1.664366160555321994e-01 5.133377188090161098e+02
1.665366380603732765e-01 5.133423880206969443e+02
1.666366600652143259e-01 5.133470267823586255e+02
1.667366820700554031e-01 5.133516348650994132e+02
1.668367040748964802e-01 5.133562120409923182e+02
1.669367260797375296e-01 5.133607580830938559e+02
1.670367480845785790e-01 5.133652727654540513e+02
1.671367700894196562e-01 5.133697558631238280e+02
1.672367920942607333e-01 5.133742071521655816e+02
1.673368140991017827e-01 5.133786264096619334e+02
1.674368361039428599e-01 5.133830134137231198e+02
1.675368581087839370e-01 5.133873679434994983e+02
1.676368801136249864e-01 5.133916897791854126e+02
1.677369021184660358e-01 5.133959787020337444e+02
1.678369241233071130e-01 5.134002344943598928e+02
1.679369461281481901e-01 5.134044569395535973e+02
1.680369681329892395e-01 5.134086458220862141e+02
1.681369901378303167e-01 5.134128009275194700e+02
1.682370121426713938e-01 5.134169220425161484e+02
1.683370341475124432e-01 5.134210089548456608e+02
1.684370561523534926e-01 5.134250614533949602e+02
1.685370781571945697e-01 5.134290793281762717e+02
1.686371001620356469e-01 5.134330623703356196e+02
1.687371221668766963e-01 5.134370103721616942e+02
1.688371441717177734e-01 5.134409231270935834e+02
1.689371661765588506e-01 5.134448004297300940e+02
1.690371881813998722e-01 5.134486420758383929e+02
1.691372101862409494e-01 5.134524478623602590e+02
1.692372321910820265e-01 5.134562175874225431e+02
1.693372541959231037e-01 5.134599510503447846e+02
1.694372762007641531e-01 5.134636480516475103e+02
1.695372982056052302e-01 5.134673083930600797e+02
1.696373202104463074e-01 5.134709318775289830e+02
1.697373422152873290e-01 5.134745183092253455e+02
1.698373642201284062e-01 5.134780674935550451e+02
1.699373862249694833e-01 5.134815792371647376e+02
1.700374082298105605e-01 5.134850533479485648e+02
1.701374302346516099e-01 5.134884896350610006e+02
1.702374522394926870e-01 5.134918879089193524e+02
1.703374742443337642e-01 5.134952479812141064e+02
1.704374962491747858e-01 5.134985696649172269e+02
1.705375182540158630e-01 5.135018527742892047e+02
1.706375402588569401e-01 5.135050971248859923e+02
1.707375622636980173e-01 5.135083025335667344e+02
1.708375842685390666e-01 5.135114688185046816e+02
1.709376062733801438e-01 5.135145957991884416e+02
1.710376282782212209e-01 5.135176832964363030e+02
1.711376502830622426e-01 5.135207311323978274e+02
1.712376722879033197e-01 5.135237391305668098e+02
1.713376942927443969e-01 5.135267071157830969e+02
1.714377162975854740e-01 5.135296349142441841e+02
1.715377383024265234e-01 5.135325223535113537e+02
1.716377603072676006e-01 5.135353692625147914e+02
1.717377823121086222e-01 5.135381754715634770e+02
1.718378043169496994e-01 5.135409408123515504e+02
1.719378263217907765e-01 5.135436651179646788e+02
1.720378483266318537e-01 5.135463482228875591e+02
1.721378703314729308e-01 5.135489899630110813e+02
1.722378923363139802e-01 5.135515901756386938e+02
1.723379143411550574e-01 5.135541486994945899e+02
1.724379363459960790e-01 5.135566653747285955e+02
1.725379583508371562e-01 5.135591400429246960e+02
1.726379803556782333e-01 5.135615725471067208e+02
1.727380023605193105e-01 5.135639627317445957e+02
1.728380243653603876e-01 5.135663104427629833e+02
1.729380463702014370e-01 5.135686155275463989e+02
1.730380683750425141e-01 5.135708778349451222e+02
1.731380903798835358e-01 5.135730972152830418e+02
1.732381123847246129e-01 5.135752735203635666e+02
1.733381343895656901e-01 5.135774066034755378e+02
1.734381563944067672e-01 5.135794963193995954e+02
1.735381783992478444e-01 5.135815425244160224e+02
1.736382004040888938e-01 5.135835450763080416e+02
1.737382224089299432e-01 5.135855038343715933e+02
1.738382444137709926e-01 5.135874186594169259e+02
1.739382664186120697e-01 5.135892894137790563e+02
1.740382884234531469e-01 5.135911159613215204e+02
1.741383104282942240e-01 5.135928981674417173e+02
1.742383324331353012e-01 5.135946358990787530e+02
1.743383544379763506e-01 5.135963290247169653e+02
1.744383764428174000e-01 5.135979774143934264e+02
1.745383984476584494e-01 5.135995809397041967e+02
1.746384204524995265e-01 5.136011394738071658e+02
1.747384424573406037e-01 5.136026528914302389e+02
1.748384644621816808e-01 5.136041210688752017e+02
1.749384864670227580e-01 5.136055438840247689e+02
1.750385084718638073e-01 5.136069212163481552e+02
1.751385304767048567e-01 5.136082529469022120e+02
1.752385524815459061e-01 5.136095389583433644e+02
1.753385744863869833e-01 5.136107791349279523e+02
1.754385964912280604e-01 5.136119733625185972e+02
1.755386184960691376e-01 5.136131215285906819e+02
1.756386405009102147e-01 5.136142235222356476e+02
1.757386625057512364e-01 5.136152792341666782e+02
1.758386845105923135e-01 5.136162885567241574e+02
1.759387065154333629e-01 5.136172513838796476e+02
1.760387285202744401e-01 5.136181676112420291e+02
1.761387505251155172e-01 5.136190371360609106e+02
1.762387725299565944e-01 5.136198598572307219e+02
1.763387945347976715e-01 5.136206356752983311e+02
1.764388165396386932e-01 5.136213644924647497e+02
1.765388385444797703e-01 5.136220462125907034e+02
1.766388605493208197e-01 5.136226807412014068e+02
1.767388825541618969e-01 5.136232679854899743e+02
1.768389045590029740e-01 5.136238078543235588e+02
1.769389265638440512e-01 5.136243002582449435e+02
1.770389485686851283e-01 5.136247451094798180e+02
1.771389705735261499e-01 5.136251423219379149e+02
1.772389925783672271e-01 5.136254918112199448e+02
1.773390145832082765e-01 5.136257934946197565e+02
1.774390365880493536e-01 5.136260472911283159e+02
1.775390585928904308e-01 5.136262531214389355e+02
1.776390805977315079e-01 5.136264109079490936e+02
1.777391026025725296e-01 5.136265205747671416e+02
1.778391246074136067e-01 5.136265820477126454e+02
1.779391466122546839e-01 5.136265952543220692e+02
1.780391686170957333e-01 5.136265601238537784e+02
1.781391906219368104e-01 5.136264765872863336e+02
1.782392126267778876e-01 5.136263445773279273e+02
1.783392346316189647e-01 5.136261640284162695e+02
1.784392566364599864e-01 5.136259348767234769e+02
1.785392786413010635e-01 5.136256570601574367e+02
1.786393006461421407e-01 5.136253305183681732e+02
1.787393226509831901e-01 5.136249551927471657e+02
1.788393446558242672e-01 5.136245310264337149e+02
1.789393666606653444e-01 5.136240579643158526e+02
1.790393886655064215e-01 5.136235359530342066e+02
1.791394106703474431e-01 5.136229649409845024e+02
1.792394326751885203e-01 5.136223448783208596e+02
1.793394546800295974e-01 5.136216757169580660e+02
1.794394766848706468e-01 5.136209574105739648e+02
1.795394986897117240e-01 5.136201899146134338e+02
1.796395206945528011e-01 5.136193731862896357e+02
1.797395426993938783e-01 5.136185071845860648e+02
1.798395647042348999e-01 5.136175918702604122e+02
1.799395867090759771e-01 5.136166272058462710e+02
1.800396087139170542e-01 5.136156131556556375e+02
1.801396307187581036e-01 5.136145496857801618e+02
1.802396527235991808e-01 5.136134367640947858e+02
1.803396747284402579e-01 5.136122743602583114e+02
1.804396967332813073e-01 5.136110624457163567e+02
1.805397187381223567e-01 5.136098009937036295e+02
1.806397407429634339e-01 5.136084899792441547e+02
1.807397627478045110e-01 5.136071293791558219e+02
1.808397847526455604e-01 5.136057191720485662e+02
1.809398067574866376e-01 5.136042593383292569e+02
1.810398287623277147e-01 5.136027498602013566e+02
1.811398507671687641e-01 5.136011907216679901e+02
1.812398727720098135e-01 5.135995819085314906e+02
1.813398947768508906e-01 5.135979234083961273e+02
1.814399167816919678e-01 5.135962152106701524e+02
1.815399387865330172e-01 5.135944573065643226e+02
1.816399607913740943e-01 5.135926496890962198e+02
1.817399827962151715e-01 5.135907923530888866e+02
1.818400048010562209e-01 5.135888852951748049e+02
1.819400268058972703e-01 5.135869285137929410e+02
1.820400488107383474e-01 5.135849220091937468e+02
1.821400708155794246e-01 5.135828657834364321e+02
1.822400928204204740e-01 5.135807598403915790e+02
1.823401148252615511e-01 5.135786041857439841e+02
1.824401368301026005e-01 5.135763988269876563e+02
1.825401588349436777e-01 5.135741437734320698e+02
1.826401808397847271e-01 5.135718390361994352e+02
1.827402028446258042e-01 5.135694846282262915e+02
1.828402248494668814e-01 5.135670805642636196e+02
1.829402468543079308e-01 5.135646268608768423e+02
1.830402688591490079e-01 5.135621235364476433e+02
1.831402908639900573e-01 5.135595706111710115e+02
1.832403128688311345e-01 5.135569681070584238e+02
1.833403348736721838e-01 5.135543160479365952e+02
1.834403568785132610e-01 5.135516144594466823e+02
1.835403788833543381e-01 5.135488633690459892e+02
1.836404008881953875e-01 5.135460628060070576e+02
1.837404228930364647e-01 5.135432128014153932e+02
1.838404448978775141e-01 5.135403133881723079e+02
1.839404669027185912e-01 5.135373646009928734e+02
1.840404889075596406e-01 5.135343664764061486e+02
1.841405109124007178e-01 5.135313190527530196e+02
1.842405329172417949e-01 5.135282223701876774e+02
1.843405549220828443e-01 5.135250764706762538e+02
1.844405769269238937e-01 5.135218813979951165e+02
1.845405989317649709e-01 5.135186371977316639e+02
1.846406209366060480e-01 5.135153439172822800e+02
1.847406429414470974e-01 5.135120016058514238e+02
1.848406649462881746e-01 5.135086103144516301e+02
1.849406869511292517e-01 5.135051700959013488e+02
1.850407089559703011e-01 5.135016810048244906e+02
1.851407309608113505e-01 5.134981430976481533e+02
1.852407529656524277e-01 5.134945564326035310e+02
1.853407749704935048e-01 5.134909210697218214e+02
1.854407969753345542e-01 5.134872370708339986e+02
1.855408189801756313e-01 5.134835044995708131e+02
1.856408409850167085e-01 5.134797234213577894e+02
1.857408629898577579e-01 5.134758939034182958e+02
1.858408849946988073e-01 5.134720160147664956e+02
1.859409069995398844e-01 5.134680898262097344e+02
1.860409290043809616e-01 5.134641154103450162e+02
1.861409510092220110e-01 5.134600928415566159e+02
1.862409730140630881e-01 5.134560221960158515e+02
1.863409950189041653e-01 5.134519035516768781e+02
1.864410170237451869e-01 5.134477369882765743e+02
1.865410390285862641e-01 5.134435225873310173e+02
1.866410610334273412e-01 5.134392604321330964e+02
1.867410830382684184e-01 5.134349506077517162e+02
1.868411050431094678e-01 5.134305932010277047e+02
1.869411270479505449e-01 5.134261883005714253e+02
1.870411490527916221e-01 5.134217359967633456e+02
1.871411710576326437e-01 5.134172363817460791e+02
1.872411930624737209e-01 5.134126895494260907e+02
1.873412150673147980e-01 5.134080955954694900e+02
1.874412370721558752e-01 5.134034546172983937e+02
1.875412590769969245e-01 5.133987667140897884e+02
1.876412810818380017e-01 5.133940319867708695e+02
1.877413030866790788e-01 5.133892505380174498e+02
1.878413250915201005e-01 5.133844224722505487e+02
1.879413470963611776e-01 5.133795478956311626e+02
1.880413691012022548e-01 5.133746269160614020e+02
1.881413911060433319e-01 5.133696596431768739e+02
1.882414131108843813e-01 5.133646461883448637e+02
1.883414351157254585e-01 5.133595866646633112e+02
1.884414571205665356e-01 5.133544811869520572e+02
1.885414791254075573e-01 5.133493298717562539e+02
1.886415011302486344e-01 5.133441328373352235e+02
1.887415231350897116e-01 5.133388902036648460e+02
1.888415451399307887e-01 5.133336020924303966e+02
1.889415671447718381e-01 5.133282686270234763e+02
1.890415891496129153e-01 5.133228899325400789e+02
1.891416111544539369e-01 5.133174661357729747e+02
1.892416331592950141e-01 5.133119973652104591e+02
1.893416551641360912e-01 5.133064837510323741e+02
1.894416771689771684e-01 5.133009254251037419e+02
1.895416991738182455e-01 5.132953225209724906e+02
1.896417211786592949e-01 5.132896751738644525e+02
1.897417431835003720e-01 5.132839835206797261e+02
1.898417651883413937e-01 5.132782476999864230e+02
1.899417871931824708e-01 5.132724678520182806e+02
1.900418091980235480e-01 5.132666441186694328e+02
1.901418312028646251e-01 5.132607766434889527e+02
1.902418532077057023e-01 5.132548655716783514e+02
1.903418752125467517e-01 5.132489110500829383e+02
1.904418972173878288e-01 5.132429132271911385e+02
1.905419192222288505e-01 5.132368722531280127e+02
1.906419412270699276e-01 5.132307882796488911e+02
1.907419632319110048e-01 5.132246614601368719e+02
1.908419852367520819e-01 5.132184919495965687e+02
1.909420072415931591e-01 5.132122799046480850e+02
1.910420292464342085e-01 5.132060254835246269e+02
1.911420512512752579e-01 5.131997288460624986e+02
1.912420732561163073e-01 5.131933901537008751e+02
1.913420952609573844e-01 5.131870095694738438e+02
1.914421172657984616e-01 5.131805872580047208e+02
1.915421392706395387e-01 5.131741233855018436e+02
1.916421612754806159e-01 5.131676181197511823e+02
1.917421832803216653e-01 5.131610716301134971e+02
1.918422052851627146e-01 5.131544840875155842e+02
1.919422272900037640e-01 5.131478556644457285e+02
1.920422492948448412e-01 5.131411865349499521e+02
1.921422712996859183e-01 5.131344768746225782e+02
1.922422933045269955e-01 5.131277268606016833e+02
1.923423153093680726e-01 5.131209366715650049e+02
1.924423373142091220e-01 5.131141064877201643e+02
1.925423593190501714e-01 5.131072364908028476e+02
1.926423813238912208e-01 5.131003268640666874e+02
1.927424033287322980e-01 5.130933777922795116e+02
1.928424253335733751e-01 5.130863894617161804e+02
1.929424473384144523e-01 5.130793620601516523e+02
1.930424693432555294e-01 5.130722957768562082e+02
1.931424913480965511e-01 5.130651908025873809e+02
1.932425133529376282e-01 5.130580473295838146e+02
1.933425353577786776e-01 5.130508655515588998e+02
1.934425573626197548e-01 5.130436456636941784e+02
1.935425793674608319e-01 5.130363878626329779e+02
1.936426013723019091e-01 5.130290923464721118e+02
1.937426233771429862e-01 5.130217593147566504e+02
1.938426453819840078e-01 5.130143889684711667e+02
1.939426673868250850e-01 5.130069815100372352e+02
1.940426893916661344e-01 5.129995371433001310e+02
1.941427113965072115e-01 5.129920560735256458e+02
1.942427334013482887e-01 5.129845385073924717e+02
1.943427554061893658e-01 5.129769846529845836e+02
1.944427774110304430e-01 5.129693947197845318e+02
1.945427994158714646e-01 5.129617689186648022e+02
1.946428214207125418e-01 5.129541074618828134e+02
1.947428434255535912e-01 5.129464105630702306e+02
1.948428654303946683e-01 5.129386784372291004e+02
1.949428874352357455e-01 5.129309113007211636e+02
1.950429094400768226e-01 5.129231093712628535e+02
1.951429314449178443e-01 5.129152728679165421e+02
1.952429534497589214e-01 5.129074020110812171e+02
1.953429754545999986e-01 5.128994970224887311e+02
1.954429974594410480e-01 5.128915581251918638e+02
1.955430194642821251e-01 5.128835855435585245e+02
1.956430414691232023e-01 5.128755795032641345e+02
1.957430634739642794e-01 5.128675402312831011e+02
1.958430854788053010e-01 5.128594679558804046e+02
1.959431074836463782e-01 5.128513629066039812e+02
1.960431294884874553e-01 5.128432253142772197e+02
1.961431514933285047e-01 5.128350554109897530e+02
1.962431734981695819e-01 5.128268534300888177e+02
1.963431955030106590e-01 5.128186196061736837e+02
1.964432175078517362e-01 5.128103541750839440e+02
1.965432395126927578e-01 5.128020573738938310e+02
1.966432615175338350e-01 5.127937294409016431e+02
1.967432835223749121e-01 5.127853706156230373e+02
1.968433055272159615e-01 5.127769811387813661e+02
1.969433275320570387e-01 5.127685612522991505e+02
1.970433495368981158e-01 5.127601111992918277e+02
1.971433715417391930e-01 5.127516312240546767e+02
1.972433935465802146e-01 5.127431215720574755e+02
1.973434155514212918e-01 5.127345824899348372e+02
1.974434375562623689e-01 5.127260142254779112e+02
1.975434595611034183e-01 5.127174170276236964e+02
1.976434815659444955e-01 5.127087911464487888e+02
1.977435035707855726e-01 5.127001368331578988e+02
1.978435255756266220e-01 5.126914543400763478e+02
1.979435475804676714e-01 5.126827439206412009e+02
1.980435695853087485e-01 5.126740058293918310e+02
1.981435915901498257e-01 5.126652403219585494e+02
1.982436135949908751e-01 5.126564476550579457e+02
1.983436355998319522e-01 5.126476280864807222e+02
1.984436576046730294e-01 5.126387818750819179e+02
1.985436796095140788e-01 5.126299092807721536e+02
1.986437016143551282e-01 5.126210105645105841e+02
1.987437236191962053e-01 5.126120859882930745e+02
1.988437456240372825e-01 5.126031358151417407e+02
1.989437676288783319e-01 5.125941603090982426e+02
1.990437896337194090e-01 5.125851597352137787e+02
1.991438116385604862e-01 5.125761343595364679e+02
1.992438336434015356e-01 5.125670844491065736e+02
1.993438556482425850e-01 5.125580102719419529e+02
1.994438776530836621e-01 5.125489120970321437e+02
1.995438996579247393e-01 5.125397901943268835e+02
1.996439216627657887e-01 5.125306448347264450e+02
1.997439436676068658e-01 5.125214762900720871e+02
1.998439656724479152e-01 5.125122848331353680e+02
1.999439876772889924e-01 5.125030707376103010e+02
2.000440096821300417e-01 5.124938342781010761e+02
2.001440316869711189e-01 5.124845757301134199e+02
2.002440536918121960e-01 5.124752953700437956e+02
2.003440756966532454e-01 5.124659934751699666e+02
2.004440977014943226e-01 5.124566703236411058e+02
2.005441197063353720e-01 5.124473261944675642e+02
2.006441417111764491e-01 5.124379613675089331e+02
2.007441637160174985e-01 5.124285761234669963e+02
2.008441857208585757e-01 5.124191707438724279e+02
2.009442077256996528e-01 5.124097455110769488e+02
2.010442297305407022e-01 5.124003007082410477e+02
2.011442517353817794e-01 5.123908366193255688e+02
2.012442737402228288e-01 5.123813535290801155e+02
2.013442957450639059e-01 5.123718517230319094e+02
2.014443177499049553e-01 5.123623314874773769e+02
2.015443397547460325e-01 5.123527931094695305e+02
2.016443617595871096e-01 5.123432368768094420e+02
2.017443837644281590e-01 5.123336630780337373e+02
2.018444057692692084e-01 5.123240720024065240e+02
2.019444277741102856e-01 5.123144639399057496e+02
2.020444497789513627e-01 5.123048391812142199e+02
2.021444717837924121e-01 5.122951980177103906e+02
2.022444937886334893e-01 5.122855407414542697e+02
2.023445157934745664e-01 5.122758676451784368e+02
2.024445377983156158e-01 5.122661790222788341e+02
2.025445598031566652e-01 5.122564751668014651e+02
2.026445818079977423e-01 5.122467563734323903e+02
2.027446038128388195e-01 5.122370229374868131e+02
2.028446258176798689e-01 5.122272751548991891e+02
2.029446478225209460e-01 5.122175133222110617e+02
2.030446698273620232e-01 5.122077377365609436e+02
2.031446918322030726e-01 5.121979486956729488e+02
2.032447138370441220e-01 5.121881464978449685e+02
2.033447358418851991e-01 5.121783314419398039e+02
2.034447578467262763e-01 5.121685038273722057e+02
2.035447798515673257e-01 5.121586639540984152e+02
2.036448018564084028e-01 5.121488121226057046e+02
2.037448238612494800e-01 5.121389486338997585e+02
2.038448458660905016e-01 5.121290737894951235e+02
2.039448678709315788e-01 5.121191878914028166e+02
2.040448898757726559e-01 5.121092912421207757e+02
2.041449118806137331e-01 5.120993841446201031e+02
2.042449338854547825e-01 5.120894669023360848e+02
2.043449558902958596e-01 5.120795398191561389e+02
2.044449778951369368e-01 5.120696031994077657e+02
2.045449998999779584e-01 5.120596573478496794e+02
2.046450219048190355e-01 5.120497025696573701e+02
2.047450439096601127e-01 5.120397391704127585e+02
2.048450659145011898e-01 5.120297674560949872e+02
2.049450879193422392e-01 5.120197877330663232e+02
2.050451099241833164e-01 5.120098003080613580e+02
2.051451319290243935e-01 5.119998054881769463e+02
2.052451539338654152e-01 5.119898035808590748e+02
2.053451759387064923e-01 5.119797948938918921e+02
2.054451979435475695e-01 5.119697797353880446e+02
2.055452199483886466e-01 5.119597584137741251e+02
2.056452419532296960e-01 5.119497312377811795e+02
2.057452639580707732e-01 5.119396985164324292e+02
2.058452859629118503e-01 5.119296605590320723e+02
2.059453079677528720e-01 5.119196176751539156e+02
2.060453299725939491e-01 5.119095701746290956e+02
2.061453519774350263e-01 5.118995183675353928e+02
2.062453739822761034e-01 5.118894625641846119e+02
2.063453959871171528e-01 5.118794030751117248e+02
2.064454179919582300e-01 5.118693402110635589e+02
2.065454399967992516e-01 5.118592742829856093e+02
2.066454620016403287e-01 5.118492056020126029e+02
2.067454840064814059e-01 5.118391344794546285e+02
2.068455060113224830e-01 5.118290612267869051e+02
2.069455280161635602e-01 5.118189861556376741e+02
2.070455500210046096e-01 5.118089095777768307e+02
2.071455720258456867e-01 5.117988318051037027e+02
2.072455940306867084e-01 5.117887531496346583e+02
2.073456160355277855e-01 5.117786739234937841e+02
2.074456380403688627e-01 5.117685944388984467e+02
2.075456600452099398e-01 5.117585150081497432e+02
2.076456820500510170e-01 5.117484359436182899e+02
2.077457040548920664e-01 5.117383575577358101e+02
2.078457260597331435e-01 5.117282801629797291e+02
2.079457480645741652e-01 5.117182040718648182e+02
2.080457700694152423e-01 5.117081295969277903e+02
2.081457920742563195e-01 5.116980570507193988e+02
2.082458140790973966e-01 5.116879867457899991e+02
2.083458360839384738e-01 5.116779189946782935e+02
2.084458580887795232e-01 5.116678541098999631e+02
2.085458800936205725e-01 5.116577924039356731e+02
2.086459020984616219e-01 5.116477341892192499e+02
2.087459241033026991e-01 5.116376797781256300e+02
2.088459461081437762e-01 5.116276294829602875e+02
2.089459681129848534e-01 5.116175836159452501e+02
2.090459901178259305e-01 5.116075424892091519e+02
2.091460121226669799e-01 5.115975064147745002e+02
2.092460341275080293e-01 5.115874757045462502e+02
2.093460561323490787e-01 5.115774506703003226e+02
2.094460781371901559e-01 5.115674316236701316e+02
2.095461001420312330e-01 5.115574188761374330e+02
2.096461221468723102e-01 5.115474127390187391e+02
2.097461441517133873e-01 5.115374135234521873e+02
2.098461661565544367e-01 5.115274215403896392e+02
2.099461881613954861e-01 5.115174371005816738e+02
2.100462101662365355e-01 5.115074605145663327e+02
2.101462321710776127e-01 5.114974920926588879e+02
2.102462541759186898e-01 5.114875321449375747e+02
2.103462761807597670e-01 5.114775809812333591e+02
2.104462981856008441e-01 5.114676389111194226e+02
2.105463201904418657e-01 5.114577062438960411e+02
2.106463421952829429e-01 5.114477832885814905e+02
2.107463642001239923e-01 5.114378703538991999e+02
2.108463862049650694e-01 5.114279677482656439e+02
2.109464082098061466e-01 5.114180757797815318e+02
2.110464302146472237e-01 5.114081947562146411e+02
2.111464522194883009e-01 5.113983249849929962e+02
2.112464742243293225e-01 5.113884667731911122e+02
2.113464962291703997e-01 5.113786204275176033e+02
2.114465182340114491e-01 5.113687862543052915e+02
2.115465402388525262e-01 5.113589645594984177e+02
2.116465622436936034e-01 5.113491556486404193e+02
2.117465842485346805e-01 5.113393598268631308e+02
2.118466062533757577e-01 5.113295773988755286e+02
2.119466282582167793e-01 5.113198086689502020e+02
2.120466502630578565e-01 5.113100539409145995e+02
2.121466722678989059e-01 5.113003135181361358e+02
2.122466942727399830e-01 5.112905877035133813e+02
2.123467162775810602e-01 5.112808767994619075e+02
2.124467382824221373e-01 5.112711811079053632e+02
2.125467602872631590e-01 5.112615009302621161e+02
2.126467822921042361e-01 5.112518365674336565e+02
2.127468042969453133e-01 5.112421883197940815e+02
2.128468263017863626e-01 5.112325564871777033e+02
2.129468483066274398e-01 5.112229413688685327e+02
2.130468703114685169e-01 5.112133432635866939e+02
2.131468923163095941e-01 5.112037624694796136e+02
2.132469143211506157e-01 5.111941992841082651e+02
2.133469363259916929e-01 5.111846540044379026e+02
2.134469583308327700e-01 5.111751269268247597e+02
2.135469803356738194e-01 5.111656183470042834e+02
2.136470023405148966e-01 5.111561285600827773e+02
2.137470243453559737e-01 5.111466578605227937e+02
2.138470463501970509e-01 5.111372065421340949e+02
2.139470683550380725e-01 5.111277748980593287e+02
2.140470903598791497e-01 5.111183632207663550e+02
2.141471123647202268e-01 5.111089718020346027e+02
2.142471343695612762e-01 5.110996009329438721e+02
2.143471563744023534e-01 5.110902509038655239e+02
2.144471783792434305e-01 5.110809220044471317e+02
2.145472003840845077e-01 5.110716145236045804e+02
2.146472223889255293e-01 5.110623287495103568e+02
2.147472443937666065e-01 5.110530649695807597e+02
2.148472663986076836e-01 5.110438234704661795e+02
2.149472884034487330e-01 5.110346045380408668e+02
2.150473104082898101e-01 5.110254084573888349e+02
2.151473324131308873e-01 5.110162355127959017e+02
2.152473544179719367e-01 5.110070859877373550e+02
2.153473764228129861e-01 5.109979601648663561e+02
2.154473984276540632e-01 5.109888583260041628e+02
2.155474204324951404e-01 5.109797807521285904e+02
2.156474424373361898e-01 5.109707277233632112e+02
2.157474644421772669e-01 5.109616995189658155e+02
2.158474864470183441e-01 5.109526964173190891e+02
2.159475084518593935e-01 5.109437186959178234e+02
2.160475304567004429e-01 5.109347666313602190e+02
2.161475524615415200e-01 5.109258404993350382e+02
2.162475744663825972e-01 5.109169405746118855e+02
2.163475964712236466e-01 5.109080671310314870e+02
2.164476184760647237e-01 5.108992204414927869e+02
2.165476404809058009e-01 5.108904007779439098e+02
2.166476624857468503e-01 5.108816084113713032e+02
2.167476844905878997e-01 5.108728436117888805e+02
2.168477064954289768e-01 5.108641066482271640e+02
2.169477285002700540e-01 5.108553977887240762e+02
2.170477505051111033e-01 5.108467173003123207e+02
2.171477725099521805e-01 5.108380654490104007e+02
2.172477945147932299e-01 5.108294424998135810e+02
2.173478165196343070e-01 5.108208487166792793e+02
2.174478385244753564e-01 5.108122843625211544e+02
2.175478605293164336e-01 5.108037496991965440e+02
2.176478825341575107e-01 5.107952449874964600e+02
2.177479045389985601e-01 5.107867704871351862e+02
2.178479265438396373e-01 5.107783264567406150e+02
2.179479485486806867e-01 5.107699131538445272e+02
2.180479705535217638e-01 5.107615308348704843e+02
2.181479925583628132e-01 5.107531797551267232e+02
2.182480145632038904e-01 5.107448601687925134e+02
2.183480365680449675e-01 5.107365723289114499e+02
2.184480585728860169e-01 5.107283164873795158e+02
2.185480805777270941e-01 5.107200928949359309e+02
2.186481025825681435e-01 5.107119018011530898e+02
2.187481245874092206e-01 5.107037434544268990e+02
2.188481465922502700e-01 5.106956181019662608e+02
2.189481685970913472e-01 5.106875259897839783e+02
2.190481906019324243e-01 5.106794673626868075e+02
2.191482126067734737e-01 5.106714424642663062e+02
2.192482346116145231e-01 5.106634515368880329e+02
2.193482566164556002e-01 5.106554948216826233e+02
2.194482786212966774e-01 5.106475725585371492e+02
2.195483006261377268e-01 5.106396849860839779e+02
2.196483226309788039e-01 5.106318323416913358e+02
2.197483446358198811e-01 5.106240148614562600e+02
2.198483666406609305e-01 5.106162327801919787e+02
2.199483886455019799e-01 5.106084863314211475e+02
2.200484106503430570e-01 5.106007757473646507e+02
2.201484326551841342e-01 5.105931012589344391e+02
2.202484546600251836e-01 5.105854630957218774e+02
2.203484766648662607e-01 5.105778614859905815e+02
2.204484986697073379e-01 5.105702966566661871e+02
2.205485206745483873e-01 5.105627688333279934e+02
2.206485426793894367e-01 5.105552782402003231e+02
2.207485646842305138e-01 5.105478251001408125e+02
2.208485866890715910e-01 5.105404096346364327e+02
2.209486086939126404e-01 5.105330320637892214e+02
2.210486306987537175e-01 5.105256926063118499e+02
2.211486527035947947e-01 5.105183914795156852e+02
2.212486747084358163e-01 5.105111288993044809e+02
2.213486967132768934e-01 5.105039050801639746e+02
2.214487187181179706e-01 5.104967202351547826e+02
2.215487407229590477e-01 5.104895745759014858e+02
2.216487627278000971e-01 5.104824683125878551e+02
2.217487847326411743e-01 5.104754016539441182e+02
2.218488067374822514e-01 5.104683748072414460e+02
2.219488287423232731e-01 5.104613879782829144e+02
2.220488507471643502e-01 5.104544413713957738e+02
2.221488727520054274e-01 5.104475351894207620e+02
2.222488947568465045e-01 5.104406696337064204e+02
2.223489167616875539e-01 5.104338449041006811e+02
2.224489387665286311e-01 5.104270611989419422e+02
2.225489607713697082e-01 5.104203187150509393e+02
2.226489827762107299e-01 5.104136176477238678e+02
2.227490047810518070e-01 5.104069581907228894e+02
2.228490267858928842e-01 5.104003405362702210e+02
2.229490487907339613e-01 5.103937648750379026e+02
2.230490707955750107e-01 5.103872313961427949e+02
2.231490928004160879e-01 5.103807402871361774e+02
2.232491148052571650e-01 5.103742917339979499e+02
2.233491368100981866e-01 5.103678859211293002e+02
2.234491588149392638e-01 5.103615230313424718e+02
2.235491808197803409e-01 5.103552032458567282e+02
2.236492028246214181e-01 5.103489267442887467e+02
2.237492248294624675e-01 5.103426937046455691e+02
2.238492468343035446e-01 5.103365043033184634e+02
2.239492688391445663e-01 5.103303587150739986e+02
2.240492908439856434e-01 5.103242571130481338e+02
2.241493128488267206e-01 5.103181996687384299e+02
2.242493348536677977e-01 5.103121865519968878e+02
2.243493568585088749e-01 5.103062179310244346e+02
2.244493788633499243e-01 5.103002939723612599e+02
2.245494008681910014e-01 5.102944148408822684e+02
2.246494228730320231e-01 5.102885806997898044e+02
2.247494448778731002e-01 5.102827917106051814e+02
2.248494668827141774e-01 5.102770480331648741e+02
2.249494888875552545e-01 5.102713498256115372e+02
2.250495108923963317e-01 5.102656972443885479e+02
2.251495328972373811e-01 5.102600904442325600e+02
2.252495549020784582e-01 5.102545295781683308e+02
2.253495769069194798e-01 5.102490147975011041e+02
2.254495989117605570e-01 5.102435462518115514e+02
2.255496209166016341e-01 5.102381240889474157e+02
2.256496429214427113e-01 5.102327484550199870e+02
2.257496649262837884e-01 5.102274194943965426e+02
2.258496869311248378e-01 5.102221373496937531e+02
2.259497089359658872e-01 5.102169021617718840e+02
2.260497309408069366e-01 5.102117140697309878e+02
2.261497529456480138e-01 5.102065732109015244e+02
2.262497749504890909e-01 5.102014797208412347e+02
2.263497969553301681e-01 5.101964337333278650e+02
2.264498189601712452e-01 5.101914353803547897e+02
2.265498409650122946e-01 5.101864847921234514e+02
2.266498629698533440e-01 5.101815820970405184e+02
2.267498849746943934e-01 5.101767274217096428e+02
2.268499069795354706e-01 5.101719208909286181e+02
2.269499289843765477e-01 5.101671626276811367e+02
2.270499509892176249e-01 5.101624527531338344e+02
2.271499729940587020e-01 5.101577913866306062e+02
2.272499949988997514e-01 5.101531786456863529e+02
2.273500170037408008e-01 5.101486146459827751e+02
2.274500390085818502e-01 5.101440995013642237e+02
2.275500610134229273e-01 5.101396333238308785e+02
2.276500830182640045e-01 5.101352162235340302e+02
2.277501050231050816e-01 5.101308483087735794e+02
2.278501270279461588e-01 5.101265296859909881e+02
2.279501490327871804e-01 5.101222604597648456e+02
2.280501710376282576e-01 5.101180407328071169e+02
2.281501930424693070e-01 5.101138706059580272e+02
2.282502150473103841e-01 5.101097501781816845e+02
2.283502370521514613e-01 5.101056795465626692e+02
2.284502590569925384e-01 5.101016588062987012e+02
2.285502810618336156e-01 5.100976880507005831e+02
2.286503030666746372e-01 5.100937673711846401e+02
2.287503250715157144e-01 5.100898968572699346e+02
2.288503470763567638e-01 5.100860765965746850e+02
2.289503690811978409e-01 5.100823066748109795e+02
2.290503910860389181e-01 5.100785871757815926e+02
2.291504130908799952e-01 5.100749181813764039e+02
2.292504350957210724e-01 5.100712997715684196e+02
2.293504571005620940e-01 5.100677320244101338e+02
2.294504791054031712e-01 5.100642150160292658e+02
2.295505011102442205e-01 5.100607488206250650e+02
2.296505231150852977e-01 5.100573335104674015e+02
2.297505451199263748e-01 5.100539691558893765e+02
2.298505671247674520e-01 5.100506558252874356e+02
2.299505891296084736e-01 5.100473935851159695e+02
2.300506111344495508e-01 5.100441824998844709e+02
2.301506331392906279e-01 5.100410226321558866e+02
2.302506551441316773e-01 5.100379140425416153e+02
2.303506771489727545e-01 5.100348567896991199e+02
2.304506991538138316e-01 5.100318509303298811e+02
2.305507211586549088e-01 5.100288965191755324e+02
2.306507431634959304e-01 5.100259936090154724e+02
2.307507651683370076e-01 5.100231422506645345e+02
2.308507871731780847e-01 5.100203424929699167e+02
2.309508091780191341e-01 5.100175943828082268e+02
2.310508311828602113e-01 5.100148979650845718e+02
2.311508531877012884e-01 5.100122532827275563e+02
2.312508751925423656e-01 5.100096603766910448e+02
2.313508971973833872e-01 5.100071192859463736e+02
2.314509192022244644e-01 5.100046300474859891e+02
2.315509412070655415e-01 5.100021926963167402e+02
2.316509632119065909e-01 5.099998072654599355e+02
2.317509852167476680e-01 5.099974737859507741e+02
2.318510072215887452e-01 5.099951922868325482e+02
2.319510292264298223e-01 5.099929627951589737e+02
2.320510512312708440e-01 5.099907853359892442e+02
2.321510732361119211e-01 5.099886599323892824e+02
2.322510952409529983e-01 5.099865866054273056e+02
2.323511172457940477e-01 5.099845653741743376e+02
2.324511392506351248e-01 5.099825962557019352e+02
2.325511612554762020e-01 5.099806792650817329e+02
2.326511832603172514e-01 5.099788144153820895e+02
2.327512052651583008e-01 5.099770017176697934e+02
2.328512272699993779e-01 5.099752411810067088e+02
2.329512492748404551e-01 5.099735328124491502e+02
2.330512712796815045e-01 5.099718766170475988e+02
2.331512932845225816e-01 5.099702725978456215e+02
2.332513152893636588e-01 5.099687207558786781e+02
2.333513372942047082e-01 5.099672210901727567e+02
2.334513592990457576e-01 5.099657735977456809e+02
2.335513813038868347e-01 5.099643782736047797e+02
2.336514033087279119e-01 5.099630351107464890e+02
2.337514253135689613e-01 5.099617441001576594e+02
2.338514473184100384e-01 5.099605052308125437e+02
2.339514693232511156e-01 5.099593184896746720e+02
2.340514913280921649e-01 5.099581838616945220e+02
2.341515133329332143e-01 5.099571013298121898e+02
2.342515353377742915e-01 5.099560708749553442e+02
2.343515573426153686e-01 5.099550924760389421e+02
2.344515793474564180e-01 5.099541661099669909e+02
2.345516013522974952e-01 5.099532917516315820e+02
2.346516233571385446e-01 5.099524693739131180e+02
2.347516453619796217e-01 5.099516989476805975e+02
2.348516673668206711e-01 5.099509804417930354e+02
2.349516893716617483e-01 5.099503138230986679e+02
2.350517113765028254e-01 5.099496990564357475e+02
2.351517333813438748e-01 5.099491361046342490e+02
2.352517553861849520e-01 5.099486249285149029e+02
2.353517773910260014e-01 5.099481654868912983e+02
2.354517993958670785e-01 5.099477577365705656e+02
2.355518214007081279e-01 5.099474016323526939e+02
2.356518434055492051e-01 5.099470971270341124e+02
2.357518654103902822e-01 5.099468441714077471e+02
2.358518874152313316e-01 5.099466427142621114e+02
2.359519094200724088e-01 5.099464927023864220e+02
2.360519314249134581e-01 5.099463940805682114e+02
2.361519534297545353e-01 5.099463467915975912e+02
2.362519754345955847e-01 5.099463507762663994e+02
2.363519974394366618e-01 5.099464059733723502e+02
2.364520194442777390e-01 5.099465123197171010e+02
2.365520414491187884e-01 5.099466697501114254e+02
2.366520634539598378e-01 5.099468781973746445e+02
2.367520854588009149e-01 5.099471375923381515e+02
2.368521074636419921e-01 5.099474478638456958e+02
2.369521294684830415e-01 5.099478089387569639e+02
2.370521514733241186e-01 5.099482207419483188e+02
2.371521734781651958e-01 5.099486831963153008e+02
2.372521954830062452e-01 5.099491962227760382e+02
2.373522174878472946e-01 5.099497597402713041e+02
2.374522394926883717e-01 5.099503736657691775e+02
2.375522614975294489e-01 5.099510379142654983e+02
2.376522835023704983e-01 5.099517523987883010e+02
2.377523055072115754e-01 5.099525170303995765e+02
2.378523275120526526e-01 5.099533317181960683e+02
2.379523495168937020e-01 5.099541963693159801e+02
2.380523715217347513e-01 5.099551108889380657e+02
2.381523935265758285e-01 5.099560751802870300e+02
2.382524155314169056e-01 5.099570891446349492e+02
2.383524375362579550e-01 5.099581526813050232e+02
2.384524595410990322e-01 5.099592656876752130e+02
2.385524815459401093e-01 5.099604280591794350e+02
2.386525035507811310e-01 5.099616396893133015e+02
2.387525255556222081e-01 5.099629004696371339e+02
2.388525475604632853e-01 5.099642102897764744e+02
2.389525695653043624e-01 5.099655690374287929e+02
2.390525915701454118e-01 5.099669765983672960e+02
2.391526135749864890e-01 5.099684328564413818e+02
2.392526355798275661e-01 5.099699376935826649e+02
2.393526575846685878e-01 5.099714909898094675e+02
2.394526795895096649e-01 5.099730926232289789e+02
2.395527015943507421e-01 5.099747424700407805e+02
2.396527235991918192e-01 5.099764404045429274e+02
2.397527456040328686e-01 5.099781862991355865e+02
2.398527676088739458e-01 5.099799800243231402e+02
2.399527896137150229e-01 5.099818214487208934e+02
