1.900018003960871393e+00 4.959323610265533944e+02
1.900118025965712443e+00 4.959008539128586790e+02
1.900218047970553270e+00 4.958713015426030779e+02
1.900318069975394319e+00 4.958437223761604855e+02
1.900418091980235591e+00 4.958181340578223057e+02
1.900518113985076640e+00 4.957945534070149165e+02
1.900618135989917690e+00 4.957729964099318067e+02
1.900718157994758739e+00 4.957534782115771463e+02
1.900818179999599788e+00 4.957360131082347152e+02
1.900918202004440616e+00 4.957206145403574169e+02
1.901018224009281887e+00 4.957072950858877221e+02
1.901118246014122937e+00 4.956960664540099515e+02
1.901218268018963986e+00 4.956869394793367860e+02
1.901318290023805258e+00 4.956799241165361991e+02
1.901418312028646307e+00 4.956750294353968798e+02
1.901518334033487356e+00 4.956722636163441962e+02
1.901618356038328184e+00 4.956716339463959571e+02
1.901718378043169233e+00 4.956731468155721814e+02
1.901818400048010282e+00 4.956768077137534760e+02
1.901918422052851554e+00 4.956826212279945594e+02
1.902018444057692603e+00 4.956905910402883819e+02
1.902118466062533653e+00 4.957007199257922139e+02
1.902218488067374924e+00 4.957130097515018292e+02
1.902318510072215751e+00 4.957274614753918058e+02
1.902418532077056801e+00 4.957440751460068213e+02
1.902518554081897850e+00 4.957628499025171891e+02
1.902618576086738900e+00 4.957837839752271520e+02
1.902718598091579949e+00 4.958068746865451430e+02
1.902818620096421220e+00 4.958321184524099294e+02
1.902918642101262270e+00 4.958595107841741765e+02
1.903018664106103097e+00 4.958890462909438384e+02
1.903118686110944147e+00 4.959207186823725806e+02
1.903218708115785418e+00 4.959545207719081077e+02
1.903318730120626467e+00 4.959904444804924424e+02
1.903418752125467517e+00 4.960284808407102446e+02
1.903518774130308566e+00 4.960686200013838061e+02
1.903618796135149616e+00 4.961108512326159143e+02
1.903718818139990443e+00 4.961551629312721161e+02
1.903818840144831714e+00 4.962015426269033469e+02
1.903918862149672764e+00 4.962499769881060274e+02
1.904018884154513813e+00 4.963004518293137153e+02
1.904118906159355085e+00 4.963529521180177539e+02
1.904218928164196134e+00 4.964074619824161800e+02
1.904318950169037183e+00 4.964639647194775307e+02
1.904418972173878011e+00 4.965224428034298398e+02
1.904518994178719060e+00 4.965828778946572584e+02
1.904619016183560110e+00 4.966452508490035598e+02
1.904719038188401381e+00 4.967095417274811098e+02
1.904819060193242430e+00 4.967757298063763756e+02
1.904919082198083480e+00 4.968437935877456653e+02
1.905019104202924751e+00 4.969137108103010974e+02
1.905119126207765579e+00 4.969854584606729304e+02
1.905219148212606628e+00 4.970590127850480826e+02
1.905319170217447677e+00 4.971343493011791566e+02
1.905419192222288727e+00 4.972114428107500430e+02
1.905519214227129776e+00 4.972902674121014002e+02
1.905619236231971048e+00 4.973707965133020252e+02
1.905719258236812097e+00 4.974530028455620254e+02
1.905819280241652924e+00 4.975368584769777272e+02
1.905919302246493974e+00 4.976223348266082667e+02
1.906019324251335245e+00 4.977094026788652172e+02
1.906119346256176295e+00 4.977980321982167879e+02
1.906219368261017344e+00 4.978881929441933494e+02
1.906319390265858393e+00 4.979798538866901936e+02
1.906419412270699443e+00 4.980729834215553637e+02
1.906519434275540270e+00 4.981675493864560167e+02
1.906619456280381542e+00 4.982635190770153599e+02
1.906719478285222591e+00 4.983608592632085674e+02
1.906819500290063640e+00 4.984595362060138086e+02
1.906919522294904912e+00 4.985595156743056577e+02
1.907019544299745961e+00 4.986607629619795148e+02
1.907119566304587011e+00 4.987632429053060150e+02
1.907219588309427838e+00 4.988669199004953043e+02
1.907319610314268887e+00 4.989717579214722036e+02
1.907419632319109937e+00 4.990777205378430494e+02
1.907519654323951208e+00 4.991847709330543807e+02
1.907619676328792258e+00 4.992928719227204510e+02
1.907719698333633307e+00 4.994019859731286601e+02
1.907819720338474578e+00 4.995120752198883451e+02
1.907919742343315406e+00 4.996231014867393014e+02
1.908019764348156455e+00 4.997350263044874623e+02
1.908119786352997505e+00 4.998478109300707501e+02
1.908219808357838554e+00 4.999614163657400354e+02
1.908319830362679603e+00 5.000758033783467909e+02
1.908419852367520875e+00 5.001909325187237982e+02
1.908519874372361924e+00 5.003067641411516320e+02
1.908619896377202751e+00 5.004232584228992664e+02
1.908719918382043801e+00 5.005403753838285184e+02
1.908819940386885072e+00 5.006580749060485687e+02
1.908919962391726122e+00 5.007763167536190281e+02
1.909019984396567171e+00 5.008950605922768204e+02
1.909120006401408220e+00 5.010142660091888729e+02
1.909220028406249048e+00 5.011338925327160609e+02
1.909320050411090097e+00 5.012538996521714125e+02
1.909420072415931369e+00 5.013742468375726844e+02
1.909520094420772418e+00 5.014948935593704391e+02
1.909620116425613467e+00 5.016157993081428117e+02
1.909720138430454739e+00 5.017369236142513955e+02
1.909820160435295788e+00 5.018582260674373856e+02
1.909920182440136616e+00 5.019796663363597986e+02
1.910020204444977665e+00 5.021012041880539414e+02
1.910120226449818714e+00 5.022227995073067746e+02
1.910220248454659764e+00 5.023444123159364381e+02
1.910320270459501035e+00 5.024660027919663889e+02
1.910420292464342085e+00 5.025875312886814754e+02
1.910520314469183134e+00 5.027089583535575912e+02
1.910620336474023961e+00 5.028302447470565539e+02
1.910720358478865233e+00 5.029513514612712015e+02
1.910820380483706282e+00 5.030722397384143960e+02
1.910920402488547332e+00 5.031928710891429546e+02
1.911020424493388381e+00 5.033132073107025803e+02
1.911120446498229430e+00 5.034332105048866879e+02
1.911220468503070702e+00 5.035528430957999149e+02
1.911320490507911529e+00 5.036720678474152919e+02
1.911420512512752579e+00 5.037908478809184203e+02
1.911520534517593628e+00 5.039091466918217748e+02
1.911620556522434899e+00 5.040269281668546455e+02
1.911720578527275949e+00 5.041441566005999562e+02
1.911820600532116998e+00 5.042607967118906913e+02
1.911920622536958048e+00 5.043768136599369427e+02
1.912020644541798875e+00 5.044921730601903960e+02
1.912120666546639924e+00 5.046068409999285223e+02
1.912220688551481196e+00 5.047207840535557466e+02
1.912320710556322245e+00 5.048339692976095421e+02
1.912420732561163295e+00 5.049463643254658223e+02
1.912520754566004566e+00 5.050579372617368108e+02
1.912620776570845615e+00 5.051686567763473477e+02
1.912720798575686443e+00 5.052784920982939525e+02
1.912820820580527492e+00 5.053874130290670337e+02
1.912920842585368542e+00 5.054953899557378918e+02
1.913020864590209591e+00 5.056023938636988646e+02
1.913120886595050862e+00 5.057083963490528618e+02
1.913220908599891912e+00 5.058133696306427964e+02
1.913320930604732961e+00 5.059172865617208572e+02
1.913420952609573789e+00 5.060201206412401689e+02
1.913520974614415060e+00 5.061218460247777102e+02
1.913620996619256109e+00 5.062224375350704690e+02
1.913721018624097159e+00 5.063218706721647777e+02
1.913821040628938208e+00 5.064201216231749640e+02
1.913921062633779258e+00 5.065171672716445528e+02
1.914021084638620529e+00 5.066129852065024579e+02
1.914121106643461356e+00 5.067075537306159845e+02
1.914221128648302406e+00 5.068008518689299535e+02
1.914321150653143455e+00 5.068928593761949628e+02
1.914421172657984727e+00 5.069835567442718229e+02
1.914521194662825776e+00 5.070729252090183081e+02
1.914621216667666825e+00 5.071609467567481033e+02
1.914721238672507875e+00 5.072476041302604699e+02
1.914821260677348702e+00 5.073328808344411982e+02
1.914921282682189752e+00 5.074167611414275143e+02
1.915021304687031023e+00 5.074992300953357471e+02
1.915121326691872072e+00 5.075802735165565878e+02
1.915221348696713122e+00 5.076598780055990687e+02
1.915321370701554393e+00 5.077380309465053756e+02
1.915421392706395443e+00 5.078147205098132417e+02
1.915521414711236270e+00 5.078899356550787729e+02
1.915621436716077319e+00 5.079636661329529375e+02
1.915721458720918369e+00 5.080359024868122333e+02
1.915821480725759418e+00 5.081066360539454081e+02
1.915921502730600690e+00 5.081758589662916279e+02
1.916021524735441739e+00 5.082435641507333912e+02
1.916121546740282788e+00 5.083097453289474288e+02
1.916221568745123616e+00 5.083743970168073929e+02
1.916321590749964887e+00 5.084375145233431113e+02
1.916421612754805937e+00 5.084990939492614643e+02
1.916521634759646986e+00 5.085591321850203030e+02
1.916621656764488035e+00 5.086176269084697310e+02
1.916721678769329085e+00 5.086745765820495535e+02
1.916821700774170356e+00 5.087299804495586386e+02
1.916921722779011183e+00 5.087838385324851060e+02
1.917021744783852233e+00 5.088361516259121231e+02
1.917121766788693282e+00 5.088869212939933391e+02
1.917221788793534554e+00 5.089361498650062572e+02
1.917321810798375603e+00 5.089838404259852496e+02
1.917421832803216653e+00 5.090299968169371141e+02
1.917521854808057702e+00 5.090746236246461649e+02
1.917621876812898529e+00 5.091177261760681176e+02
1.917721898817739579e+00 5.091593105313214096e+02
1.917821920822580850e+00 5.091993834762806159e+02
1.917921942827421899e+00 5.092379525147699724e+02
1.918021964832262949e+00 5.092750258603755356e+02
1.918121986837104220e+00 5.093106124278639300e+02
1.918222008841945270e+00 5.093447218242301915e+02
1.918322030846786097e+00 5.093773643393681141e+02
1.918422052851627146e+00 5.094085509363735014e+02
1.918522074856468196e+00 5.094382932414901575e+02
1.918622096861309245e+00 5.094666035336962295e+02
1.918722118866150517e+00 5.094934947339468181e+02
1.918822140870991566e+00 5.095189803940725142e+02
1.918922162875832615e+00 5.095430746853446635e+02
1.919022184880673443e+00 5.095657923867148043e+02
1.919122206885514714e+00 5.095871488727291876e+02
1.919222228890355764e+00 5.096071601011394705e+02
1.919322250895196813e+00 5.096258426001975295e+02
1.919422272900037862e+00 5.096432134556661140e+02
1.919522294904878912e+00 5.096592902975282868e+02
1.919622316909720183e+00 5.096740912864256643e+02
1.919722338914561011e+00 5.096876350998188627e+02
1.919822360919402060e+00 5.096999409178851010e+02
1.919922382924243109e+00 5.097110284091643280e+02
1.920022404929084381e+00 5.097209177159533624e+02
1.920122426933925430e+00 5.097296294394651568e+02
1.920222448938766480e+00 5.097371846247607436e+02
1.920322470943607529e+00 5.097436047454598906e+02
1.920422492948448356e+00 5.097489116882435383e+02
1.920522514953289406e+00 5.097531277371542160e+02
1.920622536958130677e+00 5.097562755577067719e+02
1.920722558962971727e+00 5.097583781808166918e+02
1.920822580967812776e+00 5.097594589865584567e+02
1.920922602972654047e+00 5.097595416877593948e+02
1.921022624977495097e+00 5.097586503134458553e+02
1.921122646982335924e+00 5.097568091921434075e+02
1.921222668987176974e+00 5.097540429350478917e+02
1.921322690992018023e+00 5.097503764190759057e+02
1.921422712996859072e+00 5.097458347697995578e+02
1.921522735001700344e+00 5.097404433442853815e+02
1.921622757006541393e+00 5.097342277138402551e+02
1.921722779011382443e+00 5.097272136466772281e+02
1.921822801016223270e+00 5.097194270905118856e+02
1.921922823021064541e+00 5.097108941550987993e+02
1.922022845025905591e+00 5.097016410947202303e+02
1.922122867030746640e+00 5.096916942906367467e+02
1.922222889035587690e+00 5.096810802335078847e+02
1.922322911040428739e+00 5.096698255057985989e+02
1.922422933045270010e+00 5.096579567641784365e+02
1.922522955050110838e+00 5.096455007219216213e+02
1.922622977054951887e+00 5.096324841313279990e+02
1.922722999059792937e+00 5.096189337661622289e+02
1.922823021064634208e+00 5.096048764041335062e+02
1.922923043069475257e+00 5.095903388094190518e+02
1.923023065074316307e+00 5.095753477152455844e+02
1.923123087079157356e+00 5.095599298065375251e+02
1.923223109083998184e+00 5.095441117026402935e+02
1.923323131088839233e+00 5.095279199401360302e+02
1.923423153093680504e+00 5.095113809557533955e+02
1.923523175098521554e+00 5.094945210693871900e+02
1.923623197103362603e+00 5.094773664672378004e+02
1.923723219108203875e+00 5.094599431850750193e+02
1.923823241113044924e+00 5.094422770916468153e+02
1.923923263117885751e+00 5.094243938722300982e+02
1.924023285122726801e+00 5.094063190123436016e+02
1.924123307127567850e+00 5.093880777816284535e+02
1.924223329132408900e+00 5.093696952179043933e+02
1.924323351137250171e+00 5.093511961114157884e+02
1.924423373142091220e+00 5.093326049892722267e+02
1.924523395146932270e+00 5.093139461000970414e+02
1.924623417151773097e+00 5.092952433988876919e+02
1.924723439156614369e+00 5.092765205321022108e+02
1.924823461161455418e+00 5.092578008229810393e+02
1.924923483166296467e+00 5.092391072571037967e+02
1.925023505171137517e+00 5.092204624682046301e+02
1.925123527175978566e+00 5.092018887242376195e+02
1.925223549180819838e+00 5.091834079137179856e+02
1.925323571185660665e+00 5.091650415323318839e+02
1.925423593190501714e+00 5.091468106698312113e+02
1.925523615195342764e+00 5.091287359972218951e+02
1.925623637200184035e+00 5.091108377542471999e+02
1.925723659205025085e+00 5.090931357371776471e+02
1.925823681209866134e+00 5.090756492869160752e+02
1.925923703214707183e+00 5.090583972774230688e+02
1.926023725219548011e+00 5.090413981044663956e+02
1.926123747224389060e+00 5.090246696747072974e+02
1.926223769229230331e+00 5.090082293951259089e+02
1.926323791234071381e+00 5.089920941627939328e+02
1.926423813238912430e+00 5.089762803550001422e+02
1.926523835243753702e+00 5.089608038197330870e+02
1.926623857248594529e+00 5.089456798665292467e+02
1.926723879253435578e+00 5.089309232576910631e+02
1.926823901258276628e+00 5.089165481998775817e+02
1.926923923263117677e+00 5.089025683360771950e+02
1.927023945267958727e+00 5.088889967379649875e+02
1.927123967272799998e+00 5.088758458986471851e+02
1.927223989277641047e+00 5.088631277257994157e+02
1.927324011282481875e+00 5.088508535352041235e+02
1.927424033287322924e+00 5.088390340446857749e+02
1.927524055292164196e+00 5.088276793684549375e+02
1.927624077297005245e+00 5.088167990118564035e+02
1.927724099301846294e+00 5.088064018665304502e+02
1.927824121306687344e+00 5.087964962059878644e+02
1.927924143311528393e+00 5.087870896816004347e+02
1.928024165316369221e+00 5.087781893190121991e+02
1.928124187321210492e+00 5.087698015149683215e+02
1.928224209326051541e+00 5.087619320345696110e+02
1.928324231330892591e+00 5.087545860089499001e+02
1.928424253335733862e+00 5.087477679333787250e+02
1.928524275340574912e+00 5.087414816657912979e+02
1.928624297345415961e+00 5.087357304257458850e+02
1.928724319350256788e+00 5.087305167938064301e+02
1.928824341355097838e+00 5.087258427113583252e+02
1.928924363359938887e+00 5.087217094808472666e+02
1.929024385364780159e+00 5.087181177664487564e+02
1.929124407369621208e+00 5.087150675951643848e+02
1.929224429374462257e+00 5.087125583583456319e+02
1.929324451379303529e+00 5.087105888136400154e+02
1.929424473384144356e+00 5.087091570873658384e+02
1.929524495388985406e+00 5.087082606773075213e+02
1.929624517393826455e+00 5.087078964559308929e+02
1.929724539398667504e+00 5.087080606740200892e+02
1.929824561403508554e+00 5.087087489647277607e+02
1.929924583408349825e+00 5.087099563480436473e+02
1.930024605413190875e+00 5.087116772356701517e+02
1.930124627418031702e+00 5.087139054363069590e+02
1.930224649422872751e+00 5.087166341613446434e+02
1.930324671427714023e+00 5.087198560309521440e+02
1.930424693432555072e+00 5.087235630805719211e+02
1.930524715437396122e+00 5.087277467677945992e+02
1.930624737442237171e+00 5.087323979796392450e+02
1.930724759447078220e+00 5.087375070402044344e+02
1.930824781451919048e+00 5.087430637187061393e+02
1.930924803456760319e+00 5.087490572378906677e+02
1.931024825461601369e+00 5.087554762828152661e+02
1.931124847466442418e+00 5.087623090099913270e+02
1.931224869471283689e+00 5.087695430568923030e+02
1.931324891476124739e+00 5.087771655518068314e+02
1.931424913480965788e+00 5.087851631240468464e+02
1.931524935485806616e+00 5.087935219144851544e+02
1.931624957490647665e+00 5.088022275864386756e+02
1.931724979495488714e+00 5.088112653368700649e+02
1.931825001500329986e+00 5.088206199079129419e+02
1.931925023505171035e+00 5.088302755987101023e+02
1.932025045510012085e+00 5.088402162775558963e+02
1.932125067514853356e+00 5.088504253943394247e+02
1.932225089519694183e+00 5.088608859932742234e+02
1.932325111524535233e+00 5.088715807259141002e+02
1.932425133529376282e+00 5.088824918644421018e+02
1.932525155534217332e+00 5.088936013152258511e+02
1.932625177539058381e+00 5.089048906326287920e+02
1.932725199543899652e+00 5.089163410330750708e+02
1.932825221548740702e+00 5.089279334093511125e+02
1.932925243553581529e+00 5.089396483451411086e+02
1.933025265558422578e+00 5.089514661297829434e+02
1.933125287563263850e+00 5.089633667732398976e+02
1.933225309568104899e+00 5.089753300212771023e+02
1.933325331572945949e+00 5.089873353708293848e+02
1.933425353577786998e+00 5.089993620855581185e+02
1.933525375582628048e+00 5.090113892115812178e+02
1.933625397587468875e+00 5.090233955933704237e+02
1.933725419592310146e+00 5.090353598898033738e+02
1.933825441597151196e+00 5.090472605903634644e+02
1.933925463601992245e+00 5.090590760314730687e+02
1.934025485606833517e+00 5.090707844129539694e+02
1.934125507611674566e+00 5.090823638146036956e+02
1.934225529616515615e+00 5.090937922128766218e+02
1.934325551621356443e+00 5.091050474976563009e+02
1.934425573626197492e+00 5.091161074891190879e+02
1.934525595631038541e+00 5.091269499546658608e+02
1.934625617635879813e+00 5.091375526259159869e+02
1.934725639640720862e+00 5.091478932157601207e+02
1.934825661645561912e+00 5.091579494354483018e+02
1.934925683650403183e+00 5.091676990117113064e+02
1.935025705655244010e+00 5.091771197039026333e+02
1.935125727660085060e+00 5.091861893211515735e+02
1.935225749664926109e+00 5.091948857395101982e+02
1.935325771669767159e+00 5.092031869190943780e+02
1.935425793674608208e+00 5.092110709211960966e+02
1.935525815679449479e+00 5.092185159253677966e+02
1.935625837684290529e+00 5.092255002464561358e+02
1.935725859689131356e+00 5.092320023515878802e+02
1.935825881693972406e+00 5.092380008770823565e+02
1.935925903698813677e+00 5.092434746452931904e+02
1.936025925703654726e+00 5.092484026813573905e+02
1.936125947708495776e+00 5.092527642298535966e+02
1.936225969713336825e+00 5.092565387713436280e+02
1.936325991718177875e+00 5.092597060388018804e+02
1.936426013723018702e+00 5.092622460339109125e+02
1.936526035727859973e+00 5.092641390432175967e+02
1.936626057732701023e+00 5.092653656541422151e+02
1.936726079737542072e+00 5.092659067708226530e+02
1.936826101742383344e+00 5.092657436297913591e+02
1.936926123747224393e+00 5.092648578154687584e+02
1.937026145752065442e+00 5.092632312754690815e+02
1.937126167756906270e+00 5.092608463357025812e+02
1.937226189761747319e+00 5.092576857152691332e+02
1.937326211766588369e+00 5.092537325411316829e+02
1.937426233771429640e+00 5.092489703625598167e+02
1.937526255776270689e+00 5.092433831653342509e+02
1.937626277781111739e+00 5.092369553857046185e+02
1.937726299785953010e+00 5.092296719240866878e+02
1.937826321790793838e+00 5.092215181584996344e+02
1.937926343795634887e+00 5.092124799577185286e+02
1.938026365800475936e+00 5.092025436941527232e+02
1.938126387805316986e+00 5.091916962564282585e+02
1.938226409810158035e+00 5.091799250616670065e+02
1.938326431814999307e+00 5.091672180674599986e+02
1.938426453819840356e+00 5.091535637835256125e+02
1.938526475824681183e+00 5.091389512830376702e+02
1.938626497829522233e+00 5.091233702136294141e+02
1.938726519834363504e+00 5.091068108080467027e+02
1.938826541839204554e+00 5.090892638944673649e+02
1.938926563844045603e+00 5.090707209064555627e+02
1.939026585848886652e+00 5.090511738925627583e+02
1.939126607853727702e+00 5.090306155255564136e+02
1.939226629858568529e+00 5.090090391112782982e+02
1.939326651863409801e+00 5.089864385971209231e+02
1.939426673868250850e+00 5.089628085801189172e+02
1.939526695873091899e+00 5.089381443146473885e+02
1.939626717877933171e+00 5.089124417197258481e+02
1.939726739882774220e+00 5.088856973859149093e+02
1.939826761887615270e+00 5.088579085818112731e+02
1.939926783892456097e+00 5.088290732601253126e+02
1.940026805897297146e+00 5.087991900633430760e+02
1.940126827902138196e+00 5.087682583289688409e+02
1.940226849906979467e+00 5.087362780943398661e+02
1.940326871911820517e+00 5.087032501010132819e+02
1.940426893916661566e+00 5.086691757987183564e+02
1.940526915921502837e+00 5.086340573488756718e+02
1.940626937926343665e+00 5.085978976276737171e+02
1.940726959931184714e+00 5.085607002287050022e+02
1.940826981936025764e+00 5.085224694651572008e+02
1.940927003940866813e+00 5.084832103715593234e+02
1.941027025945707862e+00 5.084429287050730295e+02
1.941127047950549134e+00 5.084016309463419816e+02
1.941227069955390183e+00 5.083593242998803134e+02
1.941327091960231011e+00 5.083160166940138538e+02
1.941427113965072060e+00 5.082717167803630218e+02
1.941527135969913331e+00 5.082264339328740448e+02
1.941627157974754381e+00 5.081801782463910513e+02
1.941727179979595430e+00 5.081329605347751794e+02
1.941827201984436480e+00 5.080847923285664365e+02
1.941927223989277529e+00 5.080356858721914364e+02
1.942027245994118356e+00 5.079856541207183227e+02
1.942127267998959628e+00 5.079347107361525104e+02
1.942227290003800677e+00 5.078828700832874574e+02
1.942327312008641726e+00 5.078301472250978463e+02
1.942427334013482998e+00 5.077765579176906954e+02
1.942527356018324047e+00 5.077221186048017216e+02
1.942627378023165097e+00 5.076668464118528732e+02
1.942727400028005924e+00 5.076107591395658574e+02
1.942827422032846973e+00 5.075538752571360419e+02
1.942927444037688023e+00 5.074962138949695145e+02
1.943027466042529294e+00 5.074377948369880187e+02
1.943127488047370344e+00 5.073786385125060860e+02
1.943227510052211393e+00 5.073187659876801945e+02
1.943327532057052665e+00 5.072581989565388767e+02
1.943427554061893492e+00 5.071969597315937222e+02
1.943527576066734541e+00 5.071350712340408222e+02
1.943627598071575591e+00 5.070725569835537954e+02
1.943727620076416640e+00 5.070094410876745883e+02
1.943827642081257689e+00 5.069457482308071690e+02
1.943927664086098961e+00 5.068815036628224675e+02
1.944027686090939788e+00 5.068167331872746217e+02
1.944127708095780838e+00 5.067514631492430226e+02
1.944227730100621887e+00 5.066857204227958960e+02
1.944327752105463158e+00 5.066195323980935541e+02
1.944427774110304208e+00 5.065529269681281903e+02
1.944527796115145257e+00 5.064859325151156781e+02
1.944627818119986307e+00 5.064185778965363625e+02
1.944727840124827134e+00 5.063508924308455335e+02
1.944827862129668183e+00 5.062829058828496045e+02
1.944927884134509455e+00 5.062146484487619773e+02
1.945027906139350504e+00 5.061461507409453588e+02
1.945127928144191554e+00 5.060774437723471806e+02
1.945227950149032825e+00 5.060085589406415352e+02
1.945327972153873874e+00 5.059395280120786538e+02
1.945427994158714702e+00 5.058703831050588633e+02
1.945528016163555751e+00 5.058011566734330131e+02
1.945628038168396801e+00 5.057318814895444348e+02
1.945728060173237850e+00 5.056625906270195401e+02
1.945828082178079121e+00 5.055933174433125146e+02
1.945928104182920171e+00 5.055240955620217278e+02
1.946028126187761220e+00 5.054549588549816121e+02
1.946128148192602048e+00 5.053859414241441073e+02
1.946228170197443319e+00 5.053170775832533081e+02
1.946328192202284368e+00 5.052484018393345195e+02
1.946428214207125418e+00 5.051799488739956132e+02
1.946528236211966467e+00 5.051117535245616637e+02
1.946628258216807517e+00 5.050438507650461020e+02
1.946728280221648788e+00 5.049762756869754412e+02
1.946828302226489615e+00 5.049090634800717794e+02
1.946928324231330665e+00 5.048422494128108724e+02
1.947028346236171714e+00 5.047758688128606650e+02
1.947128368241012986e+00 5.047099570474168218e+02
1.947228390245854035e+00 5.046445495034424766e+02
1.947328412250695084e+00 5.045796815678253324e+02
1.947428434255536134e+00 5.045153886074640468e+02
1.947528456260376961e+00 5.044517059492931139e+02
1.947628478265218011e+00 5.043886688602598838e+02
1.947728500270059282e+00 5.043263125272666230e+02
1.947828522274900331e+00 5.042646720370811408e+02
1.947928544279741381e+00 5.042037823562424137e+02
1.948028566284582652e+00 5.041436783109564317e+02
1.948128588289423702e+00 5.040843945670030166e+02
1.948228610294264529e+00 5.040259656096708341e+02
1.948328632299105578e+00 5.039684257237128122e+02
1.948428654303946628e+00 5.039118089733586885e+02
1.948528676308787677e+00 5.038561491823754750e+02
1.948628698313628949e+00 5.038014799141991489e+02
1.948728720318469998e+00 5.037478344521469467e+02
1.948828742323311047e+00 5.036952457797172542e+02
1.948928764328151875e+00 5.036437465609969308e+02
1.949028786332993146e+00 5.035933691211805012e+02
1.949128808337834196e+00 5.035441454272145165e+02
1.949228830342675245e+00 5.034961070685814093e+02
1.949328852347516294e+00 5.034492852382318233e+02
1.949428874352357344e+00 5.034037107136753093e+02
1.949528896357198615e+00 5.033594138382444498e+02
1.949628918362039443e+00 5.033164245025412242e+02
1.949728940366880492e+00 5.032747721260750495e+02
1.949828962371721541e+00 5.032344856391090389e+02
1.949928984376562813e+00 5.031955934647184563e+02
1.950029006381403862e+00 5.031581235010780233e+02
1.950129028386244912e+00 5.031221031039839318e+02
1.950229050391085961e+00 5.030875590696268205e+02
1.950329072395926788e+00 5.030545176176187852e+02
1.950429094400767838e+00 5.030230043742905650e+02
1.950529116405609109e+00 5.029930443562690243e+02
1.950629138410450159e+00 5.029646619543409543e+02
1.950729160415291208e+00 5.029378809176150185e+02
1.950829182420132479e+00 5.029127243379927563e+02
1.950929204424973529e+00 5.028892146349577388e+02
1.951029226429814356e+00 5.028673735406919150e+02
1.951129248434655405e+00 5.028472220855236969e+02
1.951229270439496455e+00 5.028287805837314295e+02
1.951329292444337504e+00 5.028120686196879205e+02
1.951429314449178776e+00 5.027971050343803654e+02
1.951529336454019825e+00 5.027839079122913404e+02
1.951629358458860874e+00 5.027724945686671276e+02
1.951729380463701702e+00 5.027628815371682549e+02
1.951829402468542973e+00 5.027550845579188490e+02
1.951929424473384023e+00 5.027491185659569055e+02
1.952029446478225072e+00 5.027449976800969580e+02
1.952129468483066121e+00 5.027427351922092953e+02
1.952229490487907171e+00 5.027423435569231174e+02
1.952329512492748442e+00 5.027438343817647706e+02
1.952429534497589270e+00 5.027472184177285044e+02
1.952529556502430319e+00 5.027525055502974851e+02
1.952629578507271368e+00 5.027597047909072216e+02
1.952729600512112640e+00 5.027688242688752780e+02
1.952829622516953689e+00 5.027798712237830614e+02
1.952929644521794739e+00 5.027928519983289561e+02
1.953029666526635788e+00 5.028077720316539398e+02
1.953129688531476615e+00 5.028246358531393412e+02
1.953229710536317665e+00 5.028434470766923141e+02
1.953329732541158936e+00 5.028642083955105022e+02
1.953429754545999986e+00 5.028869215773376027e+02
1.953529776550841035e+00 5.029115874602138092e+02
1.953629798555682306e+00 5.029382059487202810e+02
1.953729820560523356e+00 5.029667760107230947e+02
1.953829842565364183e+00 5.029972956746213413e+02
1.953929864570205233e+00 5.030297620270959555e+02
1.954029886575046282e+00 5.030641712113713311e+02
1.954129908579887331e+00 5.031005184259785210e+02
1.954229930584728603e+00 5.031387979240371919e+02
1.954329952589569652e+00 5.031790030130434843e+02
1.954429974594410702e+00 5.032211260551714531e+02
1.954529996599251529e+00 5.032651584680955921e+02
1.954630018604092800e+00 5.033110907263175022e+02
1.954730040608933850e+00 5.033589123630127915e+02
1.954830062613774899e+00 5.034086119723972388e+02
1.954930084618615949e+00 5.034601772125954540e+02
1.955030106623456998e+00 5.035135948090365900e+02
1.955130128628298269e+00 5.035688505583528354e+02
1.955230150633139097e+00 5.036259293327958630e+02
1.955330172637980146e+00 5.036848150851594141e+02
1.955430194642821196e+00 5.037454908542123349e+02
1.955530216647662467e+00 5.038079387706372927e+02
1.955630238652503516e+00 5.038721400634754559e+02
1.955730260657344566e+00 5.039380750670657108e+02
1.955830282662185615e+00 5.040057232284922293e+02
1.955930304667026443e+00 5.040750631155187307e+02
1.956030326671867492e+00 5.041460724250177918e+02
1.956130348676708763e+00 5.042187279918865102e+02
1.956230370681549813e+00 5.042930057984478935e+02
1.956330392686390862e+00 5.043688809843298486e+02
1.956430414691232134e+00 5.044463278568180158e+02
1.956530436696073183e+00 5.045253199016809731e+02
1.956630458700914010e+00 5.046058297944562128e+02
1.956730480705755060e+00 5.046878294121988233e+02
1.956830502710596109e+00 5.047712898456811104e+02
1.956930524715437159e+00 5.048561814120404279e+02
1.957030546720278430e+00 5.049424736678681711e+02
1.957130568725119479e+00 5.050301354227323145e+02
1.957230590729960529e+00 5.051191347531288329e+02
1.957330612734801356e+00 5.052094390168532527e+02
1.957430634739642628e+00 5.053010148677870461e+02
1.957530656744483677e+00 5.053938282710871590e+02
1.957630678749324726e+00 5.054878445187767966e+02
1.957730700754165776e+00 5.055830282457256999e+02
1.957830722759006825e+00 5.056793434460108756e+02
1.957930744763848097e+00 5.057767534896536858e+02
1.958030766768688924e+00 5.058752211397191445e+02
1.958130788773529973e+00 5.059747085697738953e+02
1.958230810778371023e+00 5.060751773816895138e+02
1.958330832783212294e+00 5.061765886237856193e+02
1.958430854788053344e+00 5.062789028092974490e+02
1.958530876792894393e+00 5.063820799351664732e+02
1.958630898797735442e+00 5.064860795011385335e+02
1.958730920802576270e+00 5.065908605291559752e+02
1.958830942807417319e+00 5.066963815830487192e+02
1.958930964812258591e+00 5.068026007884910769e+02
1.959030986817099640e+00 5.069094758532356195e+02
1.959131008821940689e+00 5.070169640875976143e+02
1.959231030826781961e+00 5.071250224251896839e+02
1.959331052831623010e+00 5.072336074438885589e+02
1.959431074836463837e+00 5.073426753870263610e+02
1.959531096841304887e+00 5.074521821847935144e+02
1.959631118846145936e+00 5.075620834758439059e+02
1.959731140850986986e+00 5.076723346290875156e+02
1.959831162855828257e+00 5.077828907656611364e+02
1.959931184860669307e+00 5.078937067810669532e+02
1.960031206865510356e+00 5.080047373674595406e+02
1.960131228870351183e+00 5.081159370360811636e+02
1.960231250875192455e+00 5.082272601398215102e+02
1.960331272880033504e+00 5.083386608958983288e+02
1.960431294884874553e+00 5.084500934086385655e+02
1.960531316889715603e+00 5.085615116923598862e+02
1.960631338894556652e+00 5.086728696943239925e+02
1.960731360899397924e+00 5.087841213177643453e+02
1.960831382904238751e+00 5.088952204449659575e+02
1.960931404909079800e+00 5.090061209603878751e+02
1.961031426913920850e+00 5.091167767738173779e+02
1.961131448918762121e+00 5.092271418435407782e+02
1.961231470923603171e+00 5.093371701995201875e+02
1.961331492928444220e+00 5.094468159665594840e+02
1.961431514933285047e+00 5.095560333874536809e+02
1.961531536938126097e+00 5.096647768461025976e+02
1.961631558942967146e+00 5.097730008905786576e+02
1.961731580947808418e+00 5.098806602561377304e+02
1.961831602952649467e+00 5.099877098881563597e+02
1.961931624957490516e+00 5.100941049649885031e+02
1.962031646962331788e+00 5.101998009207222253e+02
1.962131668967172615e+00 5.103047534678312900e+02
1.962231690972013665e+00 5.104089186197005006e+02
1.962331712976854714e+00 5.105122527130223489e+02
1.962431734981695763e+00 5.106147124300424593e+02
1.962531756986536813e+00 5.107162548206522956e+02
1.962631778991378084e+00 5.108168373243046290e+02
1.962731800996219134e+00 5.109164177917515417e+02
1.962831823001059961e+00 5.110149545065830807e+02
1.962931845005901010e+00 5.111124062065631506e+02
1.963031867010742282e+00 5.112087321047432624e+02
1.963131889015583331e+00 5.113038919103474882e+02
1.963231911020424381e+00 5.113978458494146366e+02
1.963331933025265430e+00 5.114905546851883287e+02
1.963431955030106479e+00 5.115819797382382035e+02
1.963531977034947307e+00 5.116720829063108908e+02
1.963631999039788578e+00 5.117608266838890927e+02
1.963732021044629628e+00 5.118481741814519523e+02
1.963832043049470677e+00 5.119340891444319368e+02
1.963932065054311948e+00 5.120185359718446989e+02
1.964032087059152998e+00 5.121014797345968645e+02
1.964132109063994047e+00 5.121828861934468478e+02
1.964232131068834875e+00 5.122627218166190914e+02
1.964332153073675924e+00 5.123409537970558176e+02
1.964432175078516973e+00 5.124175500693019103e+02
1.964532197083358245e+00 5.124924793260082652e+02
1.964632219088199294e+00 5.125657110340463305e+02
1.964732241093040344e+00 5.126372154502242893e+02
1.964832263097881615e+00 5.127069636366006762e+02
1.964932285102722442e+00 5.127749274753768987e+02
1.965032307107563492e+00 5.128410796833712766e+02
1.965132329112404541e+00 5.129053938260547056e+02
1.965232351117245591e+00 5.129678443311577212e+02
1.965332373122086640e+00 5.130284065018150841e+02
1.965432395126927911e+00 5.130870565292684660e+02
1.965532417131768961e+00 5.131437715050997213e+02
1.965632439136609788e+00 5.131985294329970202e+02
1.965732461141450838e+00 5.132513092400441792e+02
1.965832483146292109e+00 5.133020907875290959e+02
1.965932505151133158e+00 5.133508548812633308e+02
1.966032527155974208e+00 5.133975832814041951e+02
1.966132549160815257e+00 5.134422587117830972e+02
1.966232571165656307e+00 5.134848648687204786e+02
1.966332593170497134e+00 5.135253864293363222e+02
1.966432615175338405e+00 5.135638090593430434e+02
1.966532637180179455e+00 5.136001194203176965e+02
1.966632659185020504e+00 5.136343051764500842e+02
1.966732681189861776e+00 5.136663550007668846e+02
1.966832703194702825e+00 5.136962585808148560e+02
1.966932725199543874e+00 5.137240066238209693e+02
1.967032747204384702e+00 5.137495908613018401e+02
1.967132769209225751e+00 5.137730040531433815e+02
1.967232791214066800e+00 5.137942399911289613e+02
1.967332813218908072e+00 5.138132935019243632e+02
1.967432835223749121e+00 5.138301604495168249e+02
1.967532857228590171e+00 5.138448377371057632e+02
1.967632879233431442e+00 5.138573233084372305e+02
1.967732901238272269e+00 5.138676161485950615e+02
1.967832923243113319e+00 5.138757162842332491e+02
1.967932945247954368e+00 5.138816247832601221e+02
1.968032967252795418e+00 5.138853437539712559e+02
1.968132989257636467e+00 5.138868763436242943e+02
1.968233011262477739e+00 5.138862267364697800e+02
1.968333033267318788e+00 5.138834001512265104e+02
1.968433055272159615e+00 5.138784028380092650e+02
1.968533077277000665e+00 5.138712420747086753e+02
1.968633099281841936e+00 5.138619261628258528e+02
1.968733121286682985e+00 5.138504644227593872e+02
1.968833143291524035e+00 5.138368671885577896e+02
1.968933165296365084e+00 5.138211458021262388e+02
1.969033187301206134e+00 5.138033126069014997e+02
1.969133209306046961e+00 5.137833809409934247e+02
1.969233231310888232e+00 5.137613651297979231e+02
1.969333253315729282e+00 5.137372804780848128e+02
1.969433275320570331e+00 5.137111432615645299e+02
1.969533297325411603e+00 5.136829707179405204e+02
1.969633319330252652e+00 5.136527810374479941e+02
1.969733341335093701e+00 5.136205933528882497e+02
1.969833363339934529e+00 5.135864277291618691e+02
1.969933385344775578e+00 5.135503051523031672e+02
1.970033407349616628e+00 5.135122475180331776e+02
1.970133429354457899e+00 5.134722776198212841e+02
1.970233451359298948e+00 5.134304191364740291e+02
1.970333473364139998e+00 5.133866966192554173e+02
1.970433495368981269e+00 5.133411354785401954e+02
1.970533517373822097e+00 5.132937619700145433e+02
1.970633539378663146e+00 5.132446031804295217e+02
1.970733561383504195e+00 5.131936870129102317e+02
1.970833583388345245e+00 5.131410421718358066e+02
1.970933605393186294e+00 5.130866981472950101e+02
1.971033627398027566e+00 5.130306851991257417e+02
1.971133649402868615e+00 5.129730343405461781e+02
1.971233671407709442e+00 5.129137773213914215e+02
1.971333693412550492e+00 5.128529466109583836e+02
1.971433715417391763e+00 5.127905753804727738e+02
1.971533737422232813e+00 5.127266974851872874e+02
1.971633759427073862e+00 5.126613474461164515e+02
1.971733781431914911e+00 5.125945604314273396e+02
1.971833803436755961e+00 5.125263722374851341e+02
1.971933825441596788e+00 5.124568192695721791e+02
1.972033847446438060e+00 5.123859385222897345e+02
1.972133869451279109e+00 5.123137675596481131e+02
1.972233891456120158e+00 5.122403444948644164e+02
1.972333913460961430e+00 5.121657079698719599e+02
1.972433935465802479e+00 5.120898971345548034e+02
1.972533957470643529e+00 5.120129516257227351e+02
1.972633979475484356e+00 5.119349115458300048e+02
1.972734001480325405e+00 5.118558174414581572e+02
1.972834023485166455e+00 5.117757102815712642e+02
1.972934045490007726e+00 5.116946314355528784e+02
1.973034067494848776e+00 5.116126226510405104e+02
1.973134089499689825e+00 5.115297260315688845e+02
1.973234111504531096e+00 5.114459840140359574e+02
1.973334133509371924e+00 5.113614393459984058e+02
1.973434155514212973e+00 5.112761350628165360e+02
1.973534177519054023e+00 5.111901144646554940e+02
1.973634199523895072e+00 5.111034210933604527e+02
1.973734221528736121e+00 5.110160987092120877e+02
1.973834243533577393e+00 5.109281912675824060e+02
1.973934265538418442e+00 5.108397428954989437e+02
1.974034287543259270e+00 5.107507978681313148e+02
1.974134309548100319e+00 5.106614005852153468e+02
1.974234331552941590e+00 5.105715955474234988e+02
1.974334353557782640e+00 5.104814273326983312e+02
1.974434375562623689e+00 5.103909405725628403e+02
1.974534397567464739e+00 5.103001799284165259e+02
1.974634419572305788e+00 5.102091900678306615e+02
1.974734441577146615e+00 5.101180156408653374e+02
1.974834463581987887e+00 5.100267012564054312e+02
1.974934485586828936e+00 5.099352914585405756e+02
1.975034507591669986e+00 5.098438307030031069e+02
1.975134529596511257e+00 5.097523633336627427e+02
1.975234551601352306e+00 5.096609335591100489e+02
1.975334573606193356e+00 5.095695854293280718e+02
1.975434595611034183e+00 5.094783628124703228e+02
1.975534617615875232e+00 5.093873093717564302e+02
1.975634639620716282e+00 5.092964685425005200e+02
1.975734661625557553e+00 5.092058835092803406e+02
1.975834683630398603e+00 5.091155971832671412e+02
1.975934705635239652e+00 5.090256521797208507e+02
1.976034727640080924e+00 5.089360907956672122e+02
1.976134749644921751e+00 5.088469549877702320e+02
1.976234771649762800e+00 5.087582863504087527e+02
1.976334793654603850e+00 5.086701260939724989e+02
1.976434815659444899e+00 5.085825150233873728e+02
1.976534837664285948e+00 5.084954935168823340e+02
1.976634859669127220e+00 5.084091015050105398e+02
1.976734881673968269e+00 5.083233784499352055e+02
1.976834903678809097e+00 5.082383633249919512e+02
1.976934925683650146e+00 5.081540945945399699e+02
1.977034947688491417e+00 5.080706101941109409e+02
1.977134969693332467e+00 5.079879475108679117e+02
1.977234991698173516e+00 5.079061433643868781e+02
1.977335013703014566e+00 5.078252339877658414e+02
1.977435035707855615e+00 5.077452550090787327e+02
1.977535057712696442e+00 5.076662414331808577e+02
1.977635079717537714e+00 5.075882276238736495e+02
1.977735101722378763e+00 5.075112472864436199e+02
1.977835123727219813e+00 5.074353334505830730e+02
1.977935145732061084e+00 5.073605184536962724e+02
1.978035167736902133e+00 5.072868339246138589e+02
1.978135189741743183e+00 5.072143107677073885e+02
1.978235211746584010e+00 5.071429791474255921e+02
1.978335233751425060e+00 5.070728684732581542e+02
1.978435255756266109e+00 5.070040073851275224e+02
1.978535277761107380e+00 5.069364237392293830e+02
1.978635299765948430e+00 5.068701445943171393e+02
1.978735321770789479e+00 5.068051961984477884e+02
1.978835343775630307e+00 5.067416039761900493e+02
1.978935365780471578e+00 5.066793925163033805e+02
1.979035387785312627e+00 5.066185855598963599e+02
1.979135409790153677e+00 5.065592059890690280e+02
1.979235431794994726e+00 5.065012758160443695e+02
1.979335453799835776e+00 5.064448161727983688e+02
1.979435475804677047e+00 5.063898473011904002e+02
1.979535497809517874e+00 5.063363885436002647e+02
1.979635519814358924e+00 5.062844583340797726e+02
1.979735541819199973e+00 5.062340741900188164e+02
1.979835563824041245e+00 5.061852527043334931e+02
1.979935585828882294e+00 5.061380095381808815e+02
1.980035607833723343e+00 5.060923594142007005e+02
1.980135629838564393e+00 5.060483161102919780e+02
1.980235651843405220e+00 5.060058924539227405e+02
1.980335673848246270e+00 5.059651003169838077e+02
1.980435695853087541e+00 5.059259506111771429e+02
1.980535717857928590e+00 5.058884532839550729e+02
1.980635739862769640e+00 5.058526173149987812e+02
1.980735761867610911e+00 5.058184507132481826e+02
1.980835783872451961e+00 5.057859605144820989e+02
1.980935805877292788e+00 5.057551527794413460e+02
1.981035827882133837e+00 5.057260325925125244e+02
1.981135849886974887e+00 5.056986040609514248e+02
1.981235871891815936e+00 5.056728703146702060e+02
1.981335893896657208e+00 5.056488335065636761e+02
1.981435915901498257e+00 5.056264948133949133e+02
1.981535937906339306e+00 5.056058544372241954e+02
1.981635959911180134e+00 5.055869116073938585e+02
1.981735981916021405e+00 5.055696645830516900e+02
1.981836003920862455e+00 5.055541106562257028e+02
1.981936025925703504e+00 5.055402461554422189e+02
1.982036047930544553e+00 5.055280664498816918e+02
1.982136069935385603e+00 5.055175659540739161e+02
1.982236091940226874e+00 5.055087381331317147e+02
1.982336113945067702e+00 5.055015755085127012e+02
1.982436135949908751e+00 5.054960696643119036e+02
1.982536157954749800e+00 5.054922112540779722e+02
1.982636179959591072e+00 5.054899900081508690e+02
1.982736201964432121e+00 5.054893947415155822e+02
1.982836223969273171e+00 5.054904133621650431e+02
1.982936245974114220e+00 5.054930328799723611e+02
1.983036267978955047e+00 5.054972394160625981e+02
1.983136289983796097e+00 5.055030182126788532e+02
1.983236311988637368e+00 5.055103536435399292e+02
1.983336333993478418e+00 5.055192292246789521e+02
1.983436355998319467e+00 5.055296276257601562e+02
1.983536378003160738e+00 5.055415306818666181e+02
1.983636400008001788e+00 5.055549194057488762e+02
1.983736422012842615e+00 5.055697740005307423e+02
1.983836444017683664e+00 5.055860738728638353e+02
1.983936466022524714e+00 5.056037976465221391e+02
1.984036488027365763e+00 5.056229231764291967e+02
1.984136510032207035e+00 5.056434275631100377e+02
1.984236532037048084e+00 5.056652871675593701e+02
1.984336554041889134e+00 5.056884776265149526e+02
1.984436576046729961e+00 5.057129738681328490e+02
1.984536598051571232e+00 5.057387501280494462e+02
1.984636620056412282e+00 5.057657799658209115e+02
1.984736642061253331e+00 5.057940362817404321e+02
1.984836664066094380e+00 5.058234913340043022e+02
1.984936686070935430e+00 5.058541167562418082e+02
1.985036708075776701e+00 5.058858835753719632e+02
1.985136730080617529e+00 5.059187622298005635e+02
1.985236752085458578e+00 5.059527225879298840e+02
1.985336774090299627e+00 5.059877339669783396e+02
1.985436796095140899e+00 5.060237651521015323e+02
1.985536818099981948e+00 5.060607844157913178e+02
1.985636840104822998e+00 5.060987595375588626e+02
1.985736862109664047e+00 5.061376578238759976e+02
1.985836884114504874e+00 5.061774461283689561e+02
1.985936906119345924e+00 5.062180908722561412e+02
1.986036928124187195e+00 5.062595580650107081e+02
1.986136950129028245e+00 5.063018133252394364e+02
1.986236972133869294e+00 5.063448219017705583e+02
1.986336994138710565e+00 5.063885486949304777e+02
1.986437016143551615e+00 5.064329582779993189e+02
1.986537038148392442e+00 5.064780149188391078e+02
1.986637060153233492e+00 5.065236826016716805e+02
1.986737082158074541e+00 5.065699250490027339e+02
1.986837104162915590e+00 5.066167057436743448e+02
1.986937126167756862e+00 5.066639879510352102e+02
1.987037148172597911e+00 5.067117347412144568e+02
1.987137170177438961e+00 5.067599090114899809e+02
1.987237192182279788e+00 5.068084735087310264e+02
1.987337214187121059e+00 5.068573908519090310e+02
1.987437236191962109e+00 5.069066235546627013e+02
1.987537258196803158e+00 5.069561340478994680e+02
1.987637280201644208e+00 5.070058847024274087e+02
1.987737302206485257e+00 5.070558378515980849e+02
1.987837324211326528e+00 5.071059558139505725e+02
1.987937346216167356e+00 5.071562009158455453e+02
1.988037368221008405e+00 5.072065355140724137e+02
1.988137390225849455e+00 5.072569220184172423e+02
1.988237412230690726e+00 5.073073229141807587e+02
1.988337434235531775e+00 5.073577007846332663e+02
1.988437456240372825e+00 5.074080183333896912e+02
1.988537478245213874e+00 5.074582384066983991e+02
1.988637500250054702e+00 5.075083240156233160e+02
1.988737522254895751e+00 5.075582383581140675e+02
1.988837544259737022e+00 5.076079448409464590e+02
1.988937566264578072e+00 5.076574071015219261e+02
1.989037588269419121e+00 5.077065890295166923e+02
1.989137610274260393e+00 5.077554547883614191e+02
1.989237632279101442e+00 5.078039688365460620e+02
1.989337654283942269e+00 5.078520959487332220e+02
1.989437676288783319e+00 5.078998012366697594e+02
1.989537698293624368e+00 5.079470501698850740e+02
1.989637720298465418e+00 5.079938085961651950e+02
1.989737742303306689e+00 5.080400427617807395e+02
1.989837764308147738e+00 5.080857193314797655e+02
1.989937786312988788e+00 5.081308054082073795e+02
1.990037808317829615e+00 5.081752685525597713e+02
1.990137830322670887e+00 5.082190768019542020e+02
1.990237852327511936e+00 5.082621986895072155e+02
1.990337874332352985e+00 5.083046032626011197e+02
1.990437896337194035e+00 5.083462601011446509e+02
1.990537918342035084e+00 5.083871393355015016e+02
1.990637940346876356e+00 5.084272116640848935e+02
1.990737962351717183e+00 5.084664483706071678e+02
1.990837984356558232e+00 5.085048213409726827e+02
1.990938006361399282e+00 5.085423030798034461e+02
1.991038028366240553e+00 5.085788667265974254e+02
1.991138050371081603e+00 5.086144860714909441e+02
1.991238072375922652e+00 5.086491355706402260e+02
1.991338094380763701e+00 5.086827903611934403e+02
1.991438116385604529e+00 5.087154262758571122e+02
1.991538138390445578e+00 5.087470198570401863e+02
1.991638160395286850e+00 5.087775483705755164e+02
1.991738182400127899e+00 5.088069898190063896e+02
1.991838204404968948e+00 5.088353229544273404e+02
1.991938226409810220e+00 5.088625272908830084e+02
1.992038248414651269e+00 5.088885831163063358e+02
1.992138270419492097e+00 5.089134715039929802e+02
1.992238292424333146e+00 5.089371743236112025e+02
1.992338314429174195e+00 5.089596742517338157e+02
1.992438336434015245e+00 5.089809547818863393e+02
1.992538358438856516e+00 5.090010002341147128e+02
1.992638380443697566e+00 5.090197957640539812e+02
1.992738402448538615e+00 5.090373273715021583e+02
1.992838424453379442e+00 5.090535819084960849e+02
1.992938446458220714e+00 5.090685470868714333e+02
1.993038468463061763e+00 5.090822114853205562e+02
1.993138490467902812e+00 5.090945645559299919e+02
1.993238512472743862e+00 5.091055966302035358e+02
1.993338534477584911e+00 5.091152989245604772e+02
1.993438556482426183e+00 5.091236635453084318e+02
1.993538578487267010e+00 5.091306834930933860e+02
1.993638600492108059e+00 5.091363526668135933e+02
1.993738622496949109e+00 5.091406658670064189e+02
1.993838644501790380e+00 5.091436187986982986e+02
1.993938666506631430e+00 5.091452080737212782e+02
1.994038688511472479e+00 5.091454312124890293e+02
1.994138710516313528e+00 5.091442866452430280e+02
1.994238732521154356e+00 5.091417737127527516e+02
1.994338754525995405e+00 5.091378926664795017e+02
1.994438776530836677e+00 5.091326446682077744e+02
1.994538798535677726e+00 5.091260317891295131e+02
1.994638820540518775e+00 5.091180570083992620e+02
1.994738842545360047e+00 5.091087242111454998e+02
1.994838864550201096e+00 5.090980381859558292e+02
1.994938886555041924e+00 5.090860046218182333e+02
1.995038908559882973e+00 5.090726301045412470e+02
1.995138930564724022e+00 5.090579221126362768e+02
1.995238952569565072e+00 5.090418890126779274e+02
1.995338974574406343e+00 5.090245400541386971e+02
1.995438996579247393e+00 5.090058853637033280e+02
1.995539018584088442e+00 5.089859359390634950e+02
1.995639040588929269e+00 5.089647036422011297e+02
1.995739062593770541e+00 5.089422011921607805e+02
1.995839084598611590e+00 5.089184421573160648e+02
1.995939106603452640e+00 5.088934409471356730e+02
1.996039128608293689e+00 5.088672128034518778e+02
1.996139150613134738e+00 5.088397737912404182e+02
1.996239172617975566e+00 5.088111407889106204e+02
1.996339194622816837e+00 5.087813314781204781e+02
1.996439216627657887e+00 5.087503643331145895e+02
1.996539238632498936e+00 5.087182586095927377e+02
1.996639260637340207e+00 5.086850343331232693e+02
1.996739282642181257e+00 5.086507122870951889e+02
1.996839304647022306e+00 5.086153140002269311e+02
1.996939326651863134e+00 5.085788617336324933e+02
1.997039348656704183e+00 5.085413784674578892e+02
1.997139370661545232e+00 5.085028878870891731e+02
1.997239392666386504e+00 5.084634143689473831e+02
1.997339414671227553e+00 5.084229829658698918e+02
1.997439436676068603e+00 5.083816193920972069e+02
1.997539458680909874e+00 5.083393500078649936e+02
1.997639480685750701e+00 5.082962018036131440e+02
1.997739502690591751e+00 5.082522023838240557e+02
1.997839524695432800e+00 5.082073799504961471e+02
1.997939546700273850e+00 5.081617632862615324e+02
1.998039568705114899e+00 5.081153817371595665e+02
1.998139590709956170e+00 5.080682651950781974e+02
1.998239612714797220e+00 5.080204440798671044e+02
1.998339634719638047e+00 5.079719493211410395e+02
1.998439656724479097e+00 5.079228123397746231e+02
1.998539678729320368e+00 5.078730650291086022e+02
1.998639700734161417e+00 5.078227397358705844e+02
1.998739722739002467e+00 5.077718692408296306e+02
1.998839744743843516e+00 5.077204867391838548e+02
1.998939766748684566e+00 5.076686258207079163e+02
1.999039788753525393e+00 5.076163204496549497e+02
1.999139810758366664e+00 5.075636049444403852e+02
1.999239832763207714e+00 5.075105139571060135e+02
1.999339854768048763e+00 5.074570824525884518e+02
1.999439876772890035e+00 5.074033456877901358e+02
1.999539898777731084e+00 5.073493391904796681e+02
1.999639920782572133e+00 5.072950987380211245e+02
1.999739942787412961e+00 5.072406603359529527e+02
1.999839964792254010e+00 5.071860601964247621e+02
1.999939986797095060e+00 5.071313347165036589e+02
2.000040008801936331e+00 5.559446271075399864e+02
2.000140030806777602e+00 5.567556255465314052e+02
2.000240052811618430e+00 5.575660697734427913e+02
2.000340074816459701e+00 5.583757705725021196e+02
2.000440096821300529e+00 5.591845387985468960e+02
2.000540118826141356e+00 5.599921854495339630e+02
2.000640140830982627e+00 5.607985217390280468e+02
2.000740162835823899e+00 5.616033591686276623e+02
2.000840184840664726e+00 5.624065096003049575e+02
2.000940206845505998e+00 5.632077853286210711e+02
2.001040228850347269e+00 5.640069991527861930e+02
2.001140250855187652e+00 5.648039644485293138e+02
2.001240272860028924e+00 5.655984952397537882e+02
2.001340294864870195e+00 5.663904062699301676e+02
2.001440316869711022e+00 5.671795130732165262e+02
2.001540338874552294e+00 5.679656320452493219e+02
2.001640360879393565e+00 5.687485805135962664e+02
2.001740382884234393e+00 5.695281768078176583e+02
2.001840404889075220e+00 5.703042403291267419e+02
2.001940426893916491e+00 5.710765916195985028e+02
2.002040448898757319e+00 5.718450524309037064e+02
2.002140470903598590e+00 5.726094457925438519e+02
2.002240492908439862e+00 5.733695960795417932e+02
2.002340514913280689e+00 5.741253290795704061e+02
2.002440536918121960e+00 5.748764720594829214e+02
2.002540558922962788e+00 5.756228538312141154e+02
2.002640580927804059e+00 5.763643048170288239e+02
2.002740602932644887e+00 5.771006571140812866e+02
2.002840624937486158e+00 5.778317445582622440e+02
2.002940646942326985e+00 5.785574027872987699e+02
2.003040668947168257e+00 5.792774693030876278e+02
2.003140690952009528e+00 5.799917835332248615e+02
2.003240712956850356e+00 5.807001868917100182e+02
2.003340734961691183e+00 5.814025228387966990e+02
2.003440756966532454e+00 5.820986369399606701e+02
2.003540778971373726e+00 5.827883769239624598e+02
2.003640800976214553e+00 5.834715927399762450e+02
2.003740822981055825e+00 5.841481366137595614e+02
2.003840844985896652e+00 5.848178631028422387e+02
2.003940866990737923e+00 5.854806291507054539e+02
2.004040888995578751e+00 5.861362941399280544e+02
2.004140911000420022e+00 5.867847199442828696e+02
2.004240933005260850e+00 5.874257709797477673e+02
2.004340955010102121e+00 5.880593142544223610e+02
2.004440977014943392e+00 5.886852194173185353e+02
2.004540999019784220e+00 5.893033588060088732e+02
2.004641021024625047e+00 5.899136074931087705e+02
2.004741043029466319e+00 5.905158433315754110e+02
2.004841065034307590e+00 5.911099469988025703e+02
2.004941087039148417e+00 5.916958020394868072e+02
2.005041109043989689e+00 5.922732949072582187e+02
2.005141131048830516e+00 5.928423150050467711e+02
2.005241153053671788e+00 5.934027547241702223e+02
2.005341175058512615e+00 5.939545094821311295e+02
2.005441197063353886e+00 5.944974777591003203e+02
2.005541219068194714e+00 5.950315611330780712e+02
2.005641241073035985e+00 5.955566643137084384e+02
2.005741263077877257e+00 5.960726951747460589e+02
2.005841285082718084e+00 5.965795647851485910e+02
2.005941307087559355e+00 5.970771874387904745e+02
2.006041329092400183e+00 5.975654806827828907e+02
2.006141351097241010e+00 5.980443653443884386e+02
2.006241373102082282e+00 5.985137655565182513e+02
2.006341395106923553e+00 5.989736087818046144e+02
2.006441417111764380e+00 5.994238258352379489e+02
2.006541439116605652e+00 5.998643509053558773e+02
2.006641461121446923e+00 6.002951215739839199e+02
2.006741483126287307e+00 6.007160788345123592e+02
2.006841505131128578e+00 6.011271671087069990e+02
2.006941527135969849e+00 6.015283342620474514e+02
2.007041549140810677e+00 6.019195316175856760e+02
2.007141571145651948e+00 6.023007139683213609e+02
2.007241593150493220e+00 6.026718395880899379e+02
2.007341615155334047e+00 6.030328702409615289e+02
2.007441637160174874e+00 6.033837711891446816e+02
2.007541659165016146e+00 6.037245111993943283e+02
2.007641681169856973e+00 6.040550625479285145e+02
2.007741703174698245e+00 6.043754010238429828e+02
2.007841725179539516e+00 6.046855059310297520e+02
2.007941747184380343e+00 6.049853600886058302e+02
2.008041769189221615e+00 6.052749498298414892e+02
2.008141791194062442e+00 6.055542649996018554e+02
2.008241813198903714e+00 6.058232989502969303e+02
2.008341835203744541e+00 6.060820485363490207e+02
2.008441857208585812e+00 6.063305141071803064e+02
2.008541879213426640e+00 6.065686994987249818e+02
2.008641901218267911e+00 6.067966120234696064e+02
2.008741923223109183e+00 6.070142624590382638e+02
2.008841945227950010e+00 6.072216650353128671e+02
2.008941967232790837e+00 6.074188374201145280e+02
2.009041989237632109e+00 6.076058007034407638e+02
2.009142011242473380e+00 6.077825793802762746e+02
2.009242033247314208e+00 6.079492013319811576e+02
2.009342055252155479e+00 6.081056978062727012e+02
2.009442077256996306e+00 6.082521033958092858e+02
2.009542099261837578e+00 6.083884560153837811e+02
2.009642121266678405e+00 6.085147968777520191e+02
2.009742143271519677e+00 6.086311704680913408e+02
2.009842165276360504e+00 6.087376245171199116e+02
2.009942187281201775e+00 6.088342099728791936e+02
2.010042209286043047e+00 6.089209809712025390e+02
2.010142231290883874e+00 6.089979948048802498e+02
2.010242253295724701e+00 6.090653118915397499e+02
2.010342275300565973e+00 6.091229957402548507e+02
2.010442297305407244e+00 6.091711129169098058e+02
2.010542319310248072e+00 6.092097330083231554e+02
2.010642341315089343e+00 6.092389285851613749e+02
2.010742363319930170e+00 6.092587751636518760e+02
2.010842385324771442e+00 6.092693511661266257e+02
2.010942407329612269e+00 6.092707378804030895e+02
2.011042429334453541e+00 6.092630194180320586e+02
2.011142451339294368e+00 6.092462826714324819e+02
2.011242473344135639e+00 6.092206172699293347e+02
2.011342495348976911e+00 6.091861155347266958e+02
2.011442517353817738e+00 6.091428724328255839e+02
2.011542539358659010e+00 6.090909855299219089e+02
2.011642561363499837e+00 6.090305549423005687e+02
2.011742583368340664e+00 6.089616832877513843e+02
2.011842605373181936e+00 6.088844756355330219e+02
2.011942627378023207e+00 6.087990394554068416e+02
2.012042649382864035e+00 6.087054845657658007e+02
2.012142671387705306e+00 6.086039230808896718e+02
2.012242693392546578e+00 6.084944693573431778e+02
2.012342715397386961e+00 6.083772399395514867e+02
2.012442737402228232e+00 6.082523535045752396e+02
2.012542759407069504e+00 6.081199308061100055e+02
2.012642781411910331e+00 6.079800946177502965e+02
2.012742803416751602e+00 6.078329696755226905e+02
2.012842825421592874e+00 6.076786826197383107e+02
2.012942847426433701e+00 6.075173619361848978e+02
2.013042869431274529e+00 6.073491378966753018e+02
2.013142891436115800e+00 6.071741424990035512e+02
2.013242913440956627e+00 6.069925094063190727e+02
2.013342935445797899e+00 6.068043738859529412e+02
2.013442957450639170e+00 6.066098727477324246e+02
2.013542979455479998e+00 6.064091442818003088e+02
2.013643001460320825e+00 6.062023281959839096e+02
2.013743023465162096e+00 6.059895655527304825e+02
2.013843045470003368e+00 6.057709987056450700e+02
2.013943067474844195e+00 6.055467712356605716e+02
2.014043089479685467e+00 6.053170278868735750e+02
2.014143111484526294e+00 6.050819145020626593e+02
2.014243133489367565e+00 6.048415779579422633e+02
2.014343155494208393e+00 6.045961661001570064e+02
2.014443177499049664e+00 6.043458276780698952e+02
2.014543199503890492e+00 6.040907122793576036e+02
2.014643221508731763e+00 6.038309702644560275e+02
2.014743243513573034e+00 6.035667527008749857e+02
2.014843265518413862e+00 6.032982112974261781e+02
2.014943287523255133e+00 6.030254983383811123e+02
2.015043309528095961e+00 6.027487666176001539e+02
2.015143331532937232e+00 6.024681693726570302e+02
2.015243353537778059e+00 6.021838602189942549e+02
2.015343375542619331e+00 6.018959930841309642e+02
2.015443397547460158e+00 6.016047221419662492e+02
2.015543419552301430e+00 6.013102017471967429e+02
2.015643441557142701e+00 6.010125863698821149e+02
2.015743463561983528e+00 6.007120305301936014e+02
2.015843485566824356e+00 6.004086887333668301e+02
2.015943507571665627e+00 6.001027154048932744e+02
2.016043529576506899e+00 5.997942648259790985e+02
2.016143551581347726e+00 5.994834910693015217e+02
2.016243573586188997e+00 5.991705479350853238e+02
2.016343595591029825e+00 5.988555888875429218e+02
2.016443617595870652e+00 5.985387669916850655e+02
2.016543639600711924e+00 5.982202348505524014e+02
2.016643661605553195e+00 5.979001445428791612e+02
2.016743683610394022e+00 5.975786475612241020e+02
2.016843705615235294e+00 5.972558947506006461e+02
2.016943727620076565e+00 5.969320362476179298e+02
2.017043749624917393e+00 5.966072214201798261e+02
2.017143771629758220e+00 5.962815988077491056e+02
2.017243793634599491e+00 5.959553160622192536e+02
2.017343815639440319e+00 5.956285198894042878e+02
2.017443837644281590e+00 5.953013559911890979e+02
2.017543859649122862e+00 5.949739690083467849e+02
2.017643881653963689e+00 5.946465024640618822e+02
2.017743903658804960e+00 5.943190987081792400e+02
2.017843925663645788e+00 5.939918988621991502e+02
2.017943947668486615e+00 5.936650427650449728e+02
2.018043969673327886e+00 5.933386689196289581e+02
2.018143991678169158e+00 5.930129144402296788e+02
2.018244013683009985e+00 5.926879150007171120e+02
2.018344035687851257e+00 5.923638047836316218e+02
2.018444057692692528e+00 5.920407164301507237e+02
2.018544079697533355e+00 5.917187809909529506e+02
2.018644101702374183e+00 5.913981278780136108e+02
2.018744123707215454e+00 5.910788848173322094e+02
2.018844145712056282e+00 5.907611778026326874e+02
2.018944167716897553e+00 5.904451310500351155e+02
2.019044189721738825e+00 5.901308669537323794e+02
2.019144211726579652e+00 5.898185060426771997e+02
2.019244233731420479e+00 5.895081669383084773e+02
2.019344255736261751e+00 5.891999663133203740e+02
2.019444277741103022e+00 5.888940188515044838e+02
2.019544299745943849e+00 5.885904372086623653e+02
2.019644321750785121e+00 5.882893319746256111e+02
2.019744343755625948e+00 5.879908116363745876e+02
2.019844365760467220e+00 5.876949825422879030e+02
2.019944387765308047e+00 5.874019488675229468e+02
2.020044409770149318e+00 5.871118125805511454e+02
2.020144431774990146e+00 5.868246734108463443e+02
2.020244453779831417e+00 5.865406288177503029e+02
2.020344475784672689e+00 5.862597739605182596e+02
2.020444497789513516e+00 5.859822016695576394e+02
2.020544519794354787e+00 5.857080024188683183e+02
2.020644541799195615e+00 5.854372642996930836e+02
2.020744563804036886e+00 5.851700729953865903e+02
2.020844585808877714e+00 5.849065117575122486e+02
2.020944607813718985e+00 5.846466613831710220e+02
2.021044629818559812e+00 5.843906001935687300e+02
2.021144651823401084e+00 5.841384040138308364e+02
2.021244673828242355e+00 5.838901461540663149e+02
2.021344695833083183e+00 5.836458973916854802e+02
2.021444717837924010e+00 5.834057259549794026e+02
2.021544739842765281e+00 5.831696975079557888e+02
2.021644761847606553e+00 5.829378751364446316e+02
2.021744783852447380e+00 5.827103193354646464e+02
2.021844805857288652e+00 5.824870879978650464e+02
2.021944827862129479e+00 5.822682364042241261e+02
2.022044849866970306e+00 5.820538172140277311e+02
2.022144871871811578e+00 5.818438804581055592e+02
2.022244893876652849e+00 5.816384735323421182e+02
2.022344915881493677e+00 5.814376411926452874e+02
2.022444937886334948e+00 5.812414255511820329e+02
2.022544959891176219e+00 5.810498660738696799e+02
2.022644981896017047e+00 5.808629995791259262e+02
2.022745003900857874e+00 5.806808602378667956e+02
2.022845025905699146e+00 5.805034795747525322e+02
2.022945047910539973e+00 5.803308864706757504e+02
2.023045069915381244e+00 5.801631071664818364e+02
2.023145091920222516e+00 5.800001652679183053e+02
2.023245113925063343e+00 5.798420817518057220e+02
2.023345135929904615e+00 5.796888749734210933e+02
2.023445157934745442e+00 5.795405606750859988e+02
2.023545179939586269e+00 5.793971519959529815e+02
2.023645201944427541e+00 5.792586594829720070e+02
2.023745223949268812e+00 5.791250911030408588e+02
2.023845245954109640e+00 5.789964522563150240e+02
2.023945267958950911e+00 5.788727457906763902e+02
2.024045289963792182e+00 5.787539720173410842e+02
2.024145311968633010e+00 5.786401287275995173e+02
2.024245333973473837e+00 5.785312112106760196e+02
2.024345355978315109e+00 5.784272122726903262e+02
2.024445377983155936e+00 5.783281222567097757e+02
2.024545399987997207e+00 5.782339290638810780e+02
2.024645421992838479e+00 5.781446181756219858e+02
2.024745443997679306e+00 5.780601726768571780e+02
2.024845466002520133e+00 5.779805732802919920e+02
2.024945488007361405e+00 5.779057983516928516e+02
2.025045510012202676e+00 5.778358239361729147e+02
2.025145532017043504e+00 5.777706237854538358e+02
2.025245554021884775e+00 5.777101693860965952e+02
2.025345576026725603e+00 5.776544299886706995e+02
2.025445598031566874e+00 5.776033726378616393e+02
2.025545620036407701e+00 5.775569622034769282e+02
2.025645642041248973e+00 5.775151614123485615e+02
2.025745664046089800e+00 5.774779308811049532e+02
2.025845686050931072e+00 5.774452291497923397e+02
2.025945708055772343e+00 5.774170127163276902e+02
2.026045730060613170e+00 5.773932360717623169e+02
2.026145752065454442e+00 5.773738517363319716e+02
2.026245774070295269e+00 5.773588102962808080e+02
2.026345796075136541e+00 5.773480604414262416e+02
2.026445818079977368e+00 5.773415490034516324e+02
2.026545840084818639e+00 5.773392209949023481e+02
2.026645862089659467e+00 5.773410196488619022e+02
2.026745884094500738e+00 5.773468864592846330e+02
2.026845906099342010e+00 5.773567612219665079e+02
2.026945928104182837e+00 5.773705820761268797e+02
2.027045950109023664e+00 5.773882855465786861e+02
2.027145972113864936e+00 5.774098065864658338e+02
2.027245994118706207e+00 5.774350786205402528e+02
2.027346016123547034e+00 5.774640335889591825e+02
2.027446038128388306e+00 5.774966019915757443e+02
2.027546060133229133e+00 5.775327129326984732e+02
2.027646082138069961e+00 5.775722941662978656e+02
2.027746104142911232e+00 5.776152721416320901e+02
2.027846126147752503e+00 5.776615720492711716e+02
2.027946148152593331e+00 5.777111178674922485e+02
2.028046170157434602e+00 5.777638324090216884e+02
2.028146192162275874e+00 5.778196373680982560e+02
2.028246214167116701e+00 5.778784533678363005e+02
2.028346236171957528e+00 5.779402000078580386e+02
2.028446258176798800e+00 5.780047959121756094e+02
2.028546280181639627e+00 5.780721587772941348e+02
2.028646302186480899e+00 5.781422054205119139e+02
2.028746324191322170e+00 5.782148518283917156e+02
2.028846346196162997e+00 5.782900132053814559e+02
2.028946368201004269e+00 5.783676040225545876e+02
2.029046390205845096e+00 5.784475380664489421e+02
2.029146412210685924e+00 5.785297284879759445e+02
2.029246434215527195e+00 5.786140878513776897e+02
2.029346456220368466e+00 5.787005281832082346e+02
2.029446478225209294e+00 5.787889610213071592e+02
2.029546500230050565e+00 5.788792974637530051e+02
2.029646522234891837e+00 5.789714482177585069e+02
2.029746544239732664e+00 5.790653236484939725e+02
2.029846566244573491e+00 5.791608338278100518e+02
2.029946588249414763e+00 5.792578885828328339e+02
2.030046610254255590e+00 5.793563975444131984e+02
2.030146632259096862e+00 5.794562701954057502e+02
2.030246654263938133e+00 5.795574159187478926e+02
2.030346676268778960e+00 5.796597440453207355e+02
2.030446698273619788e+00 5.797631639015705787e+02
2.030546720278461059e+00 5.798675848568618676e+02
2.030646742283302331e+00 5.799729163705414976e+02
2.030746764288143158e+00 5.800790680386960503e+02
2.030846786292984429e+00 5.801859496405728578e+02
2.030946808297825257e+00 5.802934711846456821e+02
2.031046830302666528e+00 5.804015429543068194e+02
2.031146852307507356e+00 5.805100755531595951e+02
2.031246874312348627e+00 5.806189799498887396e+02
2.031346896317189454e+00 5.807281675226944344e+02
2.031446918322030726e+00 5.808375501032637658e+02
2.031546940326871997e+00 5.809470400202624205e+02
2.031646962331712825e+00 5.810565501423209298e+02
2.031746984336553652e+00 5.811659939205077308e+02
2.031847006341394923e+00 5.812752854302567584e+02
2.031947028346236195e+00 5.813843394127372903e+02
2.032047050351077022e+00 5.814930713156502406e+02
2.032147072355918294e+00 5.816013973334240745e+02
2.032247094360759121e+00 5.817092344468015881e+02
2.032347116365600392e+00 5.818165004617940212e+02
2.032447138370441220e+00 5.819231140479909072e+02
2.032547160375282491e+00 5.820289947762011025e+02
2.032647182380123319e+00 5.821340631554187439e+02
2.032747204384964590e+00 5.822382406690907146e+02
2.032847226389805861e+00 5.823414498106740211e+02
2.032947248394646689e+00 5.824436141184668259e+02
2.033047270399487960e+00 5.825446582096990369e+02
2.033147292404328788e+00 5.826445078138696090e+02
2.033247314409169615e+00 5.827430898053142982e+02
2.033347336414010886e+00 5.828403322349930704e+02
2.033447358418852158e+00 5.829361643614864761e+02
2.033547380423692985e+00 5.830305166811801882e+02
2.033647402428534257e+00 5.831233209576399759e+02
2.033747424433375528e+00 5.832145102501486917e+02
2.033847446438215911e+00 5.833040189414153929e+02
2.033947468443057183e+00 5.833917827644223735e+02
2.034047490447898454e+00 5.834777388284218205e+02
2.034147512452739281e+00 5.835618256440602636e+02
2.034247534457580553e+00 5.836439831476245672e+02
2.034347556462421824e+00 5.837241527244042345e+02
2.034447578467262652e+00 5.838022772311593371e+02
2.034547600472103479e+00 5.838783010176853168e+02
2.034647622476944751e+00 5.839521699474726120e+02
2.034747644481785578e+00 5.840238314174521292e+02
2.034847666486626849e+00 5.840932343768190549e+02
2.034947688491468121e+00 5.841603293449305738e+02
2.035047710496308948e+00 5.842250684282795419e+02
2.035147732501150220e+00 5.842874053365239888e+02
2.035247754505991047e+00 5.843472953975882547e+02
2.035347776510832318e+00 5.844046955718154095e+02
2.035447798515673146e+00 5.844595644651823250e+02
2.035547820520514417e+00 5.845118623415573893e+02
2.035647842525355244e+00 5.845615511340265584e+02
2.035747864530196516e+00 5.846085944552511364e+02
2.035847886535037787e+00 5.846529576068903680e+02
2.035947908539878615e+00 5.846946075880655371e+02
2.036047930544719442e+00 5.847335131028759179e+02
2.036147952549560713e+00 5.847696445669655532e+02
2.036247974554401985e+00 5.848029741131412038e+02
2.036347996559242812e+00 5.848334755960426037e+02
2.036448018564084084e+00 5.848611245958722975e+02
2.036548040568924911e+00 5.848858984211780125e+02
2.036648062573766182e+00 5.849077761107015476e+02
2.036748084578607010e+00 5.849267384342880405e+02
2.036848106583448281e+00 5.849427678928715295e+02
2.036948128588289109e+00 5.849558487175265782e+02
2.037048150593130380e+00 5.849659668676025603e+02
2.037148172597971651e+00 5.849731100279441307e+02
2.037248194602812479e+00 5.849772676051987901e+02
2.037348216607653306e+00 5.849784307232215497e+02
2.037448238612494578e+00 5.849765922175879496e+02
2.037548260617335849e+00 5.849717466292124755e+02
2.037648282622176676e+00 5.849638901970870393e+02
2.037748304627017948e+00 5.849530208501519155e+02
2.037848326631858775e+00 5.849391381982934490e+02
2.037948348636700047e+00 5.849222435224936589e+02
2.038048370641540874e+00 5.849023397641326483e+02
2.038148392646382145e+00 5.848794315134510953e+02
2.038248414651222973e+00 5.848535249971911298e+02
2.038348436656064244e+00 5.848246280654223028e+02
2.038448458660905516e+00 5.847927501775604924e+02
2.038548480665746343e+00 5.847579023875960047e+02
2.038648502670587614e+00 5.847200973285401915e+02
2.038748524675428442e+00 5.846793491961063864e+02
2.038848546680269269e+00 5.846356737316264116e+02
2.038948568685110541e+00 5.845890882042358498e+02
2.039048590689951812e+00 5.845396113923162602e+02
2.039148612694792639e+00 5.844872635642304886e+02
2.039248634699633911e+00 5.844320664583490270e+02
2.039348656704475182e+00 5.843740432623911829e+02
2.039448678709315566e+00 5.843132185920894699e+02
2.039548700714156837e+00 5.842496184691937060e+02
2.039648722718998108e+00 5.841832702988347137e+02
2.039748744723838936e+00 5.841142028462526241e+02
2.039848766728680207e+00 5.840424462129162748e+02
2.039948788733521479e+00 5.839680318120418860e+02
2.040048810738362306e+00 5.838909923435296605e+02
2.040148832743203133e+00 5.838113617683352459e+02
2.040248854748044405e+00 5.837291752822939088e+02
2.040348876752885232e+00 5.836444692894066293e+02
2.040448898757726504e+00 5.835572813746177872e+02
2.040548920762567775e+00 5.834676502760871699e+02
2.040648942767408602e+00 5.833756158569869967e+02
2.040748964772249874e+00 5.832812190768314622e+02
2.040848986777090701e+00 5.831845019623613098e+02
2.040949008781931973e+00 5.830855075780006018e+02
2.041049030786772800e+00 5.829842799959029662e+02
2.041149052791614071e+00 5.828808642656056236e+02
2.041249074796454899e+00 5.827753063833092710e+02
2.041349096801296170e+00 5.826676532608048547e+02
2.041449118806137442e+00 5.825579526940583719e+02
2.041549140810978269e+00 5.824462533314821258e+02
2.041649162815819096e+00 5.823326046419033446e+02
2.041749184820660368e+00 5.822170568822525638e+02
2.041849206825501639e+00 5.820996610649895047e+02
2.041949228830342467e+00 5.819804689252839580e+02
2.042049250835183738e+00 5.818595328879767976e+02
2.042149272840024565e+00 5.817369060343278306e+02
2.042249294844865837e+00 5.816126420685831135e+02
2.042349316849706664e+00 5.814867952843718513e+02
2.042449338854547936e+00 5.813594205309533436e+02
2.042549360859388763e+00 5.812305731793367158e+02
2.042649382864230034e+00 5.811003090882879860e+02
2.042749404869071306e+00 5.809686845702429991e+02
2.042849426873912133e+00 5.808357563571523769e+02
2.042949448878752960e+00 5.807015815662657587e+02
2.043049470883594232e+00 5.805662176658845510e+02
2.043149492888435503e+00 5.804297224410966010e+02
2.043249514893276331e+00 5.802921539595125751e+02
2.043349536898117602e+00 5.801535705370197320e+02
2.043449558902958429e+00 5.800140307035793512e+02
2.043549580907799701e+00 5.798735931690765710e+02
2.043649602912640528e+00 5.797323167892479887e+02
2.043749624917481800e+00 5.795902605316994141e+02
2.043849646922322627e+00 5.794474834420385605e+02
2.043949668927163899e+00 5.793040446101349517e+02
2.044049690932005170e+00 5.791600031365235282e+02
2.044149712936845997e+00 5.790154180989774204e+02
2.044249734941687269e+00 5.788703485192579592e+02
2.044349756946528096e+00 5.787248533300664803e+02
2.044449778951368923e+00 5.785789913422080417e+02
2.044549800956210195e+00 5.784328212119909267e+02
2.044649822961051466e+00 5.782864014088718250e+02
2.044749844965892294e+00 5.781397901833682909e+02
2.044849866970733565e+00 5.779930455352526906e+02
2.044949888975574837e+00 5.778462251820398023e+02
2.045049910980415220e+00 5.776993865277939904e+02
2.045149932985256491e+00 5.775525866322570891e+02
2.045249954990097763e+00 5.774058821803243973e+02
2.045349976994938590e+00 5.772593294518783296e+02
2.045449998999779861e+00 5.771129842919963266e+02
2.045550021004621133e+00 5.769669020815399563e+02
2.045650043009461960e+00 5.768211377081553337e+02
2.045750065014302788e+00 5.766757455376813368e+02
2.045850087019144059e+00 5.765307793859890353e+02
2.045950109023984886e+00 5.763862924912660901e+02
2.046050131028826158e+00 5.762423374867498751e+02
2.046150153033667429e+00 5.760989663739353546e+02
2.046250175038508257e+00 5.759562304962578310e+02
2.046350197043349528e+00 5.758141805132728450e+02
2.046450219048190355e+00 5.756728663753331148e+02
2.046550241053031627e+00 5.755323372987875246e+02
2.046650263057872454e+00 5.753926417417014818e+02
2.046750285062713726e+00 5.752538273801155810e+02
2.046850307067554553e+00 5.751159410848546258e+02
2.046950329072395824e+00 5.749790288988857583e+02
2.047050351077237096e+00 5.748431360152555953e+02
2.047150373082077923e+00 5.747083067555895468e+02
2.047250395086918751e+00 5.745745845491886712e+02
2.047350417091760022e+00 5.744420119127120188e+02
2.047450439096601293e+00 5.743106304304644709e+02
2.047550461101442121e+00 5.741804807352947364e+02
2.047650483106283392e+00 5.740516024901088485e+02
2.047750505111124220e+00 5.739240343700079166e+02
2.047850527115965491e+00 5.737978140450595674e+02
2.047950549120806318e+00 5.736729781637045562e+02
2.048050571125647590e+00 5.735495623368072984e+02
2.048150593130488417e+00 5.734276011223565774e+02
2.048250615135329689e+00 5.733071280108202927e+02
2.048350637140170960e+00 5.731881754111573173e+02
2.048450659145011787e+00 5.730707746374973794e+02
2.048550681149852615e+00 5.729549558964845346e+02
2.048650703154693886e+00 5.728407482752951410e+02
2.048750725159535158e+00 5.727281797303286339e+02
2.048850747164375985e+00 5.726172770765783753e+02
2.048950769169217256e+00 5.725080659776795073e+02
2.049050791174058084e+00 5.724005709366441579e+02
2.049150813178898911e+00 5.722948152872766059e+02
2.049250835183740183e+00 5.721908211862765938e+02
2.049350857188581454e+00 5.720886096060293085e+02
2.049450879193422281e+00 5.719882003280823710e+02
2.049550901198263553e+00 5.718896119373115425e+02
2.049650923203104824e+00 5.717928618167720742e+02
2.049750945207945652e+00 5.716979661432407056e+02
2.049850967212786479e+00 5.716049398834417161e+02
2.049950989217627750e+00 5.715137967909579402e+02
2.050051011222468578e+00 5.714245494038279958e+02
2.050151033227309849e+00 5.713372090428217689e+02
2.050251055232151121e+00 5.712517858103987010e+02
2.050351077236991948e+00 5.711682885903417173e+02
2.050451099241833219e+00 5.710867250480637267e+02
2.050551121246674047e+00 5.710071016315855559e+02
2.050651143251514874e+00 5.709294235731827030e+02
2.050751165256356146e+00 5.708536948916901110e+02
2.050851187261197417e+00 5.707799183954706450e+02
2.050951209266038244e+00 5.707080956860310152e+02
2.051051231270879516e+00 5.706382271622952658e+02
2.051151253275720787e+00 5.705703120255088834e+02
2.051251275280561615e+00 5.705043482847930818e+02
2.051351297285402442e+00 5.704403327633210665e+02
2.051451319290243713e+00 5.703782611051261711e+02
2.051551341295084541e+00 5.703181277825204916e+02
2.051651363299925812e+00 5.702599261041357295e+02
2.051751385304767084e+00 5.702036482235540689e+02
2.051851407309607911e+00 5.701492851485529627e+02
2.051951429314448738e+00 5.700968267509211955e+02
2.052051451319290010e+00 5.700462617768666860e+02
2.052151473324131281e+00 5.699975778579955659e+02
2.052251495328972108e+00 5.699507615228487794e+02
2.052351517333813380e+00 5.699057982090002952e+02
2.052451539338654207e+00 5.698626722756952176e+02
2.052551561343495479e+00 5.698213670170271143e+02
2.052651583348336306e+00 5.697818646756425096e+02
2.052751605353177577e+00 5.697441464569557183e+02
2.052851627358018405e+00 5.697081925438776580e+02
2.052951649362859676e+00 5.696739821120354463e+02
2.053051671367700948e+00 5.696414933454769880e+02
2.053151693372541775e+00 5.696107034528539543e+02
2.053251715377383047e+00 5.695815886840623534e+02
2.053351737382223874e+00 5.695541243473408031e+02
2.053451759387065145e+00 5.695282848268042244e+02
2.053551781391905973e+00 5.695040436004107960e+02
2.053651803396747244e+00 5.694813732583439787e+02
2.053751825401588071e+00 5.694602455218002888e+02
2.053851847406429343e+00 5.694406312621686084e+02
2.053951869411270614e+00 5.694225005205961452e+02
2.054051891416111442e+00 5.694058225279122780e+02
2.054151913420952269e+00 5.693905657249212027e+02
2.054251935425793540e+00 5.693766977830271117e+02
2.054351957430634812e+00 5.693641856251969102e+02
2.054451979435475639e+00 5.693529954472352301e+02
2.054552001440316911e+00 5.693430927393684442e+02
2.054652023445157738e+00 5.693344423081166497e+02
2.054752045449998565e+00 5.693270082984461169e+02
2.054852067454839837e+00 5.693207542161841275e+02
2.054952089459681108e+00 5.693156429506886980e+02
2.055052111464521936e+00 5.693116367977521577e+02
2.055152133469363207e+00 5.693086974827325548e+02
2.055252155474204478e+00 5.693067861838944737e+02
2.055352177479045306e+00 5.693058635559475533e+02
2.055452199483886133e+00 5.693058897537666780e+02
2.055552221488727405e+00 5.693068244562859945e+02
2.055652243493568232e+00 5.693086268905452698e+02
2.055752265498409503e+00 5.693112558558815408e+02
2.055852287503250775e+00 5.693146697482460468e+02
2.055952309508091602e+00 5.693188265846409877e+02
2.056052331512932874e+00 5.693236840276523480e+02
2.056152353517773701e+00 5.693291994100749207e+02
2.056252375522614528e+00 5.693353297596058837e+02
2.056352397527455800e+00 5.693420318236056801e+02
2.056452419532297071e+00 5.693492620938982327e+02
2.056552441537137899e+00 5.693569768316069712e+02
2.056652463541979170e+00 5.693651320920134822e+02
2.056752485546820441e+00 5.693736837494163865e+02
2.056852507551661269e+00 5.693825875219857835e+02
2.056952529556502096e+00 5.693917989965974584e+02
2.057052551561343368e+00 5.694012736536312786e+02
2.057152573566184195e+00 5.694109668917245699e+02
2.057252595571025466e+00 5.694208340524625100e+02
2.057352617575866738e+00 5.694308304449956495e+02
2.057452639580707565e+00 5.694409113705748950e+02
2.057552661585548393e+00 5.694510321469831524e+02
2.057652683590389664e+00 5.694611481328563514e+02
2.057752705595230935e+00 5.694712147518836218e+02
2.057852727600071763e+00 5.694811875168661572e+02
2.057952749604913034e+00 5.694910220536315819e+02
2.058052771609753862e+00 5.695006741247865421e+02
2.058152793614595133e+00 5.695100996532910358e+02
2.058252815619435960e+00 5.695192547458622130e+02
2.058352837624277232e+00 5.695280957161637616e+02
2.058452859629118059e+00 5.695365791078043003e+02
2.058552881633959331e+00 5.695446617171041908e+02
2.058652903638800602e+00 5.695523006156425936e+02
2.058752925643641429e+00 5.695594531725563456e+02
2.058852947648482701e+00 5.695660770765906591e+02
2.058952969653323528e+00 5.695721303578884545e+02
2.059052991658164800e+00 5.695775714095037756e+02
2.059153013663005627e+00 5.695823590086359900e+02
2.059253035667846898e+00 5.695864523375705630e+02
2.059353057672687726e+00 5.695898110043171982e+02
2.059453079677528997e+00 5.695923950629355659e+02
2.059553101682370269e+00 5.695941650335422537e+02
2.059653123687211096e+00 5.695950819219874575e+02
2.059753145692051923e+00 5.695951072391881098e+02
2.059853167696893195e+00 5.695942030201218813e+02
2.059953189701734466e+00 5.695923318424562467e+02
2.060053211706575294e+00 5.695894568448227346e+02
2.060153233711416565e+00 5.695855417447114633e+02
2.060253255716257392e+00 5.695805508559930104e+02
2.060353277721098220e+00 5.695744491060459040e+02
2.060453299725939491e+00 5.695672020524984873e+02
2.060553321730780763e+00 5.695587758995649210e+02
2.060653343735621590e+00 5.695491375139738466e+02
2.060753365740462861e+00 5.695382544404849341e+02
2.060853387745304133e+00 5.695260949169862670e+02
2.060953409750144960e+00 5.695126278891625589e+02
2.061053431754985787e+00 5.694978230247353395e+02
2.061153453759827059e+00 5.694816507272663557e+02
2.061253475764667886e+00 5.694640821495162299e+02
2.061353497769509158e+00 5.694450892063600804e+02
2.061453519774350429e+00 5.694246445872516915e+02
2.061553541779191256e+00 5.694027217682298669e+02
2.061653563784032528e+00 5.693792950234682166e+02
2.061753585788873355e+00 5.693543394363624657e+02
2.061853607793714183e+00 5.693278309101485775e+02
2.061953629798555454e+00 5.692997461780553294e+02
2.062053651803396725e+00 5.692700628129796314e+02
2.062153673808237553e+00 5.692387592366926583e+02
2.062253695813078824e+00 5.692058147285633822e+02
2.062353717817920096e+00 5.691712094338068937e+02
2.062453739822760923e+00 5.691349243712490988e+02
2.062553761827601750e+00 5.690969414406089300e+02
2.062653783832443022e+00 5.690572434292996604e+02
2.062753805837283849e+00 5.690158140187396612e+02
2.062853827842125121e+00 5.689726377901832848e+02
2.062953849846966392e+00 5.689277002300621007e+02
2.063053871851807219e+00 5.688809877348428472e+02
2.063153893856648047e+00 5.688324876153944842e+02
2.063253915861489318e+00 5.687821881008743503e+02
2.063353937866330590e+00 5.687300783421283086e+02
2.063453959871171417e+00 5.686761484146029488e+02
2.063553981876012688e+00 5.686203893207791680e+02
2.063654003880853516e+00 5.685627929921214445e+02
2.063754025885694787e+00 5.685033522905461041e+02
2.063854047890535615e+00 5.684420610094159656e+02
2.063954069895376886e+00 5.683789138740517046e+02
2.064054091900217713e+00 5.683139065417750544e+02
2.064154113905058985e+00 5.682470356014791832e+02
2.064254135909900256e+00 5.681782985727300002e+02
2.064354157914741084e+00 5.681076939044036180e+02
2.064454179919582355e+00 5.680352209728598609e+02
2.064554201924423182e+00 5.679608800796602281e+02
2.064654223929264454e+00 5.678846724488277005e+02
2.064754245934105281e+00 5.678066002236610075e+02
2.064854267938946553e+00 5.677266664630959667e+02
2.064954289943787380e+00 5.676448751376321979e+02
2.065054311948628651e+00 5.675612311248167998e+02
2.065154333953469923e+00 5.674757402042985177e+02
2.065254355958310750e+00 5.673884090524536532e+02
2.065354377963151578e+00 5.672992452365908775e+02
2.065454399967992849e+00 5.672082572087379049e+02
2.065554421972834120e+00 5.671154542990195750e+02
2.065654443977674948e+00 5.670208467086265500e+02
2.065754465982516219e+00 5.669244455023916771e+02
2.065854487987357047e+00 5.668262626009653786e+02
2.065954509992197874e+00 5.667263107726123508e+02
2.066054531997039145e+00 5.666246036246221820e+02
2.066154554001880417e+00 5.665211555943494659e+02
2.066254576006721244e+00 5.664159819398887521e+02
2.066354598011562516e+00 5.663090987303849033e+02
2.066454620016403787e+00 5.662005228360002320e+02
2.066554642021244170e+00 5.660902719175252287e+02
2.066654664026085442e+00 5.659783644156623268e+02
2.066754686030926713e+00 5.658648195399727001e+02
2.066854708035767541e+00 5.657496572575041682e+02
2.066954730040608812e+00 5.656328982811041897e+02
2.067054752045450083e+00 5.655145640574268100e+02
2.067154774050290911e+00 5.653946767546384535e+02
2.067254796055131738e+00 5.652732592498384747e+02
2.067354818059973010e+00 5.651503351161917408e+02
2.067454840064813837e+00 5.650259286097949598e+02
2.067554862069655108e+00 5.649000646562716383e+02
2.067654884074496380e+00 5.647727688371114709e+02
2.067754906079337207e+00 5.646440673757670083e+02
2.067854928084178479e+00 5.645139871235048759e+02
2.067954950089019306e+00 5.643825555450283673e+02
2.068054972093860577e+00 5.642498007038806236e+02
2.068154994098701405e+00 5.641157512476349893e+02
2.068255016103542676e+00 5.639804363928767543e+02
2.068355038108383503e+00 5.638438859099976526e+02
2.068455060113224775e+00 5.637061301077976623e+02
2.068555082118066046e+00 5.635671998179153661e+02
2.068655104122906874e+00 5.634271263790889179e+02
2.068755126127747701e+00 5.632859416212585302e+02
2.068855148132588972e+00 5.631436778495187809e+02
2.068955170137430244e+00 5.630003678279343831e+02
2.069055192142271071e+00 5.628560447632210071e+02
2.069155214147112343e+00 5.627107422883078698e+02
2.069255236151953170e+00 5.625644944457856127e+02
2.069355258156794442e+00 5.624173356712526584e+02
2.069455280161635269e+00 5.622693007765670927e+02
2.069555302166476540e+00 5.621204249330126004e+02
2.069655324171317368e+00 5.619707436543903896e+02
2.069755346176158639e+00 5.618202927800430189e+02
2.069855368180999911e+00 5.616691084578225173e+02
2.069955390185840738e+00 5.615172271270081410e+02
2.070055412190681565e+00 5.613646855011866137e+02
2.070155434195522837e+00 5.612115205510992837e+02
2.070255456200364108e+00 5.610577694874721146e+02
2.070355478205204935e+00 5.609034697438272588e+02
2.070455500210046207e+00 5.607486589592964492e+02
2.070555522214887034e+00 5.605933749614360977e+02
2.070655544219728306e+00 5.604376557490546702e+02
2.070755566224569133e+00 5.602815394750679161e+02
2.070855588229410404e+00 5.601250644293766072e+02
2.070955610234251232e+00 5.599682690217921390e+02
2.071055632239092503e+00 5.598111917650022633e+02
2.071155654243933775e+00 5.596538712575967338e+02
2.071255676248774602e+00 5.594963461671568439e+02
2.071355698253615873e+00 5.593386552134136309e+02
2.071455720258456701e+00 5.591808371514903229e+02
2.071555742263297528e+00 5.590229307552306182e+02
2.071655764268138800e+00 5.588649748006210984e+02
2.071755786272980071e+00 5.587070080493194837e+02
2.071855808277820898e+00 5.585490692322930499e+02
2.071955830282662170e+00 5.583911970335742581e+02
2.072055852287503441e+00 5.582334300741418929e+02
2.072155874292343825e+00 5.580758068959368075e+02
2.072255896297185096e+00 5.579183659460140916e+02
2.072355918302026367e+00 5.577611455608446249e+02
2.072455940306867195e+00 5.576041839507678333e+02
2.072555962311708466e+00 5.574475191846078133e+02
2.072655984316549738e+00 5.572911891744506647e+02
2.072756006321390565e+00 5.571352316605991746e+02
2.072856028326231392e+00 5.569796841967030332e+02
2.072956050331072664e+00 5.568245841350782257e+02
2.073056072335913491e+00 5.566699686122124149e+02
2.073156094340754763e+00 5.565158745344692761e+02
2.073256116345596034e+00 5.563623385639972412e+02
2.073356138350436861e+00 5.562093971048412868e+02
2.073456160355278133e+00 5.560570862892710693e+02
2.073556182360118960e+00 5.559054419643259735e+02
2.073656204364960232e+00 5.557544996785820786e+02
2.073756226369801059e+00 5.556042946691492261e+02
2.073856248374642330e+00 5.554548618488975080e+02
2.073956270379483158e+00 5.553062357939236335e+02
2.074056292384324429e+00 5.551584507312542200e+02
2.074156314389165701e+00 5.550115405268003315e+02
2.074256336394006528e+00 5.548655386735541697e+02
2.074356358398847355e+00 5.547204782800432667e+02
2.074456380403688627e+00 5.545763920590391081e+02
2.074556402408529898e+00 5.544333123165283723e+02
2.074656424413370726e+00 5.542912709409425815e+02
2.074756446418211997e+00 5.541502993926583258e+02
2.074856468423052824e+00 5.540104286937624920e+02
2.074956490427894096e+00 5.538716894180952295e+02
2.075056512432734923e+00 5.537341116815612168e+02
2.075156534437576195e+00 5.535977251327194608e+02
2.075256556442417022e+00 5.534625589436557220e+02
2.075356578447258293e+00 5.533286418011298338e+02
2.075456600452099565e+00 5.531960018980109908e+02
2.075556622456940392e+00 5.530646669249946399e+02
2.075656644461781219e+00 5.529346640626058615e+02
2.075756666466622491e+00 5.528060199734916296e+02
2.075856688471463762e+00 5.526787607950005849e+02
2.075956710476304590e+00 5.525529121320507784e+02
2.076056732481145861e+00 5.524284990502917481e+02
2.076156754485986689e+00 5.523055460695517240e+02
2.076256776490827960e+00 5.521840771575839426e+02
2.076356798495668787e+00 5.520641157240972916e+02
2.076456820500510059e+00 5.519456846150843603e+02
2.076556842505350886e+00 5.518288061074384814e+02
2.076656864510192158e+00 5.517135019038644259e+02
2.076756886515033429e+00 5.515997931280789999e+02
2.076856908519874256e+00 5.514877003203043841e+02
2.076956930524715528e+00 5.513772434330491024e+02
2.077056952529556355e+00 5.512684418271848017e+02
2.077156974534397182e+00 5.511613142683019078e+02
2.077256996539238454e+00 5.510558789233609787e+02
2.077357018544079725e+00 5.509521533576302090e+02
2.077457040548920553e+00 5.508501545318997614e+02
2.077557062553761824e+00 5.507498987999898645e+02
2.077657084558603096e+00 5.506514019065334651e+02
2.077757106563443479e+00 5.505546789850419600e+02
2.077857128568284750e+00 5.504597445562476423e+02
2.077957150573126022e+00 5.503666125267209281e+02
2.078057172577966849e+00 5.502752961877674807e+02
2.078157194582808120e+00 5.501858082145846538e+02
2.078257216587649392e+00 5.500981606656995382e+02
2.078357238592490219e+00 5.500123649826629162e+02
2.078457260597331047e+00 5.499284319900162927e+02
2.078557282602172318e+00 5.498463718955074455e+02
2.078657304607013145e+00 5.497661942905772321e+02
2.078757326611854417e+00 5.496879081510902552e+02
2.078857348616695688e+00 5.496115218383199590e+02
2.078957370621536516e+00 5.495370431001863381e+02
2.079057392626377787e+00 5.494644790727303416e+02
2.079157414631218614e+00 5.493938362818373662e+02
2.079257436636059886e+00 5.493251206451914186e+02
2.079357458640900713e+00 5.492583374744694993e+02
2.079457480645741985e+00 5.491934914777602899e+02
2.079557502650582812e+00 5.491305867622121468e+02
2.079657524655424083e+00 5.490696268369056270e+02
2.079757546660265355e+00 5.490106146159372429e+02
2.079857568665106182e+00 5.489535524217271814e+02
2.079957590669947010e+00 5.488984419885267698e+02
2.080057612674788281e+00 5.488452844661393328e+02
2.080157634679629552e+00 5.487940804238380679e+02
2.080257656684470380e+00 5.487448298544854879e+02
2.080357678689311651e+00 5.486975321788380597e+02
2.080457700694152479e+00 5.486521862500475208e+02
2.080557722698993750e+00 5.486087903583390926e+02
2.080657744703834577e+00 5.485673422358723883e+02
2.080757766708675849e+00 5.485278390617742161e+02
2.080857788713516676e+00 5.484902774673439581e+02
2.080957810718357948e+00 5.484546535414192476e+02
2.081057832723199219e+00 5.484209628359080853e+02
2.081157854728040046e+00 5.483892003714686325e+02
2.081257876732880874e+00 5.483593606433461218e+02
2.081357898737722145e+00 5.483314376273522157e+02
2.081457920742563417e+00 5.483054247859834049e+02
2.081557942747404244e+00 5.482813150746820838e+02
2.081657964752245515e+00 5.482591009482189293e+02
2.081757986757086343e+00 5.482387743672077249e+02
2.081858008761927614e+00 5.482203268047419442e+02
2.081958030766768442e+00 5.482037492531418366e+02
2.082058052771609713e+00 5.481890322308186114e+02
2.082158074776450540e+00 5.481761657892388939e+02
2.082258096781291812e+00 5.481651395199991157e+02
2.082358118786133083e+00 5.481559425619861941e+02
2.082458140790973911e+00 5.481485636086363229e+02
2.082558162795815182e+00 5.481429909152791424e+02
2.082658184800656009e+00 5.481392123065609212e+02
2.082758206805496837e+00 5.481372151839492517e+02
2.082858228810338108e+00 5.481369865333039115e+02
2.082958250815179380e+00 5.481385129325201433e+02
2.083058272820020207e+00 5.481417805592307104e+02
2.083158294824861478e+00 5.481467751985665018e+02
2.083258316829702750e+00 5.481534822509720470e+02
2.083358338834543133e+00 5.481618867400660520e+02
2.083458360839384405e+00 5.481719733205457032e+02
2.083558382844225676e+00 5.481837262861338331e+02
2.083658404849066503e+00 5.481971295775555291e+02
2.083758426853907775e+00 5.482121667905469167e+02
2.083858448858749046e+00 5.482288211838894085e+02
2.083958470863589874e+00 5.482470756874643030e+02
2.084058492868430701e+00 5.482669129103254591e+02
2.084158514873271972e+00 5.482883151487801570e+02
2.084258536878112800e+00 5.483112643944843967e+02
2.084358558882954071e+00 5.483357423425366051e+02
2.084458580887795343e+00 5.483617303995741850e+02
2.084558602892636170e+00 5.483892096918640391e+02
2.084658624897476997e+00 5.484181610733869547e+02
2.084758646902318269e+00 5.484485651339058450e+02
2.084858668907159540e+00 5.484804022070264864e+02
2.084958690912000367e+00 5.485136523782257427e+02
2.085058712916841639e+00 5.485482954928691015e+02
2.085158734921682466e+00 5.485843111641930818e+02
2.085258756926523738e+00 5.486216787812595612e+02
2.085358778931364565e+00 5.486603775168784978e+02
2.085458800936205837e+00 5.487003863354879059e+02
2.085558822941046664e+00 5.487416840009975658e+02
2.085658844945887935e+00 5.487842490845903285e+02
2.085758866950729207e+00 5.488280599724682816e+02
2.085858888955570034e+00 5.488730948735594666e+02
2.085958910960411306e+00 5.489193318271651378e+02
2.086058932965252133e+00 5.489667487105512009e+02
2.086158954970093404e+00 5.490153232464850817e+02
2.086258976974934232e+00 5.490650330107077934e+02
2.086358998979775503e+00 5.491158554393443865e+02
2.086459020984616330e+00 5.491677678362452752e+02
2.086559042989457602e+00 5.492207473802632194e+02
2.086659064994298873e+00 5.492747711324567490e+02
2.086759086999139701e+00 5.493298160432186705e+02
2.086859109003980528e+00 5.493858589593348825e+02
2.086959131008821799e+00 5.494428766309565617e+02
2.087059153013663071e+00 5.495008457185065254e+02
2.087159175018503898e+00 5.495597427994912323e+02
2.087259197023345170e+00 5.496195443752367282e+02
2.087359219028185997e+00 5.496802268775410312e+02
2.087459241033026824e+00 5.497417666752376135e+02
2.087559263037868096e+00 5.498041400806710044e+02
2.087659285042709367e+00 5.498673233560878089e+02
2.087759307047550195e+00 5.499312927199326850e+02
2.087859329052391466e+00 5.499960243530568960e+02
2.087959351057232738e+00 5.500614944048323878e+02
2.088059373062073565e+00 5.501276789991727583e+02
2.088159395066914392e+00 5.501945542404617981e+02
2.088259417071755664e+00 5.502620962193844889e+02
2.088359439076596491e+00 5.503302810186667102e+02
2.088459461081437762e+00 5.503990847187103554e+02
2.088559483086279034e+00 5.504684834031423861e+02
2.088659505091119861e+00 5.505384531642579304e+02
2.088759527095961133e+00 5.506089701083698174e+02
2.088859549100801960e+00 5.506800103610603401e+02
2.088959571105642787e+00 5.507515500723334299e+02
2.089059593110484059e+00 5.508235654216695139e+02
2.089159615115325330e+00 5.508960326229820339e+02
2.089259637120166158e+00 5.509689279294767630e+02
2.089359659125007429e+00 5.510422276384113047e+02
2.089459681129848700e+00 5.511159080957598917e+02
2.089559703134689528e+00 5.511899457007770025e+02
2.089659725139530355e+00 5.512643169104680965e+02
2.089759747144371627e+00 5.513389982439604182e+02
2.089859769149212454e+00 5.514139662867789866e+02
2.089959791154053725e+00 5.514891976950308390e+02
2.090059813158894997e+00 5.515646691994857065e+02
2.090159835163735824e+00 5.516403576095734707e+02
2.090259857168576652e+00 5.517162398172828262e+02
2.090359879173417923e+00 5.517922928009636507e+02
2.090459901178259194e+00 5.518684936290502492e+02
2.090559923183100022e+00 5.519448194636808012e+02
2.090659945187941293e+00 5.520212475642375693e+02
2.090759967192782121e+00 5.520977552907933159e+02
2.090859989197623392e+00 5.521743201074752960e+02
2.090960011202464219e+00 5.522509195857386430e+02
2.091060033207305491e+00 5.523275314075599454e+02
2.091160055212146318e+00 5.524041333685455584e+02
2.091260077216987590e+00 5.524807033809586301e+02
2.091360099221828861e+00 5.525572194766683651e+02
2.091460121226669688e+00 5.526336598100145920e+02
2.091560143231510960e+00 5.527100026606022993e+02
2.091660165236351787e+00 5.527862264360175004e+02
2.091760187241193059e+00 5.528623096744680652e+02
2.091860209246033886e+00 5.529382310473546340e+02
2.091960231250875157e+00 5.530139693617679768e+02
2.092060253255715985e+00 5.530895035629223457e+02
2.092160275260557256e+00 5.531648127365156142e+02
2.092260297265398528e+00 5.532398761110276837e+02
2.092360319270239355e+00 5.533146730599569310e+02
2.092460341275080182e+00 5.533891831039902627e+02
2.092560363279921454e+00 5.534633859131158715e+02
2.092660385284762725e+00 5.535372613086775573e+02
2.092760407289603553e+00 5.536107892653750469e+02
2.092860429294444824e+00 5.536839499132053106e+02
2.092960451299285651e+00 5.537567235393544252e+02
2.093060473304126479e+00 5.538290905900394137e+02
2.093160495308967750e+00 5.539010316722994958e+02
2.093260517313809022e+00 5.539725275557420900e+02
2.093360539318649849e+00 5.540435591742455017e+02
2.093460561323491120e+00 5.541141076276123840e+02
2.093560583328332392e+00 5.541841541831904578e+02
2.093660605333173219e+00 5.542536802774503712e+02
2.093760627338014046e+00 5.543226675175251330e+02
2.093860649342855318e+00 5.543910976827161221e+02
2.093960671347696145e+00 5.544589527259673787e+02
2.094060693352537417e+00 5.545262147753035151e+02
2.094160715357378688e+00 5.545928661352446625e+02
2.094260737362219515e+00 5.546588892881876518e+02
2.094360759367060787e+00 5.547242668957655951e+02
2.094460781371901614e+00 5.547889818001826825e+02
2.094560803376742442e+00 5.548530170255230587e+02
2.094660825381583713e+00 5.549163557790462846e+02
2.094760847386424985e+00 5.549789814524550593e+02
2.094860869391265812e+00 5.550408776231578258e+02
2.094960891396107083e+00 5.551020280555029558e+02
2.095060913400948355e+00 5.551624167020089544e+02
2.095160935405789182e+00 5.552220277045795456e+02
2.095260957410630009e+00 5.552808453957073880e+02
2.095360979415471281e+00 5.553388542996710839e+02
2.095461001420312108e+00 5.553960391337228657e+02
2.095561023425153380e+00 5.554523848092717344e+02
2.095661045429994651e+00 5.555078764330633021e+02
2.095761067434835478e+00 5.555624993083545178e+02
2.095861089439676306e+00 5.556162389360886209e+02
2.095961111444517577e+00 5.556690810160680485e+02
2.096061133449358849e+00 5.557210114481315486e+02
2.096161155454199676e+00 5.557720163333290202e+02
2.096261177459040947e+00 5.558220819751063573e+02
2.096361199463881775e+00 5.558711948804863141e+02
2.096461221468723046e+00 5.559193417612646044e+02
2.096561243473563874e+00 5.559665095352053186e+02
2.096661265478405145e+00 5.560126853272465723e+02
2.096761287483245972e+00 5.560578564707176383e+02
2.096861309488087244e+00 5.561020105085606247e+02
2.096961331492928515e+00 5.561451351945644319e+02
2.097061353497769343e+00 5.561872184946146263e+02
2.097161375502610614e+00 5.562282485879462683e+02
2.097261397507451441e+00 5.562682138684162965e+02
2.097361419512292713e+00 5.563071029457863688e+02
2.097461441517133540e+00 5.563449046470188932e+02
2.097561463521974812e+00 5.563816080175893148e+02
2.097661485526815639e+00 5.564172023228099988e+02
2.097761507531656910e+00 5.564516770491708257e+02
2.097861529536498182e+00 5.564850219056958167e+02
2.097961551541339009e+00 5.565172268253129459e+02
2.098061573546179837e+00 5.565482819662402107e+02
2.098161595551021108e+00 5.565781777133885271e+02
2.098261617555862379e+00 5.566069046797802002e+02
2.098361639560703207e+00 5.566344537079813790e+02
2.098461661565544478e+00 5.566608158715528134e+02
2.098561683570385306e+00 5.566859824765124358e+02
2.098661705575226133e+00 5.567099450628195427e+02
2.098761727580067404e+00 5.567326954058661386e+02
2.098861749584908676e+00 5.567542255179903350e+02
2.098961771589749503e+00 5.567745276499990723e+02
2.099061793594590775e+00 5.567935942927075530e+02
2.099161815599432046e+00 5.568114181784920902e+02
2.099261837604272873e+00 5.568279922828546660e+02
2.099361859609113701e+00 5.568433098259991993e+02
2.099461881613954972e+00 5.568573642744240715e+02
2.099561903618795800e+00 5.568701493425184026e+02
2.099661925623637071e+00 5.568816589941761777e+02
2.099761947628478342e+00 5.568918874444120775e+02
2.099861969633319170e+00 5.569008291609936805e+02
2.099961991638160441e+00 5.569084788660734375e+02
2.100062013643001269e+00 5.569148315378334928e+02
2.100162035647842096e+00 5.569198824121315283e+02
2.100262057652683367e+00 5.569236269841546800e+02
2.100362079657524639e+00 5.569260610100716349e+02
2.100462101662365466e+00 5.569271805086918903e+02
2.100562123667206738e+00 5.569269817631227397e+02
2.100662145672048009e+00 5.569254613224268269e+02
2.100762167676888836e+00 5.569226160032769712e+02
2.100862189681729664e+00 5.569184428916063325e+02
2.100962211686570935e+00 5.569129393442584615e+02
2.101062233691411762e+00 5.569061029906258682e+02
2.101162255696253034e+00 5.568979317342829063e+02
2.101262277701094305e+00 5.568884237546102440e+02
2.101362299705935133e+00 5.568775775084045563e+02
2.101462321710775960e+00 5.568653917314829869e+02
2.101562343715617232e+00 5.568518654402627135e+02
2.101662365720458503e+00 5.568369979333356241e+02
2.101762387725299330e+00 5.568207887930157085e+02
2.101862409730140602e+00 5.568032378868745127e+02
2.101962431734981429e+00 5.567843453692472622e+02
2.102062453739822701e+00 5.567641116827252290e+02
2.102162475744663528e+00 5.567425375596135382e+02
2.102262497749504799e+00 5.567196240233687377e+02
2.102362519754345627e+00 5.566953723900037403e+02
2.102462541759186898e+00 5.566697842694658220e+02
2.102562563764028170e+00 5.566428615669731244e+02
2.102662585768868997e+00 5.566146064843303520e+02
2.102762607773709824e+00 5.565850215211938803e+02
2.102862629778551096e+00 5.565541094763061665e+02
2.102962651783392367e+00 5.565218734486866197e+02
2.103062673788233194e+00 5.564883168387802925e+02
2.103162695793074466e+00 5.564534433495625763e+02
2.103262717797915293e+00 5.564172569875933050e+02
2.103362739802756565e+00 5.563797620640274317e+02
2.103462761807597392e+00 5.563409631955707937e+02
2.103562783812438663e+00 5.563008653053832404e+02
2.103662805817279491e+00 5.562594736239274198e+02
2.103762827822120762e+00 5.562167936897619711e+02
2.103862849826962034e+00 5.561728313502699166e+02
2.103962871831802861e+00 5.561275927623349844e+02
2.104062893836644133e+00 5.560810843929434668e+02
2.104162915841484960e+00 5.560333130197312812e+02
2.104262937846325787e+00 5.559842857314566800e+02
2.104362959851167059e+00 5.559340099284058851e+02
2.104462981856008330e+00 5.558824933227294878e+02
2.104563003860849157e+00 5.558297439387017675e+02
2.104663025865690429e+00 5.557757701129060024e+02
2.104763047870531700e+00 5.557205804943453131e+02
2.104863069875372084e+00 5.556641840444725631e+02
2.104963091880213355e+00 5.556065900371381758e+02
2.105063113885054626e+00 5.555478080584553027e+02
2.105163135889895454e+00 5.554878480065851818e+02
2.105263157894736725e+00 5.554267200914275691e+02
2.105363179899577997e+00 5.553644348342334069e+02
2.105463201904418824e+00 5.553010030671181312e+02
2.105563223909259651e+00 5.552364359324882344e+02
2.105663245914100923e+00 5.551707448823773348e+02
2.105763267918941750e+00 5.551039416776795861e+02
2.105863289923783022e+00 5.550360383872954344e+02
2.105963311928624293e+00 5.549670473871732383e+02
2.106063333933465120e+00 5.548969813592551645e+02
2.106163355938306392e+00 5.548258532903200830e+02
2.106263377943147219e+00 5.547536764707278962e+02
2.106363399947988491e+00 5.546804644930539325e+02
2.106463421952829318e+00 5.546062312506267062e+02
2.106563443957670589e+00 5.545309909359530138e+02
2.106663465962511417e+00 5.544547580390402572e+02
2.106763487967352688e+00 5.543775473456064447e+02
2.106863509972193960e+00 5.542993739351875320e+02
2.106963531977034787e+00 5.542202531791240290e+02
2.107063553981875614e+00 5.541402007384476747e+02
2.107163575986716886e+00 5.540592325616495373e+02
2.107263597991558157e+00 5.539773648823327221e+02
2.107363619996398985e+00 5.538946142167604876e+02
2.107463642001240256e+00 5.538109973612798740e+02
2.107563664006081083e+00 5.537265313896364205e+02
2.107663686010922355e+00 5.536412336501703066e+02
2.107763708015763182e+00 5.535551217628994891e+02
2.107863730020604454e+00 5.534682136164811936e+02
2.107963752025445281e+00 5.533805273650630170e+02
2.108063774030286552e+00 5.532920814250082913e+02
2.108163796035127824e+00 5.532028944715125363e+02
2.108263818039968651e+00 5.531129854350978121e+02
2.108363840044809479e+00 5.530223734979870187e+02
2.108463862049650750e+00 5.529310780903670093e+02
2.108563884054492021e+00 5.528391188865288086e+02
2.108663906059332849e+00 5.527465158008900517e+02
2.108763928064174120e+00 5.526532889839036216e+02
2.108863950069014948e+00 5.525594588178458935e+02
2.108963972073856219e+00 5.524650459124911777e+02
2.109063994078697046e+00 5.523700711006663369e+02
2.109164016083538318e+00 5.522745554336918303e+02
2.109264038088379145e+00 5.521785201767066837e+02
2.109364060093220417e+00 5.520819868038823870e+02
2.109464082098061688e+00 5.519849769935143513e+02
2.109564104102902515e+00 5.518875126230102524e+02
2.109664126107743787e+00 5.517896157637597980e+02
2.109764148112584614e+00 5.516913086758954705e+02
2.109864170117425441e+00 5.515926138029425374e+02
2.109964192122266713e+00 5.514935537663615150e+02
2.110064214127107984e+00 5.513941513599796735e+02
2.110164236131948812e+00 5.512944295443192004e+02
2.110264258136790083e+00 5.511944114408190671e+02
2.110364280141631355e+00 5.510941203259491203e+02
2.110464302146471738e+00 5.509935796252309501e+02
2.110564324151313009e+00 5.508928129071474586e+02
2.110664346156154281e+00 5.507918438769610248e+02
2.110764368160995108e+00 5.506906963704287818e+02
2.110864390165836380e+00 5.505893943474275147e+02
2.110964412170677651e+00 5.504879618854783985e+02
2.111064434175518478e+00 5.503864231731869268e+02
2.111164456180359306e+00 5.502848025035860928e+02
2.111264478185200577e+00 5.501831242673970337e+02
2.111364500190041404e+00 5.500814129461995208e+02
2.111464522194882676e+00 5.499796931055225286e+02
2.111564544199723947e+00 5.498779893878527218e+02
2.111664566204564775e+00 5.497763265055600641e+02
2.111764588209406046e+00 5.496747292337523731e+02
2.111864610214246873e+00 5.495732224030552970e+02
2.111964632219088145e+00 5.494718308923133918e+02
2.112064654223928972e+00 5.493705796212316272e+02
2.112164676228770244e+00 5.492694935429448151e+02
2.112264698233611071e+00 5.491685976365242823e+02
2.112364720238452342e+00 5.490679168994265638e+02
2.112464742243293614e+00 5.489674763398775212e+02
2.112564764248134441e+00 5.488673009692088272e+02
2.112664786252975269e+00 5.487674157941348767e+02
2.112764808257816540e+00 5.486678458089866126e+02
2.112864830262657811e+00 5.485686159878938497e+02
2.112964852267498639e+00 5.484697512769273544e+02
2.113064874272339910e+00 5.483712765861985190e+02
2.113164896277180738e+00 5.482732167819252709e+02
2.113264918282022009e+00 5.481755966784589873e+02
2.113364940286862836e+00 5.480784410302840115e+02
2.113464962291704108e+00 5.479817745239922715e+02
2.113564984296544935e+00 5.478856217702268623e+02
2.113665006301386207e+00 5.477900072956103941e+02
2.113765028306227478e+00 5.476949555346550369e+02
2.113865050311068305e+00 5.476004908216566491e+02
2.113965072315909133e+00 5.475066373825799246e+02
2.114065094320750404e+00 5.474134193269370599e+02
2.114165116325591676e+00 5.473208606396600544e+02
2.114265138330432503e+00 5.472289851729774455e+02
2.114365160335273774e+00 5.471378166382897916e+02
2.114465182340114602e+00 5.470473785980550474e+02
2.114565204344955873e+00 5.469576944576861024e+02
2.114665226349796701e+00 5.468687874574560510e+02
2.114765248354637972e+00 5.467806806644292692e+02
2.114865270359478799e+00 5.466933969644102262e+02
2.114965292364320071e+00 5.466069590539157161e+02
2.115065314369161342e+00 5.465213894321794896e+02
2.115165336374002170e+00 5.464367103931871270e+02
2.115265358378843441e+00 5.463529440177470633e+02
2.115365380383684268e+00 5.462701121656024270e+02
2.115465402388525096e+00 5.461882364675848294e+02
2.115565424393366367e+00 5.461073383178170388e+02
2.115665446398207639e+00 5.460274388659639726e+02
2.115765468403048466e+00 5.459485590095395082e+02
2.115865490407889737e+00 5.458707193862726399e+02
2.115965512412731009e+00 5.457939403665316149e+02
2.116065534417571392e+00 5.457182420458158276e+02
2.116165556422412664e+00 5.456436442373167210e+02
2.116265578427253935e+00 5.455701664645479241e+02
2.116365600432094762e+00 5.454978279540569019e+02
2.116465622436936034e+00 5.454266476282101621e+02
2.116565644441777305e+00 5.453566440980645211e+02
2.116665666446618133e+00 5.452878356563244324e+02
2.116765688451458960e+00 5.452202402703890129e+02
2.116865710456300231e+00 5.451538755754911563e+02
2.116965732461141059e+00 5.450887588679361215e+02
2.117065754465982330e+00 5.450249070984378932e+02
2.117165776470823602e+00 5.449623368655579725e+02
2.117265798475664429e+00 5.449010644092552411e+02
2.117365820480505700e+00 5.448411056045401892e+02
2.117465842485346528e+00 5.447824759552455589e+02
2.117565864490187799e+00 5.447251905879132892e+02
2.117665886495028627e+00 5.446692642457986722e+02
2.117765908499869898e+00 5.446147112829986554e+02
2.117865930504710725e+00 5.445615456587065637e+02
2.117965952509551997e+00 5.445097809315909672e+02
2.118065974514393268e+00 5.444594302543106323e+02
2.118165996519234096e+00 5.444105063681613501e+02
2.118266018524074923e+00 5.443630215978575961e+02
2.118366040528916194e+00 5.443169878464600515e+02
2.118466062533757466e+00 5.442724165904385245e+02
2.118566084538598293e+00 5.442293188748831199e+02
2.118666106543439565e+00 5.441877053088629737e+02
2.118766128548280392e+00 5.441475860609347137e+02
2.118866150553121663e+00 5.441089708548029193e+02
2.118966172557962491e+00 5.440718689651347404e+02
2.119066194562803762e+00 5.440362892135331094e+02
2.119166216567644589e+00 5.440022399646675240e+02
2.119266238572485861e+00 5.439697291225668323e+02
2.119366260577327132e+00 5.439387641270764107e+02
2.119466282582167960e+00 5.439093519504785945e+02
2.119566304587008787e+00 5.438814990942821623e+02
2.119666326591850058e+00 5.438552115861804168e+02
2.119766348596691330e+00 5.438304949771785459e+02
2.119866370601532157e+00 5.438073543388970847e+02
2.119966392606373429e+00 5.437857942610459077e+02
2.120066414611214256e+00 5.437658188490756856e+02
2.120166436616055083e+00 5.437474317220056719e+02
2.120266458620896355e+00 5.437306360104305440e+02
2.120366480625737626e+00 5.437154343547067583e+02
2.120466502630578454e+00 5.437018289033192104e+02
2.120566524635419725e+00 5.436898213114287728e+02
2.120666546640260997e+00 5.436794127396066187e+02
2.120766568645101824e+00 5.436706038527465807e+02
2.120866590649942651e+00 5.436633948191682748e+02
2.120966612654783923e+00 5.436577853099003050e+02
2.121066634659624750e+00 5.436537744981533251e+02
2.121166656664466021e+00 5.436513610589757945e+02
2.121266678669307293e+00 5.436505431691015247e+02
2.121366700674148120e+00 5.436513185069799192e+02
2.121466722678989392e+00 5.436536842529974365e+02
2.121566744683830219e+00 5.436576370898845880e+02
2.121666766688671046e+00 5.436631732033118851e+02
2.121766788693512318e+00 5.436702882826728001e+02
2.121866810698353589e+00 5.436789775220565843e+02
2.121966832703194417e+00 5.436892356214075335e+02
2.122066854708035688e+00 5.437010567878700158e+02
2.122166876712876959e+00 5.437144347373229039e+02
2.122266898717717787e+00 5.437293626961012478e+02
2.122366920722558614e+00 5.437458334028997342e+02
2.122466942727399886e+00 5.437638391108679343e+02
2.122566964732240713e+00 5.437833715898832452e+02
2.122666986737081984e+00 5.438044221290143696e+02
2.122767008741923256e+00 5.438269815391620341e+02
2.122867030746764083e+00 5.438510401558855847e+02
2.122967052751604911e+00 5.438765878424095490e+02
2.123067074756446182e+00 5.439036139928083458e+02
2.123167096761287453e+00 5.439321075353715287e+02
2.123267118766128281e+00 5.439620569361457001e+02
2.123367140770969552e+00 5.439934502026503651e+02
2.123467162775810380e+00 5.440262748877704553e+02
2.123567184780651651e+00 5.440605180938207468e+02
2.123667206785492478e+00 5.440961664767788761e+02
2.123767228790333750e+00 5.441332062506921829e+02
2.123867250795174577e+00 5.441716231922463294e+02
2.123967272800015849e+00 5.442114026455031990e+02
2.124067294804857120e+00 5.442525295268018226e+02
2.124167316809697947e+00 5.442949883298172153e+02
2.124267338814539219e+00 5.443387631307838319e+02
2.124367360819380046e+00 5.443838375938696572e+02
2.124467382824221318e+00 5.444301949767108226e+02
2.124567404829062145e+00 5.444778181360937879e+02
2.124667426833903416e+00 5.445266895337888400e+02
2.124767448838744244e+00 5.445767912425312716e+02
2.124867470843585515e+00 5.446281049521476234e+02
2.124967492848426787e+00 5.446806119758207387e+02
2.125067514853267614e+00 5.447342932564978355e+02
2.125167536858108441e+00 5.447891293734322744e+02
2.125267558862949713e+00 5.448451005488593637e+02
2.125367580867790984e+00 5.449021866548030175e+02
2.125467602872631812e+00 5.449603672200123583e+02
2.125567624877473083e+00 5.450196214370145071e+02
2.125667646882313910e+00 5.450799281693010698e+02
2.125767668887154738e+00 5.451412659586226255e+02
2.125867690891996009e+00 5.452036130324019041e+02
2.125967712896837281e+00 5.452669473112616743e+02
2.126067734901678108e+00 5.453312464166539257e+02
2.126167756906519379e+00 5.453964876786036484e+02
2.126267778911360651e+00 5.454626481435433334e+02
2.126367800916201478e+00 5.455297045822549080e+02
2.126467822921042305e+00 5.455976334979023932e+02
2.126567844925883577e+00 5.456664111341557373e+02
2.126667866930724404e+00 5.457360134834033261e+02
2.126767888935565676e+00 5.458064162950462332e+02
2.126867910940406947e+00 5.458775950838760309e+02
2.126967932945247775e+00 5.459495251385270649e+02
2.127067954950089046e+00 5.460221815300030812e+02
2.127167976954929873e+00 5.460955391202709279e+02
2.127267998959770701e+00 5.461695725709224689e+02
2.127368020964611972e+00 5.462442563518966381e+02
2.127468042969453244e+00 5.463195647502584507e+02
2.127568064974294071e+00 5.463954718790351990e+02
2.127668086979135342e+00 5.464719516860984641e+02
2.127768108983976614e+00 5.465489779630959220e+02
2.127868130988817441e+00 5.466265243544257828e+02
2.127968152993658268e+00 5.467045643662463590e+02
2.128068174998499540e+00 5.467830713755245142e+02
2.128168197003340367e+00 5.468620186391110565e+02
2.128268219008181639e+00 5.469413793028458031e+02
2.128368241013022910e+00 5.470211264106854969e+02
2.128468263017863737e+00 5.471012329138468431e+02
2.128568285022704565e+00 5.471816716799716005e+02
2.128668307027545836e+00 5.472624155022961077e+02
2.128768329032387108e+00 5.473434371088328589e+02
2.128868351037227935e+00 5.474247091715524220e+02
2.128968373042069206e+00 5.475062043155662650e+02
2.129068395046910034e+00 5.475878951283062861e+02
2.129168417051751305e+00 5.476697541686934301e+02
2.129268439056592133e+00 5.477517539762968681e+02
2.129368461061433404e+00 5.478338670804757840e+02
2.129468483066274231e+00 5.479160660095019466e+02
2.129568505071115503e+00 5.479983232996601146e+02
2.129668527075956774e+00 5.480806115043160389e+02
2.129768549080797602e+00 5.481629032029627524e+02
2.129868571085638873e+00 5.482451710102218385e+02
2.129968593090479700e+00 5.483273875848159378e+02
2.130068615095320972e+00 5.484095256384894128e+02
2.130168637100161799e+00 5.484915579448926337e+02
2.130268659105003071e+00 5.485734573484121483e+02
2.130368681109843898e+00 5.486551967729475336e+02
2.130468703114685169e+00 5.487367492306349277e+02
2.130568725119526441e+00 5.488180878305081478e+02
2.130668747124367268e+00 5.488991857870989861e+02
2.130768769129208096e+00 5.489800164289690656e+02
2.130868791134049367e+00 5.490605532071735979e+02
2.130968813138890638e+00 5.491407697036488571e+02
2.131068835143731466e+00 5.492206396395280308e+02
2.131168857148572737e+00 5.493001368833738525e+02
2.131268879153413565e+00 5.493792354593294931e+02
2.131368901158254392e+00 5.494579095551841874e+02
2.131468923163095663e+00 5.495361335303483656e+02
2.131568945167936935e+00 5.496138819237410189e+02
2.131668967172777762e+00 5.496911294615777024e+02
2.131768989177619034e+00 5.497678510650629278e+02
2.131869011182460305e+00 5.498440218579826251e+02
2.131969033187301132e+00 5.499196171741950820e+02
2.132069055192141960e+00 5.499946125650099020e+02
2.132169077196983231e+00 5.500689838064674859e+02
2.132269099201824059e+00 5.501427069065009618e+02
2.132369121206665330e+00 5.502157581119861334e+02
2.132469143211506601e+00 5.502881139156796735e+02
2.132569165216347429e+00 5.503597510630320357e+02
2.132669187221188700e+00 5.504306465588867923e+02
2.132769209226029528e+00 5.505007776740530971e+02
2.132869231230870355e+00 5.505701219517558229e+02
2.132969253235711626e+00 5.506386572139573445e+02
2.133069275240552898e+00 5.507063615675524488e+02
2.133169297245393725e+00 5.507732134104297756e+02
2.133269319250234997e+00 5.508391914374036560e+02
2.133369341255076268e+00 5.509042746460090711e+02
2.133469363259917095e+00 5.509684423421653037e+02
2.133569385264757923e+00 5.510316741456947511e+02
2.133669407269599194e+00 5.510939499957088401e+02
2.133769429274440022e+00 5.511552501558512631e+02
2.133869451279281293e+00 5.512155552193993344e+02
2.133969473284122564e+00 5.512748461142213046e+02
2.134069495288963392e+00 5.513331041075900885e+02
2.134169517293804219e+00 5.513903108108531796e+02
2.134269539298645491e+00 5.514464481839504515e+02
2.134369561303486762e+00 5.515014985397911005e+02
2.134469583308327589e+00 5.515554445484773396e+02
2.134569605313168861e+00 5.516082692413799577e+02
2.134669627318009688e+00 5.516599560150642674e+02
2.134769649322850960e+00 5.517104886350639390e+02
2.134869671327691787e+00 5.517598512395057924e+02
2.134969693332533058e+00 5.518080283425788366e+02
2.135069715337373886e+00 5.518550048378552901e+02
2.135169737342215157e+00 5.519007660014548264e+02
2.135269759347056429e+00 5.519452974950575026e+02
2.135369781351897256e+00 5.519885853687652570e+02
2.135469803356738527e+00 5.520306160638056099e+02
2.135569825361579355e+00 5.520713764150856377e+02
2.135669847366420626e+00 5.521108536535914482e+02
2.135769869371261453e+00 5.521490354086329262e+02
2.135869891376102725e+00 5.521859097099368228e+02
2.135969913380943552e+00 5.522214649895872753e+02
2.136069935385784824e+00 5.522556900838112597e+02
2.136169957390625651e+00 5.522885742346142024e+02
2.136269979395466923e+00 5.523201070912615478e+02
2.136370001400307750e+00 5.523502787116124182e+02
2.136470023405149021e+00 5.523790795632985464e+02
2.136570045409990293e+00 5.524065005247562112e+02
2.136670067414831120e+00 5.524325328861071966e+02
2.136770089419672392e+00 5.524571683498924131e+02
2.136870111424513219e+00 5.524803990316563613e+02
2.136970133429354046e+00 5.525022174603868734e+02
2.137070155434195318e+00 5.525226165788080834e+02
2.137170177439036589e+00 5.525415897435294710e+02
2.137270199443877416e+00 5.525591307250490445e+02
2.137370221448718688e+00 5.525752337076177128e+02
2.137470243453559959e+00 5.525898932889614343e+02
2.137570265458400343e+00 5.526031044798620542e+02
2.137670287463241614e+00 5.526148627036018297e+02
2.137770309468082885e+00 5.526251637952698275e+02
2.137870331472923713e+00 5.526340040009338281e+02
2.137970353477764984e+00 5.526413799766772854e+02
2.138070375482606256e+00 5.526472887875055449e+02
2.138170397487447083e+00 5.526517279061181398e+02
2.138270419492287910e+00 5.526546952115570548e+02
2.138370441497129182e+00 5.526561889877231124e+02
2.138470463501970009e+00 5.526562079217700330e+02
2.138570485506811281e+00 5.526547511023727566e+02
2.138670507511652552e+00 5.526518180178750299e+02
2.138770529516493379e+00 5.526474085543179626e+02
2.138870551521334651e+00 5.526415229933481896e+02
2.138970573526175478e+00 5.526341620100140517e+02
2.139070595531016750e+00 5.526253266704425187e+02
2.139170617535857577e+00 5.526150184294101564e+02
2.139270639540698848e+00 5.526032391278010891e+02
2.139370661545539676e+00 5.525899909899566183e+02
2.139470683550380947e+00 5.525752766209229776e+02
2.139570705555222219e+00 5.525590990035922232e+02
2.139670727560063046e+00 5.525414614957453523e+02
2.139770749564903873e+00 5.525223678269941274e+02
2.139870771569745145e+00 5.525018220956280857e+02
2.139970793574586416e+00 5.524798287653671878e+02
