2.100062013643001269e+00 5.003394487523412408e+02
2.100162035647842096e+00 5.003171524849788057e+02
2.100262057652683367e+00 5.002947376429492010e+02
2.100362079657524639e+00 5.002722079732311613e+02
2.100462101662365466e+00 5.002495672440337557e+02
2.100562123667206738e+00 5.002268192442097074e+02
2.100662145672048009e+00 5.002039677826680304e+02
2.100762167676888836e+00 5.001810166877820620e+02
2.100862189681729664e+00 5.001579698067922664e+02
2.100962211686570935e+00 5.001348310052134138e+02
2.101062233691411762e+00 5.001116041662313592e+02
2.101162255696253034e+00 5.000882931901017514e+02
2.101262277701094305e+00 5.000649019935430601e+02
2.101362299705935133e+00 5.000414345091296013e+02
2.101462321710775960e+00 5.000178946846830854e+02
2.101562343715617232e+00 4.999942864826561504e+02
2.101662365720458503e+00 4.999706138795226593e+02
2.101762387725299330e+00 4.999468808651570271e+02
2.101862409730140602e+00 4.999230914422183787e+02
2.101962431734981429e+00 4.998992496255268065e+02
2.102062453739822701e+00 4.998753594414460508e+02
2.102162475744663528e+00 4.998514249272542429e+02
2.102262497749504799e+00 4.998274501305222657e+02
2.102362519754345627e+00 4.998034391084843833e+02
2.102462541759186898e+00 4.997793959274123381e+02
2.102562563764028170e+00 4.997553246619827974e+02
2.102662585768868997e+00 4.997312293946486079e+02
2.102762607773709824e+00 4.997071142150069818e+02
2.102862629778551096e+00 4.996829832191661467e+02
2.102962651783392367e+00 4.996588405091107461e+02
2.103062673788233194e+00 4.996346901920686605e+02
2.103162695793074466e+00 4.996105363798760095e+02
2.103262717797915293e+00 4.995863831883415287e+02
2.103362739802756565e+00 4.995622347366086160e+02
2.103462761807597392e+00 4.995380951465207886e+02
2.103562783812438663e+00 4.995139685419848092e+02
2.103662805817279491e+00 4.994898590483320504e+02
2.103762827822120762e+00 4.994657707916848040e+02
2.103862849826962034e+00 4.994417078983140073e+02
2.103962871831802861e+00 4.994176744940099297e+02
2.104062893836644133e+00 4.993936747034371706e+02
2.104162915841484960e+00 4.993697126495054590e+02
2.104262937846325787e+00 4.993457924527306204e+02
2.104362959851167059e+00 4.993219182305984987e+02
2.104462981856008330e+00 4.992980940969334824e+02
2.104563003860849157e+00 4.992743241612625411e+02
2.104663025865690429e+00 4.992506125281806817e+02
2.104763047870531700e+00 4.992269632967238522e+02
2.104863069875372084e+00 4.992033805597328637e+02
2.104963091880213355e+00 4.991798684032261235e+02
2.105063113885054626e+00 4.991564309057704349e+02
2.105163135889895454e+00 4.991330721378538442e+02
2.105263157894736725e+00 4.991097961612598510e+02
2.105363179899577997e+00 4.990866070284425859e+02
2.105463201904418824e+00 4.990635087819058526e+02
2.105563223909259651e+00 4.990405054535785894e+02
2.105663245914100923e+00 4.990176010642003916e+02
2.105763267918941750e+00 4.989947996227005547e+02
2.105863289923783022e+00 4.989721051255855855e+02
2.105963311928624293e+00 4.989495215563239299e+02
2.106063333933465120e+00 4.989270528847370088e+02
2.106163355938306392e+00 4.989047030663898568e+02
2.106263377943147219e+00 4.988824760419852282e+02
2.106363399947988491e+00 4.988603757367599769e+02
2.106463421952829318e+00 4.988384060598833685e+02
2.106563443957670589e+00 4.988165709038606224e+02
2.106663465962511417e+00 4.987948741439363403e+02
2.106763487967352688e+00 4.987733196375003217e+02
2.106863509972193960e+00 4.987519112235013381e+02
2.106963531977034787e+00 4.987306527218568135e+02
2.107063553981875614e+00 4.987095479328725105e+02
2.107163575986716886e+00 4.986886006366608513e+02
2.107263597991558157e+00 4.986678145925633316e+02
2.107363619996398985e+00 4.986471935385785059e+02
2.107463642001240256e+00 4.986267411907924725e+02
2.107563664006081083e+00 4.986064612428098144e+02
2.107663686010922355e+00 4.985863573651931802e+02
2.107763708015763182e+00 4.985664332049050813e+02
2.107863730020604454e+00 4.985466923847502017e+02
2.107963752025445281e+00 4.985271385028275972e+02
2.108063774030286552e+00 4.985077751319809067e+02
2.108163796035127824e+00 4.984886058192562359e+02
2.108263818039968651e+00 4.984696340853644756e+02
2.108363840044809479e+00 4.984508634241458367e+02
2.108463862049650750e+00 4.984322973020397853e+02
2.108563884054492021e+00 4.984139391575610034e+02
2.108663906059332849e+00 4.983957924007751785e+02
2.108763928064174120e+00 4.983778604127867311e+02
2.108863950069014948e+00 4.983601465452227330e+02
2.108963972073856219e+00 4.983426541197291044e+02
2.109063994078697046e+00 4.983253864274672083e+02
2.109164016083538318e+00 4.983083467286163000e+02
2.109264038088379145e+00 4.982915382518816614e+02
2.109364060093220417e+00 4.982749641940084757e+02
2.109464082098061688e+00 4.982586277192979765e+02
2.109564104102902515e+00 4.982425319591318953e+02
2.109664126107743787e+00 4.982266800115002070e+02
2.109764148112584614e+00 4.982110749405363777e+02
2.109864170117425441e+00 4.981957197760544318e+02
2.109964192122266713e+00 4.981806175130967063e+02
2.110064214127107984e+00 4.981657711114817175e+02
2.110164236131948812e+00 4.981511834953607831e+02
2.110264258136790083e+00 4.981368575527818052e+02
2.110364280141631355e+00 4.981227961352527132e+02
2.110464302146471738e+00 4.981090020573205948e+02
2.110564324151313009e+00 4.980954780961452002e+02
2.110664346156154281e+00 4.980822269910880209e+02
2.110764368160995108e+00 4.980692514433030738e+02
2.110864390165836380e+00 4.980565541153320623e+02
2.110964412170677651e+00 4.980441376307111341e+02
2.111064434175518478e+00 4.980320045735786039e+02
2.111164456180359306e+00 4.980201574882919999e+02
2.111264478185200577e+00 4.980085988790499414e+02
2.111364500190041404e+00 4.979973312095218034e+02
2.111464522194882676e+00 4.979863569024811909e+02
2.111564544199723947e+00 4.979756783394503827e+02
2.111664566204564775e+00 4.979652978603468796e+02
2.111764588209406046e+00 4.979552177631373979e+02
2.111864610214246873e+00 4.979454403035039718e+02
2.111964632219088145e+00 4.979359676945063029e+02
2.112064654223928972e+00 4.979268021062603680e+02
2.112164676228770244e+00 4.979179456656211187e+02
2.112264698233611071e+00 4.979094004558676261e+02
2.112364720238452342e+00 4.979011685164030041e+02
2.112464742243293614e+00 4.978932518424539921e+02
2.112564764248134441e+00 4.978856523847816788e+02
2.112664786252975269e+00 4.978783720493982514e+02
2.112764808257816540e+00 4.978714126972901681e+02
2.112864830262657811e+00 4.978647761441494595e+02
2.112964852267498639e+00 4.978584641601122485e+02
2.113064874272339910e+00 4.978524784695023300e+02
2.113164896277180738e+00 4.978468207505853798e+02
2.113264918282022009e+00 4.978414926353276542e+02
2.113364940286862836e+00 4.978364957091629321e+02
2.113464962291704108e+00 4.978318315107669605e+02
2.113564984296544935e+00 4.978275015318398573e+02
2.113665006301386207e+00 4.978235072168943702e+02
2.113765028306227478e+00 4.978198499630531160e+02
2.113865050311068305e+00 4.978165311198507084e+02
2.113965072315909133e+00 4.978135519890487330e+02
2.114065094320750404e+00 4.978109138244506084e+02
2.114165116325591676e+00 4.978086178317317376e+02
2.114265138330432503e+00 4.978066651682709107e+02
2.114365160335273774e+00 4.978050569429933034e+02
2.114465182340114602e+00 4.978037942162202398e+02
2.114565204344955873e+00 4.978028779995248669e+02
2.114665226349796701e+00 4.978023092555959010e+02
2.114765248354637972e+00 4.978020888981133112e+02
2.114865270359478799e+00 4.978022177916241731e+02
2.114965292364320071e+00 4.978026967514328476e+02
2.115065314369161342e+00 4.978035265434956500e+02
2.115165336374002170e+00 4.978047078843230793e+02
2.115265358378843441e+00 4.978062414408910854e+02
2.115365380383684268e+00 4.978081278305607498e+02
2.115465402388525096e+00 4.978103676210016602e+02
2.115565424393366367e+00 4.978129613301284166e+02
2.115665446398207639e+00 4.978159094260431630e+02
2.115765468403048466e+00 4.978192123269801641e+02
2.115865490407889737e+00 4.978228704012697108e+02
2.115965512412731009e+00 4.978268839672988975e+02
2.116065534417571392e+00 4.978312532934855312e+02
2.116165556422412664e+00 4.978359785982586914e+02
2.116265578427253935e+00 4.978410600500477585e+02
2.116365600432094762e+00 4.978464977672790610e+02
2.116465622436936034e+00 4.978522918183784327e+02
2.116565644441777305e+00 4.978584422217836618e+02
2.116665666446618133e+00 4.978649489459649544e+02
2.116765688451458960e+00 4.978718119094504004e+02
2.116865710456300231e+00 4.978790309808635470e+02
2.116965732461141059e+00 4.978866059789631890e+02
2.117065754465982330e+00 4.978945366726976545e+02
2.117165776470823602e+00 4.979028227812588057e+02
2.117265798475664429e+00 4.979114639741521842e+02
2.117365820480505700e+00 4.979204598712681218e+02
2.117465842485346528e+00 4.979298100429637088e+02
2.117565864490187799e+00 4.979395140101529478e+02
2.117665886495028627e+00 4.979495712444007154e+02
2.117765908499869898e+00 4.979599811680315611e+02
2.117865930504710725e+00 4.979707431542367431e+02
2.117965952509551997e+00 4.979818565271976922e+02
2.118065974514393268e+00 4.979933205622111245e+02
2.118165996519234096e+00 4.980051344858238167e+02
2.118266018524074923e+00 4.980172974759749991e+02
2.118366040528916194e+00 4.980298086621475591e+02
2.118466062533757466e+00 4.980426671255218025e+02
2.118566084538598293e+00 4.980558718991441651e+02
2.118666106543439565e+00 4.980694219680958099e+02
2.118766128548280392e+00 4.980833162696729346e+02
2.118866150553121663e+00 4.980975536935758328e+02
2.118966172557962491e+00 4.981121330820991489e+02
2.119066194562803762e+00 4.981270532303360596e+02
2.119166216567644589e+00 4.981423128863852980e+02
2.119266238572485861e+00 4.981579107515683518e+02
2.119366260577327132e+00 4.981738454806500158e+02
2.119466282582167960e+00 4.981901156820725873e+02
2.119566304587008787e+00 4.982067199181879005e+02
2.119666326591850058e+00 4.982236567055060732e+02
2.119766348596691330e+00 4.982409245149443109e+02
2.119866370601532157e+00 4.982585217720858850e+02
2.119966392606373429e+00 4.982764468574442276e+02
2.120066414611214256e+00 4.982946981067377124e+02
2.120166436616055083e+00 4.983132738111649473e+02
2.120266458620896355e+00 4.983321722176939943e+02
2.120366480625737626e+00 4.983513915293514174e+02
2.120466502630578454e+00 4.983709299055240649e+02
2.120566524635419725e+00 4.983907854622628406e+02
2.120666546640260997e+00 4.984109562725973319e+02
2.120766568645101824e+00 4.984314403668515183e+02
2.120866590649942651e+00 4.984522357329719853e+02
2.120966612654783923e+00 4.984733403168589803e+02
2.121066634659624750e+00 4.984947520227030964e+02
2.121166656664466021e+00 4.985164687133318466e+02
2.121266678669307293e+00 4.985384882105585689e+02
2.121366700674148120e+00 4.985608082955410509e+02
2.121466722678989392e+00 4.985834267091435095e+02
2.121566744683830219e+00 4.986063411523059585e+02
2.121666766688671046e+00 4.986295492864198309e+02
2.121766788693512318e+00 4.986530487337084878e+02
2.121866810698353589e+00 4.986768370776138681e+02
2.121966832703194417e+00 4.987009118631925730e+02
2.122066854708035688e+00 4.987252705975097911e+02
2.122166876712876959e+00 4.987499107500466380e+02
2.122266898717717787e+00 4.987748297531103390e+02
2.122366920722558614e+00 4.988000250022472528e+02
2.122466942727399886e+00 4.988254938566673786e+02
2.122566964732240713e+00 4.988512336396680098e+02
2.122666986737081984e+00 4.988772416390686431e+02
2.122767008741923256e+00 4.989035151076434431e+02
2.122867030746764083e+00 4.989300512635694531e+02
2.122967052751604911e+00 4.989568472908696322e+02
2.123067074756446182e+00 4.989839003398664090e+02
2.123167096761287453e+00 4.990112075276413748e+02
2.123267118766128281e+00 4.990387659384964536e+02
2.123367140770969552e+00 4.990665726244200187e+02
2.123467162775810380e+00 4.990946246055622737e+02
2.123567184780651651e+00 4.991229188707081335e+02
2.123667206785492478e+00 4.991514523777626664e+02
2.123767228790333750e+00 4.991802220542340365e+02
2.123867250795174577e+00 4.992092247977266197e+02
2.123967272800015849e+00 4.992384574764338936e+02
2.124067294804857120e+00 4.992679169296390569e+02
2.124167316809697947e+00 4.992975999682166730e+02
2.124267338814539219e+00 4.993275033751430669e+02
2.124367360819380046e+00 4.993576239060053581e+02
2.124467382824221318e+00 4.993879582895186218e+02
2.124567404829062145e+00 4.994185032280452106e+02
2.124667426833903416e+00 4.994492553981165202e+02
2.124767448838744244e+00 4.994802114509633384e+02
2.124867470843585515e+00 4.995113680130440912e+02
2.124967492848426787e+00 4.995427216865783748e+02
2.125067514853267614e+00 4.995742690500877075e+02
2.125167536858108441e+00 4.996060066589351436e+02
2.125267558862949713e+00 4.996379310458681289e+02
2.125367580867790984e+00 4.996700387215683463e+02
2.125467602872631812e+00 4.997023261752026428e+02
2.125567624877473083e+00 4.997347898749749788e+02
2.125667646882313910e+00 4.997674262686845736e+02
2.125767668887154738e+00 4.998002317842851880e+02
2.125867690891996009e+00 4.998332028304474761e+02
2.125967712896837281e+00 4.998663357971241794e+02
2.126067734901678108e+00 4.998996270561175379e+02
2.126167756906519379e+00 4.999330729616502254e+02
2.126267778911360651e+00 4.999666698509361709e+02
2.126367800916201478e+00 5.000004140447568375e+02
2.126467822921042305e+00 5.000343018480387514e+02
2.126567844925883577e+00 5.000683295504311445e+02
2.126667866930724404e+00 5.001024934268890547e+02
2.126767888935565676e+00 5.001367897382542083e+02
2.126867910940406947e+00 5.001712147318422126e+02
2.126967932945247775e+00 5.002057646420277592e+02
2.127067954950089046e+00 5.002404356908343743e+02
2.127167976954929873e+00 5.002752240885247375e+02
2.127267998959770701e+00 5.003101260341887837e+02
2.127368020964611972e+00 5.003451377163424922e+02
2.127468042969453244e+00 5.003802553135163862e+02
2.127568064974294071e+00 5.004154749948539802e+02
2.127668086979135342e+00 5.004507929207076700e+02
2.127768108983976614e+00 5.004862052432357586e+02
2.127868130988817441e+00 5.005217081070014729e+02
2.127968152993658268e+00 5.005572976495710691e+02
2.128068174998499540e+00 5.005929700021159761e+02
2.128168197003340367e+00 5.006287212900107306e+02
2.128268219008181639e+00 5.006645476334343812e+02
2.128368241013022910e+00 5.007004451479752447e+02
2.128468263017863737e+00 5.007364099452266260e+02
2.128568285022704565e+00 5.007724381333955535e+02
2.128668307027545836e+00 5.008085258179009998e+02
2.128768329032387108e+00 5.008446691019760806e+02
2.128868351037227935e+00 5.008808640872720730e+02
2.128968373042069206e+00 5.009171068744594777e+02
2.129068395046910034e+00 5.009533935638299340e+02
2.129168417051751305e+00 5.009897202558973390e+02
2.129268439056592133e+00 5.010260830519997626e+02
2.129368461061433404e+00 5.010624780548993726e+02
2.129468483066274231e+00 5.010989013693830429e+02
2.129568505071115503e+00 5.011353491028605163e+02
2.129668527075956774e+00 5.011718173659625108e+02
2.129768549080797602e+00 5.012083022731413280e+02
2.129868571085638873e+00 5.012447999432627626e+02
2.129968593090479700e+00 5.012813065002056874e+02
2.130068615095320972e+00 5.013178180734527132e+02
2.130168637100161799e+00 5.013543307986872151e+02
2.130268659105003071e+00 5.013908408183791607e+02
2.130368681109843898e+00 5.014273442823829328e+02
2.130468703114685169e+00 5.014638373485176999e+02
2.130568725119526441e+00 5.015003161831612033e+02
2.130668747124367268e+00 5.015367769618295597e+02
2.130768769129208096e+00 5.015732158697646810e+02
2.130868791134049367e+00 5.016096291025139067e+02
2.130968813138890638e+00 5.016460128665084994e+02
2.131068835143731466e+00 5.016823633796426520e+02
2.131168857148572737e+00 5.017186768718476628e+02
2.131268879153413565e+00 5.017549495856653721e+02
2.131368901158254392e+00 5.017911777768172783e+02
2.131468923163095663e+00 5.018273577147737683e+02
2.131568945167936935e+00 5.018634856833189701e+02
2.131668967172777762e+00 5.018995579811137304e+02
2.131768989177619034e+00 5.019355709222556357e+02
2.131869011182460305e+00 5.019715208368345429e+02
2.131969033187301132e+00 5.020074040714913508e+02
2.132069055192141960e+00 5.020432169899623887e+02
2.132169077196983231e+00 5.020789559736342653e+02
2.132269099201824059e+00 5.021146174220850185e+02
2.132369121206665330e+00 5.021501977536265144e+02
2.132469143211506601e+00 5.021856934058445745e+02
2.132569165216347429e+00 5.022211008361313702e+02
2.132669187221188700e+00 5.022564165222182737e+02
2.132769209226029528e+00 5.022916369627048994e+02
2.132869231230870355e+00 5.023267586775806990e+02
2.132969253235711626e+00 5.023617782087468413e+02
2.133069275240552898e+00 5.023966921205345670e+02
2.133169297245393725e+00 5.024314970002135965e+02
2.133269319250234997e+00 5.024661894585056530e+02
2.133369341255076268e+00 5.025007661300858786e+02
2.133469363259917095e+00 5.025352236740838521e+02
2.133569385264757923e+00 5.025695587745813100e+02
2.133669407269599194e+00 5.026037681411028757e+02
2.133769429274440022e+00 5.026378485091032644e+02
2.133869451279281293e+00 5.026717966404512481e+02
2.133969473284122564e+00 5.027056093239083907e+02
2.134069495288963392e+00 5.027392833756013033e+02
2.134169517293804219e+00 5.027728156394935013e+02
2.134269539298645491e+00 5.028062029878482235e+02
2.134369561303486762e+00 5.028394423216876703e+02
2.134469583308327589e+00 5.028725305712489444e+02
2.134569605313168861e+00 5.029054646964344215e+02
2.134669627318009688e+00 5.029382416872540489e+02
2.134769649322850960e+00 5.029708585642665639e+02
2.134869671327691787e+00 5.030033123790151990e+02
2.134969693332533058e+00 5.030356002144545755e+02
2.135069715337373886e+00 5.030677191853761769e+02
2.135169737342215157e+00 5.030996664388253521e+02
2.135269759347056429e+00 5.031314391545163289e+02
2.135369781351897256e+00 5.031630345452393840e+02
2.135469803356738527e+00 5.031944498572613043e+02
2.135569825361579355e+00 5.032256823707228932e+02
2.135669847366420626e+00 5.032567294000301672e+02
2.135769869371261453e+00 5.032875882942390717e+02
2.135869891376102725e+00 5.033182564374328649e+02
2.135969913380943552e+00 5.033487312490986483e+02
2.136069935385784824e+00 5.033790101844918468e+02
2.136169957390625651e+00 5.034090907349988697e+02
2.136269979395466923e+00 5.034389704284923255e+02
2.136370001400307750e+00 5.034686468296793009e+02
2.136470023405149021e+00 5.034981175404470264e+02
2.136570045409990293e+00 5.035273802001958074e+02
2.136670067414831120e+00 5.035564324861742307e+02
2.136770089419672392e+00 5.035852721137993626e+02
2.136870111424513219e+00 5.036138968369768918e+02
2.136970133429354046e+00 5.036423044484126308e+02
2.137070155434195318e+00 5.036704927799172538e+02
2.137170177439036589e+00 5.036984597027059181e+02
2.137270199443877416e+00 5.037262031276873699e+02
2.137370221448718688e+00 5.037537210057535049e+02
2.137470243453559959e+00 5.037810113280563087e+02
2.137570265458400343e+00 5.038080721262795691e+02
2.137670287463241614e+00 5.038349014729049600e+02
2.137770309468082885e+00 5.038614974814720426e+02
2.137870331472923713e+00 5.038878583068271837e+02
2.137970353477764984e+00 5.039139821453724153e+02
2.138070375482606256e+00 5.039398672353018469e+02
2.138170397487447083e+00 5.039655118568323928e+02
2.138270419492287910e+00 5.039909143324296110e+02
2.138370441497129182e+00 5.040160730270245608e+02
2.138470463501970009e+00 5.040409863482250898e+02
2.138570485506811281e+00 5.040656527465175714e+02
2.138670507511652552e+00 5.040900707154656288e+02
2.138770529516493379e+00 5.041142387918981740e+02
2.138870551521334651e+00 5.041381555560906804e+02
2.138970573526175478e+00 5.041618196319429330e+02
2.139070595531016750e+00 5.041852296871443855e+02
2.139170617535857577e+00 5.042083844333355955e+02
2.139270639540698848e+00 5.042312826262641465e+02
2.139370661545539676e+00 5.042539230659256191e+02
2.139470683550380947e+00 5.042763045967088829e+02
2.139570705555222219e+00 5.042984261075215500e+02
2.139670727560063046e+00 5.043202865319210559e+02
2.139770749564903873e+00 5.043418848482256180e+02
2.139870771569745145e+00 5.043632200796275242e+02
2.139970793574586416e+00 5.043842912942948260e+02
2.140070815579427244e+00 5.044050976054660964e+02
2.140170837584268515e+00 5.044256381715387079e+02
2.140270859589109342e+00 5.044459121961483561e+02
2.140370881593950614e+00 5.044659189282434681e+02
2.140470903598791441e+00 5.044856576621468776e+02
2.140570925603632713e+00 5.045051277376194889e+02
2.140670947608473540e+00 5.045243285399067759e+02
2.140770969613314811e+00 5.045432594997847104e+02
2.140870991618156083e+00 5.045619200935914250e+02
2.140971013622996910e+00 5.045803098432610341e+02
2.141071035627837738e+00 5.045984283163406872e+02
2.141171057632679009e+00 5.046162751260053483e+02
2.141271079637520280e+00 5.046338499310644465e+02
2.141371101642361108e+00 5.046511524359584087e+02
2.141471123647202379e+00 5.046681823907531452e+02
2.141571145652043207e+00 5.046849395911196439e+02
2.141671167656884478e+00 5.047014238783143014e+02
2.141771189661725305e+00 5.047176351391455569e+02
2.141871211666566577e+00 5.047335733059355789e+02
2.141971233671407404e+00 5.047492383564738248e+02
2.142071255676248676e+00 5.047646303139664496e+02
2.142171277681089947e+00 5.047797492469716758e+02
2.142271299685930774e+00 5.047945952693351614e+02
2.142371321690772046e+00 5.048091685401115001e+02
2.142471343695612873e+00 5.048234692634843555e+02
2.142571365700453700e+00 5.048374976886732384e+02
2.142671387705294972e+00 5.048512541098399424e+02
2.142771409710136243e+00 5.048647388659794615e+02
2.142871431714977071e+00 5.048779523408114187e+02
2.142971453719818342e+00 5.048908949626585922e+02
2.143071475724659614e+00 5.049035672043212344e+02
2.143171497729499997e+00 5.049159695829429211e+02
2.143271519734341268e+00 5.049281026598715698e+02
2.143371541739182540e+00 5.049399670405074971e+02
2.143471563744023367e+00 5.049515633741515330e+02
2.143571585748864639e+00 5.049628923538408003e+02
2.143671607753705910e+00 5.049739547161806854e+02
2.143771629758546737e+00 5.049847512411655543e+02
2.143871651763387565e+00 5.049952827519996390e+02
2.143971673768228836e+00 5.050055501149019506e+02
2.144071695773069663e+00 5.050155542389105676e+02
2.144171717777910935e+00 5.050252960756789662e+02
2.144271739782752206e+00 5.050347766192634822e+02
2.144371761787593034e+00 5.050439969059064538e+02
2.144471783792434305e+00 5.050529580138073698e+02
2.144571805797275132e+00 5.050616610628969738e+02
2.144671827802116404e+00 5.050701072145927810e+02
2.144771849806957231e+00 5.050782976715580048e+02
2.144871871811798503e+00 5.050862336774463301e+02
2.144971893816639330e+00 5.050939165166453222e+02
2.145071915821480601e+00 5.051013475140115361e+02
2.145171937826321873e+00 5.051085280345959632e+02
2.145271959831162700e+00 5.051154594833690794e+02
2.145371981836003528e+00 5.051221433049331608e+02
2.145472003840844799e+00 5.051285809832336895e+02
2.145572025845686071e+00 5.051347740412598455e+02
2.145672047850526898e+00 5.051407240407410768e+02
2.145772069855368169e+00 5.051464325818385532e+02
2.145872091860208997e+00 5.051519013028265590e+02
2.145972113865050268e+00 5.051571318797708727e+02
2.146072135869891095e+00 5.051621260262025999e+02
2.146172157874732367e+00 5.051668854927781922e+02
2.146272179879573194e+00 5.051714120669444696e+02
2.146372201884414466e+00 5.051757075725879531e+02
2.146472223889255737e+00 5.051797738696852775e+02
2.146572245894096564e+00 5.051836128539420088e+02
2.146672267898937392e+00 5.051872264564322563e+02
2.146772289903778663e+00 5.051906166432258374e+02
2.146872311908619935e+00 5.051937854150131670e+02
2.146972333913460762e+00 5.051967348067253170e+02
2.147072355918302033e+00 5.051994668871486738e+02
2.147172377923142861e+00 5.052019837585289110e+02
2.147272399927984132e+00 5.052042875561773485e+02
2.147372421932824960e+00 5.052063804480672502e+02
2.147472443937666231e+00 5.052082646344240402e+02
2.147572465942507058e+00 5.052099423473156889e+02
2.147672487947348330e+00 5.052114158502294572e+02
2.147772509952189601e+00 5.052126874376533578e+02
2.147872531957030429e+00 5.052137594346440892e+02
2.147972553961871700e+00 5.052146341963957639e+02
2.148072575966712527e+00 5.052153141078011345e+02
2.148172597971553355e+00 5.052158015830088971e+02
2.148272619976394626e+00 5.052160990649735481e+02
2.148372641981235898e+00 5.052162090250066626e+02
2.148472663986076725e+00 5.052161339623179401e+02
2.148572685990917996e+00 5.052158764035534091e+02
2.148672707995759268e+00 5.052154389023304475e+02
2.148772730000599651e+00 5.052148240387674605e+02
2.148872752005440923e+00 5.052140344190088399e+02
2.148972774010282194e+00 5.052130726747460017e+02
2.149072796015123021e+00 5.052119414627359220e+02
2.149172818019964293e+00 5.052106434643122270e+02
2.149272840024805564e+00 5.052091813848960555e+02
2.149372862029646392e+00 5.052075579535010661e+02
2.149472884034487219e+00 5.052057759222340110e+02
2.149572906039328490e+00 5.052038380657921266e+02
2.149672928044169318e+00 5.052017471809595008e+02
2.149772950049010589e+00 5.051995060860952549e+02
2.149872972053851861e+00 5.051971176206219525e+02
2.149972994058692688e+00 5.051945846445074153e+02
2.150073016063533959e+00 5.051919100377469931e+02
2.150173038068374787e+00 5.051890966998403201e+02
2.150273060073216058e+00 5.051861475492643763e+02
2.150373082078056886e+00 5.051830655229443892e+02
2.150473104082898157e+00 5.051798535757220634e+02
2.150573126087738984e+00 5.051765146798213664e+02
2.150673148092580256e+00 5.051730518243084589e+02
2.150773170097421527e+00 5.051694680145538996e+02
2.150873192102262355e+00 5.051657662716867208e+02
2.150973214107103182e+00 5.051619496320512894e+02
2.151073236111944453e+00 5.051580211466568358e+02
2.151173258116785725e+00 5.051539838806282887e+02
2.151273280121626552e+00 5.051498409126520528e+02
2.151373302126467824e+00 5.051455953344229783e+02
2.151473324131308651e+00 5.051412502500853634e+02
2.151573346136149922e+00 5.051368087756742966e+02
2.151673368140990750e+00 5.051322740385550105e+02
2.151773390145832021e+00 5.051276491768591086e+02
2.151873412150672848e+00 5.051229373389199395e+02
2.151973434155514120e+00 5.051181416827074031e+02
2.152073456160355391e+00 5.051132653752579813e+02
2.152173478165196219e+00 5.051083115921070430e+02
2.152273500170037046e+00 5.051032835167171697e+02
2.152373522174878318e+00 5.050981843399063678e+02
2.152473544179719589e+00 5.050930172592741201e+02
2.152573566184560416e+00 5.050877854786278931e+02
2.152673588189401688e+00 5.050824922074074266e+02
2.152773610194242515e+00 5.050771406601077160e+02
2.152873632199083787e+00 5.050717340557022226e+02
2.152973654203924614e+00 5.050662756170654575e+02
2.153073676208765885e+00 5.050607685703927245e+02
2.153173698213606713e+00 5.050552161446229320e+02
2.153273720218447984e+00 5.050496215708586760e+02
2.153373742223289256e+00 5.050439880817841640e+02
2.153473764228130083e+00 5.050383189110868898e+02
2.153573786232970910e+00 5.050326172928765232e+02
2.153673808237812182e+00 5.050268864611058461e+02
2.153773830242653009e+00 5.050211296489864026e+02
2.153873852247494280e+00 5.050153500884126743e+02
2.153973874252335552e+00 5.050095510093776738e+02
2.154073896257176379e+00 5.050037356393958135e+02
2.154173918262017651e+00 5.049979072029214535e+02
2.154273940266858478e+00 5.049920689207718851e+02
2.154373962271699305e+00 5.049862240095447987e+02
2.154473984276540577e+00 5.049803756810448476e+02
2.154574006281381848e+00 5.049745271417029926e+02
2.154674028286222676e+00 5.049686815920029517e+02
2.154774050291063947e+00 5.049628422259016247e+02
2.154874072295905219e+00 5.049570122302590107e+02
2.154974094300746046e+00 5.049511947842623840e+02
2.155074116305586873e+00 5.049453930588541084e+02
2.155174138310428145e+00 5.049396102161613840e+02
2.155274160315268972e+00 5.049338494089275855e+02
2.155374182320110243e+00 5.049281137799420094e+02
2.155474204324951515e+00 5.049224064614755321e+02
2.155574226329792342e+00 5.049167305747143359e+02
2.155674248334633170e+00 5.049110892291980690e+02
2.155774270339474441e+00 5.049054855222564697e+02
2.155874292344315712e+00 5.048999225384540637e+02
2.155974314349156540e+00 5.048944033490275842e+02
2.156074336353997811e+00 5.048889310113350462e+02
2.156174358358838639e+00 5.048835085683014654e+02
2.156274380363679910e+00 5.048781390478672506e+02
2.156374402368520737e+00 5.048728254624402894e+02
2.156474424373362009e+00 5.048675708083510472e+02
2.156574446378202836e+00 5.048623780653076096e+02
2.156674468383044108e+00 5.048572501958569205e+02
2.156774490387885379e+00 5.048521901448444282e+02
2.156874512392726206e+00 5.048472008388797576e+02
2.156974534397567478e+00 5.048422851858069862e+02
2.157074556402408305e+00 5.048374460741708845e+02
2.157174578407249577e+00 5.048326863726928764e+02
2.157274600412090404e+00 5.048280089297496147e+02
2.157374622416931675e+00 5.048234165728489984e+02
2.157474644421772503e+00 5.048189121081172743e+02
2.157574666426613774e+00 5.048144983197844340e+02
2.157674688431455046e+00 5.048101779696726794e+02
2.157774710436295873e+00 5.048059537966954053e+02
2.157874732441136700e+00 5.048018285163470864e+02
2.157974754445977972e+00 5.047978048202121499e+02
2.158074776450819243e+00 5.047938853754652655e+02
2.158174798455660071e+00 5.047900728243800472e+02
2.158274820460501342e+00 5.047863697838452595e+02
2.158374842465342169e+00 5.047827788448782940e+02
2.158474864470182997e+00 5.047793025721483673e+02
2.158574886475024268e+00 5.047759435034993771e+02
2.158674908479865540e+00 5.047727041494829905e+02
2.158774930484706367e+00 5.047695869928874117e+02
2.158874952489547638e+00 5.047665944882805320e+02
2.158974974494388910e+00 5.047637290615487586e+02
2.159074996499229737e+00 5.047609931094473268e+02
2.159175018504070565e+00 5.047583889991494743e+02
2.159275040508911836e+00 5.047559190678047685e+02
2.159375062513752663e+00 5.047535856220995356e+02
2.159475084518593935e+00 5.047513909378244534e+02
2.159575106523435206e+00 5.047493372594427683e+02
2.159675128528276034e+00 5.047474267996711887e+02
2.159775150533117305e+00 5.047456617390555493e+02
2.159875172537958132e+00 5.047440442255621065e+02
2.159975194542798960e+00 5.047425763741642299e+02
2.160075216547640231e+00 5.047412602664443284e+02
2.160175238552481503e+00 5.047400979501911706e+02
2.160275260557322330e+00 5.047390914390114744e+02
2.160375282562163601e+00 5.047382427119392787e+02
2.160475304567004873e+00 5.047375537130561725e+02
2.160575326571845700e+00 5.047370263511165263e+02
2.160675348576686527e+00 5.047366624991745994e+02
2.160775370581527799e+00 5.047364639942206850e+02
2.160875392586368626e+00 5.047364326368240199e+02
2.160975414591209898e+00 5.047365701907772291e+02
2.161075436596051169e+00 5.047368783827508310e+02
2.161175458600891996e+00 5.047373589019508699e+02
2.161275480605732824e+00 5.047380133997849043e+02
2.161375502610574095e+00 5.047388434895311775e+02
2.161475524615415367e+00 5.047398507460172823e+02
2.161575546620256194e+00 5.047410367053014397e+02
2.161675568625097466e+00 5.047424028643623046e+02
2.161775590629938293e+00 5.047439506807959901e+02
2.161875612634779564e+00 5.047456815725143429e+02
2.161975634639620392e+00 5.047475969174572583e+02
2.162075656644461663e+00 5.047496980533041437e+02
2.162175678649302490e+00 5.047519862771950443e+02
2.162275700654143762e+00 5.047544628454605800e+02
2.162375722658985033e+00 5.047571289733513140e+02
2.162475744663825861e+00 5.047599858347850272e+02
2.162575766668667132e+00 5.047630345620863181e+02
2.162675788673507959e+00 5.047662762457463828e+02
2.162775810678349231e+00 5.047697119341804637e+02
2.162875832683190058e+00 5.047733426334957585e+02
2.162975854688031330e+00 5.047771693072656944e+02
2.163075876692872157e+00 5.047811928763117066e+02
2.163175898697713428e+00 5.047854142184883699e+02
2.163275920702554700e+00 5.047898341684820025e+02
2.163375942707395527e+00 5.047944535176070531e+02
2.163475964712236355e+00 5.047992730136196542e+02
2.163575986717077626e+00 5.048042933605308917e+02
2.163676008721918897e+00 5.048095152184279755e+02
2.163776030726759725e+00 5.048149392033066079e+02
2.163876052731600996e+00 5.048205658869057970e+02
2.163976074736441824e+00 5.048263957965525606e+02
2.164076096741282651e+00 5.048324294150117453e+02
2.164176118746123922e+00 5.048386671803466470e+02
2.164276140750965194e+00 5.048451094857795738e+02
2.164376162755806021e+00 5.048517566795703715e+02
2.164476184760647293e+00 5.048586090648908566e+02
2.164576206765488564e+00 5.048656668997160182e+02
2.164676228770329391e+00 5.048729303967144233e+02
2.164776250775170219e+00 5.048803997231530047e+02
2.164876272780011490e+00 5.048880750008042924e+02
2.164976294784852318e+00 5.048959563058633648e+02
2.165076316789693589e+00 5.049040436688696332e+02
2.165176338794534860e+00 5.049123370746413002e+02
2.165276360799375688e+00 5.049208364622101612e+02
2.165376382804216959e+00 5.049295417247699334e+02
2.165476404809057787e+00 5.049384527096267448e+02
2.165576426813898614e+00 5.049475692181628119e+02
2.165676448818739885e+00 5.049568910058005713e+02
2.165776470823581157e+00 5.049664177819825568e+02
2.165876492828421984e+00 5.049761492101500835e+02
2.165976514833263256e+00 5.049860849077354032e+02
2.166076536838104527e+00 5.049962244461607952e+02
2.166176558842945354e+00 5.050065673508397595e+02
2.166276580847786182e+00 5.050171131011942975e+02
2.166376602852627453e+00 5.050278611306707717e+02
2.166476624857468281e+00 5.050388108267708844e+02
2.166576646862309552e+00 5.050499615310843069e+02
2.166676668867150823e+00 5.050613125393318228e+02
2.166776690871991651e+00 5.050728631014151802e+02
2.166876712876832478e+00 5.050846124214745601e+02
2.166976734881673750e+00 5.050965596579532075e+02
2.167076756886515021e+00 5.051087039236698502e+02
2.167176778891355848e+00 5.051210442858968577e+02
2.167276800896197120e+00 5.051335797664495999e+02
2.167376822901037947e+00 5.051463093417787604e+02
2.167476844905879219e+00 5.051592319430730527e+02
2.167576866910720046e+00 5.051723464563685866e+02
2.167676888915561317e+00 5.051856517226640904e+02
2.167776910920402145e+00 5.051991465380476711e+02
2.167876932925243416e+00 5.052128296538231211e+02
2.167976954930084688e+00 5.052266997766546979e+02
2.168076976934925515e+00 5.052407555687069589e+02
2.168176998939766786e+00 5.052549956478012518e+02
2.168277020944607614e+00 5.052694185875760695e+02
2.168377042949448885e+00 5.052840229176533171e+02
2.168477064954289713e+00 5.052988071238135035e+02
2.168577086959130984e+00 5.053137696481777539e+02
2.168677108963971811e+00 5.053289088893974395e+02
2.168777130968813083e+00 5.053442232028496619e+02
2.168877152973654354e+00 5.053597109008420034e+02
2.168977174978495182e+00 5.053753702528203462e+02
2.169077196983336009e+00 5.053911994855902776e+02
2.169177218988177280e+00 5.054071967835376995e+02
2.169277240993018552e+00 5.054233602888630230e+02
2.169377262997859379e+00 5.054396881018183194e+02
2.169477285002700651e+00 5.054561782809533952e+02
2.169577307007541478e+00 5.054728288433691432e+02
2.169677329012382305e+00 5.054896377649728834e+02
2.169777351017223577e+00 5.055066029807496761e+02
2.169877373022064848e+00 5.055237223850314194e+02
2.169977395026905675e+00 5.055409938317769729e+02
2.170077417031746947e+00 5.055584151348587625e+02
2.170177439036588218e+00 5.055759840683566608e+02
2.170277461041429046e+00 5.055936983668557900e+02
2.170377483046269873e+00 5.056115557257526234e+02
2.170477505051111144e+00 5.056295538015698412e+02
2.170577527055951972e+00 5.056476902122731190e+02
2.170677549060793243e+00 5.056659625375972382e+02
2.170777571065634515e+00 5.056843683193782226e+02
2.170877593070475342e+00 5.057029050618921815e+02
2.170977615075316169e+00 5.057215702321983599e+02
2.171077637080157441e+00 5.057403612604921932e+02
2.171177659084998268e+00 5.057592755404596687e+02
2.171277681089839540e+00 5.057783104296434544e+02
2.171377703094680811e+00 5.057974632498090273e+02
2.171477725099521638e+00 5.058167312873229093e+02
2.171577747104362910e+00 5.058361117935322113e+02
2.171677769109203737e+00 5.058556019851518499e+02
2.171777791114045009e+00 5.058751990446583022e+02
2.171877813118885836e+00 5.058949001206882485e+02
2.171977835123727107e+00 5.059147023284443208e+02
2.172077857128567935e+00 5.059346027501025560e+02
2.172177879133409206e+00 5.059545984352324126e+02
2.172277901138250478e+00 5.059746864012143988e+02
2.172377923143091305e+00 5.059948636336699792e+02
2.172477945147932132e+00 5.060151270868936422e+02
2.172577967152773404e+00 5.060354736842890588e+02
2.172677989157614675e+00 5.060559003188154747e+02
2.172778011162455503e+00 5.060764038534329643e+02
2.172878033167296774e+00 5.060969811215589971e+02
2.172978055172137601e+00 5.061176289275246063e+02
2.173078077176978873e+00 5.061383440470422101e+02
2.173178099181819700e+00 5.061591232276693972e+02
2.173278121186660972e+00 5.061799631892874345e+02
2.173378143191501799e+00 5.062008606245772171e+02
2.173478165196343070e+00 5.062218121995036881e+02
2.173578187201184342e+00 5.062428145538046920e+02
2.173678209206025169e+00 5.062638643014822151e+02
2.173778231210865997e+00 5.062849580313018691e+02
2.173878253215707268e+00 5.063060923072927153e+02
2.173978275220548539e+00 5.063272636692561264e+02
2.174078297225389367e+00 5.063484686332735691e+02
2.174178319230230638e+00 5.063697036922234247e+02
2.174278341235071466e+00 5.063909653163013900e+02
2.174378363239912737e+00 5.064122499535397992e+02
2.174478385244753564e+00 5.064335540303389394e+02
2.174578407249594836e+00 5.064548739519976266e+02
2.174678429254435663e+00 5.064762061032458860e+02
2.174778451259276935e+00 5.064975468487873513e+02
2.174878473264118206e+00 5.065188925338395620e+02
2.174978495268959033e+00 5.065402394846817060e+02
2.175078517273800305e+00 5.065615840092050348e+02
2.175178539278641132e+00 5.065829223974628803e+02
2.175278561283481960e+00 5.066042509222339163e+02
2.175378583288323231e+00 5.066255658395759269e+02
2.175478605293164502e+00 5.066468633893929336e+02
2.175578627298005330e+00 5.066681397960014692e+02
2.175678649302846601e+00 5.066893912686987278e+02
2.175778671307687873e+00 5.067106140023361718e+02
2.175878693312528256e+00 5.067318041778963789e+02
2.175978715317369527e+00 5.067529579630685816e+02
2.176078737322210799e+00 5.067740715128334159e+02
2.176178759327051626e+00 5.067951409700436329e+02
2.176278781331892898e+00 5.068161624660119173e+02
2.176378803336734169e+00 5.068371321210992733e+02
2.176478825341574996e+00 5.068580460453072192e+02
2.176578847346415824e+00 5.068789003388699257e+02
2.176678869351257095e+00 5.068996910928511852e+02
2.176778891356097922e+00 5.069204143897413815e+02
2.176878913360939194e+00 5.069410663040579266e+02
2.176978935365780465e+00 5.069616429029474034e+02
2.177078957370621293e+00 5.069821402467889584e+02
2.177178979375462564e+00 5.070025543897995135e+02
2.177279001380303391e+00 5.070228813806411949e+02
2.177379023385144663e+00 5.070431172630308083e+02
2.177479045389985490e+00 5.070632580763495980e+02
2.177579067394826762e+00 5.070832998562541434e+02
2.177679089399667589e+00 5.071032386352904950e+02
2.177779111404508861e+00 5.071230704435092775e+02
2.177879133409350132e+00 5.071427913090779498e+02
2.177979155414190959e+00 5.071623972589008531e+02
2.178079177419031787e+00 5.071818843192348254e+02
2.178179199423873058e+00 5.072012485163066344e+02
2.178279221428714330e+00 5.072204858769342763e+02
2.178379243433555157e+00 5.072395924291441816e+02
2.178479265438396428e+00 5.072585642027951849e+02
2.178579287443237256e+00 5.072773972301949357e+02
2.178679309448078527e+00 5.072960875467239816e+02
2.178779331452919354e+00 5.073146311914561011e+02
2.178879353457760626e+00 5.073330242077819889e+02
2.178979375462601453e+00 5.073512626440284521e+02
2.179079397467442725e+00 5.073693425540816406e+02
2.179179419472283996e+00 5.073872599980095401e+02
2.179279441477124823e+00 5.074050110426827018e+02
2.179379463481965651e+00 5.074225917623967348e+02
2.179479485486806922e+00 5.074399982394918425e+02
2.179579507491648194e+00 5.074572265649757696e+02
2.179679529496489021e+00 5.074742728391425430e+02
2.179779551501330292e+00 5.074911331721918941e+02
2.179879573506171120e+00 5.075078036848498186e+02
2.179979595511012391e+00 5.075242805089843614e+02
2.180079617515853219e+00 5.075405597882259485e+02
2.180179639520694490e+00 5.075566376785799321e+02
2.180279661525535317e+00 5.075725103490464107e+02
2.180379683530376589e+00 5.075881739822283407e+02
2.180479705535217860e+00 5.076036247749505605e+02
2.180579727540058688e+00 5.076188589388678452e+02
2.180679749544899959e+00 5.076338727010744947e+02
2.180779771549740786e+00 5.076486623047151170e+02
2.180879793554581614e+00 5.076632240095892712e+02
2.180979815559422885e+00 5.076775540927597490e+02
2.181079837564264157e+00 5.076916488491522159e+02
2.181179859569104984e+00 5.077055045921591727e+02
2.181279881573946255e+00 5.077191176542397670e+02
2.181379903578787527e+00 5.077324843875156830e+02
2.181479925583627910e+00 5.077456011643681677e+02
2.181579947588469182e+00 5.077584643780304532e+02
2.181679969593310453e+00 5.077710704431779050e+02
2.181779991598151280e+00 5.077834157965182840e+02
2.181880013602992552e+00 5.077954968973763243e+02
2.181980035607833823e+00 5.078073102282764353e+02
2.182080057612674651e+00 5.078188522955261988e+02
2.182180079617515478e+00 5.078301196297901470e+02
2.182280101622356749e+00 5.078411087866693379e+02
2.182380123627197577e+00 5.078518163472698461e+02
2.182480145632038848e+00 5.078622389187735280e+02
2.182580167636880120e+00 5.078723731350045227e+02
2.182680189641720947e+00 5.078822156569917752e+02
2.182780211646562218e+00 5.078917631735277496e+02
2.182880233651403046e+00 5.079010124017248700e+02
2.182980255656244317e+00 5.079099600875700844e+02
2.183080277661085145e+00 5.079186030064723809e+02
2.183180299665926416e+00 5.079269379638087685e+02
2.183280321670767243e+00 5.079349617954671317e+02
2.183380343675608515e+00 5.079426713683839694e+02
2.183480365680449786e+00 5.079500635810776430e+02
2.183580387685290614e+00 5.079571353641829887e+02
2.183680409690131441e+00 5.079638836809726854e+02
2.183780431694972712e+00 5.079703055278832267e+02
2.183880453699813984e+00 5.079763979350316845e+02
2.183980475704654811e+00 5.079821579667303126e+02
2.184080497709496083e+00 5.079875827219977964e+02
2.184180519714336910e+00 5.079926693350616347e+02
2.184280541719178181e+00 5.079974149758610338e+02
2.184380563724019009e+00 5.080018168505440599e+02
2.184480585728860280e+00 5.080058722019574589e+02
2.184580607733701108e+00 5.080095783101361349e+02
2.184680629738542379e+00 5.080129324927832499e+02
2.184780651743383650e+00 5.080159321057496982e+02
2.184880673748224478e+00 5.080185745435063041e+02
2.184980695753065305e+00 5.080208572396105069e+02
2.185080717757906577e+00 5.080227776671712832e+02
2.185180739762747848e+00 5.080243333393046896e+02
2.185280761767588675e+00 5.080255218095882697e+02
2.185380783772429947e+00 5.080263406725062509e+02
2.185480805777270774e+00 5.080267875638928672e+02
2.185580827782112046e+00 5.080268601613693136e+02
2.185680849786952873e+00 5.080265561847724030e+02
2.185780871791794144e+00 5.080258733965852684e+02
2.185880893796634972e+00 5.080248096023510698e+02
2.185980915801476243e+00 5.080233626510927252e+02
2.186080937806317515e+00 5.080215304357196260e+02
2.186180959811158342e+00 5.080193108934298607e+02
2.186280981815999613e+00 5.080167020061093126e+02
2.186381003820840441e+00 5.080137018007218899e+02
2.186481025825681268e+00 5.080103083496961744e+02
2.186581047830522539e+00 5.080065197713037151e+02
2.186681069835363811e+00 5.080023342300321474e+02
2.186781091840204638e+00 5.079977499369556995e+02
2.186881113845045910e+00 5.079927651500925094e+02
2.186981135849887181e+00 5.079873781747605790e+02
2.187081157854727564e+00 5.079815873639302595e+02
2.187181179859568836e+00 5.079753911185624702e+02
2.187281201864410107e+00 5.079687878879458935e+02
2.187381223869250935e+00 5.079617761700279175e+02
2.187481245874092206e+00 5.079543545117379040e+02
2.187581267878933478e+00 5.079465215093027837e+02
2.187681289883774305e+00 5.079382758085573641e+02
2.187781311888615132e+00 5.079296161052500338e+02
2.187881333893456404e+00 5.079205411453384045e+02
2.187981355898297231e+00 5.079110497252769960e+02
2.188081377903138502e+00 5.079011406923084451e+02
2.188181399907979774e+00 5.078908129447306692e+02
2.188281421912820601e+00 5.078800654321753996e+02
2.188381443917661429e+00 5.078688971558663070e+02
2.188481465922502700e+00 5.078573071688765594e+02
2.188581487927343971e+00 5.078452945763793878e+02
2.188681509932184799e+00 5.078328585358898977e+02
2.188781531937026070e+00 5.078199982574993783e+02
2.188881553941866898e+00 5.078067130041055179e+02
2.188981575946708169e+00 5.077930020916314220e+02
2.189081597951548996e+00 5.077788648892435504e+02
2.189181619956390268e+00 5.077643008195550465e+02
2.189281641961231095e+00 5.077493093588276452e+02
2.189381663966072367e+00 5.077338900371638033e+02
2.189481685970913638e+00 5.077180424386923505e+02
2.189581707975754465e+00 5.077017662017473185e+02
2.189681729980595737e+00 5.076850610190383009e+02
2.189781751985436564e+00 5.076679266378135935e+02
2.189881773990277836e+00 5.076503628600177080e+02
2.189981795995118663e+00 5.076323695424394487e+02
2.190081817999959934e+00 5.076139465968548166e+02
2.190181840004800762e+00 5.075950939901596257e+02
2.190281862009642033e+00 5.075758117444966047e+02
2.190381884014483305e+00 5.075560999373759614e+02
2.190481906019324132e+00 5.075359587017865124e+02
2.190581928024164959e+00 5.075153882262990237e+02
2.190681950029006231e+00 5.074943887551650050e+02
2.190781972033847502e+00 5.074729605884054990e+02
2.190881994038688330e+00 5.074511040818922538e+02
2.190982016043529601e+00 5.074288196474229267e+02
2.191082038048370428e+00 5.074061077527884436e+02
2.191182060053211256e+00 5.073829689218292174e+02
2.191282082058052527e+00 5.073594037344918206e+02
2.191382104062893799e+00 5.073354128268687759e+02
2.191482126067734626e+00 5.073109968912372665e+02
2.191582148072575897e+00 5.072861566760880692e+02
2.191682170077417169e+00 5.072608929861457341e+02
2.191782192082257996e+00 5.072352066823837049e+02
2.191882214087098824e+00 5.072090986820295484e+02
2.191982236091940095e+00 5.071825699585642155e+02
2.192082258096780922e+00 5.071556215417133444e+02
2.192182280101622194e+00 5.071282545174288998e+02
2.192282302106463465e+00 5.071004700278664359e+02
2.192382324111304293e+00 5.070722692713545143e+02
2.192482346116145564e+00 5.070436535023509350e+02
2.192582368120986391e+00 5.070146240314012402e+02
2.192682390125827219e+00 5.069851822250804503e+02
2.192782412130668490e+00 5.069553295059309903e+02
2.192882434135509762e+00 5.069250673523969226e+02
2.192982456140350589e+00 5.068943972987399889e+02
2.193082478145191860e+00 5.068633209349610524e+02
2.193182500150033132e+00 5.068318399067038058e+02
2.193282522154873959e+00 5.067999559151573408e+02
2.193382544159714787e+00 5.067676707169470092e+02
2.193482566164556058e+00 5.067349861240204518e+02
2.193582588169396885e+00 5.067019040035253852e+02
2.193682610174238157e+00 5.066684262776778951e+02
2.193782632179079428e+00 5.066345549236289116e+02
2.193882654183920256e+00 5.066002919733135741e+02
2.193982676188761083e+00 5.065656395133079286e+02
2.194082698193602354e+00 5.065305996846596486e+02
2.194182720198443626e+00 5.064951746827279067e+02
2.194282742203284453e+00 5.064593667570069329e+02
2.194382764208125725e+00 5.064231782109433766e+02
2.194482786212966552e+00 5.063866114017502582e+02
2.194582808217807823e+00 5.063496687402083012e+02
2.194682830222648651e+00 5.063123526904640812e+02
2.194782852227489922e+00 5.062746657698185118e+02
2.194882874232330749e+00 5.062366105485097023e+02
2.194982896237172021e+00 5.061981896494881994e+02
2.195082918242013292e+00 5.061594057481848381e+02
2.195182940246854120e+00 5.061202615722718292e+02
2.195282962251695391e+00 5.060807599014157176e+02
2.195382984256536218e+00 5.060409035670259073e+02
2.195483006261377490e+00 5.060006954519922147e+02
2.195583028266218317e+00 5.059601384904204906e+02
2.195683050271059589e+00 5.059192356673567019e+02
2.195783072275900416e+00 5.058779900185064662e+02
2.195883094280741687e+00 5.058364046299480492e+02
2.195983116285582959e+00 5.057944826378360403e+02
2.196083138290423786e+00 5.057522272281041751e+02
2.196183160295264614e+00 5.057096416361513320e+02
2.196283182300105885e+00 5.056667291465328162e+02
2.196383204304947157e+00 5.056234930926349875e+02
2.196483226309787984e+00 5.055799368563497183e+02
2.196583248314629255e+00 5.055360638677393581e+02
2.196683270319470083e+00 5.054918776046956737e+02
2.196783292324310910e+00 5.054473815925932740e+02
2.196883314329152181e+00 5.054025794039348511e+02
2.196983336333993453e+00 5.053574746579910197e+02
2.197083358338834280e+00 5.053120710204387933e+02
2.197183380343675552e+00 5.052663722029802784e+02
2.197283402348516823e+00 5.052203819629722830e+02
2.197383424353357650e+00 5.051741041030362567e+02
2.197483446358198478e+00 5.051275424706705621e+02
2.197583468363039749e+00 5.050807009578511497e+02
2.197683490367880577e+00 5.050335835006305274e+02
2.197783512372721848e+00 5.049861940787284880e+02
2.197883534377563119e+00 5.049385367151160153e+02
2.197983556382403947e+00 5.048906154755975422e+02
2.198083578387245218e+00 5.048424344683832601e+02
2.198183600392086046e+00 5.047939978436555180e+02
2.198283622396926873e+00 5.047453097931355614e+02
2.198383644401768144e+00 5.046963745496368006e+02
2.198483666406609416e+00 5.046471963866184751e+02
2.198583688411450243e+00 5.045977796177298842e+02
2.198683710416291515e+00 5.045481285963534219e+02
2.198783732421132786e+00 5.044982477151385183e+02
2.198883754425973613e+00 5.044481414055314872e+02
2.198983776430814441e+00 5.043978141373013386e+02
2.199083798435655712e+00 5.043472704180602477e+02
2.199183820440496540e+00 5.042965147927761222e+02
2.199283842445337811e+00 5.042455518432867052e+02
2.199383864450179082e+00 5.041943861877987274e+02
2.199483886455019910e+00 5.041430224803937108e+02
2.199583908459860737e+00 5.040914654105201862e+02
2.199683930464702009e+00 5.040397197024853426e+02
2.199783952469543280e+00 5.039877901149416175e+02
2.199883974474384107e+00 5.039356814403662383e+02
2.199983996479225379e+00 5.038833985045415602e+02
2.200084018484066206e+00 5.038309461660260240e+02
2.200184040488907478e+00 5.037783293156210789e+02
2.200284062493748305e+00 5.037255528758375362e+02
2.200384084498589576e+00 5.036726218003551594e+02
2.200484106503430404e+00 5.036195410734779898e+02
2.200584128508271675e+00 5.035663157095866040e+02
2.200684150513112947e+00 5.035129507525848567e+02
2.200784172517953774e+00 5.034594512753455433e+02
2.200884194522795045e+00 5.034058223791489581e+02
2.200984216527635873e+00 5.033520691931219631e+02
2.201084238532477144e+00 5.032981968736665408e+02
2.201184260537317972e+00 5.032442106038943166e+02
2.201284282542159243e+00 5.031901155930484038e+02
2.201384304547000070e+00 5.031359170759269546e+02
2.201484326551841342e+00 5.030816203123026753e+02
2.201584348556682613e+00 5.030272305863385327e+02
2.201684370561523441e+00 5.029727532060007320e+02
2.201784392566364268e+00 5.029181935024669201e+02
2.201884414571205539e+00 5.028635568295352414e+02
2.201984436576046811e+00 5.028088485630259470e+02
2.202084458580887638e+00 5.027540741001821516e+02
2.202184480585728910e+00 5.026992388590708742e+02
2.202284502590569737e+00 5.026443482779750411e+02
2.202384524595410564e+00 5.025894078147869095e+02
2.202484546600251836e+00 5.025344229464022305e+02
2.202584568605093107e+00 5.024793991681026455e+02
2.202684590609933935e+00 5.024243419929458128e+02
2.202784612614775206e+00 5.023692569511451325e+02
2.202884634619616477e+00 5.023141495894556101e+02
2.202984656624457305e+00 5.022590254705477264e+02
2.203084678629298132e+00 5.022038901723897766e+02
2.203184700634139404e+00 5.021487492876192391e+02
2.203284722638980231e+00 5.020936084229173275e+02
2.203384744643821502e+00 5.020384731983831443e+02
2.203484766648662774e+00 5.019833492468995928e+02
2.203584788653503601e+00 5.019282422135063939e+02
2.203684810658344873e+00 5.018731577547637244e+02
2.203784832663185700e+00 5.018181015381188672e+02
2.203884854668026527e+00 5.017630792412723508e+02
2.203984876672867799e+00 5.017080965515390290e+02
2.204084898677709070e+00 5.016531591652108659e+02
2.204184920682549897e+00 5.015982727869190967e+02
2.204284942687391169e+00 5.015434431289928625e+02
2.204384964692232440e+00 5.014886759108187562e+02
2.204484986697073268e+00 5.014339768581996850e+02
2.204585008701914095e+00 5.013793517027144162e+02
2.204685030706755366e+00 5.013248061810709828e+02
2.204785052711596194e+00 5.012703460344661153e+02
2.204885074716437465e+00 5.012159770079418308e+02
2.204985096721278737e+00 5.011617048497399765e+02
2.205085118726119564e+00 5.011075353106585908e+02
2.205185140730960391e+00 5.010534741434083799e+02
2.205285162735801663e+00 5.009995271019661232e+02
2.205385184740642934e+00 5.009456999409319451e+02
2.205485206745483762e+00 5.008919984148856770e+02
2.205585228750325033e+00 5.008384282777409453e+02
2.205685250755165860e+00 5.007849952821019315e+02
2.205785272760007132e+00 5.007317051786193929e+02
2.205885294764847959e+00 5.006785637153496396e+02
2.205985316769689231e+00 5.006255766371104983e+02
2.206085338774530058e+00 5.005727496848385840e+02
2.206185360779371329e+00 5.005200885949504936e+02
2.206285382784212601e+00 5.004675990987009300e+02
2.206385404789053428e+00 5.004152869215433839e+02
2.206485426793894256e+00 5.003631577824933174e+02
2.206585448798735527e+00 5.003112173934881071e+02
2.206685470803576798e+00 5.002594714587528415e+02
2.206785492808417626e+00 5.002079256741653239e+02
2.206885514813258897e+00 5.001565857266206763e+02
2.206985536818099725e+00 5.001054572934016278e+02
2.207085558822940996e+00 5.000545460415464731e+02
2.207185580827781823e+00 5.000038576272190198e+02
2.207285602832623095e+00 4.999533976950828560e+02
2.207385624837463922e+00 4.999031718776737421e+02
2.207485646842305194e+00 4.998531857947785397e+02
2.207585668847146465e+00 4.998034450528095363e+02
2.207685690851987292e+00 4.997539552441870114e+02
2.207785712856828564e+00 4.997047219467214063e+02
2.207885734861669391e+00 4.996557507229954354e+02
2.207985756866510219e+00 4.996070471197531333e+02
2.208085778871351490e+00 4.995586166672857757e+02
2.208185800876192761e+00 4.995104648788260420e+02
2.208285822881033589e+00 4.994625972499405862e+02
2.208385844885874860e+00 4.994150192579245982e+02
2.208485866890716132e+00 4.993677363612039244e+02
2.208585888895556515e+00 4.993207539987337213e+02
2.208685910900397786e+00 4.992740775894050671e+02
2.208785932905239058e+00 4.992277125314501518e+02
2.208885954910079885e+00 4.991816642018551988e+02
2.208985976914921157e+00 4.991359379557711691e+02
2.209085998919762428e+00 4.990905391259333328e+02
2.209186020924603255e+00 4.990454730220760666e+02
2.209286042929444083e+00 4.990007449303608951e+02
2.209386064934285354e+00 4.989563601127999846e+02
2.209486086939126182e+00 4.989123238066856629e+02
2.209586108943967453e+00 4.988686412240253958e+02
2.209686130948808724e+00 4.988253175509760808e+02
2.209786152953649552e+00 4.987823579472866413e+02
2.209886174958490823e+00 4.987397675457407331e+02
2.209986196963331651e+00 4.986975514516062162e+02
2.210086218968172922e+00 4.986557147420828642e+02
2.210186240973013749e+00 4.986142624657632609e+02
2.210286262977855021e+00 4.985731996420900032e+02
2.210386284982695848e+00 4.985325312608179615e+02
2.210486306987537120e+00 4.984922622814850683e+02
2.210586328992378391e+00 4.984523976328816843e+02
2.210686350997219218e+00 4.984129422125294013e+02
2.210786373002060046e+00 4.983739008861587649e+02
2.210886395006901317e+00 4.983352784871974563e+02
2.210986417011742589e+00 4.982970798162588153e+02
2.211086439016583416e+00 4.982593096406329778e+02
2.211186461021424687e+00 4.982219726937906330e+02
2.211286483026265515e+00 4.981850736748828581e+02
2.211386505031106786e+00 4.981486172482498205e+02
2.211486527035947613e+00 4.981126080429344256e+02
2.211586549040788885e+00 4.980770506521992615e+02
2.211686571045629712e+00 4.980419496330489437e+02
2.211786593050470984e+00 4.980073095057588830e+02
2.211886615055312255e+00 4.979731347534075780e+02
2.211986637060153083e+00 4.979394298214123182e+02
2.212086659064993910e+00 4.979061991170754027e+02
2.212186681069835181e+00 4.978734470091294497e+02
2.212286703074676453e+00 4.978411778272915171e+02
2.212386725079517280e+00 4.978093958618227930e+02
2.212486747084358552e+00 4.977781053630900487e+02
2.212586769089199379e+00 4.977473105411377219e+02
2.212686791094040650e+00 4.977170155652616472e+02
2.212786813098881478e+00 4.976872245635883587e+02
2.212886835103722749e+00 4.976579416226627472e+02
2.212986857108563576e+00 4.976291707870396976e+02
2.213086879113404848e+00 4.976009160588791360e+02
2.213186901118246119e+00 4.975731813975507976e+02
2.213286923123086947e+00 4.975459707192436554e+02
2.213386945127928218e+00 4.975192878965782484e+02
2.213486967132769045e+00 4.974931367582290704e+02
2.213586989137609873e+00 4.974675210885490628e+02
2.213687011142451144e+00 4.974424446272036562e+02
2.213787033147292416e+00 4.974179110688085075e+02
2.213887055152133243e+00 4.973939240625732623e+02
2.213987077156974514e+00 4.973704872119517972e+02
2.214087099161815786e+00 4.973476040742996247e+02
2.214187121166656169e+00 4.973252781605355608e+02
2.214287143171497441e+00 4.973035129348110104e+02
2.214387165176338712e+00 4.972823118141855048e+02
2.214487187181179539e+00 4.972616781683075828e+02
2.214587209186020811e+00 4.972416153191022090e+02
2.214687231190862082e+00 4.972221265404645010e+02
2.214787253195702910e+00 4.972032150579609606e+02
2.214887275200543737e+00 4.971848840485350820e+02
2.214987297205385008e+00 4.971671366402223384e+02
2.215087319210225836e+00 4.971499759118678412e+02
2.215187341215067107e+00 4.971334048928536049e+02
2.215287363219908379e+00 4.971174265628313833e+02
2.215387385224749206e+00 4.971020438514605075e+02
2.215487407229590477e+00 4.970872596381548760e+02
2.215587429234431305e+00 4.970730767518365383e+02
2.215687451239272576e+00 4.970594979706910408e+02
2.215787473244113404e+00 4.970465260219373249e+02
2.215887495248954675e+00 4.970341635815979089e+02
2.215987517253795502e+00 4.970224132742771985e+02
2.216087539258636774e+00 4.970112776729500865e+02
2.216187561263478045e+00 4.970007592987517455e+02
2.216287583268318873e+00 4.969908606207776529e+02
2.216387605273159700e+00 4.969815840558911759e+02
2.216487627278000971e+00 4.969729319685347377e+02
2.216587649282842243e+00 4.969649066705500218e+02
2.216687671287683070e+00 4.969575104210057361e+02
2.216787693292524342e+00 4.969507454260283339e+02
2.216887715297365169e+00 4.969446138386445568e+02
2.216987737302206440e+00 4.969391177586280719e+02
2.217087759307047268e+00 4.969342592323529288e+02
2.217187781311888539e+00 4.969300402526545213e+02
2.217287803316729367e+00 4.969264627586981078e+02
2.217387825321570638e+00 4.969235286358525627e+02
2.217487847326411909e+00 4.969212397155724261e+02
2.217587869331252737e+00 4.969195977752868885e+02
2.217687891336093564e+00 4.969186045382940620e+02
2.217787913340934836e+00 4.969182616736644036e+02
2.217887935345776107e+00 4.969185707961505045e+02
2.217987957350616934e+00 4.969195334661006314e+02
2.218087979355458206e+00 4.969211511893860234e+02
2.218188001360299033e+00 4.969234254173277918e+02
2.218288023365140305e+00 4.969263575466350744e+02
2.218388045369981132e+00 4.969299489193492150e+02
2.218488067374822403e+00 4.969342008227947645e+02
2.218588089379663231e+00 4.969391144895367916e+02
2.218688111384504502e+00 4.969446910973467197e+02
2.218788133389345774e+00 4.969509317691725414e+02
2.218888155394186601e+00 4.969578375731191500e+02
2.218988177399027872e+00 4.969654095224327079e+02
2.219088199403868700e+00 4.969736485754932573e+02
2.219188221408709527e+00 4.969825556358147196e+02
2.219288243413550799e+00 4.969921315520499547e+02
2.219388265418392070e+00 4.970023771180056542e+02
2.219488287423232897e+00 4.970132930726600193e+02
2.219588309428074169e+00 4.970248801001911261e+02
2.219688331432915440e+00 4.970371388300101216e+02
2.219788353437755823e+00 4.970500698368011285e+02
2.219888375442597095e+00 4.970636736405700731e+02
2.219988397447438366e+00 4.970779507066957308e+02
2.220088419452279194e+00 4.970929014459935615e+02
2.220188441457120465e+00 4.971085262147812500e+02
2.220288463461961737e+00 4.971248253149533980e+02
2.220388485466802564e+00 4.971417989940633788e+02
2.220488507471643391e+00 4.971594474454084320e+02
2.220588529476484663e+00 4.971777708081266951e+02
2.220688551481325490e+00 4.971967691672977026e+02
2.220788573486166761e+00 4.972164425540463526e+02
2.220888595491008033e+00 4.972367909456611983e+02
2.220988617495848860e+00 4.972578142657141598e+02
2.221088639500690132e+00 4.972795123841857503e+02
2.221188661505530959e+00 4.973018851175997384e+02
2.221288683510372231e+00 4.973249322291641192e+02
2.221388705515213058e+00 4.973486534289161796e+02
2.221488727520054329e+00 4.973730483738768271e+02
2.221588749524895157e+00 4.973981166682081039e+02
2.221688771529736428e+00 4.974238578633811585e+02
2.221788793534577700e+00 4.974502714583457532e+02
2.221888815539418527e+00 4.974773568997101165e+02
2.221988837544259354e+00 4.975051135819247747e+02
2.222088859549100626e+00 4.975335408474742849e+02
2.222188881553941897e+00 4.975626379870720939e+02
2.222288903558782724e+00 4.975924042398646066e+02
2.222388925563623996e+00 4.976228387936410513e+02
2.222488947568464823e+00 4.976539407850467001e+02
2.222588969573306095e+00 4.976857092998056942e+02
2.222688991578146922e+00 4.977181433729474520e+02
2.222789013582988193e+00 4.977512419890387037e+02
2.222889035587829021e+00 4.977850040824249618e+02
2.222989057592670292e+00 4.978194285374717083e+02
2.223089079597511564e+00 4.978545141888184844e+02
2.223189101602352391e+00 4.978902598216322986e+02
2.223289123607193218e+00 4.979266641718709820e+02
2.223389145612034490e+00 4.979637259265513194e+02
2.223489167616875761e+00 4.980014437240206462e+02
2.223589189621716589e+00 4.980398161542373714e+02
2.223689211626557860e+00 4.980788417590538302e+02
2.223789233631398687e+00 4.981185190325073222e+02
2.223889255636239515e+00 4.981588464211150153e+02
2.223989277641080786e+00 4.981998223241728851e+02
2.224089299645922058e+00 4.982414450940647157e+02
2.224189321650762885e+00 4.982837130365701341e+02
2.224289343655604156e+00 4.983266244111832179e+02
2.224389365660445428e+00 4.983701774314322392e+02
2.224489387665286255e+00 4.984143702652079355e+02
2.224589409670127083e+00 4.984592010350938835e+02
2.224689431674968354e+00 4.985046678187032398e+02
2.224789453679809181e+00 4.985507686490212222e+02
2.224889475684650453e+00 4.985975015147503200e+02
2.224989497689491724e+00 4.986448643606631776e+02
2.225089519694332552e+00 4.986928550879567865e+02
2.225189541699173823e+00 4.987414715546137813e+02
2.225289563704014650e+00 4.987907115757693077e+02
2.225389585708855478e+00 4.988405729240778896e+02
2.225489607713696749e+00 4.988910533300918360e+02
2.225589629718538021e+00 4.989421504826359524e+02
2.225689651723378848e+00 4.989938620291940197e+02
2.225789673728220119e+00 4.990461855762958976e+02
2.225889695733061391e+00 4.990991186899075274e+02
2.225989717737902218e+00 4.991526588958298021e+02
2.226089739742743046e+00 4.992068036800971527e+02
2.226189761747584317e+00 4.992615504893821026e+02
2.226289783752425144e+00 4.993168967314040856e+02
2.226389805757266416e+00 4.993728397753416743e+02
2.226489827762107687e+00 4.994293769522483899e+02
2.226589849766948515e+00 4.994865055554746505e+02
2.226689871771789342e+00 4.995442228410878442e+02
2.226789893776630613e+00 4.996025260283032594e+02
2.226889915781471885e+00 4.996614122999162078e+02
2.226989937786312712e+00 4.997208788027302262e+02
2.227089959791153984e+00 4.997809226480027860e+02
2.227189981795994811e+00 4.998415409118838397e+02
2.227290003800836082e+00 4.999027306358588589e+02
2.227390025805676910e+00 4.999644888272001708e+02
2.227490047810518181e+00 5.000268124594168739e+02
2.227590069815359008e+00 5.000896984727106656e+02
2.227690091820200280e+00 5.001531437744305890e+02
2.227790113825041551e+00 5.002171452395364781e+02
2.227890135829882379e+00 5.002816997110631405e+02
2.227990157834723650e+00 5.003468040005831199e+02
2.228090179839564478e+00 5.004124548886800881e+02
2.228190201844405749e+00 5.004786491254171779e+02
2.228290223849246576e+00 5.005453834308148089e+02
2.228390245854087848e+00 5.006126544953266944e+02
2.228490267858928675e+00 5.006804589803165868e+02
2.228590289863769947e+00 5.007487935185460515e+02
2.228690311868611218e+00 5.008176547146538837e+02
2.228790333873452045e+00 5.008870391456448488e+02
2.228890355878292873e+00 5.009569433613800129e+02
2.228990377883134144e+00 5.010273638850649149e+02
2.229090399887975416e+00 5.010982972137447291e+02
2.229190421892816243e+00 5.011697398187982913e+02
2.229290443897657514e+00 5.012416881464361040e+02
2.229390465902498342e+00 5.013141386181988537e+02
2.229490487907339169e+00 5.013870876314568363e+02
2.229590509912180440e+00 5.014605315599139885e+02
2.229690531917021712e+00 5.015344667541117474e+02
2.229790553921862539e+00 5.016088895419321716e+02
2.229890575926703811e+00 5.016837962291083954e+02
2.229990597931545082e+00 5.017591830997299098e+02
2.230090619936385909e+00 5.018350464167531300e+02
2.230190641941226737e+00 5.019113824225140092e+02
2.230290663946068008e+00 5.019881873392372427e+02
2.230390685950908836e+00 5.020654573695510408e+02
2.230490707955750107e+00 5.021431886970007668e+02
2.230590729960591379e+00 5.022213774865647338e+02
2.230690751965432206e+00 5.023000198851687514e+02
2.230790773970273477e+00 5.023791120222041968e+02
2.230890795975114305e+00 5.024586500100450053e+02
2.230990817979955132e+00 5.025386299445651730e+02
2.231090839984796403e+00 5.026190479056577942e+02
2.231190861989637675e+00 5.026998999577550080e+02
2.231290883994478502e+00 5.027811821503460123e+02
2.231390905999319774e+00 5.028628905184976929e+02
2.231490928004161045e+00 5.029450210833756501e+02
2.231590950009001872e+00 5.030275698527622126e+02
2.231690972013842700e+00 5.031105328215792838e+02
2.231790994018683971e+00 5.031939059724074923e+02
2.231891016023524799e+00 5.032776852760076167e+02
2.231991038028366070e+00 5.033618666918388840e+02
2.232091060033207341e+00 5.034464461685813603e+02
2.232191082038048169e+00 5.035314196446557844e+02
2.232291104042888996e+00 5.036167830487410129e+02
2.232391126047730268e+00 5.037025323002945925e+02
2.232491148052571539e+00 5.037886633100730478e+02
2.232591170057412366e+00 5.038751719806464280e+02
2.232691192062253638e+00 5.039620542069183102e+02
2.232791214067094465e+00 5.040493058766431886e+02
2.232891236071935737e+00 5.041369228709398271e+02
2.232991258076776564e+00 5.042249010648088756e+02
2.233091280081617835e+00 5.043132363276464503e+02
2.233191302086458663e+00 5.044019245237573728e+02
2.233291324091299934e+00 5.044909615128673863e+02
2.233391346096141206e+00 5.045803431506346897e+02
2.233491368100982033e+00 5.046700652891584014e+02
2.233591390105823304e+00 5.047601237774902643e+02
2.233691412110664132e+00 5.048505144621390173e+02
2.233791434115505403e+00 5.049412331875778364e+02
2.233891456120346231e+00 5.050322757967488769e+02
2.233991478125187502e+00 5.051236381315652011e+02
2.234091500130028329e+00 5.052153160334124777e+02
2.234191522134869601e+00 5.053073053436502846e+02
2.234291544139710872e+00 5.053996019041077261e+02
2.234391566144551700e+00 5.054922015575800742e+02
2.234491588149392527e+00 5.055851001483239884e+02
2.234591610154233798e+00 5.056782935225490405e+02
2.234691632159075070e+00 5.057717775289081601e+02
2.234791654163915897e+00 5.058655480189852938e+02
2.234891676168757169e+00 5.059596008477810756e+02
2.234991698173597996e+00 5.060539318741993497e+02
2.235091720178438823e+00 5.061485369615247691e+02
2.235191742183280095e+00 5.062434119779047137e+02
2.235291764188121366e+00 5.063385527968262068e+02
2.235391786192962194e+00 5.064339552975879428e+02
2.235491808197803465e+00 5.065296153657737932e+02
2.235591830202644736e+00 5.066255288937223327e+02
2.235691852207485564e+00 5.067216917809922165e+02
2.235791874212326391e+00 5.068180999348274440e+02
2.235891896217167663e+00 5.069147492706159142e+02
2.235991918222008490e+00 5.070116357123517332e+02
2.236091940226849761e+00 5.071087551930861537e+02
2.236191962231691033e+00 5.072061036553829467e+02
2.236291984236531860e+00 5.073036770517672949e+02
2.236392006241373132e+00 5.074014713451709895e+02
2.236492028246213959e+00 5.074994825093763779e+02
2.236592050251054786e+00 5.075977065294569002e+02
2.236692072255896058e+00 5.076961394022134755e+02
2.236792094260737329e+00 5.077947771366071947e+02
2.236892116265578156e+00 5.078936157541912735e+02
2.236992138270419428e+00 5.079926512895358428e+02
2.237092160275260699e+00 5.080918797906533086e+02
2.237192182280101527e+00 5.081912973194153551e+02
2.237292204284942354e+00 5.082908999519730742e+02
2.237392226289783626e+00 5.083906837791653857e+02
2.237492248294624453e+00 5.084906449069314931e+02
2.237592270299465724e+00 5.085907794567144151e+02
2.237692292304306996e+00 5.086910835658626411e+02
2.237792314309147823e+00 5.087915533880286034e+02
2.237892336313988650e+00 5.088921850935607836e+02
2.237992358318829922e+00 5.089929748698965000e+02
2.238092380323671193e+00 5.090939189219450327e+02
2.238192402328512021e+00 5.091950134724718851e+02
2.238292424333353292e+00 5.092962547624749732e+02
2.238392446338194119e+00 5.093976390515596222e+02
2.238492468343035391e+00 5.094991626183081621e+02
2.238592490347876218e+00 5.096008217606447488e+02
2.238692512352717490e+00 5.097026127961980251e+02
2.238792534357558317e+00 5.098045320626576995e+02
2.238892556362399588e+00 5.099065759181260091e+02
2.238992578367240860e+00 5.100087407414683867e+02
2.239092600372081687e+00 5.101110229326562830e+02
2.239192622376922959e+00 5.102134189131070912e+02
2.239292644381763786e+00 5.103159251260185556e+02
2.239392666386605057e+00 5.104185380367020457e+02
2.239492688391445885e+00 5.105212541329058240e+02
2.239592710396287156e+00 5.106240699251372916e+02
2.239692732401127984e+00 5.107269819469813683e+02
2.239792754405969255e+00 5.108299867554126195e+02
2.239892776410810526e+00 5.109330809311015287e+02
2.239992798415651354e+00 5.110362610787183257e+02
2.240092820420492181e+00 5.111395238272326651e+02
2.240192842425333453e+00 5.112428658302034705e+02
2.240292864430174724e+00 5.113462837660723608e+02
2.240392886435015551e+00 5.114497743384451951e+02
2.240492908439856823e+00 5.115533342763699807e+02
2.240592930444697650e+00 5.116569603346125064e+02
2.240692952449538478e+00 5.117606492939254963e+02
2.240792974454379749e+00 5.118643979613138413e+02
2.240892996459221020e+00 5.119682031702915879e+02
2.240993018464061848e+00 5.120720617811385864e+02
2.241093040468903119e+00 5.121759706811479873e+02
2.241193062473744391e+00 5.122799267848727141e+02
2.241293084478584774e+00 5.123839270343630687e+02
2.241393106483426045e+00 5.124879683994013249e+02
2.241493128488267317e+00 5.125920478777313747e+02
2.241593150493108144e+00 5.126961624952825787e+02
2.241693172497949416e+00 5.128003093063881579e+02
2.241793194502790687e+00 5.129044853939990389e+02
2.241893216507631514e+00 5.130086878698923556e+02
2.241993238512472342e+00 5.131129138748765399e+02
2.242093260517313613e+00 5.132171605789864088e+02
2.242193282522154441e+00 5.133214251816780234e+02
2.242293304526995712e+00 5.134257049120168404e+02
2.242393326531836983e+00 5.135299970288581335e+02
2.242493348536677811e+00 5.136342988210270732e+02
2.242593370541519082e+00 5.137386076074875518e+02
2.242693392546359910e+00 5.138429207375113492e+02
2.242793414551201181e+00 5.139472355908375221e+02
2.242893436556042008e+00 5.140515495778309969e+02
2.242993458560883280e+00 5.141558601396311587e+02
2.243093480565724107e+00 5.142601647482975977e+02
2.243193502570565379e+00 5.143644609069507396e+02
2.243293524575406650e+00 5.144687461499065648e+02
2.243393546580247477e+00 5.145730180428070071e+02
2.243493568585088305e+00 5.146772741827418258e+02
2.243593590589929576e+00 5.147815121983701374e+02
2.243693612594770848e+00 5.148857297500314871e+02
2.243793634599611675e+00 5.149899245298552160e+02
2.243893656604452946e+00 5.150940942618631198e+02
2.243993678609293774e+00 5.151982367020674474e+02
2.244093700614135045e+00 5.153023496385612816e+02
2.244193722618975873e+00 5.154064308916077835e+02
2.244293744623817144e+00 5.155104783137182949e+02
2.244393766628657971e+00 5.156144897897324881e+02
2.244493788633499243e+00 5.157184632368855546e+02
2.244593810638340514e+00 5.158223966048759621e+02
2.244693832643181342e+00 5.159262878759242312e+02
2.244793854648022169e+00 5.160301350648280732e+02
2.244893876652863440e+00 5.161339362190132078e+02
2.244993898657704712e+00 5.162376894185747460e+02
2.245093920662545539e+00 5.163413927763193669e+02
2.245193942667386811e+00 5.164450444377957865e+02
2.245293964672227638e+00 5.165486425813268170e+02
2.245393986677068909e+00 5.166521854180280116e+02
2.245494008681909737e+00 5.167556711918297196e+02
2.245594030686751008e+00 5.168590981794874324e+02
2.245694052691591835e+00 5.169624646905892860e+02
2.245794074696433107e+00 5.170657690675595859e+02
2.245894096701274378e+00 5.171690096856536911e+02
2.245994118706115206e+00 5.172721849529534666e+02
2.246094140710956477e+00 5.173752933103489795e+02
2.246194162715797304e+00 5.174783332315249709e+02
2.246294184720638132e+00 5.175813032229341388e+02
2.246394206725479403e+00 5.176842018237697403e+02
2.246494228730320675e+00 5.177870276059314847e+02
2.246594250735161502e+00 5.178897791739883587e+02
2.246694272740002774e+00 5.179924551651314459e+02
2.246794294744844045e+00 5.180950542491281112e+02
2.246894316749684428e+00 5.181975751282676583e+02
2.246994338754525700e+00 5.183000165373007349e+02
2.247094360759366971e+00 5.184023772433787371e+02
2.247194382764207798e+00 5.185046560459819602e+02
2.247294404769049070e+00 5.186068517768474067e+02
2.247394426773890341e+00 5.187089632998921616e+02
2.247494448778731169e+00 5.188109895111259675e+02
2.247594470783571996e+00 5.189129293385680057e+02
2.247694492788413267e+00 5.190147817421499212e+02
2.247794514793254095e+00 5.191165457136219175e+02
2.247894536798095366e+00 5.192182202764462318e+02
2.247994558802936638e+00 5.193198044856945899e+02
2.248094580807777465e+00 5.194212974279333821e+02
2.248194602812618736e+00 5.195226982211079303e+02
2.248294624817459564e+00 5.196240060144223207e+02
2.248394646822300835e+00 5.197252199882154855e+02
2.248494668827141663e+00 5.198263393538256878e+02
2.248594690831982934e+00 5.199273633534633063e+02
2.248694712836823761e+00 5.200282912600664531e+02
2.248794734841665033e+00 5.201291223771596606e+02
2.248894756846506304e+00 5.202298560387056341e+02
2.248994778851347132e+00 5.203304916089542758e+02
2.249094800856187959e+00 5.204310284822842050e+02
2.249194822861029230e+00 5.205314660830439379e+02
2.249294844865870502e+00 5.206318038653857911e+02
2.249394866870711329e+00 5.207320413130970564e+02
2.249494888875552601e+00 5.208321779394266287e+02
2.249594910880393428e+00 5.209322132869085635e+02
2.249694932885234699e+00 5.210321469271777914e+02
2.249794954890075527e+00 5.211319784607883321e+02
2.249894976894916798e+00 5.212317075170204816e+02
2.249994998899757626e+00 5.213313337536887957e+02
2.250095020904598897e+00 5.214308568569452973e+02
2.250195042909440168e+00 5.215302765410767734e+02
2.250295064914280996e+00 5.216295925482995699e+02
2.250395086919121823e+00 5.217288046485533641e+02
2.250495108923963095e+00 5.218279126392847047e+02
2.250595130928804366e+00 5.219269163452330531e+02
2.250695152933645193e+00 5.220258156182111406e+02
2.250795174938486465e+00 5.221246103368798686e+02
2.250895196943327292e+00 5.222233004065221849e+02
2.250995218948168564e+00 5.223218857588121864e+02
2.251095240953009391e+00 5.224203663515817198e+02
2.251195262957850662e+00 5.225187421685817526e+02
2.251295284962691490e+00 5.226170132192423807e+02
2.251395306967532761e+00 5.227151795384284014e+02
2.251495328972374033e+00 5.228132411861923856e+02
2.251595350977214860e+00 5.229111982475232026e+02
2.251695372982056131e+00 5.230090508320937488e+02
2.251795394986896959e+00 5.231067990740018558e+02
2.251895416991737786e+00 5.232044431315123347e+02
2.251995438996579058e+00 5.233019831867935636e+02
2.252095461001420329e+00 5.233994194456518017e+02
2.252195483006261156e+00 5.234967521372610690e+02
2.252295505011102428e+00 5.235939815138931408e+02
2.252395527015943699e+00 5.236911078506420836e+02
2.252495549020784082e+00 5.237881314451485650e+02
2.252595571025625354e+00 5.238850526173171147e+02
2.252695593030466625e+00 5.239818717090379323e+02
2.252795615035307453e+00 5.240785890838971000e+02
2.252895637040148724e+00 5.241752051268930472e+02
2.252995659044989996e+00 5.242717202441424433e+02
2.253095681049830823e+00 5.243681348625922283e+02
2.253195703054671650e+00 5.244644494297217534e+02
2.253295725059512922e+00 5.245606644132454903e+02
2.253395747064353749e+00 5.246567803008157398e+02
2.253495769069195021e+00 5.247527975997186331e+02
2.253595791074036292e+00 5.248487168365718389e+02
2.253695813078877119e+00 5.249445385570186318e+02
2.253795835083718391e+00 5.250402633254190050e+02
2.253895857088559218e+00 5.251358917245420344e+02
2.253995879093400490e+00 5.252314243552508515e+02
2.254095901098241317e+00 5.253268618361919380e+02
2.254195923103082588e+00 5.254222048034777117e+02
2.254295945107923416e+00 5.255174539103715006e+02
2.254395967112764687e+00 5.256126098269659224e+02
2.254495989117605959e+00 5.257076732398646755e+02
2.254596011122446786e+00 5.258026448518603502e+02
2.254696033127287613e+00 5.258975253816086024e+02
2.254796055132128885e+00 5.259923155633052829e+02
2.254896077136970156e+00 5.260870161463599288e+02
2.254996099141810983e+00 5.261816278950675496e+02
2.255096121146652255e+00 5.262761515882784806e+02
2.255196143151493082e+00 5.263705880190691460e+02
2.255296165156334354e+00 5.264649379944124803e+02
2.255396187161175181e+00 5.265592023348414159e+02
2.255496209166016452e+00 5.266533818741173718e+02
2.255596231170857280e+00 5.267474774588977198e+02
2.255696253175698551e+00 5.268414899483947238e+02
2.255796275180539823e+00 5.269354202140461894e+02
2.255896297185380650e+00 5.270292691391720155e+02
2.255996319190221477e+00 5.271230376186387048e+02
2.256096341195062749e+00 5.272167265585229643e+02
2.256196363199904020e+00 5.273103368757675753e+02
2.256296385204744848e+00 5.274038694978463582e+02
2.256396407209586119e+00 5.274973253624186782e+02
2.256496429214426946e+00 5.275907054169936146e+02
2.256596451219268218e+00 5.276840106185848072e+02
2.256696473224109045e+00 5.277772419333716698e+02
2.256796495228950317e+00 5.278704003363542370e+02
2.256896517233791144e+00 5.279634868110138086e+02
2.256996539238632415e+00 5.280565023489688201e+02
2.257096561243473687e+00 5.281494479496342365e+02
2.257196583248314514e+00 5.282423246198752622e+02
2.257296605253155786e+00 5.283351333736701463e+02
2.257396627257996613e+00 5.284278752317623002e+02
2.257496649262837440e+00 5.285205512213213979e+02
2.257596671267678712e+00 5.286131623755991313e+02
2.257696693272519983e+00 5.287057097335897424e+02
2.257796715277360811e+00 5.287981943396845281e+02
2.257896737282202082e+00 5.288906172433329402e+02
2.257996759287042909e+00 5.289829794987016385e+02
2.258096781291883737e+00 5.290752821643335437e+02
2.258196803296725008e+00 5.291675263028057543e+02
2.258296825301566280e+00 5.292597129803929192e+02
2.258396847306407107e+00 5.293518432667272009e+02
2.258496869311248378e+00 5.294439182344594883e+02
2.258596891316089650e+00 5.295359389589229977e+02
2.258696913320930477e+00 5.296279065177935763e+02
2.258796935325771305e+00 5.297198219907587600e+02
2.258896957330612576e+00 5.298116864591787589e+02
2.258996979335453403e+00 5.299035010057534691e+02
2.259097001340294675e+00 5.299952667141891425e+02
2.259197023345135946e+00 5.300869846688666485e+02
2.259297045349976774e+00 5.301786559545115551e+02
2.259397067354817601e+00 5.302702816558617087e+02
2.259497089359658872e+00 5.303618628573407250e+02
2.259597111364500144e+00 5.304534006427300028e+02
2.259697133369340971e+00 5.305448960948424428e+02
2.259797155374182243e+00 5.306363502951982127e+02
2.259897177379023070e+00 5.307277643237011944e+02
2.259997199383864341e+00 5.308191392583163406e+02
2.260097221388705169e+00 5.309104761747516932e+02
2.260197243393546440e+00 5.310017761461359669e+02
2.260297265398387268e+00 5.310930402427051149e+02
2.260397287403228539e+00 5.311842695314851426e+02
2.260497309408069810e+00 5.312754650759771948e+02
2.260597331412910638e+00 5.313666279358474185e+02
2.260697353417751909e+00 5.314577591666155740e+02
2.260797375422592737e+00 5.315488598193476264e+02
2.260897397427434008e+00 5.316399309403485631e+02
2.260997419432274835e+00 5.317309735708572589e+02
2.261097441437116107e+00 5.318219887467444096e+02
2.261197463441956934e+00 5.319129774982134222e+02
2.261297485446798206e+00 5.320039408494990312e+02
2.261397507451639477e+00 5.320948798185745545e+02
2.261497529456480304e+00 5.321857954168550577e+02
2.261597551461321132e+00 5.322766886489041553e+02
2.261697573466162403e+00 5.323675605121493390e+02
2.261797595471003675e+00 5.324584119965896889e+02
2.261897617475844502e+00 5.325492440845134752e+02
2.261997639480685773e+00 5.326400577502138276e+02
2.262097661485526601e+00 5.327308539597113395e+02
2.262197683490367428e+00 5.328216336704720106e+02
2.262297705495208699e+00 5.329123978311357632e+02
2.262397727500049971e+00 5.330031473812414333e+02
2.262497749504890798e+00 5.330938832509583563e+02
2.262597771509732070e+00 5.331846063608173836e+02
2.262697793514573341e+00 5.332753176214459927e+02
2.262797815519414169e+00 5.333660179333078304e+02
2.262897837524254996e+00 5.334567081864423699e+02
2.262997859529096267e+00 5.335473892602065007e+02
2.263097881533937095e+00 5.336380620230249860e+02
2.263197903538778366e+00 5.337287273321330758e+02
2.263297925543619638e+00 5.338193860333361727e+02
2.263397947548460465e+00 5.339100389607582429e+02
2.263497969553301736e+00 5.340006869366023921e+02
2.263597991558142564e+00 5.340913307709118953e+02
2.263698013562983391e+00 5.341819712613320235e+02
2.263798035567824662e+00 5.342726091928797132e+02
2.263898057572665934e+00 5.343632453377103957e+02
2.263998079577506761e+00 5.344538804548944881e+02
2.264098101582348033e+00 5.345445152901885422e+02
2.264198123587189304e+00 5.346351505758200346e+02
2.264298145592030131e+00 5.347257870302668152e+02
2.264398167596870959e+00 5.348164253580430341e+02
2.264498189601712230e+00 5.349070662494896169e+02
2.264598211606553058e+00 5.349977103805638308e+02
2.264698233611394329e+00 5.350883584126386268e+02
2.264798255616235600e+00 5.351790109922980037e+02
2.264898277621076428e+00 5.352696687511414666e+02
2.264998299625917255e+00 5.353603323055891678e+02
2.265098321630758527e+00 5.354510022566910266e+02
2.265198343635599798e+00 5.355416791899390319e+02
2.265298365640440625e+00 5.356323636750838659e+02
2.265398387645281897e+00 5.357230562659538009e+02
2.265498409650122724e+00 5.358137575002775748e+02
2.265598431654963996e+00 5.359044678995115873e+02
2.265698453659804823e+00 5.359951879686691427e+02
2.265798475664646094e+00 5.360859181961556033e+02
2.265898497669486922e+00 5.361766590536027479e+02
2.265998519674328193e+00 5.362674109957133624e+02
2.266098541679169465e+00 5.363581744601031005e+02
2.266198563684010292e+00 5.364489498671471210e+02
2.266298585688851563e+00 5.365397376198370694e+02
2.266398607693692391e+00 5.366305381036311246e+02
2.266498629698533662e+00 5.367213516863159839e+02
2.266598651703374490e+00 5.368121787178688464e+02
2.266698673708215761e+00 5.369030195303237178e+02
2.266798695713056588e+00 5.369938744376427167e+02
2.266898717717897860e+00 5.370847437355877219e+02
2.266998739722739131e+00 5.371756277016010017e+02
2.267098761727579959e+00 5.372665265946851605e+02
2.267198783732420786e+00 5.373574406552882010e+02
2.267298805737262057e+00 5.374483701051927937e+02
2.267398827742103329e+00 5.375393151474094111e+02
2.267498849746944156e+00 5.376302759660736683e+02
2.267598871751785428e+00 5.377212527263457105e+02
2.267698893756626255e+00 5.378122455743128967e+02
2.267798915761467082e+00 5.379032546369031706e+02
2.267898937766308354e+00 5.379942800217909280e+02
2.267998959771149625e+00 5.380853218173168671e+02
2.268098981775990453e+00 5.381763800924054522e+02
2.268199003780831724e+00 5.382674548964898804e+02
2.268299025785672995e+00 5.383585462594382989e+02
2.268399047790513823e+00 5.384496541914865020e+02
2.268499069795354650e+00 5.385407786831697194e+02
2.268599091800195922e+00 5.386319197052656591e+02
2.268699113805036749e+00 5.387230772087345940e+02
2.268799135809878020e+00 5.388142511246663844e+02
2.268899157814719292e+00 5.389054413642315922e+02
2.268999179819560119e+00 5.389966478186348695e+02
2.269099201824401391e+00 5.390878703590748273e+02
2.269199223829242218e+00 5.391791088367032216e+02
2.269299245834083045e+00 5.392703630825938035e+02
2.269399267838924317e+00 5.393616329077110549e+02
2.269499289843765588e+00 5.394529181028815401e+02
2.269599311848606416e+00 5.395442184387756015e+02
2.269699333853447687e+00 5.396355336658845090e+02
2.269799355858288958e+00 5.397268635145079543e+02
2.269899377863129786e+00 5.398182076947422274e+02
2.269999399867970613e+00 5.399095658964727136e+02
2.270099421872811885e+00 5.400009377893704823e+02
2.270199443877652712e+00 5.400923230228922876e+02
2.270299465882493983e+00 5.401837212262863659e+02
2.270399487887335255e+00 5.402751320085972111e+02
2.270499509892176082e+00 5.403665549586794441e+02
2.270599531897016909e+00 5.404579896452139565e+02
2.270699553901858181e+00 5.405494356167225760e+02
2.270799575906699452e+00 5.406408924015968296e+02
2.270899597911540280e+00 5.407323595081206804e+02
2.270999619916381551e+00 5.408238364245015646e+02
2.271099641921222378e+00 5.409153226189047245e+02
2.271199663926063650e+00 5.410068175394901573e+02
2.271299685930904477e+00 5.410983206144542237e+02
2.271399707935745749e+00 5.411898312520753507e+02
2.271499729940586576e+00 5.412813488407610976e+02
2.271599751945427847e+00 5.413728727491020436e+02
2.271699773950269119e+00 5.414644023259251071e+02
2.271799795955109946e+00 5.415559369003549364e+02
2.271899817959951218e+00 5.416474757818770058e+02
2.271999839964792045e+00 5.417390182604012807e+02
2.272099861969633317e+00 5.418305636063354314e+02
2.272199883974474144e+00 5.419221110706560012e+02
2.272299905979315415e+00 5.420136598849859411e+02
2.272399927984156243e+00 5.421052092616756681e+02
2.272499949988997514e+00 5.421967583938856023e+02
2.272599971993838786e+00 5.422883064556733643e+02
2.272699993998679613e+00 5.423798526020862028e+02
2.272800016003520440e+00 5.424713959692530807e+02
2.272900038008361712e+00 5.425629356744814231e+02
2.273000060013202983e+00 5.426544708163594350e+02
2.273100082018043810e+00 5.427460004748597839e+02
2.273200104022885082e+00 5.428375237114438505e+02
2.273300126027725909e+00 5.429290395691766662e+02
2.273400148032566737e+00 5.430205470728360524e+02
2.273500170037408008e+00 5.431120452290331286e+02
2.273600192042249279e+00 5.432035330263298647e+02
2.273700214047090107e+00 5.432950094353604982e+02
2.273800236051931378e+00 5.433864734089632975e+02
2.273900258056772650e+00 5.434779238823028891e+02
2.274000280061613477e+00 5.435693597730075908e+02
2.274100302066454304e+00 5.436607799813026531e+02
2.274200324071295576e+00 5.437521833901471382e+02
2.274300346076136403e+00 5.438435688653786428e+02
2.274400368080977675e+00 5.439349352558522241e+02
2.274500390085818946e+00 5.440262813935931945e+02
2.274600412090659773e+00 5.441176060939424133e+02
2.274700434095501045e+00 5.442089081557097643e+02
2.274800456100341872e+00 5.443001863613322939e+02
2.274900478105182700e+00 5.443914394770279159e+02
2.275000500110023971e+00 5.444826662529605983e+02
2.275100522114865242e+00 5.445738654234003207e+02
2.275200544119706070e+00 5.446650357068915582e+02
2.275300566124547341e+00 5.447561758064222204e+02
2.275400588129388169e+00 5.448472844095924756e+02
2.275500610134229440e+00 5.449383601887910800e+02
2.275600632139070267e+00 5.450294018013726145e+02
2.275700654143911539e+00 5.451204078898325633e+02
2.275800676148752366e+00 5.452113770819927367e+02
2.275900698153593638e+00 5.453023079911830564e+02
2.276000720158434909e+00 5.453931992164275471e+02
2.276100742163275736e+00 5.454840493426336252e+02
2.276200764168116564e+00 5.455748569407822970e+02
2.276300786172957835e+00 5.456656205681208576e+02
2.276400808177799107e+00 5.457563387683592282e+02
2.276500830182639934e+00 5.458470100718658387e+02
2.276600852187481205e+00 5.459376329958688530e+02
2.276700874192322033e+00 5.460282060446560308e+02
2.276800896197163304e+00 5.461187277097781134e+02
2.276900918202004132e+00 5.462091964702576661e+02
2.277000940206845403e+00 5.462996107927938283e+02
2.277100962211686230e+00 5.463899691319711565e+02
2.277200984216527502e+00 5.464802699304741509e+02
2.277301006221368773e+00 5.465705116192981450e+02
2.277401028226209601e+00 5.466606926179663333e+02
2.277501050231050428e+00 5.467508113347436165e+02
2.277601072235891699e+00 5.468408661668586319e+02
2.277701094240732971e+00 5.469308555007226005e+02
2.277801116245573798e+00 5.470207777121507888e+02
2.277901138250415070e+00 5.471106311665862449e+02
2.278001160255255897e+00 5.472004142193264897e+02
2.278101182260097168e+00 5.472901252157482759e+02
2.278201204264937996e+00 5.473797624915358710e+02
2.278301226269779267e+00 5.474693243729122969e+02
2.278401248274620094e+00 5.475588091768674985e+02
2.278501270279461366e+00 5.476482152113943584e+02
2.278601292284302637e+00 5.477375407757186849e+02
2.278701314289143465e+00 5.478267841605360218e+02
2.278801336293984736e+00 5.479159436482474348e+02
2.278901358298825564e+00 5.480050175131964352e+02
2.279001380303666391e+00 5.480940040219082903e+02
2.279101402308507662e+00 5.481829014333279702e+02
2.279201424313348934e+00 5.482717079990620732e+02
2.279301446318189761e+00 5.483604219636197286e+02
2.279401468323031033e+00 5.484490415646549764e+02
2.279501490327872304e+00 5.485375650332109672e+02
2.279601512332712687e+00 5.486259905939635928e+02
2.279701534337553959e+00 5.487143164654657994e+02
2.279801556342395230e+00 5.488025408603956521e+02
2.279901578347236057e+00 5.488906619858006479e+02
2.280001600352077329e+00 5.489786780433460081e+02
2.280101622356918600e+00 5.490665872295644476e+02
2.280201644361759428e+00 5.491543877360998067e+02
2.280301666366600255e+00 5.492420777499631868e+02
2.280401688371441526e+00 5.493296554537758993e+02
2.280501710376282354e+00 5.494171190260234425e+02
2.280601732381123625e+00 5.495044666413053847e+02
2.280701754385964897e+00 5.495916964705859300e+02
2.280801776390805724e+00 5.496788066814451668e+02
2.280901798395646995e+00 5.497657954383305423e+02
2.281001820400487823e+00 5.498526609028106122e+02
2.281101842405329094e+00 5.499394012338225366e+02
2.281201864410169922e+00 5.500260145879303764e+02
2.281301886415011193e+00 5.501124991195717939e+02
2.281401908419852020e+00 5.501988529813145306e+02
2.281501930424693292e+00 5.502850743241068585e+02
2.281601952429534563e+00 5.503711612975305343e+02
2.281701974434375391e+00 5.504571120500528423e+02
2.281801996439216218e+00 5.505429247292800028e+02
2.281902018444057489e+00 5.506285974822072831e+02
2.282002040448898761e+00 5.507141284554736558e+02
2.282102062453739588e+00 5.507995157956116827e+02
2.282202084458580860e+00 5.508847576492986491e+02
2.282302106463421687e+00 5.509698521636109945e+02
2.282402128468262958e+00 5.510547974862698766e+02
2.282502150473103786e+00 5.511395917658967392e+02
2.282602172477945057e+00 5.512242331522606946e+02
2.282702194482785885e+00 5.513087197965277255e+02
2.282802216487627156e+00 5.513930498515118188e+02
2.282902238492468427e+00 5.514772214719213252e+02
2.283002260497309255e+00 5.515612328146080472e+02
2.283102282502150082e+00 5.516450820388140528e+02
2.283202304506991354e+00 5.517287673064183764e+02
2.283302326511832625e+00 5.518122867821826958e+02
2.283402348516673452e+00 5.518956386339964411e+02
2.283502370521514724e+00 5.519788210331213349e+02
2.283602392526355551e+00 5.520618321544344553e+02
2.283702414531196823e+00 5.521446701766716387e+02
2.283802436536037650e+00 5.522273332826665637e+02
2.283902458540878921e+00 5.523098196595954050e+02
2.284002480545719749e+00 5.523921274992131885e+02
2.284102502550561020e+00 5.524742549980940112e+02
2.284202524555402292e+00 5.525562003578675103e+02
2.284302546560243119e+00 5.526379617854565822e+02
2.284402568565084390e+00 5.527195374933118046e+02
2.284502590569925218e+00 5.528009256996457452e+02
2.284602612574766045e+00 5.528821246286668156e+02
2.284702634579607317e+00 5.529631325108082365e+02
2.284802656584448588e+00 5.530439475829604135e+02
2.284902678589289415e+00 5.531245680887010394e+02
2.285002700594130687e+00 5.532049922785188301e+02
2.285102722598971958e+00 5.532852184100443083e+02
2.285202744603812341e+00 5.533652447482710386e+02
2.285302766608653613e+00 5.534450695657792494e+02
2.285402788613494884e+00 5.535246911429610464e+02
2.285502810618335712e+00 5.536041077682356217e+02
2.285602832623176983e+00 5.536833177382718532e+02
2.285702854628018255e+00 5.537623193582027170e+02
2.285802876632859082e+00 5.538411109418420892e+02
2.285902898637699909e+00 5.539196908118983629e+02
2.286002920642541181e+00 5.539980573001859057e+02
2.286102942647382008e+00 5.540762087478356079e+02
2.286202964652223280e+00 5.541541435055025886e+02
2.286302986657064551e+00 5.542318599335740146e+02
2.286403008661905378e+00 5.543093564023731687e+02
2.286503030666746650e+00 5.543866312923635178e+02
2.286603052671587477e+00 5.544636829943474368e+02
2.286703074676428749e+00 5.545405099096665253e+02
2.286803096681269576e+00 5.546171104504007872e+02
2.286903118686110847e+00 5.546934830395593963e+02
2.287003140690951675e+00 5.547696261112787397e+02
2.287103162695792946e+00 5.548455381110101143e+02
2.287203184700634218e+00 5.549212174957092429e+02
2.287303206705475045e+00 5.549966627340245395e+02
2.287403228710315872e+00 5.550718723064809410e+02
2.287503250715157144e+00 5.551468447056629429e+02
2.287603272719998415e+00 5.552215784363951343e+02
2.287703294724839242e+00 5.552960720159192078e+02
2.287803316729680514e+00 5.553703239740725621e+02
2.287903338734521341e+00 5.554443328534591728e+02
2.288003360739362613e+00 5.555180972096239884e+02
2.288103382744203440e+00 5.555916156112201634e+02
2.288203404749044712e+00 5.556648866401764053e+02
2.288303426753885539e+00 5.557379088918611387e+02
2.288403448758726810e+00 5.558106809752472373e+02
2.288503470763568082e+00 5.558832015130673199e+02
2.288603492768408909e+00 5.559554691419759820e+02
2.288703514773249736e+00 5.560274825127020222e+02
2.288803536778091008e+00 5.560992402902002141e+02
2.288903558782932279e+00 5.561707411538034194e+02
2.289003580787773107e+00 5.562419837973699259e+02
2.289103602792614378e+00 5.563129669294271480e+02
2.289203624797455205e+00 5.563836892733149853e+02
2.289303646802296477e+00 5.564541495673261124e+02
2.289403668807137304e+00 5.565243465648429719e+02
2.289503690811978576e+00 5.565942790344723790e+02
2.289603712816819403e+00 5.566639457601789900e+02
2.289703734821660674e+00 5.567333455414129730e+02
2.289803756826501946e+00 5.568024771932394970e+02
2.289903778831342773e+00 5.568713395464607174e+02
2.290003800836184045e+00 5.569399314477378766e+02
2.290103822841024872e+00 5.570082517597132892e+02
2.290203844845865699e+00 5.570762993611222100e+02
2.290303866850706971e+00 5.571440731469107277e+02
2.290403888855548242e+00 5.572115720283428573e+02
2.290503910860389070e+00 5.572787949331126356e+02
2.290603932865230341e+00 5.573457408054463258e+02
2.290703954870071613e+00 5.574124086062080323e+02
2.290803976874911996e+00 5.574787973129961074e+02
2.290903998879753267e+00 5.575449059202459239e+02
2.291004020884594539e+00 5.576107334393184374e+02
2.291104042889435366e+00 5.576762788985963653e+02
2.291204064894276637e+00 5.577415413435701339e+02
2.291304086899117909e+00 5.578065198369265545e+02
2.291404108903958736e+00 5.578712134586304501e+02
2.291504130908799564e+00 5.579356213060052596e+02
2.291604152913640835e+00 5.579997424938125050e+02
2.291704174918481662e+00 5.580635761543242097e+02
2.291804196923322934e+00 5.581271214373978182e+02
2.291904218928164205e+00 5.581903775105412251e+02
2.292004240933005033e+00 5.582533435589854207e+02
2.292104262937846304e+00 5.583160187857423580e+02
2.292204284942687131e+00 5.583784024116686169e+02
2.292304306947528403e+00 5.584404936755220206e+02
2.292404328952369230e+00 5.585022918340179103e+02
2.292504350957210502e+00 5.585637961618814415e+02
2.292604372962051329e+00 5.586250059518959006e+02
2.292704394966892600e+00 5.586859205149494301e+02
2.292804416971733428e+00 5.587465391800799352e+02
2.292904438976574699e+00 5.588068612945136238e+02
2.293004460981415527e+00 5.588668862237065014e+02
2.293104482986256798e+00 5.589266133513766590e+02
2.293204504991098069e+00 5.589860420795366736e+02
2.293304526995938897e+00 5.590451718285246443e+02
2.293404549000780168e+00 5.591040020370314778e+02
2.293504571005620996e+00 5.591625321621208968e+02
2.293604593010462267e+00 5.592207616792549061e+02
2.293704615015303094e+00 5.592786900823091401e+02
2.293804637020144366e+00 5.593363168835899160e+02
2.293904659024985193e+00 5.593936416138454888e+02
2.294004681029826465e+00 5.594506638222769652e+02
2.294104703034667736e+00 5.595073830765438743e+02
2.294204725039508563e+00 5.595637989627703064e+02
2.294304747044349391e+00 5.596199110855441177e+02
2.294404769049190662e+00 5.596757190679167024e+02
2.294504791054031934e+00 5.597312225514001511e+02
2.294604813058872761e+00 5.597864211959577005e+02
2.294704835063714032e+00 5.598413146799950937e+02
2.294804857068554860e+00 5.598959027003495521e+02
2.294904879073395687e+00 5.599501849722726092e+02
2.295004901078236959e+00 5.600041612294145352e+02
2.295104923083078230e+00 5.600578312238008039e+02
2.295204945087919057e+00 5.601111947258118562e+02
2.295304967092760329e+00 5.601642515241560432e+02
2.295404989097601600e+00 5.602170014258398396e+02
2.295505011102442428e+00 5.602694442561381720e+02
2.295605033107283255e+00 5.603215798585608809e+02
2.295705055112124526e+00 5.603734080948142946e+02
2.295805077116965354e+00 5.604249288447643949e+02
2.295905099121806625e+00 5.604761420063931610e+02
2.296005121126647897e+00 5.605270474957541182e+02
2.296105143131488724e+00 5.605776452469297055e+02
2.296205165136329995e+00 5.606279352119753412e+02
2.296305187141170823e+00 5.606779173608725841e+02
2.296405209146011650e+00 5.607275916814719494e+02
2.296505231150852921e+00 5.607769581794376563e+02
2.296605253155694193e+00 5.608260168781869197e+02
2.296705275160535020e+00 5.608747678188292412e+02
2.296805297165376292e+00 5.609232110600997885e+02
2.296905319170217563e+00 5.609713466782964133e+02
2.297005341175058390e+00 5.610191747672065503e+02
2.297105363179899218e+00 5.610666954380387779e+02
2.297205385184740489e+00 5.611139088193461930e+02
2.297305407189581317e+00 5.611608150569526288e+02
2.297405429194422588e+00 5.612074143138722775e+02
2.297505451199263860e+00 5.612537067702298827e+02
2.297605473204104687e+00 5.612996926231776342e+02
2.297705495208945514e+00 5.613453720868074015e+02
2.297805517213786786e+00 5.613907453920666057e+02
2.297905539218628057e+00 5.614358127866661334e+02
2.298005561223468884e+00 5.614805745349889321e+02
2.298105583228310156e+00 5.615250309179954229e+02
2.298205605233150983e+00 5.615691822331273215e+02
2.298305627237992255e+00 5.616130287942097539e+02
2.298405649242833082e+00 5.616565709313488242e+02
2.298505671247674353e+00 5.616998089908316842e+02
2.298605693252515181e+00 5.617427433350194406e+02
2.298705715257356452e+00 5.617853743422406296e+02
2.298805737262197724e+00 5.618277024066852618e+02
2.298905759267038551e+00 5.618697279382905663e+02
2.299005781271879822e+00 5.619114513626302596e+02
2.299105803276720650e+00 5.619528731207990404e+02
2.299205825281561921e+00 5.619939936692978790e+02
2.299305847286402749e+00 5.620348134799136233e+02
2.299405869291244020e+00 5.620753330396009915e+02
2.299505891296084847e+00 5.621155528503574033e+02
2.299605913300926119e+00 5.621554734291038358e+02
2.299705935305767390e+00 5.621950953075547659e+02
2.299805957310608218e+00 5.622344190320950474e+02
2.299905979315449045e+00 5.622734451636480344e+02
2.300006001320290316e+00 5.623121742775449547e+02
2.300106023325131588e+00 5.623506069633967854e+02
2.300206045329972415e+00 5.623887438249555544e+02
2.300306067334813687e+00 5.624265854799814406e+02
2.300406089339654514e+00 5.624641325601056678e+02
2.300506111344495341e+00 5.625013857106910109e+02
2.300606133349336613e+00 5.625383455906954850e+02
2.300706155354177884e+00 5.625750128725248942e+02
2.300806177359018712e+00 5.626113882418953835e+02
2.300906199363859983e+00 5.626474723976864425e+02
2.301006221368701254e+00 5.626832660517974318e+02
2.301106243373542082e+00 5.627187699289983129e+02
2.301206265378382909e+00 5.627539847667837876e+02
2.301306287383224181e+00 5.627889113152220943e+02
2.301406309388065008e+00 5.628235503368042600e+02
2.301506331392906279e+00 5.628579026062950561e+02
2.301606353397747551e+00 5.628919689105755424e+02
2.301706375402588378e+00 5.629257500484925458e+02
2.301806397407429650e+00 5.629592468307013178e+02
2.301906419412270477e+00 5.629924600795108063e+02
2.302006441417111304e+00 5.630253906287223344e+02
2.302106463421952576e+00 5.630580393234780558e+02
2.302206485426793847e+00 5.630904070200941760e+02
2.302306507431634675e+00 5.631224945859049740e+02
2.302406529436475946e+00 5.631543028991006850e+02
2.302506551441317217e+00 5.631858328485636775e+02
2.302606573446158045e+00 5.632170853337081553e+02
2.302706595450998872e+00 5.632480612643132645e+02
2.302806617455840144e+00 5.632787615603617724e+02
2.302906639460680971e+00 5.633091871518711287e+02
2.303006661465522242e+00 5.633393389787293017e+02
2.303106683470363514e+00 5.633692179905295916e+02
2.303206705475204341e+00 5.633988251463986217e+02
2.303306727480045168e+00 5.634281614148329709e+02
2.303406749484886440e+00 5.634572277735267107e+02
2.303506771489727711e+00 5.634860252092058772e+02
2.303606793494568539e+00 5.635145547174553258e+02
2.303706815499409810e+00 5.635428173025500200e+02
2.303806837504250637e+00 5.635708139772847289e+02
2.303906859509091909e+00 5.635985457628019049e+02
2.304006881513932736e+00 5.636260136884217218e+02
2.304106903518774008e+00 5.636532187914675660e+02
2.304206925523614835e+00 5.636801621170967564e+02
2.304306947528456107e+00 5.637068447181263764e+02
2.304406969533297378e+00 5.637332676548592190e+02
2.304506991538138205e+00 5.637594319949157580e+02
2.304607013542979477e+00 5.637853388130556596e+02
2.304707035547820304e+00 5.638109891910063425e+02
2.304807057552661576e+00 5.638363842172915383e+02
2.304907079557502403e+00 5.638615249870538264e+02
2.305007101562343674e+00 5.638864126018843308e+02
2.305107123567184502e+00 5.639110481696483248e+02
2.305207145572025773e+00 5.639354328043100395e+02
2.305307167576867045e+00 5.639595676257621335e+02
2.305407189581707872e+00 5.639834537596483415e+02
2.305507211586548699e+00 5.640070923371932849e+02
2.305607233591389971e+00 5.640304844950278493e+02
2.305707255596231242e+00 5.640536313750158115e+02
2.305807277601072069e+00 5.640765341240824000e+02
2.305907299605913341e+00 5.640991938940387627e+02
2.306007321610754168e+00 5.641216118414133689e+02
2.306107343615594996e+00 5.641437891272763636e+02
2.306207365620436267e+00 5.641657269170696054e+02
2.306307387625277538e+00 5.641874263804348857e+02
2.306407409630118366e+00 5.642088886910430574e+02
2.306507431634959637e+00 5.642301150264225953e+02
2.306607453639800909e+00 5.642511065677900888e+02
2.306707475644641736e+00 5.642718644998801665e+02
2.306807497649482563e+00 5.642923900107767849e+02
2.306907519654323835e+00 5.643126842917441763e+02
2.307007541659164662e+00 5.643327485370575687e+02
2.307107563664005934e+00 5.643525839438384537e+02
2.307207585668847205e+00 5.643721917118841702e+02
2.307307607673688032e+00 5.643915730435043088e+02
2.307407629678529304e+00 5.644107291433548426e+02
2.307507651683370131e+00 5.644296612182711215e+02
2.307607673688210959e+00 5.644483704771072325e+02
2.307707695693052230e+00 5.644668581305687667e+02
2.307807717697893501e+00 5.644851253910528612e+02
2.307907739702734329e+00 5.645031734724857415e+02
2.308007761707575600e+00 5.645210035901626497e+02
2.308107783712416872e+00 5.645386169605859550e+02
2.308207805717257699e+00 5.645560148013071284e+02
2.308307827722098526e+00 5.645731983307686050e+02
2.308407849726939798e+00 5.645901687681472367e+02
2.308507871731780625e+00 5.646069273331959266e+02
2.308607893736621897e+00 5.646234752460914024e+02
2.308707915741463168e+00 5.646398137272761915e+02
2.308807937746303995e+00 5.646559439973100325e+02
2.308907959751144823e+00 5.646718672767137832e+02
2.309007981755986094e+00 5.646875847858208317e+02
2.309108003760827366e+00 5.647030977446263478e+02
2.309208025765668193e+00 5.647184073726392626e+02
2.309308047770509464e+00 5.647335148887348169e+02
2.309408069775350292e+00 5.647484215110066543e+02
2.309508091780191563e+00 5.647631284566241447e+02
2.309608113785032391e+00 5.647776369416874331e+02
2.309708135789873662e+00 5.647919481810851039e+02
2.309808157794714489e+00 5.648060633883528681e+02
2.309908179799555761e+00 5.648199837755327053e+02
2.310008201804397032e+00 5.648337105530383724e+02
2.310108223809237860e+00 5.648472449295126125e+02
2.310208245814078687e+00 5.648605881116945966e+02
2.310308267818919958e+00 5.648737413042858861e+02
2.310408289823761230e+00 5.648867057098151463e+02
2.310508311828602057e+00 5.648994825285094521e+02
2.310608333833443329e+00 5.649120729581625255e+02
2.310708355838284156e+00 5.649244781940061557e+02
2.310808377843125427e+00 5.649366994285834380e+02
2.310908399847966255e+00 5.649487378516232639e+02
2.311008421852807526e+00 5.649605946499174252e+02
2.311108443857648354e+00 5.649722710071957863e+02
2.311208465862489625e+00 5.649837681040069128e+02
2.311308487867330896e+00 5.649950871175994962e+02
2.311408509872171724e+00 5.650062292218025277e+02
2.311508531877012995e+00 5.650171955869109297e+02
2.311608553881853823e+00 5.650279873795714138e+02
2.311708575886694650e+00 5.650386057626676575e+02
2.311808597891535921e+00 5.650490518952125285e+02
2.311908619896377193e+00 5.650593269322346259e+02
2.312008641901218020e+00 5.650694320246738016e+02
2.312108663906059292e+00 5.650793683192744083e+02
2.312208685910900563e+00 5.650891369584793438e+02
2.312308707915740946e+00 5.650987390803298922e+02
2.312408729920582218e+00 5.651081758183635202e+02
2.312508751925423489e+00 5.651174483015153100e+02
2.312608773930264316e+00 5.651265576540210986e+02
2.312708795935105588e+00 5.651355049953210710e+02
2.312808817939946859e+00 5.651442914399665369e+02
2.312908839944787687e+00 5.651529180975282998e+02
2.313008861949628514e+00 5.651613860725069571e+02
2.313108883954469785e+00 5.651696964642444527e+02
2.313208905959310613e+00 5.651778503668367648e+02
2.313308927964151884e+00 5.651858488690496642e+02
2.313408949968993156e+00 5.651936930542383379e+02
2.313508971973833983e+00 5.652013840002634879e+02
2.313608993978675255e+00 5.652089227794149338e+02
2.313709015983516082e+00 5.652163104583314635e+02
2.313809037988357353e+00 5.652235480979303475e+02
2.313909059993198181e+00 5.652306367533290086e+02
2.314009081998039452e+00 5.652375774737776055e+02
2.314109104002880279e+00 5.652443713025870693e+02
2.314209126007721551e+00 5.652510192770627100e+02
2.314309148012562822e+00 5.652575224284387332e+02
2.314409170017403650e+00 5.652638817818142343e+02
2.314509192022244477e+00 5.652700983560910117e+02
2.314609214027085748e+00 5.652761731639147911e+02
2.314709236031927020e+00 5.652821072116146297e+02
2.314809258036767847e+00 5.652879014991520989e+02
2.314909280041609119e+00 5.652935570200604616e+02
2.315009302046449946e+00 5.652990747613982876e+02
2.315109324051291217e+00 5.653044557036974993e+02
2.315209346056132045e+00 5.653097008209131218e+02
2.315309368060973316e+00 5.653148110803781492e+02
2.315409390065814144e+00 5.653197874427621628e+02
2.315509412070655415e+00 5.653246308620238096e+02
2.315609434075496686e+00 5.653293422853737411e+02
2.315709456080337514e+00 5.653339226532350494e+02
2.315809478085178341e+00 5.653383728992071156e+02
2.315909500090019613e+00 5.653426939500299113e+02
2.316009522094860884e+00 5.653468867255523946e+02
2.316109544099701711e+00 5.653509521387010182e+02
2.316209566104542983e+00 5.653548910954501707e+02
2.316309588109383810e+00 5.653587044947972799e+02
2.316409610114225082e+00 5.653623932287353000e+02
2.316509632119065909e+00 5.653659581822322480e+02
2.316609654123907180e+00 5.653694002332073296e+02
2.316709676128748008e+00 5.653727202525126359e+02
2.316809698133589279e+00 5.653759191039167717e+02
2.316909720138430551e+00 5.653789976440874625e+02
2.317009742143271378e+00 5.653819567225802984e+02
2.317109764148112649e+00 5.653847971818237284e+02
2.317209786152953477e+00 5.653875198571114424e+02
2.317309808157794304e+00 5.653901255765952101e+02
2.317409830162635576e+00 5.653926151612755575e+02
2.317509852167476847e+00 5.653949894249994941e+02
2.317609874172317674e+00 5.653972491744591480e+02
2.317709896177158946e+00 5.653993952091882420e+02
2.317809918182000217e+00 5.654014283215658452e+02
2.317909940186840601e+00 5.654033492968166001e+02
2.318009962191681872e+00 5.654051589130187949e+02
2.318109984196523143e+00 5.654068579411085693e+02
2.318210006201363971e+00 5.654084471448891236e+02
2.318310028206205242e+00 5.654099272810403818e+02
2.318410050211046514e+00 5.654112990991313836e+02
2.318510072215887341e+00 5.654125633416333585e+02
2.318610094220728168e+00 5.654137207439353006e+02
2.318710116225569440e+00 5.654147720343621586e+02
2.318810138230410267e+00 5.654157179341916617e+02
2.318910160235251539e+00 5.654165591576751240e+02
2.319010182240092810e+00 5.654172964120607503e+02
2.319110204244933637e+00 5.654179303976176243e+02
2.319210226249774909e+00 5.654184618076586730e+02
2.319310248254615736e+00 5.654188913285697708e+02
2.319410270259457008e+00 5.654192196398397527e+02
2.319510292264297835e+00 5.654194474140872444e+02
2.319610314269139106e+00 5.654195753170952230e+02
2.319710336273979934e+00 5.654196040078423948e+02
2.319810358278821205e+00 5.654195341385421898e+02
2.319910380283662477e+00 5.654193663546730022e+02
2.320010402288503304e+00 5.654191012950216191e+02
2.320110424293344131e+00 5.654187395917228969e+02
2.320210446298185403e+00 5.654182818702955728e+02
2.320310468303026674e+00 5.654177287496898998e+02
2.320410490307867502e+00 5.654170808423305061e+02
2.320510512312708773e+00 5.654163387541593693e+02
2.320610534317549600e+00 5.654155030846866339e+02
2.320710556322390872e+00 5.654145744270352907e+02
2.320810578327231699e+00 5.654135533679925629e+02
2.320910600332072971e+00 5.654124404880601560e+02
2.321010622336913798e+00 5.654112363615076902e+02
2.321110644341755069e+00 5.654099415564244282e+02
2.321210666346596341e+00 5.654085566347762324e+02
2.321310688351437168e+00 5.654070821524596795e+02
2.321410710356277995e+00 5.654055186593609506e+02
2.321510732361119267e+00 5.654038666994139248e+02
2.321610754365960538e+00 5.654021268106603202e+02
2.321710776370801366e+00 5.654002995253104018e+02
2.321810798375642637e+00 5.653983853698043731e+02
2.321910820380483464e+00 5.653963848648776320e+02
2.322010842385324736e+00 5.653942985256238671e+02
2.322110864390165563e+00 5.653921268615605413e+02
2.322210886395006835e+00 5.653898703766961944e+02
2.322310908399847662e+00 5.653875295695986551e+02
2.322410930404688933e+00 5.653851049334610934e+02
2.322510952409530205e+00 5.653825969561748934e+02
2.322610974414371032e+00 5.653800061203985479e+02
2.322710996419212304e+00 5.653773329036300765e+02
2.322811018424053131e+00 5.653745777782776258e+02
2.322911040428893958e+00 5.653717412117372305e+02
2.323011062433735230e+00 5.653688236664627311e+02
2.323111084438576501e+00 5.653658256000426263e+02
2.323211106443417329e+00 5.653627474652780620e+02
2.323311128448258600e+00 5.653595897102547951e+02
2.323411150453099872e+00 5.653563527784274356e+02
2.323511172457940255e+00 5.653530371086922059e+02
2.323611194462781526e+00 5.653496431354686820e+02
2.323711216467622798e+00 5.653461712887801696e+02
2.323811238472463625e+00 5.653426219943314663e+02
2.323911260477304896e+00 5.653389956735934447e+02
2.324011282482146168e+00 5.653352927438833149e+02
2.324111304486986995e+00 5.653315136184461380e+02
2.324211326491827823e+00 5.653276587065392960e+02
2.324311348496669094e+00 5.653237284135153686e+02
2.324411370501509921e+00 5.653197231409069445e+02
2.324511392506351193e+00 5.653156432865091574e+02
2.324611414511192464e+00 5.653114892444687030e+02
2.324711436516033292e+00 5.653072614053642155e+02
2.324811458520874563e+00 5.653029601562964217e+02
2.324911480525715390e+00 5.652985858809739739e+02
2.325011502530556662e+00 5.652941389597961006e+02
2.325111524535397489e+00 5.652896197699454888e+02
2.325211546540238761e+00 5.652850286854716160e+02
2.325311568545079588e+00 5.652803660773798811e+02
2.325411590549920859e+00 5.652756323137189156e+02
2.325511612554762131e+00 5.652708277596698281e+02
2.325611634559602958e+00 5.652659527776330606e+02
2.325711656564443786e+00 5.652610077273182014e+02
2.325811678569285057e+00 5.652559929658324336e+02
2.325911700574126328e+00 5.652509088477678461e+02
2.326011722578967156e+00 5.652457557252926108e+02
2.326111744583808427e+00 5.652405339482395448e+02
2.326211766588649255e+00 5.652352438641933077e+02
2.326311788593490526e+00 5.652298858185814652e+02
2.326411810598331353e+00 5.652244601547623688e+02
2.326511832603172625e+00 5.652189672141153096e+02
2.326611854608013452e+00 5.652134073361289666e+02
2.326711876612854724e+00 5.652077808584888317e+02
2.326811898617695995e+00 5.652020881171690689e+02
2.326911920622536822e+00 5.651963294465178933e+02
2.327011942627377650e+00 5.651905051793488610e+02
2.327111964632218921e+00 5.651846156470267033e+02
2.327211986637060193e+00 5.651786611795572526e+02
2.327312008641901020e+00 5.651726421056744130e+02
2.327412030646742291e+00 5.651665587529273580e+02
2.327512052651583119e+00 5.651604114477688654e+02
2.327612074656423946e+00 5.651542005156411506e+02
2.327712096661265218e+00 5.651479262810634054e+02
2.327812118666106489e+00 5.651415890677162679e+02
2.327912140670947316e+00 5.651351891985301563e+02
2.328012162675788588e+00 5.651287269957690569e+02
2.328112184680629859e+00 5.651222027811149928e+02
2.328212206685470687e+00 5.651156168757538580e+02
2.328312228690311514e+00 5.651089696004582947e+02
2.328412250695152785e+00 5.651022612756727312e+02
2.328512272699993613e+00 5.650954922215923943e+02
2.328612294704834884e+00 5.650886627582507344e+02
2.328712316709676156e+00 5.650817732055974147e+02
2.328812338714516983e+00 5.650748238835813027e+02
2.328912360719358254e+00 5.650678151122291411e+02
2.329012382724199082e+00 5.650607472117260386e+02
2.329112404729039909e+00 5.650536205024961873e+02
2.329212426733881180e+00 5.650464353052788056e+02
2.329312448738722452e+00 5.650391919412070365e+02
2.329412470743563279e+00 5.650318907318825268e+02
2.329512492748404551e+00 5.650245319994564852e+02
2.329612514753245822e+00 5.650171160666985770e+02
2.329712536758086650e+00 5.650096432570765046e+02
2.329812558762927477e+00 5.650021138948253565e+02
2.329912580767768748e+00 5.649945283050241187e+02
2.330012602772609576e+00 5.649868868136637730e+02
2.330112624777450847e+00 5.649791897477202838e+02
2.330212646782292119e+00 5.649714374352244022e+02
2.330312668787132946e+00 5.649636302053289683e+02
2.330412690791973773e+00 5.649557683883795107e+02
2.330512712796815045e+00 5.649478523159775705e+02
2.330612734801656316e+00 5.649398823210485716e+02
2.330712756806497143e+00 5.649318587379070777e+02
2.330812778811338415e+00 5.649237819023197744e+02
2.330912800816179242e+00 5.649156521515673148e+02
2.331012822821020514e+00 5.649074698245071886e+02
2.331112844825861341e+00 5.648992352616328390e+02
2.331212866830702612e+00 5.648909488051338030e+02
2.331312888835543440e+00 5.648826107989534648e+02
2.331412910840384711e+00 5.648742215888452165e+02
2.331512932845225983e+00 5.648657815224294154e+02
2.331612954850066810e+00 5.648572909492465897e+02
2.331712976854908081e+00 5.648487502208114392e+02
2.331812998859748909e+00 5.648401596906636541e+02
2.331913020864590180e+00 5.648315197144196418e+02
2.332013042869431008e+00 5.648228306498220945e+02
2.332113064874272279e+00 5.648140928567858055e+02
2.332213086879113106e+00 5.648053066974478043e+02
2.332313108883954378e+00 5.647964725362091940e+02
2.332413130888795649e+00 5.647875907397814217e+02
2.332513152893636477e+00 5.647786616772282287e+02
2.332613174898477304e+00 5.647696857200068052e+02
2.332713196903318575e+00 5.647606632420079222e+02
2.332813218908159847e+00 5.647515946195936749e+02
2.332913240913000674e+00 5.647424802316353407e+02
2.333013262917841946e+00 5.647333204595473717e+02
2.333113284922682773e+00 5.647241156873246837e+02
2.333213306927523600e+00 5.647148663015701686e+02
2.333313328932364872e+00 5.647055726915319838e+02
2.333413350937206143e+00 5.646962352491273123e+02
2.333513372942046971e+00 5.646868543689741955e+02
2.333613394946888242e+00 5.646774304484169988e+02
2.333713416951729513e+00 5.646679638875515366e+02
2.333813438956570341e+00 5.646584550892484913e+02
2.333913460961411168e+00 5.646489044591759239e+02
2.334013482966252440e+00 5.646393124058187141e+02
2.334113504971093267e+00 5.646296793404980008e+02
2.334213526975934538e+00 5.646200056773890310e+02
2.334313548980775810e+00 5.646102918335350296e+02
2.334413570985616637e+00 5.646005382288637975e+02
2.334513592990457909e+00 5.645907452861987394e+02
2.334613614995298736e+00 5.645809134312687547e+02
2.334713637000139563e+00 5.645710430927197194e+02
2.334813659004980835e+00 5.645611347021208530e+02
2.334913681009822106e+00 5.645511886939702890e+02
2.335013703014662934e+00 5.645412055057013276e+02
2.335113725019504205e+00 5.645311855776826633e+02
2.335213747024345476e+00 5.645211293532208856e+02
2.335313769029186304e+00 5.645110372785603658e+02
2.335413791034027131e+00 5.645009098028793915e+02
2.335513813038868403e+00 5.644907473782885745e+02
2.335613835043709230e+00 5.644805504598219841e+02
2.335713857048550501e+00 5.644703195054336220e+02
2.335813879053391773e+00 5.644600549759863952e+02
2.335913901058232600e+00 5.644497573352413156e+02
2.336013923063073427e+00 5.644394270498451078e+02
2.336113945067914699e+00 5.644290645893195233e+02
2.336213967072755970e+00 5.644186704260407623e+02
2.336313989077596798e+00 5.644082450352257183e+02
2.336414011082438069e+00 5.643977888949119688e+02
2.336514033087278897e+00 5.643873024859367433e+02
2.336614055092120168e+00 5.643767862919142999e+02
2.336714077096960995e+00 5.643662407992146655e+02
2.336814099101802267e+00 5.643556664969330541e+02
2.336914121106643094e+00 5.643450638768673571e+02
2.337014143111484366e+00 5.643344334334857422e+02
2.337114165116325637e+00 5.643237756638986866e+02
2.337214187121166464e+00 5.643130910678240753e+02
2.337314209126007736e+00 5.643023801475536629e+02
2.337414231130848563e+00 5.642916434079201053e+02
2.337514253135689835e+00 5.642808813562551222e+02
2.337614275140530662e+00 5.642700945023549366e+02
2.337714297145371933e+00 5.642592833584349137e+02
2.337814319150212761e+00 5.642484484390934085e+02
2.337914341155054032e+00 5.642375902612607206e+02
2.338014363159895304e+00 5.642267093441591896e+02
2.338114385164736131e+00 5.642158062092538557e+02
2.338214407169576958e+00 5.642048813802038012e+02
2.338314429174418230e+00 5.641939353828106505e+02
2.338414451179259501e+00 5.641829687449684343e+02
2.338514473184100328e+00 5.641719819966087925e+02
2.338614495188941600e+00 5.641609756696468594e+02
2.338714517193782427e+00 5.641499502979228282e+02
2.338814539198623255e+00 5.641389064171455630e+02
2.338914561203464526e+00 5.641278445648306388e+02
2.339014583208305798e+00 5.641167652802411112e+02
2.339114605213146625e+00 5.641056691043230558e+02
2.339214627217987896e+00 5.640945565796420169e+02
2.339314649222829168e+00 5.640834282503143413e+02
2.339414671227669995e+00 5.640722846619448774e+02
2.339514693232510822e+00 5.640611263615533062e+02
2.339614715237352094e+00 5.640499538975052474e+02
2.339714737242192921e+00 5.640387678194412047e+02
2.339814759247034193e+00 5.640275686782013054e+02
2.339914781251875464e+00 5.640163570257527681e+02
2.340014803256716291e+00 5.640051334151114588e+02
