1.500060014403456821e+00 5.146361022702255923e+02
1.500160038409218188e+00 5.145480451954882710e+02
1.500260062414979556e+00 5.144598945752530881e+02
1.500360086420740924e+00 5.143716543981577161e+02
1.500460110426502292e+00 5.142833286696363757e+02
1.500560134432263659e+00 5.141949214116139046e+02
1.500660158438025027e+00 5.141064366621931185e+02
1.500760182443786395e+00 5.140178784753464925e+02
1.500860206449547762e+00 5.139292509206003388e+02
1.500960230455309130e+00 5.138405580827245558e+02
1.501060254461070720e+00 5.137518040614115762e+02
1.501160278466832088e+00 5.136629929709620228e+02
1.501260302472593455e+00 5.135741289399644529e+02
1.501360326478354823e+00 5.134852161109727149e+02
1.501460350484116191e+00 5.133962586401871704e+02
1.501560374489877558e+00 5.133072606971275036e+02
1.501660398495638926e+00 5.132182264643091685e+02
1.501760422501400294e+00 5.131291601369161981e+02
1.501860446507161662e+00 5.130400659224729907e+02
1.501960470512923029e+00 5.129509480405150725e+02
1.502060494518684397e+00 5.128618107222573599e+02
1.502160518524445765e+00 5.127726582102621933e+02
1.502260542530207132e+00 5.126834947581075994e+02
1.502360566535968500e+00 5.125943246300491865e+02
1.502460590541729868e+00 5.125051521006873827e+02
1.502560614547491236e+00 5.124159814546277403e+02
1.502660638553252603e+00 5.123268169861429442e+02
1.502760662559013971e+00 5.122376629988348213e+02
1.502860686564775561e+00 5.121485238052914610e+02
1.502960710570536929e+00 5.120594037267458134e+02
1.503060734576298296e+00 5.119703070927341741e+02
1.503160758582059664e+00 5.118812382407495534e+02
1.503260782587821032e+00 5.117922015158984550e+02
1.503360806593582399e+00 5.117032012705545867e+02
1.503460830599343767e+00 5.116142418640112055e+02
1.503560854605105135e+00 5.115253276621339182e+02
1.503660878610866503e+00 5.114364630370106397e+02
1.503760902616627870e+00 5.113476523666017783e+02
1.503860926622389238e+00 5.112589000343909902e+02
1.503960950628150606e+00 5.111702104290327497e+02
1.504060974633911973e+00 5.110815879439984428e+02
1.504160998639673341e+00 5.109930369772269501e+02
1.504261022645434709e+00 5.109045619307664197e+02
1.504361046651196077e+00 5.108161672104222930e+02
1.504461070656957444e+00 5.107278572254014648e+02
1.504561094662718812e+00 5.106396363879572959e+02
1.504661118668480180e+00 5.105515091130292831e+02
1.504761142674241992e+00 5.104634798178903452e+02
1.504861166680003137e+00 5.103755529217869480e+02
1.504961190685764727e+00 5.102877328455795123e+02
1.505061214691525873e+00 5.102000240113853238e+02
1.505161238697287462e+00 5.101124308422189984e+02
1.505261262703048608e+00 5.100249577616318106e+02
1.505361286708810198e+00 5.099376091933498856e+02
1.505461310714571344e+00 5.098503895609171082e+02
1.505561334720332933e+00 5.097633032873320076e+02
1.505661358726094079e+00 5.096763547946840731e+02
1.505761382731855669e+00 5.095895485037958110e+02
1.505861406737616814e+00 5.095028888338586057e+02
1.505961430743378404e+00 5.094163802020690355e+02
1.506061454749139550e+00 5.093300270232699063e+02
1.506161478754901140e+00 5.092438337095828729e+02
1.506261502760662285e+00 5.091578046700485629e+02
1.506361526766423875e+00 5.090719443102623245e+02
1.506461550772185021e+00 5.089862570320109398e+02
1.506561574777946833e+00 5.089007472329083157e+02
1.506661598783708200e+00 5.088154193060341299e+02
1.506761622789469568e+00 5.087302776395669071e+02
1.506861646795230936e+00 5.086453266164245974e+02
1.506961670800992303e+00 5.085605706138964592e+02
1.507061694806753671e+00 5.084760140032836375e+02
1.507161718812515039e+00 5.083916611495331495e+02
1.507261742818276407e+00 5.083075164108745980e+02
1.507361766824037774e+00 5.082235841384588184e+02
1.507461790829799142e+00 5.081398686759924317e+02
1.507561814835560510e+00 5.080563743593770027e+02
1.507661838841321877e+00 5.079731055163443898e+02
1.507761862847083245e+00 5.078900664660970961e+02
1.507861886852844613e+00 5.078072615189411181e+02
1.507961910858605981e+00 5.077246949759314703e+02
1.508061934864367348e+00 5.076423711285031004e+02
1.508161958870128716e+00 5.075602942581153911e+02
1.508261982875890084e+00 5.074784686358876797e+02
1.508362006881651451e+00 5.073968985222408605e+02
1.508462030887413041e+00 5.073155881665376228e+02
1.508562054893174409e+00 5.072345418067216656e+02
1.508662078898935777e+00 5.071537636689584474e+02
1.508762102904697144e+00 5.070732579672801421e+02
1.508862126910458512e+00 5.069930289032235464e+02
1.508962150916219880e+00 5.069130806654753769e+02
1.509062174921981248e+00 5.068334174295149523e+02
1.509162198927742615e+00 5.067540433572580696e+02
1.509262222933503983e+00 5.066749625967019028e+02
1.509362246939265351e+00 5.065961792815696185e+02
1.509462270945026718e+00 5.065176975309591398e+02
1.509562294950788086e+00 5.064395214489857153e+02
1.509662318956549454e+00 5.063616551244331276e+02
1.509762342962310822e+00 5.062841026304005254e+02
1.509862366968072189e+00 5.062068680239530067e+02
1.509962390973833557e+00 5.061299553457701563e+02
1.510062414979594925e+00 5.060533686197975953e+02
1.510162438985356292e+00 5.059771118529004639e+02
1.510262462991117882e+00 5.059011890345149709e+02
1.510362486996879250e+00 5.058256041363021041e+02
1.510462511002640618e+00 5.057503611118034996e+02
1.510562535008401985e+00 5.056754638960979378e+02
1.510662559014163353e+00 5.056009164054564167e+02
1.510762583019924721e+00 5.055267225370023425e+02
1.510862607025686088e+00 5.054528861683697869e+02
1.510962631031447456e+00 5.053794111573645864e+02
1.511062655037208824e+00 5.053063013416248737e+02
1.511162679042970192e+00 5.052335605382856443e+02
1.511262703048731559e+00 5.051611925436408796e+02
1.511362727054492927e+00 5.050892011328106150e+02
1.511462751060254295e+00 5.050175900594067571e+02
1.511562775066015663e+00 5.049463630552000950e+02
1.511662799071777030e+00 5.048755238297924848e+02
1.511762823077538398e+00 5.048050760702825528e+02
1.511862847083299766e+00 5.047350234409448149e+02
1.511962871089061133e+00 5.046653695828961759e+02
1.512062895094822501e+00 5.045961181137746507e+02
1.512162919100584091e+00 5.045272726274154138e+02
1.512262943106345681e+00 5.044588366935277008e+02
1.512362967112106826e+00 5.043908138573745532e+02
1.512462991117868416e+00 5.043232076394553474e+02
1.512563015123629562e+00 5.042560215351856527e+02
1.512663039129391152e+00 5.041892590145841950e+02
1.512763063135152297e+00 5.041229235219570910e+02
1.512863087140913887e+00 5.040570184755841865e+02
1.512963111146675033e+00 5.039915472674123293e+02
1.513063135152436622e+00 5.039265132627417643e+02
1.513163159158197768e+00 5.038619197999211110e+02
1.513263183163959358e+00 5.037977701900417742e+02
1.513363207169720503e+00 5.037340677166337173e+02
1.513463231175482093e+00 5.036708156353634536e+02
1.513563255181243239e+00 5.036080171737337423e+02
1.513663279187004829e+00 5.035456755307856156e+02
1.513763303192765974e+00 5.034837938768029062e+02
1.513863327198527564e+00 5.034223753530162639e+02
1.513963351204289154e+00 5.033614230713102415e+02
1.514063375210050522e+00 5.033009401139358374e+02
1.514163399215811889e+00 5.032409295332186048e+02
1.514263423221573257e+00 5.031813943512742640e+02
1.514363447227334625e+00 5.031223375597232916e+02
1.514463471233095992e+00 5.030637621194077838e+02
1.514563495238857360e+00 5.030056709601138891e+02
1.514663519244618728e+00 5.029480669802910597e+02
1.514763543250380096e+00 5.028909530467753939e+02
1.514863567256141463e+00 5.028343319945200278e+02
1.514963591261902831e+00 5.027782066263187630e+02
1.515063615267664199e+00 5.027225797125382201e+02
1.515163639273425567e+00 5.026674539908512429e+02
1.515263663279186934e+00 5.026128321659723497e+02
1.515363687284948302e+00 5.025587169093934108e+02
1.515463711290709670e+00 5.025051108591239881e+02
1.515563735296471037e+00 5.024520166194346302e+02
1.515663759302232405e+00 5.023994367605984053e+02
1.515763783307993773e+00 5.023473738186398236e+02
1.515863807313755363e+00 5.022958302950837606e+02
1.515963831319516730e+00 5.022448086567056293e+02
1.516063855325278098e+00 5.021943113352874661e+02
1.516163879331039466e+00 5.021443407273722528e+02
1.516263903336800833e+00 5.020948991940231281e+02
1.516363927342562201e+00 5.020459890605862370e+02
1.516463951348323569e+00 5.019976126164544894e+02
1.516563975354084937e+00 5.019497721148321716e+02
1.516663999359846304e+00 5.019024697725066630e+02
1.516764023365607672e+00 5.018557077696167994e+02
1.516864047371369040e+00 5.018094882494316380e+02
1.516964071377130407e+00 5.017638133181238231e+02
1.517064095382891775e+00 5.017186850445499431e+02
1.517164119388653143e+00 5.016741054600338430e+02
1.517264143394414511e+00 5.016300765581521546e+02
1.517364167400175878e+00 5.015866002945191440e+02
1.517464191405937246e+00 5.015436785865803699e+02
1.517564215411698614e+00 5.015013133134045233e+02
1.517664239417460204e+00 5.014595063154780519e+02
1.517764263423221571e+00 5.014182593945082544e+02
1.517864287428982939e+00 5.013775743132198954e+02
1.517964311434744307e+00 5.013374527951629034e+02
1.518064335440505674e+00 5.012978965245200698e+02
1.518164359446267042e+00 5.012589071459137813e+02
1.518264383452028410e+00 5.012204862642235526e+02
1.518364407457789778e+00 5.011826354443998071e+02
1.518464431463551145e+00 5.011453562112830014e+02
1.518564455469312513e+00 5.011086500494247957e+02
1.518664479475073881e+00 5.010725184029165575e+02
1.518764503480835248e+00 5.010369626752120666e+02
1.518864527486596616e+00 5.010019842289639200e+02
1.518964551492357984e+00 5.009675843858535700e+02
1.519064575498119352e+00 5.009337644264298888e+02
1.519164599503880719e+00 5.009005255899489839e+02
1.519264623509642087e+00 5.008678690742186745e+02
1.519364647515403455e+00 5.008357960354413194e+02
1.519464671521164822e+00 5.008043075880692641e+02
1.519564695526926634e+00 5.007734048046501130e+02
1.519664719532687780e+00 5.007430887156892823e+02
1.519764743538449370e+00 5.007133603095029457e+02
1.519864767544210515e+00 5.006842205320855896e+02
1.519964791549972105e+00 5.006556702869698370e+02
1.520064815555733251e+00 5.006277104350999707e+02
1.520164839561494841e+00 5.006003417947005687e+02
1.520264863567255986e+00 5.005735651411519029e+02
1.520364887573017576e+00 5.005473812068693178e+02
1.520464911578778722e+00 5.005217906811828357e+02
1.520564935584540311e+00 5.004967942102243228e+02
1.520664959590301457e+00 5.004723923968135750e+02
1.520764983596063047e+00 5.004485858003499175e+02
1.520865007601824193e+00 5.004253749367094315e+02
1.520965031607585782e+00 5.004027602781392261e+02
1.521065055613346928e+00 5.003807422531614293e+02
1.521165079619108518e+00 5.003593212464779754e+02
1.521265103624869663e+00 5.003384975988772112e+02
1.521365127630631475e+00 5.003182716071474374e+02
1.521465151636392843e+00 5.002986435239910179e+02
1.521565175642154211e+00 5.002796135579426391e+02
1.521665199647915578e+00 5.002611818732910365e+02
1.521765223653676946e+00 5.002433485900054961e+02
1.521865247659438314e+00 5.002261137836638341e+02
1.521965271665199682e+00 5.002094774853846388e+02
1.522065295670961049e+00 5.001934396817637207e+02
1.522165319676722417e+00 5.001780003148116975e+02
1.522265343682483785e+00 5.001631592818991976e+02
1.522365367688245152e+00 5.001489164357013237e+02
1.522465391694006520e+00 5.001352715841487111e+02
1.522565415699767888e+00 5.001222244903795513e+02
1.522665439705529256e+00 5.001097748726972441e+02
1.522765463711290623e+00 5.000979224045316300e+02
1.522865487717051991e+00 5.000866667144019857e+02
1.522965511722813359e+00 5.000760073858837700e+02
1.523065535728574726e+00 5.000659439575832153e+02
1.523165559734336094e+00 5.000564759231081666e+02
1.523265583740097684e+00 5.000476027310492100e+02
1.523365607745859052e+00 5.000393237849604589e+02
1.523465631751620419e+00 5.000316384433452299e+02
1.523565655757381787e+00 5.000245460196463796e+02
1.523665679763143155e+00 5.000180457822374933e+02
1.523765703768904523e+00 5.000121369544208392e+02
1.523865727774665890e+00 5.000068187144281069e+02
1.523965751780427258e+00 5.000020901954219426e+02
1.524065775786188626e+00 4.999979504855055552e+02
1.524165799791949993e+00 4.999943986277321528e+02
1.524265823797711361e+00 4.999914336201230753e+02
1.524365847803472729e+00 4.999890544156824035e+02
1.524465871809234097e+00 4.999872599224219130e+02
1.524565895814995464e+00 4.999860490033856308e+02
1.524665919820756832e+00 4.999854204766803036e+02
1.524765943826518200e+00 4.999853731155081960e+02
1.524865967832279567e+00 4.999859056482048345e+02
1.524965991838040935e+00 4.999870167582793670e+02
1.525066015843802525e+00 4.999887050844581609e+02
1.525166039849563893e+00 4.999909692207344278e+02
1.525266063855325260e+00 4.999938077164210881e+02
1.525366087861086628e+00 4.999972190762021000e+02
1.525466111866847996e+00 5.000012017601973753e+02
1.525566135872609363e+00 5.000057541840224076e+02
1.525666159878370731e+00 5.000108747188547227e+02
1.525766183884132099e+00 5.000165616915081728e+02
1.525866207889893467e+00 5.000228133845030811e+02
1.525966231895654834e+00 5.000296280361464483e+02
1.526066255901416202e+00 5.000370038406144886e+02
1.526166279907177570e+00 5.000449389480364744e+02
1.526266303912938938e+00 5.000534314645842642e+02
1.526366327918700305e+00 5.000624794525659809e+02
1.526466351924461673e+00 5.000720809305233274e+02
1.526566375930223041e+00 5.000822338733315178e+02
1.526666399935984408e+00 5.000929362123030160e+02
1.526766423941745776e+00 5.001041858352963345e+02
1.526866447947507144e+00 5.001159805868273907e+02
1.526966471953268734e+00 5.001283182681848984e+02
1.527066495959030323e+00 5.001411966375503653e+02
1.527166519964791469e+00 5.001546134101213283e+02
1.527266543970553059e+00 5.001685662582364102e+02
1.527366567976314204e+00 5.001830528115062862e+02
1.527466591982075794e+00 5.001980706569499375e+02
1.527566615987836940e+00 5.002136173391295983e+02
1.527666639993598530e+00 5.002296903602949669e+02
1.527766663999359675e+00 5.002462871805263376e+02
1.527866688005121265e+00 5.002634052178850084e+02
1.527966712010882411e+00 5.002810418485661330e+02
1.528066736016644001e+00 5.002991944070548698e+02
1.528166760022405146e+00 5.003178601862863957e+02
1.528266784028166736e+00 5.003370364378096724e+02
1.528366808033927882e+00 5.003567203719562713e+02
1.528466832039689471e+00 5.003769091580095960e+02
1.528566856045450617e+00 5.003975999243821775e+02
1.528666880051212207e+00 5.004187897587922862e+02
1.528766904056973797e+00 5.004404757084483322e+02
1.528866928062735164e+00 5.004626547802313326e+02
1.528966952068496532e+00 5.004853239408886338e+02
1.529066976074257900e+00 5.005084801172247353e+02
1.529167000080019267e+00 5.005321201962993314e+02
1.529267024085780635e+00 5.005562410256263774e+02
1.529367048091542003e+00 5.005808394133795218e+02
1.529467072097303371e+00 5.006059121285998117e+02
1.529567096103064738e+00 5.006314559014061274e+02
1.529667120108826106e+00 5.006574674232116990e+02
1.529767144114587474e+00 5.006839433469408505e+02
1.529867168120348841e+00 5.007108802872527349e+02
1.529967192126110209e+00 5.007382748207660939e+02
1.530067216131871577e+00 5.007661234862881656e+02
1.530167240137632945e+00 5.007944227850483685e+02
1.530267264143394312e+00 5.008231691809353947e+02
1.530367288149155680e+00 5.008523591007340769e+02
1.530467312154917048e+00 5.008819889343718614e+02
1.530567336160678416e+00 5.009120550351647125e+02
1.530667360166440005e+00 5.009425537200659164e+02
1.530767384172201373e+00 5.009734812699221607e+02
1.530867408177962741e+00 5.010048339297292159e+02
1.530967432183724108e+00 5.010366079088936431e+02
1.531067456189485476e+00 5.010687993814959782e+02
1.531167480195246844e+00 5.011014044865592041e+02
1.531267504201008212e+00 5.011344193283190407e+02
1.531367528206769579e+00 5.011678399764995788e+02
1.531467552212530947e+00 5.012016624665883455e+02
1.531567576218292315e+00 5.012358828001205211e+02
1.531667600224053682e+00 5.012704969449612804e+02
1.531767624229815050e+00 5.013055008355941027e+02
1.531867648235576418e+00 5.013408903734124920e+02
1.531967672241337786e+00 5.013766614270123227e+02
1.532067696247099153e+00 5.014128098324933944e+02
1.532167720252860521e+00 5.014493313937555854e+02
1.532267744258621889e+00 5.014862218828062623e+02
1.532367768264383256e+00 5.015234770400667799e+02
1.532467792270144846e+00 5.015610925746823341e+02
1.532567816275906214e+00 5.015990641648370456e+02
1.532667840281667582e+00 5.016373874580698384e+02
1.532767864287428949e+00 5.016760580715955484e+02
1.532867888293190317e+00 5.017150715926259750e+02
1.532967912298951685e+00 5.017544235786990612e+02
1.533067936304713053e+00 5.017941095580064257e+02
1.533167960310474420e+00 5.018341250297270335e+02
1.533267984316235788e+00 5.018744654643613217e+02
1.533368008321997156e+00 5.019151263040707818e+02
1.533468032327758523e+00 5.019561029630201574e+02
1.533568056333519891e+00 5.019973908277199257e+02
1.533668080339281259e+00 5.020389852573767939e+02
1.533768104345042627e+00 5.020808815842398189e+02
1.533868128350803994e+00 5.021230751139605673e+02
1.533968152356565362e+00 5.021655611259415650e+02
1.534068176362326730e+00 5.022083348737016877e+02
1.534168200368088097e+00 5.022513915852347282e+02
1.534268224373849465e+00 5.022947264633759232e+02
1.534368248379611277e+00 5.023383346861689915e+02
1.534468272385372423e+00 5.023822114072362410e+02
1.534568296391134012e+00 5.024263517561531671e+02
1.534668320396895158e+00 5.024707508388221413e+02
1.534768344402656748e+00 5.025154037378540011e+02
1.534868368408417894e+00 5.025603055129469681e+02
1.534968392414179483e+00 5.026054512012700570e+02
1.535068416419940629e+00 5.026508358178538742e+02
1.535168440425702219e+00 5.026964543559745380e+02
1.535268464431463364e+00 5.027423017875498772e+02
1.535368488437224954e+00 5.027883730635296047e+02
1.535468512442986100e+00 5.028346631142978254e+02
1.535568536448747690e+00 5.028811668500654832e+02
1.535668560454508835e+00 5.029278791612778150e+02
1.535768584460270425e+00 5.029747949190164604e+02
1.535868608466031571e+00 5.030219089754050401e+02
1.535968632471793160e+00 5.030692161640211566e+02
1.536068656477554306e+00 5.031167113003039617e+02
1.536168680483316118e+00 5.031643891819724104e+02
1.536268704489077486e+00 5.032122445894368639e+02
1.536368728494838853e+00 5.032602722862202427e+02
1.536468752500600221e+00 5.033084670193779289e+02
1.536568776506361589e+00 5.033568235199194305e+02
1.536668800512122957e+00 5.034053365032359579e+02
1.536768824517884324e+00 5.034540006695228271e+02
1.536868848523645692e+00 5.035028107042143120e+02
1.536968872529407060e+00 5.035517612784109360e+02
1.537068896535168427e+00 5.036008470493124491e+02
1.537168920540929795e+00 5.036500626606568858e+02
1.537268944546691163e+00 5.036994027431549625e+02
1.537368968552452531e+00 5.037488619149280566e+02
1.537468992558213898e+00 5.037984347819533468e+02
1.537569016563975266e+00 5.038481159385038382e+02
1.537669040569736634e+00 5.038978999675931618e+02
1.537769064575498001e+00 5.039477814414255477e+02
1.537869088581259369e+00 5.039977549218393733e+02
1.537969112587020737e+00 5.040478149607620253e+02
1.538069136592782327e+00 5.040979561006588483e+02
1.538169160598543694e+00 5.041481728749878926e+02
1.538269184604305062e+00 5.041984598086555707e+02
1.538369208610066430e+00 5.042488114184718597e+02
1.538469232615827798e+00 5.042992222136116993e+02
1.538569256621589165e+00 5.043496866960725811e+02
1.538669280627350533e+00 5.044001993611357761e+02
1.538769304633111901e+00 5.044507546978319965e+02
1.538869328638873268e+00 5.045013471894025656e+02
1.538969352644634636e+00 5.045519713137688314e+02
1.539069376650396004e+00 5.046026215439947009e+02
1.539169400656157372e+00 5.046532923487599192e+02
1.539269424661918739e+00 5.047039781928262414e+02
1.539369448667680107e+00 5.047546735375108256e+02
1.539469472673441475e+00 5.048053728411571228e+02
1.539569496679202842e+00 5.048560705596075877e+02
1.539669520684964210e+00 5.049067611466812764e+02
1.539769544690725578e+00 5.049574390546458744e+02
1.539869568696487168e+00 5.050080987346962047e+02
1.539969592702248535e+00 5.050587346374321669e+02
1.540069616708009903e+00 5.051093412133361653e+02
1.540169640713771271e+00 5.051599129132540043e+02
1.540269664719532638e+00 5.052104441888744759e+02
1.540369688725294006e+00 5.052609294932110515e+02
1.540469712731055374e+00 5.053113632810843114e+02
1.540569736736816742e+00 5.053617400096047163e+02
1.540669760742578109e+00 5.054120541386557193e+02
1.540769784748339477e+00 5.054623001313790382e+02
1.540869808754100845e+00 5.055124724546590187e+02
1.540969832759862213e+00 5.055625655796096112e+02
1.541069856765623580e+00 5.056125739820588478e+02
1.541169880771384948e+00 5.056624921430354789e+02
1.541269904777146316e+00 5.057123145492595313e+02
1.541369928782907683e+00 5.057620356936257053e+02
1.541469952788669051e+00 5.058116500756942173e+02
1.541569976794430419e+00 5.058611522021784026e+02
1.541670000800191787e+00 5.059105365874338531e+02
1.541770024805953376e+00 5.059597977539478961e+02
1.541870048811714966e+00 5.060089302328272538e+02
1.541970072817476112e+00 5.060579285642890000e+02
1.542070096823237701e+00 5.061067872981515166e+02
1.542170120828998847e+00 5.061555009943212440e+02
1.542270144834760437e+00 5.062040642232848313e+02
1.542370168840521583e+00 5.062524715665979897e+02
1.542470192846283172e+00 5.063007176173761650e+02
1.542570216852044318e+00 5.063487969807839590e+02
1.542670240857805908e+00 5.063967042745252911e+02
1.542770264863567053e+00 5.064444341293316825e+02
1.542870288869328643e+00 5.064919811894538952e+02
1.542970312875089789e+00 5.065393401131493079e+02
1.543070336880851379e+00 5.065865055731704274e+02
1.543170360886612524e+00 5.066334722572556757e+02
1.543270384892374114e+00 5.066802348686162532e+02
1.543370408898135260e+00 5.067267881264230027e+02
1.543470432903896850e+00 5.067731267662958317e+02
1.543570456909658439e+00 5.068192455407891543e+02
1.543670480915419807e+00 5.068651392198784720e+02
1.543770504921181175e+00 5.069108025914459859e+02
1.543870528926942542e+00 5.069562304617659265e+02
1.543970552932703910e+00 5.070014176559899965e+02
1.544070576938465278e+00 5.070463590186280953e+02
1.544170600944226646e+00 5.070910494140346714e+02
1.544270624949988013e+00 5.071354837268881965e+02
1.544370648955749381e+00 5.071796568626747330e+02
1.544470672961510749e+00 5.072235637481654180e+02
1.544570696967272116e+00 5.072671993318998602e+02
1.544670720973033484e+00 5.073105585846600434e+02
1.544770744978794852e+00 5.073536364999507100e+02
1.544870768984556220e+00 5.073964280944755956e+02
1.544970792990317587e+00 5.074389284086100815e+02
1.545070816996078955e+00 5.074811325068786800e+02
1.545170841001840323e+00 5.075230354784255269e+02
1.545270865007601691e+00 5.075646324374858978e+02
1.545370889013363058e+00 5.076059185238575537e+02
1.545470913019124648e+00 5.076468889033693586e+02
1.545570937024886016e+00 5.076875387683470535e+02
1.545670961030647383e+00 5.077278633380821589e+02
1.545770985036408751e+00 5.077678578592935992e+02
1.545871009042170119e+00 5.078075176065924552e+02
1.545971033047931487e+00 5.078468378829434187e+02
1.546071057053692854e+00 5.078858140201232345e+02
1.546171081059454222e+00 5.079244413791805641e+02
1.546271105065215590e+00 5.079627153508894821e+02
1.546371129070976957e+00 5.080006313562084870e+02
1.546471153076738325e+00 5.080381848467287114e+02
1.546571177082499693e+00 5.080753713051278737e+02
1.546671201088261061e+00 5.081121862456186022e+02
1.546771225094022428e+00 5.081486252143942579e+02
1.546871249099783796e+00 5.081846837900764058e+02
1.546971273105545164e+00 5.082203575841550673e+02
1.547071297111306531e+00 5.082556422414336339e+02
1.547171321117067899e+00 5.082905334404624682e+02
1.547271345122829489e+00 5.083250268939800662e+02
1.547371369128590857e+00 5.083591183493460335e+02
1.547471393134352224e+00 5.083928035889716170e+02
1.547571417140113592e+00 5.084260784307535346e+02
1.547671441145874960e+00 5.084589387284975146e+02
1.547771465151636328e+00 5.084913803723454180e+02
1.547871489157397695e+00 5.085233992891976413e+02
1.547971513163159063e+00 5.085549914431333605e+02
1.548071537168920431e+00 5.085861528358289547e+02
1.548171561174681798e+00 5.086168795069709176e+02
1.548271585180443166e+00 5.086471675346718939e+02
1.548371609186204534e+00 5.086770130358761435e+02
1.548471633191965902e+00 5.087064121667715995e+02
1.548571657197727269e+00 5.087353611231899322e+02
1.548671681203488637e+00 5.087638561410103648e+02
1.548771705209250005e+00 5.087918934965593962e+02
1.548871729215011372e+00 5.088194695070039302e+02
1.548971753220772740e+00 5.088465805307452001e+02
1.549071777226534108e+00 5.088732229678118415e+02
1.549171801232295920e+00 5.088993932602416521e+02
1.549271825238057065e+00 5.089250878924694916e+02
1.549371849243818655e+00 5.089503033917067114e+02
1.549471873249579801e+00 5.089750363283193337e+02
1.549571897255341391e+00 5.089992833162023089e+02
1.549671921261102536e+00 5.090230410131501912e+02
1.549771945266864126e+00 5.090463061212259959e+02
1.549871969272625272e+00 5.090690753871276684e+02
1.549971993278386861e+00 5.090913456025443793e+02
1.550072017284148007e+00 5.091131136045204926e+02
1.550172041289909597e+00 5.091343762758070852e+02
1.550272065295670743e+00 5.091551305452123870e+02
1.550372089301432332e+00 5.091753733879514812e+02
1.550472113307193478e+00 5.091951018259888997e+02
1.550572137312955068e+00 5.092143129283807070e+02
1.550672161318716213e+00 5.092330038116087962e+02
1.550772185324477803e+00 5.092511716399163220e+02
1.550872209330238949e+00 5.092688136256370512e+02
1.550972233336000761e+00 5.092859270295190868e+02
1.551072257341762128e+00 5.093025091610497839e+02
1.551172281347523496e+00 5.093185573787706062e+02
1.551272305353284864e+00 5.093340690905948804e+02
1.551372329359046232e+00 5.093490417541141824e+02
1.551472353364807599e+00 5.093634728769090998e+02
1.551572377370568967e+00 5.093773600168474900e+02
1.551672401376330335e+00 5.093907007823868298e+02
1.551772425382091702e+00 5.094034928328642309e+02
1.551872449387853070e+00 5.094157338787913432e+02
1.551972473393614438e+00 5.094274216821370374e+02
1.552072497399375806e+00 5.094385540566106556e+02
1.552172521405137173e+00 5.094491288679404306e+02
1.552272545410898541e+00 5.094591440341451971e+02
1.552372569416659909e+00 5.094685975258062172e+02
1.552472593422421276e+00 5.094774873663294557e+02
1.552572617428182644e+00 5.094858116322081401e+02
1.552672641433944012e+00 5.094935684532787832e+02
1.552772665439705380e+00 5.095007560129720332e+02
1.552872689445466969e+00 5.095073725485606246e+02
1.552972713451228337e+00 5.095134163514030661e+02
1.553072737456989705e+00 5.095188857671810183e+02
1.553172761462751073e+00 5.095237791961338303e+02
1.553272785468512440e+00 5.095280950932869359e+02
1.553372809474273808e+00 5.095318319686781479e+02
1.553472833480035176e+00 5.095349883875762202e+02
1.553572857485796543e+00 5.095375629706974223e+02
1.553672881491557911e+00 5.095395543944144947e+02
1.553772905497319279e+00 5.095409613909660607e+02
1.553872929503080647e+00 5.095417827486522810e+02
1.553972953508842014e+00 5.095420173120394338e+02
1.554072977514603382e+00 5.095416639821407898e+02
1.554173001520364750e+00 5.095407217166142573e+02
1.554273025526126117e+00 5.095391895299364364e+02
1.554373049531887485e+00 5.095370664935842342e+02
1.554473073537648853e+00 5.095343517362035755e+02
1.554573097543410221e+00 5.095310444437797059e+02
1.554673121549171810e+00 5.095271438597962970e+02
1.554773145554933178e+00 5.095226492853948344e+02
1.554873169560694546e+00 5.095175600795249693e+02
1.554973193566455913e+00 5.095118756590937892e+02
1.555073217572217281e+00 5.095055954991039471e+02
1.555173241577978649e+00 5.094987191327942355e+02
1.555273265583740017e+00 5.094912461517693600e+02
1.555373289589501384e+00 5.094831762061274958e+02
1.555473313595262752e+00 5.094745090045797156e+02
1.555573337601024120e+00 5.094652443145683378e+02
1.555673361606785488e+00 5.094553819623749860e+02
1.555773385612546855e+00 5.094449218332297846e+02
1.555873409618308223e+00 5.094338638714091303e+02
1.555973433624069591e+00 5.094222080803303925e+02
1.556073457629830958e+00 5.094099545226444548e+02
1.556173481635592326e+00 5.093971033203164325e+02
1.556273505641353694e+00 5.093836546547076978e+02
1.556373529647115062e+00 5.093696087666471612e+02
1.556473553652876429e+00 5.093549659565028378e+02
1.556573577658638019e+00 5.093397265842392017e+02
1.556673601664399609e+00 5.093238910694810215e+02
1.556773625670160754e+00 5.093074598915605975e+02
1.556873649675922344e+00 5.092904335895653389e+02
1.556973673681683490e+00 5.092728127623812497e+02
1.557073697687445080e+00 5.092545980687238512e+02
1.557173721693206225e+00 5.092357902271724015e+02
1.557273745698967815e+00 5.092163900161927472e+02
1.557373769704728961e+00 5.091963982741551717e+02
1.557473793710490551e+00 5.091758158993491179e+02
1.557573817716251696e+00 5.091546438499913734e+02
1.557673841722013286e+00 5.091328831442260139e+02
1.557773865727774432e+00 5.091105348601246305e+02
1.557873889733536021e+00 5.090876001356729148e+02
1.557973913739297167e+00 5.090640801687600288e+02
1.558073937745058757e+00 5.090399762171566636e+02
1.558173961750819903e+00 5.090152895984879251e+02
1.558273985756581492e+00 5.089900216902047418e+02
1.558374009762343082e+00 5.089641739295432785e+02
1.558474033768104450e+00 5.089377478134857711e+02
1.558574057773865817e+00 5.089107448987081739e+02
1.558674081779627185e+00 5.088831668015304786e+02
1.558774105785388553e+00 5.088550151978511735e+02
1.558874129791149921e+00 5.088262918230873311e+02
1.558974153796911288e+00 5.087969984720996308e+02
1.559074177802672656e+00 5.087671369991165307e+02
1.559174201808434024e+00 5.087367093176522417e+02
1.559274225814195391e+00 5.087057174004164608e+02
1.559374249819956759e+00 5.086741632792230803e+02
1.559474273825718127e+00 5.086420490448875853e+02
1.559574297831479495e+00 5.086093768471235990e+02
1.559674321837240862e+00 5.085761488944298208e+02
1.559774345843002230e+00 5.085423674539755439e+02
1.559874369848763598e+00 5.085080348514746902e+02
1.559974393854524966e+00 5.084731534710600727e+02
1.560074417860286333e+00 5.084377257551476532e+02
1.560174441866047701e+00 5.084017542042980722e+02
1.560274465871809291e+00 5.083652413770699354e+02
1.560374489877570658e+00 5.083281898898688382e+02
1.560474513883332026e+00 5.082906024167896817e+02
1.560574537889093394e+00 5.082524816894563173e+02
1.560674561894854762e+00 5.082138304968498232e+02
1.560774585900616129e+00 5.081746516851368369e+02
1.560874609906377497e+00 5.081349481574895322e+02
1.560974633912138865e+00 5.080947228738974673e+02
1.561074657917900232e+00 5.080539788509803429e+02
1.561174681923661600e+00 5.080127191617892777e+02
1.561274705929422968e+00 5.079709469356025124e+02
1.561374729935184336e+00 5.079286653577204333e+02
1.561474753940945703e+00 5.078858776692503625e+02
1.561574777946707071e+00 5.078425871668860054e+02
1.561674801952468439e+00 5.077987972026831471e+02
1.561774825958229806e+00 5.077545111838307434e+02
1.561874849963991174e+00 5.077097325724109851e+02
1.561974873969752542e+00 5.076644648851611805e+02
1.562074897975514132e+00 5.076187116932231902e+02
1.562174921981275499e+00 5.075724766218918376e+02
1.562274945987036867e+00 5.075257633503563284e+02
1.562374969992798235e+00 5.074785756114355308e+02
1.562474993998559603e+00 5.074309171913095042e+02
1.562575018004320970e+00 5.073827919292410797e+02
1.562675042010082338e+00 5.073342037173003973e+02
1.562775066015843706e+00 5.072851565000734126e+02
1.562875090021605073e+00 5.072356542743740988e+02
1.562975114027366441e+00 5.071857010889449384e+02
1.563075138033127809e+00 5.071353010441574725e+02
1.563175162038889177e+00 5.070844582916990930e+02
1.563275186044650544e+00 5.070331770342664868e+02
1.563375210050411912e+00 5.069814615252415706e+02
1.563475234056173280e+00 5.069293160683703263e+02
1.563575258061934647e+00 5.068767450174327109e+02
1.563675282067696015e+00 5.068237527759084742e+02
1.563775306073457383e+00 5.067703437966360980e+02
1.563875330079218751e+00 5.067165225814697465e+02
1.563975354084980562e+00 5.066622936809277462e+02
1.564075378090741708e+00 5.066076616938354391e+02
1.564175402096503298e+00 5.065526312669690014e+02
1.564275426102264444e+00 5.064972070946839722e+02
1.564375450108026033e+00 5.064413939185496929e+02
1.564475474113787179e+00 5.063851965269691391e+02
1.564575498119548769e+00 5.063286197548000018e+02
1.564675522125309914e+00 5.062716684829676410e+02
1.564775546131071504e+00 5.062143476380744573e+02
1.564875570136832650e+00 5.061566621920032958e+02
1.564975594142594240e+00 5.060986171615165858e+02
1.565075618148355385e+00 5.060402176078502521e+02
1.565175642154116975e+00 5.059814686363038163e+02
1.565275666159878121e+00 5.059223753958224279e+02
1.565375690165639710e+00 5.058629430785789509e+02
1.565475714171400856e+00 5.058031769195460470e+02
1.565575738177162446e+00 5.057430821960683147e+02
1.565675762182923592e+00 5.056826642274252208e+02
1.565775786188685403e+00 5.056219283743949404e+02
1.565875810194446771e+00 5.055608800388057489e+02
1.565975834200208139e+00 5.054995246630911083e+02
1.566075858205969507e+00 5.054378677298352045e+02
1.566175882211730874e+00 5.053759147613141067e+02
1.566275906217492242e+00 5.053136713190327214e+02
1.566375930223253610e+00 5.052511430032606086e+02
1.566475954229014977e+00 5.051883354525598406e+02
1.566575978234776345e+00 5.051252543433078017e+02
1.566676002240537713e+00 5.050619053892182819e+02
1.566776026246299081e+00 5.049982943408572851e+02
1.566876050252060448e+00 5.049344269851541753e+02
1.566976074257821816e+00 5.048703091449086742e+02
1.567076098263583184e+00 5.048059466782951858e+02
1.567176122269344551e+00 5.047413454783598468e+02
1.567276146275105919e+00 5.046765114725166086e+02
1.567376170280867287e+00 5.046114506220368980e+02
1.567476194286628655e+00 5.045461689215381966e+02
1.567576218292390022e+00 5.044806723984646055e+02
1.567676242298151612e+00 5.044149671125663872e+02
1.567776266303912980e+00 5.043490591553776312e+02
1.567876290309674348e+00 5.042829546496830062e+02
1.567976314315435715e+00 5.042166597489873539e+02
1.568076338321197083e+00 5.041501806369808492e+02
1.568176362326958451e+00 5.040835235269965438e+02
1.568276386332719818e+00 5.040166946614672270e+02
1.568376410338481186e+00 5.039497003113796154e+02
1.568476434344242554e+00 5.038825467757220053e+02
1.568576458350003922e+00 5.038152403809307884e+02
1.568676482355765289e+00 5.037477874803327040e+02
1.568776506361526657e+00 5.036801944535840221e+02
1.568876530367288025e+00 5.036124677061056900e+02
1.568976554373049392e+00 5.035446136685154670e+02
1.569076578378810760e+00 5.034766387960585234e+02
1.569176602384572128e+00 5.034085495680310487e+02
1.569276626390333496e+00 5.033403524872046546e+02
1.569376650396094863e+00 5.032720540792469137e+02
1.569476674401856453e+00 5.032036608921349057e+02
1.569576698407617821e+00 5.031351794955725154e+02
1.569676722413379188e+00 5.030666164803994889e+02
1.569776746419140556e+00 5.029979784580000342e+02
1.569876770424901924e+00 5.029292720597073298e+02
1.569976794430663292e+00 5.028605039362066691e+02
1.570076818436424659e+00 5.027916807569354205e+02
1.570176842442186027e+00 5.027228092094789531e+02
1.570276866447947395e+00 5.026538959989676414e+02
1.570376890453708763e+00 5.025849478474665375e+02
1.570476914459470130e+00 5.025159714933655550e+02
1.570576938465231498e+00 5.024469736907688002e+02
1.570676962470992866e+00 5.023779612088761155e+02
1.570776986476754233e+00 5.023089408313696822e+02
1.570877010482515601e+00 5.022399193557895387e+02
1.570977034488276969e+00 5.021709035929169431e+02
1.571077058494038337e+00 5.021019003661479019e+02
1.571177082499799704e+00 5.020329165108663005e+02
1.571277106505561072e+00 5.019639588738202747e+02
1.571377130511322662e+00 5.018950343124870983e+02
1.571477154517084251e+00 5.018261496944446662e+02
1.571577178522845397e+00 5.017573118967408163e+02
1.571677202528606987e+00 5.016885278052511126e+02
1.571777226534368133e+00 5.016198043140487925e+02
1.571877250540129722e+00 5.015511483247627211e+02
1.571977274545890868e+00 5.014825667459392093e+02
1.572077298551652458e+00 5.014140664924004795e+02
1.572177322557413603e+00 5.013456544846014253e+02
1.572277346563175193e+00 5.012773376479855187e+02
1.572377370568936339e+00 5.012091229123396943e+02
1.572477394574697929e+00 5.011410172111478118e+02
1.572577418580459074e+00 5.010730274809430398e+02
1.572677442586220664e+00 5.010051606606592713e+02
1.572777466591981810e+00 5.009374236909807223e+02
1.572877490597743400e+00 5.008698235136902781e+02
1.572977514603504545e+00 5.008023670710203987e+02
1.573077538609266135e+00 5.007350613049993626e+02
1.573177562615027725e+00 5.006679131567964305e+02
1.573277586620789092e+00 5.006009295660707039e+02
1.573377610626550460e+00 5.005341174703146407e+02
1.573477634632311828e+00 5.004674838042000147e+02
1.573577658638073196e+00 5.004010354989223401e+02
1.573677682643834563e+00 5.003347794815431939e+02
1.573777706649595931e+00 5.002687226743357201e+02
1.573877730655357299e+00 5.002028719941287704e+02
1.573977754661118666e+00 5.001372343516474075e+02
1.574077778666880034e+00 5.000718166508566469e+02
1.574177802672641402e+00 5.000066257883078151e+02
1.574277826678402770e+00 4.999416686524764941e+02
1.574377850684164137e+00 4.998769521231082535e+02
1.574477874689925505e+00 4.998124830705613704e+02
1.574577898695686873e+00 4.997482683551509695e+02
1.574677922701448241e+00 4.996843148264900947e+02
1.574777946707209608e+00 4.996206293228370896e+02
1.574877970712970976e+00 4.995572186704364412e+02
1.574977994718732344e+00 4.994940896828666155e+02
1.575078018724493933e+00 4.994312491603835156e+02
1.575178042730255301e+00 4.993687038892664987e+02
1.575278066736016669e+00 4.993064606411672912e+02
1.575378090741778037e+00 4.992445261724529360e+02
1.575478114747539404e+00 4.991829072235584590e+02
1.575578138753300772e+00 4.991216105183344212e+02
1.575678162759062140e+00 4.990606427633958333e+02
1.575778186764823507e+00 4.990000106474738004e+02
1.575878210770584875e+00 4.989397208407693824e+02
1.575978234776346243e+00 4.988797799943050677e+02
1.576078258782107611e+00 4.988201947392792022e+02
1.576178282787868978e+00 4.987609716864232610e+02
1.576278306793630346e+00 4.987021174253591198e+02
1.576378330799391714e+00 4.986436385239564970e+02
1.576478354805153081e+00 4.985855415276926692e+02
1.576578378810914449e+00 4.985278329590182125e+02
1.576678402816675817e+00 4.984705193167150128e+02
1.576778426822437185e+00 4.984136070752663841e+02
1.576878450828198774e+00 4.983571026842207061e+02
1.576978474833960142e+00 4.983010125675614290e+02
1.577078498839721510e+00 4.982453431230791239e+02
1.577178522845482878e+00 4.981901007217417146e+02
1.577278546851244245e+00 4.981352917070714739e+02
1.577378570857005613e+00 4.980809223945221902e+02
1.577478594862766981e+00 4.980269990708549130e+02
1.577578618868528348e+00 4.979735279935254084e+02
1.577678642874289716e+00 4.979205153900622918e+02
1.577778666880051084e+00 4.978679674574558476e+02
1.577878690885812452e+00 4.978158903615486111e+02
1.577978714891573819e+00 4.977642902364214024e+02
1.578078738897335187e+00 4.977131731837945381e+02
1.578178762903096555e+00 4.976625452724162528e+02
1.578278786908857922e+00 4.976124125374693676e+02
1.578378810914619290e+00 4.975627809799677834e+02
1.578478834920380658e+00 4.975136565661665600e+02
1.578578858926142026e+00 4.974650452269656853e+02
1.578678882931903393e+00 4.974169528573233947e+02
1.578778906937665205e+00 4.973693853156699447e+02
1.578878930943426351e+00 4.973223484233251384e+02
1.578978954949187941e+00 4.972758479639171014e+02
1.579078978954949086e+00 4.972298896828090164e+02
1.579179002960710676e+00 4.971844792865236400e+02
1.579279026966471822e+00 4.971396224421753800e+02
1.579379050972233411e+00 4.970953247769043060e+02
1.579479074977994557e+00 4.970515918773126600e+02
1.579579098983756147e+00 4.970084292889076210e+02
1.579679122989517293e+00 4.969658425155444661e+02
1.579779146995278882e+00 4.969238370188764975e+02
1.579879171001040028e+00 4.968824182178075830e+02
1.579979195006801618e+00 4.968415914879475395e+02
1.580079219012562763e+00 4.968013621610732571e+02
1.580179243018324353e+00 4.967617355245922681e+02
1.580279267024085499e+00 4.967227168210116020e+02
1.580379291029847089e+00 4.966843112474092550e+02
1.580479315035608234e+00 4.966465239549128228e+02
1.580579339041370046e+00 4.966093600481776775e+02
1.580679363047131414e+00 4.965728245848745814e+02
1.580779387052892782e+00 4.965369225751767885e+02
1.580879411058654149e+00 4.965016589812570373e+02
1.580979435064415517e+00 4.964670387167823264e+02
1.581079459070176885e+00 4.964330666464202295e+02
1.581179483075938252e+00 4.963997475853441870e+02
1.581279507081699620e+00 4.963670862987468126e+02
1.581379531087460988e+00 4.963350875013571795e+02
1.581479555093222356e+00 4.963037558569595262e+02
1.581579579098983723e+00 4.962730959779254363e+02
1.581679603104745091e+00 4.962431124247403886e+02
1.581779627110506459e+00 4.962138097055415074e+02
1.581879651116267826e+00 4.961851922756608246e+02
1.581979675122029194e+00 4.961572645371681460e+02
1.582079699127790562e+00 4.961300308384261939e+02
1.582179723133551930e+00 4.961034954736446707e+02
1.582279747139313297e+00 4.960776626824445543e+02
1.582379771145074887e+00 4.960525366494229615e+02
1.582479795150836255e+00 4.960281215037276752e+02
1.582579819156597623e+00 4.960044213186334332e+02
1.582679843162358990e+00 4.959814401111273128e+02
1.582779867168120358e+00 4.959591818414949103e+02
1.582879891173881726e+00 4.959376504129173782e+02
1.582979915179643093e+00 4.959168496710699969e+02
1.583079939185404461e+00 4.958967834037273406e+02
1.583179963191165829e+00 4.958774553403756045e+02
1.583279987196927197e+00 4.958588691518295946e+02
1.583380011202688564e+00 4.958410284498546616e+02
1.583480035208449932e+00 4.958239367867952296e+02
1.583580059214211300e+00 4.958075976552123620e+02
1.583680083219972667e+00 4.957920144875183723e+02
1.583780107225734035e+00 4.957771906556284875e+02
1.583880131231495403e+00 4.957631294706108633e+02
1.583980155237256771e+00 4.957498341823463761e+02
1.584080179243018138e+00 4.957373079791907458e+02
1.584180203248779506e+00 4.957255539876471744e+02
1.584280227254541096e+00 4.957145752720435894e+02
1.584380251260302463e+00 4.957043748342142635e+02
1.584480275266063831e+00 4.956949556131897339e+02
1.584580299271825199e+00 4.956863204848930877e+02
1.584680323277586567e+00 4.956784722618421029e+02
1.584780347283347934e+00 4.956714136928549692e+02
1.584880371289109302e+00 4.956651474627698235e+02
1.584980395294870670e+00 4.956596761921619532e+02
1.585080419300632038e+00 4.956550024370734491e+02
1.585180443306393405e+00 4.956511286887483720e+02
1.585280467312154773e+00 4.956480573733702499e+02
1.585380491317916141e+00 4.956457908518149225e+02
1.585480515323677508e+00 4.956443314193991796e+02
1.585580539329438876e+00 4.956436813056458845e+02
1.585680563335200244e+00 4.956438426740496652e+02
1.585780587340961612e+00 4.956448176218504500e+02
1.585880611346722979e+00 4.956466081798163259e+02
1.585980635352484347e+00 4.956492163120318537e+02
1.586080659358246159e+00 4.956526439156892252e+02
1.586180683364007304e+00 4.956568928208940861e+02
1.586280707369768894e+00 4.956619647904721546e+02
1.586380731375530040e+00 4.956678615197847080e+02
1.586480755381291630e+00 4.956745846365501507e+02
1.586580779387052775e+00 4.956821357006751896e+02
1.586680803392814365e+00 4.956905162040906134e+02
1.586780827398575511e+00 4.956997275705930406e+02
1.586880851404337101e+00 4.957097711556988884e+02
1.586980875410098246e+00 4.957206482464966939e+02
1.587080899415859836e+00 4.957323600615179089e+02
1.587180923421620982e+00 4.957449077506031472e+02
1.587280947427382571e+00 4.957582923947845757e+02
1.587380971433143717e+00 4.957725150061709769e+02
1.587480995438905307e+00 4.957875765278403151e+02
1.587581019444666453e+00 4.958034778337405442e+02
1.587681043450428042e+00 4.958202197285985449e+02
1.587781067456189188e+00 4.958378029478321309e+02
1.587881091461950778e+00 4.958562281574754707e+02
1.587981115467712367e+00 4.958754959541069525e+02
1.588081139473473735e+00 4.958956068647849520e+02
1.588181163479235103e+00 4.959165613469938307e+02
1.588281187484996471e+00 4.959383597885935160e+02
1.588381211490757838e+00 4.959610025077791420e+02
1.588481235496519206e+00 4.959844897530471144e+02
1.588581259502280574e+00 4.960088217031672002e+02
1.588681283508041941e+00 4.960339984671649063e+02
1.588781307513803309e+00 4.960600200843076095e+02
1.588881331519564677e+00 4.960868865241029084e+02
1.588981355525326045e+00 4.961145976862969178e+02
1.589081379531087412e+00 4.961431534008888775e+02
1.589181403536848780e+00 4.961725534281470118e+02
1.589281427542610148e+00 4.962027974586313235e+02
1.589381451548371516e+00 4.962338851132296895e+02
1.589481475554132883e+00 4.962658159431963441e+02
1.589581499559894251e+00 4.962985894301971257e+02
1.589681523565655619e+00 4.963322049863658094e+02
1.589781547571417208e+00 4.963666619543664069e+02
1.589881571577178576e+00 4.964019596074618903e+02
1.589981595582939944e+00 4.964380971495910444e+02
1.590081619588701312e+00 4.964750737154510603e+02
1.590181643594462679e+00 4.965128883705937142e+02
1.590281667600224047e+00 4.965515401115198983e+02
1.590381691605985415e+00 4.965910278657864865e+02
1.590481715611746782e+00 4.966313504921233744e+02
1.590581739617508150e+00 4.966725067805506342e+02
1.590681763623269518e+00 4.967144954525099365e+02
1.590781787629030886e+00 4.967573151609984166e+02
1.590881811634792253e+00 4.968009644907144775e+02
1.590981835640553621e+00 4.968454419582049013e+02
1.591081859646314989e+00 4.968907460120267388e+02
1.591181883652076356e+00 4.969368750329087447e+02
1.591281907657837724e+00 4.969838273339270813e+02
1.591381931663599092e+00 4.970316011606840334e+02
1.591481955669360460e+00 4.970801946914939435e+02
1.591581979675121827e+00 4.971296060375801176e+02
1.591682003680883417e+00 4.971798332432746292e+02
1.591782027686644785e+00 4.972308742862277882e+02
1.591882051692406153e+00 4.972827270776248838e+02
1.591982075698167520e+00 4.973353894624082727e+02
1.592082099703928888e+00 4.973888592195108345e+02
1.592182123709690256e+00 4.974431340620890296e+02
1.592282147715451623e+00 4.974982116377711918e+02
1.592382171721212991e+00 4.975540895289101968e+02
1.592482195726974359e+00 4.976107652528393146e+02
1.592582219732735727e+00 4.976682362621411926e+02
1.592682243738497094e+00 4.977264999449183733e+02
1.592782267744258462e+00 4.977855536250777959e+02
1.592882291750019830e+00 4.978453945626135919e+02
1.592982315755781197e+00 4.979060199539028986e+02
1.593082339761542565e+00 4.979674269320087774e+02
1.593182363767303933e+00 4.980296125669858043e+02
1.593282387773065301e+00 4.980925738661954938e+02
1.593382411778826668e+00 4.981563077746304202e+02
1.593482435784588258e+00 4.982208111752391915e+02
1.593582459790349848e+00 4.982860808892650084e+02
1.593682483796110994e+00 4.983521136765864412e+02
1.593782507801872583e+00 4.984189062360667890e+02
1.593882531807633729e+00 4.984864552059091807e+02
1.593982555813395319e+00 4.985547571640195770e+02
1.594082579819156464e+00 4.986238086283752864e+02
1.594182603824918054e+00 4.986936060574004728e+02
1.594282627830679200e+00 4.987641458503487115e+02
1.594382651836440790e+00 4.988354243476906049e+02
1.594482675842201935e+00 4.989074378315102649e+02
1.594582699847963525e+00 4.989801825259050929e+02
1.594682723853724671e+00 4.990536545973946545e+02
1.594782747859486260e+00 4.991278501553338742e+02
1.594882771865247406e+00 4.992027652523368602e+02
1.594982795871008996e+00 4.992783958846989663e+02
1.595082819876770142e+00 4.993547379928328382e+02
1.595182843882531731e+00 4.994317874617059374e+02
1.595282867888292877e+00 4.995095401212880688e+02
1.595382891894054689e+00 4.995879917470010696e+02
1.595482915899816057e+00 4.996671380601761143e+02
1.595582939905577424e+00 4.997469747285176709e+02
1.595682963911338792e+00 4.998274973665725724e+02
1.595782987917100160e+00 4.999087015362061379e+02
1.595883011922861527e+00 4.999905827470823851e+02
1.595983035928622895e+00 5.000731364571506106e+02
1.596083059934384263e+00 5.001563580731400407e+02
1.596183083940145631e+00 5.002402429510538013e+02
1.596283107945906998e+00 5.003247863966786326e+02
1.596383131951668366e+00 5.004099836660892038e+02
1.596483155957429734e+00 5.004958299661668093e+02
1.596583179963191101e+00 5.005823204551184631e+02
1.596683203968952469e+00 5.006694502430012221e+02
1.596783227974713837e+00 5.007572143922565147e+02
1.596883251980475205e+00 5.008456079182452640e+02
1.596983275986236572e+00 5.009346257897881856e+02
1.597083299991997940e+00 5.010242629297165422e+02
1.597183323997759530e+00 5.011145142154201153e+02
1.597283348003520898e+00 5.012053744794073964e+02
1.597383372009282265e+00 5.012968385098664612e+02
1.597483396015043633e+00 5.013889010512318691e+02
1.597583420020805001e+00 5.014815568047574743e+02
1.597683444026566368e+00 5.015748004290941822e+02
1.597783468032327736e+00 5.016686265408682743e+02
1.597883492038089104e+00 5.017630297152706476e+02
1.597983516043850472e+00 5.018580044866477010e+02
1.598083540049611839e+00 5.019535453490943837e+02
1.598183564055373207e+00 5.020496467570572463e+02
1.598283588061134575e+00 5.021463031259357876e+02
1.598383612066895942e+00 5.022435088326946016e+02
1.598483636072657310e+00 5.023412582164738751e+02
1.598583660078418678e+00 5.024395455792054008e+02
1.598683684084180046e+00 5.025383651862401848e+02
1.598783708089941413e+00 5.026377112669661074e+02
1.598883732095702781e+00 5.027375780154437734e+02
1.598983756101464149e+00 5.028379595910358830e+02
1.599083780107225738e+00 5.029388501190474585e+02
1.599183804112987106e+00 5.030402436913649353e+02
1.599283828118748474e+00 5.031421343671029831e+02
1.599383852124509842e+00 5.032445161732516681e+02
1.599483876130271209e+00 5.033473831053286176e+02
1.599583900136032577e+00 5.034507291280368690e+02
1.599683924141793945e+00 5.035545481759206154e+02
1.599783948147555313e+00 5.036588341540311831e+02
1.599883972153316680e+00 5.037635809385909624e+02
1.599983996159078048e+00 5.038687823776620007e+02
1.600084020164839416e+00 5.039744322918194257e+02
1.600184044170600783e+00 5.040805244748273708e+02
1.600284068176362151e+00 5.041870526943150139e+02
1.600384092182123519e+00 5.042940106924600059e+02
1.600484116187884887e+00 5.044013921866693408e+02
1.600584140193646254e+00 5.045091908702711407e+02
1.600684164199407622e+00 5.046174004131994479e+02
1.600784188205168990e+00 5.047260144626891929e+02
1.600884212210930801e+00 5.048350266439683764e+02
1.600984236216691947e+00 5.049444305609574144e+02
1.601084260222453537e+00 5.050542197969675726e+02
1.601184284228214683e+00 5.051643879154030969e+02
1.601284308233976272e+00 5.052749284604645936e+02
1.601384332239737418e+00 5.053858349578541720e+02
1.601484356245499008e+00 5.054971009154869535e+02
1.601584380251260153e+00 5.056087198241956457e+02
1.601684404257021743e+00 5.057206851584487595e+02
1.601784428262782889e+00 5.058329903770592182e+02
1.601884452268544479e+00 5.059456289239027456e+02
1.601984476274305624e+00 5.060585942286335239e+02
1.602084500280067214e+00 5.061718797074040594e+02
1.602184524285828360e+00 5.062854787635835692e+02
1.602284548291589950e+00 5.063993847884814272e+02
1.602384572297351095e+00 5.065135911620679963e+02
1.602484596303112685e+00 5.066280912537019958e+02
1.602584620308873831e+00 5.067428784228496284e+02
1.602684644314635420e+00 5.068579460198180300e+02
1.602784668320397010e+00 5.069732873864776366e+02
1.602884692326158378e+00 5.070888958569915985e+02
1.602984716331919746e+00 5.072047647585440586e+02
1.603084740337681113e+00 5.073208874120706469e+02
1.603184764343442481e+00 5.074372571329894299e+02
1.603284788349203849e+00 5.075538672319287343e+02
1.603384812354965216e+00 5.076707110154619045e+02
1.603484836360726584e+00 5.077877817868359216e+02
1.603584860366487952e+00 5.079050728467048543e+02
1.603684884372249320e+00 5.080225774938619452e+02
1.603784908378010687e+00 5.081402890259709011e+02
1.603884932383772055e+00 5.082582007402984345e+02
1.603984956389533423e+00 5.083763059344481121e+02
1.604084980395294791e+00 5.084945979070883482e+02
1.604185004401056158e+00 5.086130699586888113e+02
1.604285028406817526e+00 5.087317153922492707e+02
1.604385052412578894e+00 5.088505275140306026e+02
1.604485076418340261e+00 5.089694996342860804e+02
1.604585100424101851e+00 5.090886250679926661e+02
1.604685124429863219e+00 5.092078971355759904e+02
1.604785148435624587e+00 5.093273091636444860e+02
1.604885172441385954e+00 5.094468544857141978e+02
1.604985196447147322e+00 5.095665264429352987e+02
1.605085220452908690e+00 5.096863183848184349e+02
1.605185244458670057e+00 5.098062236699610139e+02
1.605285268464431425e+00 5.099262356667683207e+02
1.605385292470192793e+00 5.100463477541774751e+02
1.605485316475954161e+00 5.101665533223786042e+02
1.605585340481715528e+00 5.102868457735319794e+02
1.605685364487476896e+00 5.104072185224899840e+02
1.605785388493238264e+00 5.105276649975097030e+02
1.605885412498999631e+00 5.106481786409709684e+02
1.605985436504760999e+00 5.107687529100855386e+02
1.606085460510522367e+00 5.108893812776123013e+02
1.606185484516283735e+00 5.110100572325635540e+02
1.606285508522045102e+00 5.111307742809136698e+02
1.606385532527806470e+00 5.112515259463029906e+02
1.606485556533568060e+00 5.113723057707412636e+02
1.606585580539329428e+00 5.114931073153085208e+02
1.606685604545090795e+00 5.116139241608526618e+02
1.606785628550852163e+00 5.117347499086849894e+02
1.606885652556613531e+00 5.118555781812750638e+02
1.606985676562374898e+00 5.119764026229379965e+02
1.607085700568136266e+00 5.120972169005262913e+02
1.607185724573897634e+00 5.122180147041123064e+02
1.607285748579659002e+00 5.123387897476703756e+02
1.607385772585420369e+00 5.124595357697584177e+02
1.607485796591181737e+00 5.125802465341923835e+02
1.607585820596943105e+00 5.127009158307187136e+02
1.607685844602704472e+00 5.128215374756857727e+02
1.607785868608465840e+00 5.129421053127109644e+02
1.607885892614227208e+00 5.130626132133430701e+02
1.607985916619988576e+00 5.131830550777214057e+02
1.608085940625749943e+00 5.133034248352344093e+02
1.608185964631511311e+00 5.134237164451699300e+02
1.608285988637272901e+00 5.135439238973667671e+02
1.608386012643034491e+00 5.136640412128574553e+02
1.608486036648795636e+00 5.137840624445134381e+02
1.608586060654557226e+00 5.139039816776796670e+02
1.608686084660318372e+00 5.140237930308085197e+02
1.608786108666079961e+00 5.141434906560907621e+02
1.608886132671841107e+00 5.142630687400808256e+02
1.608986156677602697e+00 5.143825215043175376e+02
1.609086180683363843e+00 5.145018432059410998e+02
1.609186204689125432e+00 5.146210281383062011e+02
1.609286228694886578e+00 5.147400706315881962e+02
1.609386252700648168e+00 5.148589650533920121e+02
1.609486276706409313e+00 5.149777058093441156e+02
1.609586300712170903e+00 5.150962873436931204e+02
1.609686324717932049e+00 5.152147041398953888e+02
1.609786348723693639e+00 5.153329507212029057e+02
1.609886372729454784e+00 5.154510216512406942e+02
1.609986396735216374e+00 5.155689115345841174e+02
1.610086420740977520e+00 5.156866150173271990e+02
1.610186444746739332e+00 5.158041267876487836e+02
1.610286468752500699e+00 5.159214415763721036e+02
1.610386492758262067e+00 5.160385541575188881e+02
1.610486516764023435e+00 5.161554593488592673e+02
1.610586540769784802e+00 5.162721520124559902e+02
1.610686564775546170e+00 5.163886270552018232e+02
1.610786588781307538e+00 5.165048794293537640e+02
1.610886612787068906e+00 5.166209041330596392e+02
1.610986636792830273e+00 5.167366962108807229e+02
1.611086660798591641e+00 5.168522507543074198e+02
1.611186684804353009e+00 5.169675629022699468e+02
1.611286708810114376e+00 5.170826278416427613e+02
1.611386732815875744e+00 5.171974408077431917e+02
1.611486756821637112e+00 5.173119970848244975e+02
1.611586780827398480e+00 5.174262920065635853e+02
1.611686804833159847e+00 5.175403209565386078e+02
1.611786828838921215e+00 5.176540793687070163e+02
1.611886852844682583e+00 5.177675627278741786e+02
1.611986876850444173e+00 5.178807665701510814e+02
1.612086900856205540e+00 5.179936864834151038e+02
1.612186924861966908e+00 5.181063181077578292e+02
1.612286948867728276e+00 5.182186571359270602e+02
1.612386972873489643e+00 5.183306993137656491e+02
1.612486996879251011e+00 5.184424404406397571e+02
1.612587020885012379e+00 5.185538763698634739e+02
1.612687044890773747e+00 5.186650030091172994e+02
1.612787068896535114e+00 5.187758163208533233e+02
1.612887092902296482e+00 5.188863123227051801e+02
1.612987116908057850e+00 5.189964870878811780e+02
1.613087140913819217e+00 5.191063367455545858e+02
1.613187164919580585e+00 5.192158574812473262e+02
1.613287188925341953e+00 5.193250455372063925e+02
1.613387212931103321e+00 5.194338972127725356e+02
1.613487236936864688e+00 5.195424088647425833e+02
1.613587260942626056e+00 5.196505769077241439e+02
1.613687284948387424e+00 5.197583978144853063e+02
1.613787308954148791e+00 5.198658681162930861e+02
1.613887332959910381e+00 5.199729844032498249e+02
1.613987356965671749e+00 5.200797433246159471e+02
1.614087380971433117e+00 5.201861415891331717e+02
1.614187404977194484e+00 5.202921759653340814e+02
1.614287428982955852e+00 5.203978432818471447e+02
1.614387452988717220e+00 5.205031404276928697e+02
1.614487476994478587e+00 5.206080643525749565e+02
1.614587501000239955e+00 5.207126120671632634e+02
1.614687525006001323e+00 5.208167806433643818e+02
1.614787549011762691e+00 5.209205672145935750e+02
1.614887573017524058e+00 5.210239689760315969e+02
1.614987597023285426e+00 5.211269831848770764e+02
1.615087621029046794e+00 5.212296071605920815e+02
1.615187645034808162e+00 5.213318382851363140e+02
1.615287669040569529e+00 5.214336740031981208e+02
1.615387693046330897e+00 5.215351118224168658e+02
1.615487717052092265e+00 5.216361493135913179e+02
1.615587741057853632e+00 5.217367841108909943e+02
1.615687765063615444e+00 5.218370139120519298e+02
1.615787789069376590e+00 5.219368364785644872e+02
1.615887813075138180e+00 5.220362496358590079e+02
1.615987837080899325e+00 5.221352512734777065e+02
1.616087861086660915e+00 5.222338393452424725e+02
1.616187885092422061e+00 5.223320118694115308e+02
1.616287909098183651e+00 5.224297669288317820e+02
1.616387933103944796e+00 5.225271026710803426e+02
1.616487957109706386e+00 5.226240173085994911e+02
1.616587981115467532e+00 5.227205091188213828e+02
1.616688005121229121e+00 5.228165764442899217e+02
1.616788029126990267e+00 5.229122176927679675e+02
1.616888053132751857e+00 5.230074313373404493e+02
1.616988077138513002e+00 5.231022159165099765e+02
1.617088101144274592e+00 5.231965700342821037e+02
1.617188125150035738e+00 5.232904923602427516e+02
1.617288149155797328e+00 5.233839816296289200e+02
1.617388173161558473e+00 5.234770366433911022e+02
1.617488197167320063e+00 5.235696562682460353e+02
1.617588221173081653e+00 5.236618394367228575e+02
1.617688245178843021e+00 5.237535851471991464e+02
1.617788269184604388e+00 5.238448924639336610e+02
1.617888293190365756e+00 5.239357605170833949e+02
1.617988317196127124e+00 5.240261885027192648e+02
1.618088341201888491e+00 5.241161756828298621e+02
1.618188365207649859e+00 5.242057213853192934e+02
1.618288389213411227e+00 5.242948250039927416e+02
1.618388413219172595e+00 5.243834859985414596e+02
1.618488437224933962e+00 5.244717038945101422e+02
1.618588461230695330e+00 5.245594782832642977e+02
1.618688485236456698e+00 5.246468088219453421e+02
1.618788509242218066e+00 5.247336952334167108e+02
1.618888533247979433e+00 5.248201373062059929e+02
1.618988557253740801e+00 5.249061348944345582e+02
1.619088581259502169e+00 5.249916879177415012e+02
1.619188605265263536e+00 5.250767963611988307e+02
1.619288629271024904e+00 5.251614602752183600e+02
1.619388653276786494e+00 5.252456797754492754e+02
1.619488677282547862e+00 5.253294550426736578e+02
1.619588701288309229e+00 5.254127863226833597e+02
1.619688725294070597e+00 5.254956739261588154e+02
1.619788749299831965e+00 5.255781182285337536e+02
1.619888773305593332e+00 5.256601196698546801e+02
1.619988797311354700e+00 5.257416787546312662e+02
1.620088821317116068e+00 5.258227960516788926e+02
1.620188845322877436e+00 5.259034721939531210e+02
1.620288869328638803e+00 5.259837078783771176e+02
1.620388893334400171e+00 5.260635038656594133e+02
1.620488917340161539e+00 5.261428609801056382e+02
1.620588941345922906e+00 5.262217801094196830e+02
1.620688965351684274e+00 5.263002622045020189e+02
1.620788989357445642e+00 5.263783082792319874e+02
1.620889013363207010e+00 5.264559194102529318e+02
1.620989037368968377e+00 5.265330967367384574e+02
1.621089061374729745e+00 5.266098414601603963e+02
1.621189085380491113e+00 5.266861548440410843e+02
1.621289109386252703e+00 5.267620382137046136e+02
1.621389133392014070e+00 5.268374929560168312e+02
1.621489157397775438e+00 5.269125205191169243e+02
1.621589181403536806e+00 5.269871224121441173e+02
1.621689205409298173e+00 5.270613002049556144e+02
1.621789229415059541e+00 5.271350555278355614e+02
1.621889253420820909e+00 5.272083900711982096e+02
1.621989277426582277e+00 5.272813055852844855e+02
1.622089301432343644e+00 5.273538038798487833e+02
1.622189325438105012e+00 5.274258868238374589e+02
1.622289349443866380e+00 5.274975563450665277e+02
1.622389373449627747e+00 5.275688144298813995e+02
1.622489397455389115e+00 5.276396631228208207e+02
1.622589421461150483e+00 5.277101045262642174e+02
1.622689445466911851e+00 5.277801408000779020e+02
1.622789469472673218e+00 5.278497741612507070e+02
1.622889493478434586e+00 5.279190068835239344e+02
1.622989517484195954e+00 5.279878412970139152e+02
1.623089541489957544e+00 5.280562797878287711e+02
1.623189565495719133e+00 5.281243247976747170e+02
1.623289589501480279e+00 5.281919788234602038e+02
1.623389613507241869e+00 5.282592444168888051e+02
1.623489637513003014e+00 5.283261241840498315e+02
1.623589661518764604e+00 5.283926207849957564e+02
1.623689685524525750e+00 5.284587369333205515e+02
1.623789709530287340e+00 5.285244753957255170e+02
1.623889733536048485e+00 5.285898389915809048e+02
1.623989757541810075e+00 5.286548305924804936e+02
1.624089781547571221e+00 5.287194531217910480e+02
1.624189805553332810e+00 5.287837095541913186e+02
1.624289829559093956e+00 5.288476029152100182e+02
1.624389853564855546e+00 5.289111362807548176e+02
1.624489877570616692e+00 5.289743127766324733e+02
1.624589901576378281e+00 5.290371355780686144e+02
1.624689925582139427e+00 5.290996079092155924e+02
1.624789949587901017e+00 5.291617330426586250e+02
1.624889973593662162e+00 5.292235142989128462e+02
1.624989997599423974e+00 5.292849550459164902e+02
1.625090021605185342e+00 5.293460586985158898e+02
1.625190045610946710e+00 5.294068287179482013e+02
1.625290069616708077e+00 5.294672686113145801e+02
1.625390093622469445e+00 5.295273819310491490e+02
1.625490117628230813e+00 5.295871722743838745e+02
1.625590141633992181e+00 5.296466432828043480e+02
1.625690165639753548e+00 5.297057986415039750e+02
1.625790189645514916e+00 5.297646420788307751e+02
1.625890213651276284e+00 5.298231773657274744e+02
1.625990237657037651e+00 5.298814083151679597e+02
1.626090261662799019e+00 5.299393387815905498e+02
1.626190285668560387e+00 5.299969726603221716e+02
1.626290309674321755e+00 5.300543138869982158e+02
1.626390333680083122e+00 5.301113664369793241e+02
1.626490357685844490e+00 5.301681343247630593e+02
1.626590381691605858e+00 5.302246216033886412e+02
1.626690405697367225e+00 5.302808323638389538e+02
1.626790429703128815e+00 5.303367707344364135e+02
1.626890453708890183e+00 5.303924408802341759e+02
1.626990477714651551e+00 5.304478470024043872e+02
1.627090501720412918e+00 5.305029933376217741e+02
1.627190525726174286e+00 5.305578841574406397e+02
1.627290549731935654e+00 5.306125237676684492e+02
1.627390573737697022e+00 5.306669165077375965e+02
1.627490597743458389e+00 5.307210667500695536e+02
1.627590621749219757e+00 5.307749788994366327e+02
1.627690645754981125e+00 5.308286573923199967e+02
1.627790669760742492e+00 5.308821066962620989e+02
1.627890693766503860e+00 5.309353313092191229e+02
1.627990717772265228e+00 5.309883357589033039e+02
1.628090741778026596e+00 5.310411246021284342e+02
1.628190765783787963e+00 5.310937024241470681e+02
1.628290789789549331e+00 5.311460738379864779e+02
1.628390813795310699e+00 5.311982434837790379e+02
1.628490837801072066e+00 5.312502160280918133e+02
1.628590861806833434e+00 5.313019961632526247e+02
1.628690885812595024e+00 5.313535886066700868e+02
1.628790909818356392e+00 5.314049981001543301e+02
1.628890933824117759e+00 5.314562294092314687e+02
1.628990957829879127e+00 5.315072873224580690e+02
1.629090981835640495e+00 5.315581766507302746e+02
1.629191005841401862e+00 5.316089022265913400e+02
1.629291029847163230e+00 5.316594689035370038e+02
1.629391053852924598e+00 5.317098815553176792e+02
1.629491077858685966e+00 5.317601450752385972e+02
1.629591101864447333e+00 5.318102643754558585e+02
1.629691125870208701e+00 5.318602443862727114e+02
1.629791149875970069e+00 5.319100900554323061e+02
1.629891173881731437e+00 5.319598063474082892e+02
1.629991197887492804e+00 5.320093982426936918e+02
1.630091221893254172e+00 5.320588707370882275e+02
1.630191245899015540e+00 5.321082288409820649e+02
1.630291269904776907e+00 5.321574775786400551e+02
1.630391293910538275e+00 5.322066219874841408e+02
1.630491317916300087e+00 5.322556671173711038e+02
1.630591341922061233e+00 5.323046180298732679e+02
1.630691365927822822e+00 5.323534797975543142e+02
1.630791389933583968e+00 5.324022575032464601e+02
1.630891413939345558e+00 5.324509562393236592e+02
1.630991437945106703e+00 5.324995811069763931e+02
1.631091461950868293e+00 5.325481372154833934e+02
1.631191485956629439e+00 5.325966296814840462e+02
1.631291509962391029e+00 5.326450636282487494e+02
1.631391533968152174e+00 5.326934441849498398e+02
1.631491557973913764e+00 5.327417764859289946e+02
1.631591581979674910e+00 5.327900656699683850e+02
1.631691605985436500e+00 5.328383168795585334e+02
1.631791629991197645e+00 5.328865352601659424e+02
1.631891653996959235e+00 5.329347259595003834e+02
1.631991678002720381e+00 5.329828941267846858e+02
1.632091702008481970e+00 5.330310449120200929e+02
1.632191726014243116e+00 5.330791834652545731e+02
1.632291750020004706e+00 5.331273149358515866e+02
1.632391774025766296e+00 5.331754444717569186e+02
1.632491798031527663e+00 5.332235772187665361e+02
1.632591822037289031e+00 5.332717183197976283e+02
1.632691846043050399e+00 5.333198729141530521e+02
1.632791870048811766e+00 5.333680461367971475e+02
1.632891894054573134e+00 5.334162431176200698e+02
1.632991918060334502e+00 5.334644689807136047e+02
1.633091942066095870e+00 5.335127288436406161e+02
1.633191966071857237e+00 5.335610278167089291e+02
1.633291990077618605e+00 5.336093710022440746e+02
1.633392014083379973e+00 5.336577634938676056e+02
1.633492038089141341e+00 5.337062103757691602e+02
1.633592062094902708e+00 5.337547167219873927e+02
1.633692086100664076e+00 5.338032875956877206e+02
1.633792110106425444e+00 5.338519280484438241e+02
1.633892134112186811e+00 5.339006431195191453e+02
1.633992158117948179e+00 5.339494378351502064e+02
1.634092182123709547e+00 5.339983172078347025e+02
1.634192206129471137e+00 5.340472862356166388e+02
1.634292230135232504e+00 5.340963499013780620e+02
1.634392254140993872e+00 5.341455131721284033e+02
1.634492278146755240e+00 5.341947809983003026e+02
1.634592302152516607e+00 5.342441583130454319e+02
1.634692326158277975e+00 5.342936500315319108e+02
1.634792350164039343e+00 5.343432610502445641e+02
1.634892374169800711e+00 5.343929962462920003e+02
1.634992398175562078e+00 5.344428604767081197e+02
1.635092422181323446e+00 5.344928585777638546e+02
1.635192446187084814e+00 5.345429953642772034e+02
1.635292470192846181e+00 5.345932756289275858e+02
1.635392494198607549e+00 5.346437041415745171e+02
1.635492518204368917e+00 5.346942856485768516e+02
1.635592542210130285e+00 5.347450248721157777e+02
1.635692566215891652e+00 5.347959265095224737e+02
1.635792590221653020e+00 5.348469952326094017e+02
1.635892614227414388e+00 5.348982356870013746e+02
1.635992638233175756e+00 5.349496524914733300e+02
1.636092662238937345e+00 5.350012502372927656e+02
1.636192686244698713e+00 5.350530334875610379e+02
1.636292710250460081e+00 5.351050067765629592e+02
1.636392734256221448e+00 5.351571746091188970e+02
1.636492758261982816e+00 5.352095414599400556e+02
1.636592782267744184e+00 5.352621117729873959e+02
1.636692806273505552e+00 5.353148899608371494e+02
1.636792830279266919e+00 5.353678804040473551e+02
1.636892854285028287e+00 5.354210874505301945e+02
1.636992878290789655e+00 5.354745154149298969e+02
1.637092902296551022e+00 5.355281685780022372e+02
1.637192926302312390e+00 5.355820511860006263e+02
1.637292950308073758e+00 5.356361674500659547e+02
1.637392974313835126e+00 5.356905215456214364e+02
1.637492998319596493e+00 5.357451176117714340e+02
1.637593022325357861e+00 5.357999597507068756e+02
1.637693046331119229e+00 5.358550520271135156e+02
1.637793070336880596e+00 5.359103984675857646e+02
1.637893094342642186e+00 5.359660030600455229e+02
1.637993118348403776e+00 5.360218697531686303e+02
1.638093142354164922e+00 5.360780024558116565e+02
1.638193166359926511e+00 5.361344050364466511e+02
1.638293190365687657e+00 5.361910813226036225e+02
1.638393214371449247e+00 5.362480351003130181e+02
1.638493238377210393e+00 5.363052701135583220e+02
1.638593262382971982e+00 5.363627900637316088e+02
1.638693286388733128e+00 5.364205986090962597e+02
1.638793310394494718e+00 5.364786993642551352e+02
1.638893334400255863e+00 5.365370958996212494e+02
1.638993358406017453e+00 5.365957917409019728e+02
1.639093382411778599e+00 5.366547903685788015e+02
1.639193406417540189e+00 5.367140952174027007e+02
1.639293430423301334e+00 5.367737096758896769e+02
1.639393454429062924e+00 5.368336370858232840e+02
1.639493478434824070e+00 5.368938807417663384e+02
1.639593502440585659e+00 5.369544438905745665e+02
1.639693526446346805e+00 5.370153297309192340e+02
1.639793550452108617e+00 5.370765414128159136e+02
1.639893574457869985e+00 5.371380820371585969e+02
1.639993598463631352e+00 5.371999546552610809e+02
1.640093622469392720e+00 5.372621622684043814e+02
1.640193646475154088e+00 5.373247078273934676e+02
1.640293670480915456e+00 5.373875942321142247e+02
1.640393694486676823e+00 5.374508243311049682e+02
1.640493718492438191e+00 5.375144009211259117e+02
1.640593742498199559e+00 5.375783267467484166e+02
1.640693766503960926e+00 5.376426044999346914e+02
1.640793790509722294e+00 5.377072368196381831e+02
1.640893814515483662e+00 5.377722262914037401e+02
1.640993838521245030e+00 5.378375754469770982e+02
1.641093862527006397e+00 5.379032867639210735e+02
1.641193886532767765e+00 5.379693626652383500e+02
1.641293910538529133e+00 5.380358055190033610e+02
1.641393934544290500e+00 5.381026176379976960e+02
1.641493958550051868e+00 5.381698012793585804e+02
1.641593982555813458e+00 5.382373586442265605e+02
1.641694006561574826e+00 5.383052918774098998e+02
1.641794030567336193e+00 5.383736030670489754e+02
1.641894054573097561e+00 5.384422942442902240e+02
1.641994078578858929e+00 5.385113673829707750e+02
1.642094102584620297e+00 5.385808243993067208e+02
1.642194126590381664e+00 5.386506671515901417e+02
1.642294150596143032e+00 5.387208974398942019e+02
1.642394174601904400e+00 5.387915170057850673e+02
1.642494198607665767e+00 5.388625275320434866e+02
1.642594222613427135e+00 5.389339306423908056e+02
1.642694246619188503e+00 5.390057279012281697e+02
1.642794270624949871e+00 5.390779208133737939e+02
1.642894294630711238e+00 5.391505108238221737e+02
1.642994318636472606e+00 5.392234993174965894e+02
1.643094342642233974e+00 5.392968876190200262e+02
1.643194366647995341e+00 5.393706769924887112e+02
1.643294390653756709e+00 5.394448686412572442e+02
1.643394414659518077e+00 5.395194637077254356e+02
1.643494438665279667e+00 5.395944632731412867e+02
1.643594462671041034e+00 5.396698683574078359e+02
1.643694486676802402e+00 5.397456799188960304e+02
1.643794510682563770e+00 5.398218988542687384e+02
1.643894534688325137e+00 5.398985259983147671e+02
1.643994558694086505e+00 5.399755621237848118e+02
1.644094582699847873e+00 5.400530079412404802e+02
1.644194606705609241e+00 5.401308640989115020e+02
1.644294630711370608e+00 5.402091311825578259e+02
1.644394654717131976e+00 5.402878097153446788e+02
1.644494678722893344e+00 5.403669001577183053e+02
1.644594702728654712e+00 5.404464029073010352e+02
1.644694726734416079e+00 5.405263182987830533e+02
1.644794750740177447e+00 5.406066466038309954e+02
1.644894774745938815e+00 5.406873880309998412e+02
1.644994798751700182e+00 5.407685427256565163e+02
1.645094822757461550e+00 5.408501107699081558e+02
1.645194846763222918e+00 5.409320921825436699e+02
1.645294870768984730e+00 5.410144869189776955e+02
1.645394894774745875e+00 5.410972948712070547e+02
1.645494918780507465e+00 5.411805158677749432e+02
1.645594942786268611e+00 5.412641496737428497e+02
1.645694966792030201e+00 5.413481959906696375e+02
1.645794990797791346e+00 5.414326544566029042e+02
1.645895014803552936e+00 5.415175246460732978e+02
1.645995038809314082e+00 5.416028060701005415e+02
1.646095062815075671e+00 5.416884981762107145e+02
1.646195086820836817e+00 5.417746003484520543e+02
1.646295110826598407e+00 5.418611119074322460e+02
1.646395134832359552e+00 5.419480321103516189e+02
1.646495158838121142e+00 5.420353601510548742e+02
1.646595182843882288e+00 5.421230951600839489e+02
1.646695206849643878e+00 5.422112362047430452e+02
1.646795230855405023e+00 5.422997822891708211e+02
1.646895254861166613e+00 5.423887323544200854e+02
1.646995278866927759e+00 5.424780852785481784e+02
1.647095302872689349e+00 5.425678398767141744e+02
1.647195326878450938e+00 5.426579949012821089e+02
1.647295350884212306e+00 5.427485490419367125e+02
1.647395374889973674e+00 5.428395009258057371e+02
1.647495398895735041e+00 5.429308491175893323e+02
1.647595422901496409e+00 5.430225921196982881e+02
1.647695446907257777e+00 5.431147283724012595e+02
1.647795470913019145e+00 5.432072562539796081e+02
1.647895494918780512e+00 5.433001740808904287e+02
1.647995518924541880e+00 5.433934801079373074e+02
1.648095542930303248e+00 5.434871725284508557e+02
1.648195566936064616e+00 5.435812494744752712e+02
1.648295590941825983e+00 5.436757090169625144e+02
1.648395614947587351e+00 5.437705491659783092e+02
1.648495638953348719e+00 5.438657678709130323e+02
1.648595662959110086e+00 5.439613630206998778e+02
1.648695686964871454e+00 5.440573324440442775e+02
1.648795710970632822e+00 5.441536739096577548e+02
1.648895734976394190e+00 5.442503851265034882e+02
1.648995758982155779e+00 5.443474637440439210e+02
1.649095782987917147e+00 5.444449073525042877e+02
1.649195806993678515e+00 5.445427134831368221e+02
1.649295830999439882e+00 5.446408796084942878e+02
1.649395855005201250e+00 5.447394031427164691e+02
1.649495879010962618e+00 5.448382814418171165e+02
1.649595903016723986e+00 5.449375118039828294e+02
1.649695927022485353e+00 5.450370914698769411e+02
1.649795951028246721e+00 5.451370176229559092e+02
1.649895975034008089e+00 5.452372873897869567e+02
1.649995999039769456e+00 5.453378978403757174e+02
1.650096023045530824e+00 5.454388459885050224e+02
1.650196047051292192e+00 5.455401287920751656e+02
1.650296071057053560e+00 5.456417431534543994e+02
1.650396095062814927e+00 5.457436859198379580e+02
1.650496119068576295e+00 5.458459538836106049e+02
1.650596143074337663e+00 5.459485437827223677e+02
1.650696167080099030e+00 5.460514523010637049e+02
1.650796191085860398e+00 5.461546760688552240e+02
1.650896215091621988e+00 5.462582116630391056e+02
1.650996239097383356e+00 5.463620556076814410e+02
1.651096263103144723e+00 5.464662043743794584e+02
1.651196287108906091e+00 5.465706543826730694e+02
1.651296311114667459e+00 5.466754020004705126e+02
1.651396335120428827e+00 5.467804435444739966e+02
1.651496359126190194e+00 5.468857752806151211e+02
1.651596383131951562e+00 5.469913934244968914e+02
1.651696407137712930e+00 5.470972941418406208e+02
1.651796431143474297e+00 5.472034735489430659e+02
1.651896455149235665e+00 5.473099277131357212e+02
1.651996479154997033e+00 5.474166526532533226e+02
1.652096503160758401e+00 5.475236443401086035e+02
1.652196527166519768e+00 5.476308986969715988e+02
1.652296551172281136e+00 5.477384116000583845e+02
1.652396575178042504e+00 5.478461788790225455e+02
1.652496599183803871e+00 5.479541963174544890e+02
1.652596623189565239e+00 5.480624596533873500e+02
1.652696647195326829e+00 5.481709645798089241e+02
1.652796671201088419e+00 5.482797067451772364e+02
1.652896695206849564e+00 5.483886817539444110e+02
1.652996719212611154e+00 5.484978851670869062e+02
1.653096743218372300e+00 5.486073125026368871e+02
1.653196767224133890e+00 5.487169592362271260e+02
1.653296791229895035e+00 5.488268208016332892e+02
1.653396815235656625e+00 5.489368925913272506e+02
1.653496839241417771e+00 5.490471699570326791e+02
1.653596863247179360e+00 5.491576482102896080e+02
1.653696887252940506e+00 5.492683226230196851e+02
1.653796911258702096e+00 5.493791884281006332e+02
1.653896935264463242e+00 5.494902408199434376e+02
1.653996959270224831e+00 5.496014749550763554e+02
1.654096983275985977e+00 5.497128859527319946e+02
1.654197007281747567e+00 5.498244688954404182e+02
1.654297031287508712e+00 5.499362188296299792e+02
1.654397055293270302e+00 5.500481307662241761e+02
1.654497079299031448e+00 5.501601996812549942e+02
1.654597103304793260e+00 5.502724205164715841e+02
1.654697127310554627e+00 5.503847881799582638e+02
1.654797151316315995e+00 5.504972975467535434e+02
1.654897175322077363e+00 5.506099434594781314e+02
1.654997199327838731e+00 5.507227207289628268e+02
1.655097223333600098e+00 5.508356241348827780e+02
1.655197247339361466e+00 5.509486484263952661e+02
1.655297271345122834e+00 5.510617883227830589e+02
1.655397295350884201e+00 5.511750385140982189e+02
1.655497319356645569e+00 5.512883936618142116e+02
1.655597343362406937e+00 5.514018483994775579e+02
1.655697367368168305e+00 5.515153973333666499e+02
1.655797391373929672e+00 5.516290350431512479e+02
1.655897415379691040e+00 5.517427560825589126e+02
1.655997439385452408e+00 5.518565549800412100e+02
1.656097463391213775e+00 5.519704262394454872e+02
1.656197487396975143e+00 5.520843643406893761e+02
1.656297511402736511e+00 5.521983637404393903e+02
1.656397535408498101e+00 5.523124188727899764e+02
1.656497559414259468e+00 5.524265241499485910e+02
1.656597583420020836e+00 5.525406739629220283e+02
1.656697607425782204e+00 5.526548626822064989e+02
1.656797631431543572e+00 5.527690846584773681e+02
1.656897655437304939e+00 5.528833342232874202e+02
1.656997679443066307e+00 5.529976056897622811e+02
1.657097703448827675e+00 5.531118933533007294e+02
1.657197727454589042e+00 5.532261914922762571e+02
1.657297751460350410e+00 5.533404943687428386e+02
1.657397775466111778e+00 5.534547962291391059e+02
1.657497799471873146e+00 5.535690913050005975e+02
1.657597823477634513e+00 5.536833738136679131e+02
1.657697847483395881e+00 5.537976379589981661e+02
1.657797871489157249e+00 5.539118779320851900e+02
1.657897895494918616e+00 5.540260879119650781e+02
1.657997919500679984e+00 5.541402620663468497e+02
1.658097943506441352e+00 5.542543945523214006e+02
1.658197967512202720e+00 5.543684795170863708e+02
1.658297991517964309e+00 5.544825110986670325e+02
1.658398015523725677e+00 5.545964834266410435e+02
1.658498039529487045e+00 5.547103906228612686e+02
1.658598063535248412e+00 5.548242268021799646e+02
1.658698087541009780e+00 5.549379860731792178e+02
1.658798111546771148e+00 5.550516625388918328e+02
1.658898135552532516e+00 5.551652502975367725e+02
1.658998159558293883e+00 5.552787434432400460e+02
1.659098183564055251e+00 5.553921360667700355e+02
1.659198207569816619e+00 5.555054222562637278e+02
1.659298231575577987e+00 5.556185960979562424e+02
1.659398255581339354e+00 5.557316516769133159e+02
1.659498279587100722e+00 5.558445830777608307e+02
1.659598303592862090e+00 5.559573843854133202e+02
1.659698327598623457e+00 5.560700496858083852e+02
1.659798351604384825e+00 5.561825730666325853e+02
1.659898375610146193e+00 5.562949486180550593e+02
1.659998399615907561e+00 5.564071704334552351e+02
1.660098423621669372e+00 5.565192326101529261e+02
1.660198447627430518e+00 5.566311292501380876e+02
1.660298471633192108e+00 5.567428544607977301e+02
1.660398495638953253e+00 5.568544023556437423e+02
1.660498519644714843e+00 5.569657670550409421e+02
1.660598543650475989e+00 5.570769426869323979e+02
1.660698567656237579e+00 5.571879233875636146e+02
1.660798591661998724e+00 5.572987033022078549e+02
1.660898615667760314e+00 5.574092765858877101e+02
1.660998639673521460e+00 5.575196374040970113e+02
1.661098663679283050e+00 5.576297799335218315e+02
1.661198687685044195e+00 5.577396983627581903e+02
1.661298711690805785e+00 5.578493868930286226e+02
1.661398735696566931e+00 5.579588397388997691e+02
1.661498759702328520e+00 5.580680511289941705e+02
1.661598783708089666e+00 5.581770153067029696e+02
1.661698807713851256e+00 5.582857265308957722e+02
1.661798831719612402e+00 5.583941790766301665e+02
1.661898855725373991e+00 5.585023672358539670e+02
1.661998879731135581e+00 5.586102853181140517e+02
1.662098903736896949e+00 5.587179276512525803e+02
1.662198927742658316e+00 5.588252885821100335e+02
1.662298951748419684e+00 5.589323624772196126e+02
1.662398975754181052e+00 5.590391437235011836e+02
1.662498999759942420e+00 5.591456267289552216e+02
1.662599023765703787e+00 5.592518059233468648e+02
1.662699047771465155e+00 5.593576757588964483e+02
1.662799071777226523e+00 5.594632307109590101e+02
1.662899095782987891e+00 5.595684652787047071e+02
1.662999119788749258e+00 5.596733739857978662e+02
1.663099143794510626e+00 5.597779513810664866e+02
1.663199167800271994e+00 5.598821920391754929e+02
1.663299191806033361e+00 5.599860905612935085e+02
1.663399215811794729e+00 5.600896415757537170e+02
1.663499239817556097e+00 5.601928397387156338e+02
1.663599263823317465e+00 5.602956797348228974e+02
1.663699287829078832e+00 5.603981562778512853e+02
1.663799311834840422e+00 5.605002641113611617e+02
1.663899335840601790e+00 5.606019980093411732e+02
1.663999359846363157e+00 5.607033527768483054e+02
1.664099383852124525e+00 5.608043232506460072e+02
1.664199407857885893e+00 5.609049042998353798e+02
1.664299431863647261e+00 5.610050908264835243e+02
1.664399455869408628e+00 5.611048777662493876e+02
1.664499479875169996e+00 5.612042600890016502e+02
1.664599503880931364e+00 5.613032327994353636e+02
1.664699527886692731e+00 5.614017909376808575e+02
1.664799551892454099e+00 5.614999295799104857e+02
1.664899575898215467e+00 5.615976438389407122e+02
1.664999599903976835e+00 5.616949288648285119e+02
1.665099623909738202e+00 5.617917798454615195e+02
1.665199647915499570e+00 5.618881920071464720e+02
1.665299671921260938e+00 5.619841606151896940e+02
1.665399695927022305e+00 5.620796809744751954e+02
1.665499719932783673e+00 5.621747484300333326e+02
1.665599743938545041e+00 5.622693583676114031e+02
1.665699767944306631e+00 5.623635062142285506e+02
1.665799791950067998e+00 5.624571874387374919e+02
1.665899815955829366e+00 5.625503975523698728e+02
1.665999839961590734e+00 5.626431321092818507e+02
1.666099863967352102e+00 5.627353867070958131e+02
1.666199887973113469e+00 5.628271569874287934e+02
1.666299911978874837e+00 5.629184386364239572e+02
1.666399935984636205e+00 5.630092273852690141e+02
1.666499959990397572e+00 5.630995190107153121e+02
1.666599983996158940e+00 5.631893093355840847e+02
1.666700008001920308e+00 5.632785942292725849e+02
1.666800032007681676e+00 5.633673696082511242e+02
1.666900056013443043e+00 5.634556314365546541e+02
1.667000080019204411e+00 5.635433757262674135e+02
1.667100104024965779e+00 5.636305985380028005e+02
1.667200128030727146e+00 5.637172959813756279e+02
1.667300152036488514e+00 5.638034642154689209e+02
1.667400176042249882e+00 5.638890994492927575e+02
1.667500200048011472e+00 5.639741979422385612e+02
1.667600224053773061e+00 5.640587560045257760e+02
1.667700248059534207e+00 5.641427699976403574e+02
1.667800272065295797e+00 5.642262363347713290e+02
1.667900296071056943e+00 5.643091514812347214e+02
1.668000320076818532e+00 5.643915119548947814e+02
1.668100344082579678e+00 5.644733143265755189e+02
1.668200368088341268e+00 5.645545552204688420e+02
1.668300392094102413e+00 5.646352313145328026e+02
1.668400416099864003e+00 5.647153393408838156e+02
1.668500440105625149e+00 5.647948760861803521e+02
1.668600464111386739e+00 5.648738383920034494e+02
1.668700488117147884e+00 5.649522231552251696e+02
1.668800512122909474e+00 5.650300273283737624e+02
1.668900536128670620e+00 5.651072479199892769e+02
1.669000560134432209e+00 5.651838819949729213e+02
1.669100584140193355e+00 5.652599266749282378e+02
1.669200608145954945e+00 5.653353791384961369e+02
1.669300632151716091e+00 5.654102366216803830e+02
1.669400656157477902e+00 5.654844964181693285e+02
1.669500680163239270e+00 5.655581558796448007e+02
1.669600704169000638e+00 5.656312124160899657e+02
1.669700728174762006e+00 5.657036634960825268e+02
1.669800752180523373e+00 5.657755066470859902e+02
1.669900776186284741e+00 5.658467394557310399e+02
1.670000800192046109e+00 5.659173595680873632e+02
1.670100824197807476e+00 5.659873646899327468e+02
1.670200848203568844e+00 5.660567525870083045e+02
1.670300872209330212e+00 5.661255210852717710e+02
1.670400896215091580e+00 5.661936680711363579e+02
1.670500920220852947e+00 5.662611914917092690e+02
1.670600944226614315e+00 5.663280893550169139e+02
1.670700968232375683e+00 5.663943597302237549e+02
1.670800992238137050e+00 5.664600007478424004e+02
1.670901016243898418e+00 5.665250105999397192e+02
1.671001040249659786e+00 5.665893875403266975e+02
1.671101064255421154e+00 5.666531298847517064e+02
1.671201088261182743e+00 5.667162360110737609e+02
1.671301112266944111e+00 5.667787043594372562e+02
1.671401136272705479e+00 5.668405334324326077e+02
1.671501160278466847e+00 5.669017217952524561e+02
1.671601184284228214e+00 5.669622680758366187e+02
1.671701208289989582e+00 5.670221709650112416e+02
1.671801232295750950e+00 5.670814292166189716e+02
1.671901256301512317e+00 5.671400416476425335e+02
1.672001280307273685e+00 5.671980071383159157e+02
1.672101304313035053e+00 5.672553246322319183e+02
1.672201328318796421e+00 5.673119931364387867e+02
1.672301352324557788e+00 5.673680117215299106e+02
1.672401376330319156e+00 5.674233795217252236e+02
1.672501400336080524e+00 5.674780957349428263e+02
1.672601424341841891e+00 5.675321596228643557e+02
1.672701448347603259e+00 5.675855705109916016e+02
1.672801472353364627e+00 5.676383277886939140e+02
1.672901496359125995e+00 5.676904309092470839e+02
1.673001520364887362e+00 5.677418793898672220e+02
1.673101544370648952e+00 5.677926728117313360e+02
1.673201568376410320e+00 5.678428108199944973e+02
1.673301592382171687e+00 5.678922931237955254e+02
1.673401616387933055e+00 5.679411194962544869e+02
1.673501640393694423e+00 5.679892897744642823e+02
1.673601664399455791e+00 5.680368038594731388e+02
1.673701688405217158e+00 5.680836617162547100e+02
1.673801712410978526e+00 5.681298633736785177e+02
1.673901736416739894e+00 5.681754089244625447e+02
1.674001760422501262e+00 5.682202985251254859e+02
1.674101784428262629e+00 5.682645323959250163e+02
1.674201808434023997e+00 5.683081108207910574e+02
1.674301832439785365e+00 5.683510341472514256e+02
1.674401856445546732e+00 5.683933027863452025e+02
1.674501880451308100e+00 5.684349172125326959e+02
1.674601904457069468e+00 5.684758779635955079e+02
1.674701928462830836e+00 5.685161856405259186e+02
1.674801952468592203e+00 5.685558409074114934e+02
1.674901976474354015e+00 5.685948444913115054e+02
1.675002000480115161e+00 5.686331971821218758e+02
1.675102024485876751e+00 5.686708998324379536e+02
1.675202048491637896e+00 5.687079533573995604e+02
1.675302072497399486e+00 5.687443587345410378e+02
1.675402096503160632e+00 5.687801170036220810e+02
1.675502120508922221e+00 5.688152292664553897e+02
1.675602144514683367e+00 5.688496966867269293e+02
1.675702168520444957e+00 5.688835204898063012e+02
1.675802192526206102e+00 5.689167019625492685e+02
1.675902216531967692e+00 5.689492424530953940e+02
1.676002240537728838e+00 5.689811433706536263e+02
1.676102264543490428e+00 5.690124061852834529e+02
1.676202288549251573e+00 5.690430324276660485e+02
1.676302312555013163e+00 5.690730236888674654e+02
1.676402336560774309e+00 5.691023816200988676e+02
1.676502360566535899e+00 5.691311079324609636e+02
1.676602384572297044e+00 5.691592043966877554e+02
1.676702408578058634e+00 5.691866728428797160e+02
1.676802432583820224e+00 5.692135151602296901e+02
1.676902456589581591e+00 5.692397332967414059e+02
1.677002480595342959e+00 5.692653292589409375e+02
1.677102504601104327e+00 5.692903051115787321e+02
1.677202528606865695e+00 5.693146629773275436e+02
1.677302552612627062e+00 5.693384050364705899e+02
1.677402576618388430e+00 5.693615335265834574e+02
1.677502600624149798e+00 5.693840507422071369e+02
1.677602624629911165e+00 5.694059590345161723e+02
1.677702648635672533e+00 5.694272608109770317e+02
1.677802672641433901e+00 5.694479585350039770e+02
1.677902696647195269e+00 5.694680547256000409e+02
1.678002720652956636e+00 5.694875519569994822e+02
1.678102744658718004e+00 5.695064528582977346e+02
1.678202768664479372e+00 5.695247601130757857e+02
1.678302792670240740e+00 5.695424764590184168e+02
1.678402816676002107e+00 5.695596046875241427e+02
1.678502840681763475e+00 5.695761476433124244e+02
1.678602864687525065e+00 5.695921082240172382e+02
1.678702888693286432e+00 5.696074893797801906e+02
1.678802912699047800e+00 5.696222941128336288e+02
1.678902936704809168e+00 5.696365254770788624e+02
1.679002960710570536e+00 5.696501865776587010e+02
1.679102984716331903e+00 5.696632805705174860e+02
1.679203008722093271e+00 5.696758106619654427e+02
1.679303032727854639e+00 5.696877801082264341e+02
1.679403056733616006e+00 5.696991922149861693e+02
1.679503080739377374e+00 5.697100503369296121e+02
1.679603104745138742e+00 5.697203578772774790e+02
1.679703128750900110e+00 5.697301182873106882e+02
1.679803152756661477e+00 5.697393350658931013e+02
1.679903176762422845e+00 5.697480117589881274e+02
1.680003200768184213e+00 5.697561519591664592e+02
1.680103224773945580e+00 5.697637593051111935e+02
1.680203248779706948e+00 5.697708374811161320e+02
1.680303272785468316e+00 5.697773902165780555e+02
1.680403296791229684e+00 5.697834212854833140e+02
1.680503320796991273e+00 5.697889345058886192e+02
1.680603344802752641e+00 5.697939337394000177e+02
1.680703368808514009e+00 5.697984228906407225e+02
1.680803392814275377e+00 5.698024059067170128e+02
1.680903416820036744e+00 5.698058867766791309e+02
1.681003440825798112e+00 5.698088695309759260e+02
1.681103464831559480e+00 5.698113582409050650e+02
1.681203488837320847e+00 5.698133570180572178e+02
1.681303512843082215e+00 5.698148700137575133e+02
1.681403536848843583e+00 5.698159014184989246e+02
1.681503560854604951e+00 5.698164554613747441e+02
1.681603584860366318e+00 5.698165364095020777e+02
1.681703608866127686e+00 5.698161485674449978e+02
1.681803632871889054e+00 5.698152962766301926e+02
1.681903656877650421e+00 5.698139839147601151e+02
1.682003680883411789e+00 5.698122158952187419e+02
1.682103704889173157e+00 5.698099966664786962e+02
1.682203728894934525e+00 5.698073307114949557e+02
1.682303752900696114e+00 5.698042225471061784e+02
1.682403776906457704e+00 5.698006767234227254e+02
1.682503800912218850e+00 5.697966978232135489e+02
1.682603824917980440e+00 5.697922904612913726e+02
1.682703848923741585e+00 5.697874592838904846e+02
1.682803872929503175e+00 5.697822089680441877e+02
1.682903896935264321e+00 5.697765442209557705e+02
1.683003920941025910e+00 5.697704697793674313e+02
1.683103944946787056e+00 5.697639904089271567e+02
1.683203968952548646e+00 5.697571109035480958e+02
1.683303992958309792e+00 5.697498360847689582e+02
1.683404016964071381e+00 5.697421708011095234e+02
1.683504040969832527e+00 5.697341199274217161e+02
1.683604064975594117e+00 5.697256883642411367e+02
1.683704088981355262e+00 5.697168810371313157e+02
1.683804112987116852e+00 5.697077028960280813e+02
1.683904136992877998e+00 5.696981589145810858e+02
1.684004160998639588e+00 5.696882540894918066e+02
1.684104185004400733e+00 5.696779934398480236e+02
1.684204209010162545e+00 5.696673820064598885e+02
1.684304233015923913e+00 5.696564248511862161e+02
1.684404257021685281e+00 5.696451270562688478e+02
1.684504281027446648e+00 5.696334937236529186e+02
1.684604305033208016e+00 5.696215299743156493e+02
1.684704329038969384e+00 5.696092409475871818e+02
1.684804353044730751e+00 5.695966318004692539e+02
1.684904377050492119e+00 5.695837077069561474e+02
1.685004401056253487e+00 5.695704738573496115e+02
1.685104425062014855e+00 5.695569354575757188e+02
1.685204449067776222e+00 5.695430977284961500e+02
1.685304473073537590e+00 5.695289659052225488e+02
1.685404497079298958e+00 5.695145452364249650e+02
1.685504521085060325e+00 5.694998409836431392e+02
1.685604545090821693e+00 5.694848584205943780e+02
1.685704569096583061e+00 5.694696028324789268e+02
1.685804593102344429e+00 5.694540795152893224e+02
1.685904617108105796e+00 5.694382937751132658e+02
1.686004641113867386e+00 5.694222509274377444e+02
1.686104665119628754e+00 5.694059562964561110e+02
1.686204689125390122e+00 5.693894152143661813e+02
1.686304713131151489e+00 5.693726330206776538e+02
1.686404737136912857e+00 5.693556150615108891e+02
1.686504761142674225e+00 5.693383666889006918e+02
1.686604785148435592e+00 5.693208932600978187e+02
1.686704809154196960e+00 5.693032001368678721e+02
1.686804833159958328e+00 5.692852926847973549e+02
1.686904857165719696e+00 5.692671762725902909e+02
1.687004881171481063e+00 5.692488562713717783e+02
1.687104905177242431e+00 5.692303380539923410e+02
1.687204929183003799e+00 5.692116269943262523e+02
1.687304953188765166e+00 5.691927284665742945e+02
1.687404977194526534e+00 5.691736478445698140e+02
1.687505001200287902e+00 5.691543905010797744e+02
1.687605025206049270e+00 5.691349618071096756e+02
1.687705049211810637e+00 5.691153671312093820e+02
1.687805073217572005e+00 5.690956118387782681e+02
1.687905097223333595e+00 5.690757012913728659e+02
1.688005121229094962e+00 5.690556408460138300e+02
1.688105145234856330e+00 5.690354358544973365e+02
1.688205169240617698e+00 5.690150916627032984e+02
1.688305193246379066e+00 5.689946136099072191e+02
1.688405217252140433e+00 5.689740070280962527e+02
1.688505241257901801e+00 5.689532772412800341e+02
1.688605265263663169e+00 5.689324295648111729e+02
1.688705289269424537e+00 5.689114693046996081e+02
1.688805313275185904e+00 5.688904017569348071e+02
1.688905337280947272e+00 5.688692322068073963e+02
1.689005361286708640e+00 5.688479659282309058e+02
1.689105385292470007e+00 5.688266081830720395e+02
1.689205409298231375e+00 5.688051642204734435e+02
1.689305433303992743e+00 5.687836392761886373e+02
1.689405457309754111e+00 5.687620385719106935e+02
1.689505481315515478e+00 5.687403673146105803e+02
1.689605505321276846e+00 5.687186306958725481e+02
1.689705529327038658e+00 5.686968338912356558e+02
1.689805553332799803e+00 5.686749820595367737e+02
1.689905577338561393e+00 5.686530803422540430e+02
1.690005601344322539e+00 5.686311338628584053e+02
1.690105625350084129e+00 5.686091477261635418e+02
1.690205649355845274e+00 5.685871270176807002e+02
1.690305673361606864e+00 5.685650768029763640e+02
1.690405697367368010e+00 5.685430021270331054e+02
1.690505721373129600e+00 5.685209080136141893e+02
1.690605745378890745e+00 5.684987994646303378e+02
1.690705769384652335e+00 5.684766814595118376e+02
1.690805793390413481e+00 5.684545589545823532e+02
1.690905817396175070e+00 5.684324368824372868e+02
1.691005841401936216e+00 5.684103201513261183e+02
1.691105865407697806e+00 5.683882136445384958e+02
1.691205889413458952e+00 5.683661222197915777e+02
1.691305913419220541e+00 5.683440507086271509e+02
1.691405937424981687e+00 5.683220039158063628e+02
1.691505961430743277e+00 5.682999866187128646e+02
1.691605985436504866e+00 5.682780035667585707e+02
1.691706009442266234e+00 5.682560594807931693e+02
1.691806033448027602e+00 5.682341590525199990e+02
1.691906057453788970e+00 5.682123069439135179e+02
1.692006081459550337e+00 5.681905077866439342e+02
1.692106105465311705e+00 5.681687661815053616e+02
1.692206129471073073e+00 5.681470866978468166e+02
1.692306153476834440e+00 5.681254738730114013e+02
1.692406177482595808e+00 5.681039322117794654e+02
1.692506201488357176e+00 5.680824661858124500e+02
1.692606225494118544e+00 5.680610802331073046e+02
1.692706249499879911e+00 5.680397787574548829e+02
1.692806273505641279e+00 5.680185661278974294e+02
1.692906297511402647e+00 5.679974466782024365e+02
1.693006321517164015e+00 5.679764247063285438e+02
1.693106345522925382e+00 5.679555044739084906e+02
1.693206369528686750e+00 5.679346902057296802e+02
1.693306393534448118e+00 5.679139860892239540e+02
1.693406417540209707e+00 5.678933962739613435e+02
1.693506441545971075e+00 5.678729248711497348e+02
1.693606465551732443e+00 5.678525759531407857e+02
1.693706489557493811e+00 5.678323535529403898e+02
1.693806513563255178e+00 5.678122616637258488e+02
1.693906537569016546e+00 5.677923042383672509e+02
1.694006561574777914e+00 5.677724851889598767e+02
1.694106585580539281e+00 5.677528083863526263e+02
1.694206609586300649e+00 5.677332776596937265e+02
1.694306633592062017e+00 5.677138967959755291e+02
1.694406657597823385e+00 5.676946695395844245e+02
1.694506681603584752e+00 5.676755995918642839e+02
1.694606705609346120e+00 5.676566906106793340e+02
1.694706729615107488e+00 5.676379462099844204e+02
1.694806753620868855e+00 5.676193699594039117e+02
1.694906777626630223e+00 5.676009653838159466e+02
1.695006801632391591e+00 5.675827359629420243e+02
1.695106825638152959e+00 5.675646851309443264e+02
1.695206849643914326e+00 5.675468162760305404e+02
1.695306873649675916e+00 5.675291327400607315e+02
1.695406897655437284e+00 5.675116378181695609e+02
1.695506921661198652e+00 5.674943347583833884e+02
1.695606945666960019e+00 5.674772267612549967e+02
1.695706969672721387e+00 5.674603169794997939e+02
1.695806993678482755e+00 5.674436085176378128e+02
1.695907017684244122e+00 5.674271044316468533e+02
1.696007041690005490e+00 5.674108077286186926e+02
1.696107065695766858e+00 5.673947213664247329e+02
1.696207089701528226e+00 5.673788482533852857e+02
1.696307113707289593e+00 5.673631912479523862e+02
1.696407137713050961e+00 5.673477531583913560e+02
1.696507161718812329e+00 5.673325367424766910e+02
1.696607185724573696e+00 5.673175447071903363e+02
1.696707209730335064e+00 5.673027797084297390e+02
1.696807233736096432e+00 5.672882443507227208e+02
1.696907257741857800e+00 5.672739411869483774e+02
1.697007281747619167e+00 5.672598727180653668e+02
1.697107305753380757e+00 5.672460413928525895e+02
1.697207329759142347e+00 5.672324496076464584e+02
1.697307353764903493e+00 5.672190997060979498e+02
1.697407377770665082e+00 5.672059939789270402e+02
1.697507401776426228e+00 5.671931346636922626e+02
1.697607425782187818e+00 5.671805239445607185e+02
1.697707449787948963e+00 5.671681639520919589e+02
1.697807473793710553e+00 5.671560567630255036e+02
1.697907497799471699e+00 5.671442044000766600e+02
1.698007521805233289e+00 5.671326088317410949e+02
1.698107545810994434e+00 5.671212719721052054e+02
1.698207569816756024e+00 5.671101956806652424e+02
1.698307593822517170e+00 5.670993817621549624e+02
1.698407617828278759e+00 5.670888319663804396e+02
1.698507641834039905e+00 5.670785479880574940e+02
1.698607665839801495e+00 5.670685314666667409e+02
1.698707689845562641e+00 5.670587839863093222e+02
1.698807713851324230e+00 5.670493070755708231e+02
1.698907737857085820e+00 5.670401022073940567e+02
1.699007761862847188e+00 5.670311707989613978e+02
1.699107785868608556e+00 5.670225142115821200e+02
1.699207809874369923e+00 5.670141337505882575e+02
1.699307833880131291e+00 5.670060306652393365e+02
1.699407857885892659e+00 5.669982061486325620e+02
1.699507881891654026e+00 5.669906613376246014e+02
1.699607905897415394e+00 5.669833973127573472e+02
1.699707929903176762e+00 5.669764150981937973e+02
1.699807953908938130e+00 5.669697156616596203e+02
1.699907977914699497e+00 5.669632999143957477e+02
1.700008001920460865e+00 5.669571687111159690e+02
1.700108025926222233e+00 5.669513228499747584e+02
1.700208049931983600e+00 5.669457630725383979e+02
1.700308073937744968e+00 5.669404900637703122e+02
1.700408097943506336e+00 5.669355044520190177e+02
1.700508121949267704e+00 5.669308068090177812e+02
1.700608145955029071e+00 5.669263976498878037e+02
1.700708169960790439e+00 5.669222774331519759e+02
1.700808193966552029e+00 5.669184465607584116e+02
1.700908217972313397e+00 5.669149053781055727e+02
1.701008241978074764e+00 5.669116541740827415e+02
1.701108265983836132e+00 5.669086931811112891e+02
1.701208289989597500e+00 5.669060225751986763e+02
1.701308313995358867e+00 5.669036424759988222e+02
1.701408338001120235e+00 5.669015529468777004e+02
1.701508362006881603e+00 5.668997539949912152e+02
1.701608386012642971e+00 5.668982455713662603e+02
1.701708410018404338e+00 5.668970275709930320e+02
1.701808434024165706e+00 5.668960998329223457e+02
1.701908458029927074e+00 5.668954621403734109e+02
1.702008482035688441e+00 5.668951142208452438e+02
1.702108506041449809e+00 5.668950557462401321e+02
1.702208530047211177e+00 5.668952863329918728e+02
1.702308554052972545e+00 5.668958055422015150e+02
1.702408578058733912e+00 5.668966128797831061e+02
1.702508602064495280e+00 5.668977077966142133e+02
1.702608626070256870e+00 5.668990896886942892e+02
1.702708650076018237e+00 5.669007578973136106e+02
1.702808674081779605e+00 5.669027117092235812e+02
1.702908698087540973e+00 5.669049503568234059e+02
1.703008722093302341e+00 5.669074730183425572e+02
1.703108746099063708e+00 5.669102788180438210e+02
1.703208770104825076e+00 5.669133668264203152e+02
1.703308794110586444e+00 5.669167360604091073e+02
1.703408818116347812e+00 5.669203854836116534e+02
1.703508842122109179e+00 5.669243140065143507e+02
1.703608866127870547e+00 5.669285204867239827e+02
1.703708890133631915e+00 5.669330037292066891e+02
1.703808914139393282e+00 5.669377624865336429e+02
1.703908938145154650e+00 5.669427954591355956e+02
1.704008962150916018e+00 5.669481012955646975e+02
1.704108986156677386e+00 5.669536785927602978e+02
1.704209010162438753e+00 5.669595258963242941e+02
1.704309034168200121e+00 5.669656417008030758e+02
1.704409058173961489e+00 5.669720244499749242e+02
1.704509082179723300e+00 5.669786725371478724e+02
1.704609106185484446e+00 5.669855843054598381e+02
1.704709130191246036e+00 5.669927580481861469e+02
1.704809154197007182e+00 5.670001920090564909e+02
1.704909178202768771e+00 5.670078843825792774e+02
1.705009202208529917e+00 5.670158333143649543e+02
1.705109226214291507e+00 5.670240369014670705e+02
1.705209250220052652e+00 5.670324931927185617e+02
1.705309274225814242e+00 5.670412001890847478e+02
1.705409298231575388e+00 5.670501558440129202e+02
1.705509322237336978e+00 5.670593580637982996e+02
1.705609346243098123e+00 5.670688047079478338e+02
1.705709370248859713e+00 5.670784935895535455e+02
1.705809394254620859e+00 5.670884224756728145e+02
1.705909418260382449e+00 5.670985890877143447e+02
1.706009442266143594e+00 5.671089911018292469e+02
1.706109466271905184e+00 5.671196261493089423e+02
1.706209490277666330e+00 5.671304918169876146e+02
1.706309514283428141e+00 5.671415856476536419e+02
1.706409538289189509e+00 5.671529051404623942e+02
1.706509562294950877e+00 5.671644477513597167e+02
1.706609586300712245e+00 5.671762108935070046e+02
1.706709610306473612e+00 5.671881919377129861e+02
1.706809634312234980e+00 5.672003882128740315e+02
1.706909658317996348e+00 5.672127970064144620e+02
1.707009682323757715e+00 5.672254155647377729e+02
1.707109706329519083e+00 5.672382410936795623e+02
1.707209730335280451e+00 5.672512707589675074e+02
1.707309754341041819e+00 5.672645016866844117e+02
1.707409778346803186e+00 5.672779309637414826e+02
1.707509802352564554e+00 5.672915556383501325e+02
1.707609826358325922e+00 5.673053727205029872e+02
1.707709850364087290e+00 5.673193791824588743e+02
1.707809874369848657e+00 5.673335719592333817e+02
1.707909898375610025e+00 5.673479479490923723e+02
1.708009922381371393e+00 5.673625040140518649e+02
1.708109946387132760e+00 5.673772369803812126e+02
1.708209970392894350e+00 5.673921436391143516e+02
1.708309994398655718e+00 5.674072207465596875e+02
1.708410018404417086e+00 5.674224650248198714e+02
1.708510042410178453e+00 5.674378731623141903e+02
1.708610066415939821e+00 5.674534418143017547e+02
1.708710090421701189e+00 5.674691676034167358e+02
1.708810114427462556e+00 5.674850471201986011e+02
1.708910138433223924e+00 5.675010769236346277e+02
1.709010162438985292e+00 5.675172535416998016e+02
1.709110186444746660e+00 5.675335734719060383e+02
1.709210210450508027e+00 5.675500331818493578e+02
1.709310234456269395e+00 5.675666291097679732e+02
1.709410258462030763e+00 5.675833576650984469e+02
1.709510282467792130e+00 5.676002152290361664e+02
1.709610306473553498e+00 5.676171981551032104e+02
1.709710330479314866e+00 5.676343027697153047e+02
1.709810354485076234e+00 5.676515253727523032e+02
1.709910378490837601e+00 5.676688622381367395e+02
1.710010402496599191e+00 5.676863096144097653e+02
1.710110426502360559e+00 5.677038637253129991e+02
1.710210450508121927e+00 5.677215207703750366e+02
1.710310474513883294e+00 5.677392769254958012e+02
1.710410498519644662e+00 5.677571283435383975e+02
1.710510522525406030e+00 5.677750711549243761e+02
1.710610546531167397e+00 5.677931014682255864e+02
1.710710570536928765e+00 5.678112153707656944e+02
1.710810594542690133e+00 5.678294089292202216e+02
1.710910618548451501e+00 5.678476781902197672e+02
1.711010642554212868e+00 5.678660191809563003e+02
1.711110666559974236e+00 5.678844279097907020e+02
1.711210690565735604e+00 5.679029003668633777e+02
1.711310714571496971e+00 5.679214325247073702e+02
1.711410738577258339e+00 5.679400203388607906e+02
1.711510762583019707e+00 5.679586597484855020e+02
1.711610786588781075e+00 5.679773466769838706e+02
1.711710810594542442e+00 5.679960770326181319e+02
1.711810834600303810e+00 5.680148467091337352e+02
1.711910858606065400e+00 5.680336515863823479e+02
1.712010882611826990e+00 5.680524875309438357e+02
1.712110906617588135e+00 5.680713503967567704e+02
1.712210930623349725e+00 5.680902360257407508e+02
1.712310954629110871e+00 5.681091402484300943e+02
1.712410978634872460e+00 5.681280588845995680e+02
1.712511002640633606e+00 5.681469877438980802e+02
1.712611026646395196e+00 5.681659226264780500e+02
1.712711050652156342e+00 5.681848593236301213e+02
1.712811074657917931e+00 5.682037936184156024e+02
1.712911098663679077e+00 5.682227212863006116e+02
1.713011122669440667e+00 5.682416380957920410e+02
1.713111146675201812e+00 5.682605398090702238e+02
1.713211170680963402e+00 5.682794221826268313e+02
1.713311194686724548e+00 5.682982809679014053e+02
1.713411218692486138e+00 5.683171119119158448e+02
1.713511242698247283e+00 5.683359107579118472e+02
1.713611266704008873e+00 5.683546732459877830e+02
1.713711290709770463e+00 5.683733951137342046e+02
1.713811314715531831e+00 5.683920720968724254e+02
1.713911338721293198e+00 5.684106999298883238e+02
1.714011362727054566e+00 5.684292743466696720e+02
1.714111386732815934e+00 5.684477910811413039e+02
1.714211410738577301e+00 5.684662458679017618e+02
1.714311434744338669e+00 5.684846344428557359e+02
1.714411458750100037e+00 5.685029525438500286e+02
1.714511482755861405e+00 5.685211959113055400e+02
1.714611506761622772e+00 5.685393602888507303e+02
1.714711530767384140e+00 5.685574414239533780e+02
1.714811554773145508e+00 5.685754350685492682e+02
1.714911578778906875e+00 5.685933369796748593e+02
1.715011602784668243e+00 5.686111429200939256e+02
1.715111626790429611e+00 5.686288486589241984e+02
1.715211650796190979e+00 5.686464499722651453e+02
1.715311674801952346e+00 5.686639426438217697e+02
1.715411698807713714e+00 5.686813224655264776e+02
1.715511722813475082e+00 5.686985852381612858e+02
1.715611746819236672e+00 5.687157267719787797e+02
1.715711770824998039e+00 5.687327428873174995e+02
1.715811794830759407e+00 5.687496294152210794e+02
1.715911818836520775e+00 5.687663821980509056e+02
1.716011842842282142e+00 5.687829970900966146e+02
1.716111866848043510e+00 5.687994699581914801e+02
1.716211890853804878e+00 5.688157966823147262e+02
1.716311914859566246e+00 5.688319731561994104e+02
1.716411938865327613e+00 5.688479952879379198e+02
1.716511962871088981e+00 5.688638590005797369e+02
1.716611986876850349e+00 5.688795602327317056e+02
1.716712010882611716e+00 5.688950949391535232e+02
1.716812034888373084e+00 5.689104590913514130e+02
1.716912058894134452e+00 5.689256486781670219e+02
1.717012082899895820e+00 5.689406597063677964e+02
1.717112106905657187e+00 5.689554882012286043e+02
1.717212130911418555e+00 5.689701302071166538e+02
1.717312154917179923e+00 5.689845817880681125e+02
1.717412178922941512e+00 5.689988390283635908e+02
1.717512202928702880e+00 5.690128980331022603e+02
1.717612226934464248e+00 5.690267549287689235e+02
1.717712250940225616e+00 5.690404058638013112e+02
1.717812274945986983e+00 5.690538470091506724e+02
1.717912298951748351e+00 5.690670745588429327e+02
1.718012322957509719e+00 5.690800847305304160e+02
1.718112346963271087e+00 5.690928737660460683e+02
1.718212370969032454e+00 5.691054379319504051e+02
1.718312394974793822e+00 5.691177735200753887e+02
1.718412418980555190e+00 5.691298768480626222e+02
1.718512442986316557e+00 5.691417442599022252e+02
1.718612466992077925e+00 5.691533721264632959e+02
1.718712490997839293e+00 5.691647568460209641e+02
1.718812515003600661e+00 5.691758948447818511e+02
1.718912539009362028e+00 5.691867825774021412e+02
1.719012563015123396e+00 5.691974165275026962e+02
1.719112587020884764e+00 5.692077932081800782e+02
1.719212611026646131e+00 5.692179091625133651e+02
1.719312635032407943e+00 5.692277609640638047e+02
1.719412659038169089e+00 5.692373452173751502e+02
1.719512683043930679e+00 5.692466585584628547e+02
1.719612707049691824e+00 5.692556976553026971e+02
1.719712731055453414e+00 5.692644592083147472e+02
1.719812755061214560e+00 5.692729399508413053e+02
1.719912779066976150e+00 5.692811366496181336e+02
1.720012803072737295e+00 5.692890461052450064e+02
1.720112827078498885e+00 5.692966651526467103e+02
1.720212851084260031e+00 5.693039906615327936e+02
1.720312875090021620e+00 5.693110195368489030e+02
1.720412899095782766e+00 5.693177487192266426e+02
1.720512923101544356e+00 5.693241751854214954e+02
1.720612947107305502e+00 5.693302959487554062e+02
1.720712971113067091e+00 5.693361080595450403e+02
1.720812995118828237e+00 5.693416086055266305e+02
1.720913019124589827e+00 5.693467947122808255e+02
1.721013043130350972e+00 5.693516635436430988e+02
1.721113067136112784e+00 5.693562123021176831e+02
1.721213091141874152e+00 5.693604382292766104e+02
1.721313115147635520e+00 5.693643386061626188e+02
1.721413139153396887e+00 5.693679107536763695e+02
1.721513163159158255e+00 5.693711520329674158e+02
1.721613187164919623e+00 5.693740598458113027e+02
1.721713211170680990e+00 5.693766316349876888e+02
1.721813235176442358e+00 5.693788648846438036e+02
1.721913259182203726e+00 5.693807571206624516e+02
1.722013283187965094e+00 5.693823059110155782e+02
1.722113307193726461e+00 5.693835088661159034e+02
1.722213331199487829e+00 5.693843636391595737e+02
1.722313355205249197e+00 5.693848679264663133e+02
1.722413379211010565e+00 5.693850194678095704e+02
1.722513403216771932e+00 5.693848160467430262e+02
1.722613427222533300e+00 5.693842554909194860e+02
1.722713451228294668e+00 5.693833356724039731e+02
1.722813475234056035e+00 5.693820545079795465e+02
1.722913499239817403e+00 5.693804099594475474e+02
1.723013523245578993e+00 5.693784000339212525e+02
1.723113547251340361e+00 5.693760227841130472e+02
1.723213571257101728e+00 5.693732763086145496e+02
1.723313595262863096e+00 5.693701587521702550e+02
1.723413619268624464e+00 5.693666683059449269e+02
1.723513643274385831e+00 5.693628032077842818e+02
1.723613667280147199e+00 5.693585617424685097e+02
1.723713691285908567e+00 5.693539422419599987e+02
1.723813715291669935e+00 5.693489430856427589e+02
1.723913739297431302e+00 5.693435627005572996e+02
1.724013763303192670e+00 5.693377995616265252e+02
1.724113787308954038e+00 5.693316521918754916e+02
1.724213811314715405e+00 5.693251191626454784e+02
1.724313835320476773e+00 5.693181990937989667e+02
1.724413859326238141e+00 5.693108906539210921e+02
1.724513883331999509e+00 5.693031925605091601e+02
1.724613907337760876e+00 5.692951035801600028e+02
1.724713931343522244e+00 5.692866225287478983e+02
1.724813955349283834e+00 5.692777482715968063e+02
1.724913979355045202e+00 5.692684797236429404e+02
1.725014003360806569e+00 5.692588158495943844e+02
1.725114027366567937e+00 5.692487556640800221e+02
1.725214051372329305e+00 5.692382982317928963e+02
1.725314075378090672e+00 5.692274426676281109e+02
1.725414099383852040e+00 5.692161881368084551e+02
1.725514123389613408e+00 5.692045338550105953e+02
1.725614147395374776e+00 5.691924790884775121e+02
1.725714171401136143e+00 5.691800231541258199e+02
1.725814195406897511e+00 5.691671654196496775e+02
1.725914219412658879e+00 5.691539053036091218e+02
1.726014243418420246e+00 5.691402422755209045e+02
1.726114267424181614e+00 5.691261758559359123e+02
1.726214291429942982e+00 5.691117056165110171e+02
1.726314315435704350e+00 5.690968311800746733e+02
1.726414339441465717e+00 5.690815522206830792e+02
1.726514363447227085e+00 5.690658684636717908e+02
1.726614387452988453e+00 5.690497796856996047e+02
1.726714411458750043e+00 5.690332857147832328e+02
1.726814435464511632e+00 5.690163864303267474e+02
1.726914459470272778e+00 5.689990817631445452e+02
1.727014483476034368e+00 5.689813716954723759e+02
1.727114507481795513e+00 5.689632562609788238e+02
1.727214531487557103e+00 5.689447355447646260e+02
1.727314555493318249e+00 5.689258096833523268e+02
1.727414579499079839e+00 5.689064788646760462e+02
1.727514603504840984e+00 5.688867433280589694e+02
1.727614627510602574e+00 5.688666033641842432e+02
1.727714651516363720e+00 5.688460593150597333e+02
1.727814675522125309e+00 5.688251115739749366e+02
1.727914699527886455e+00 5.688037605854532330e+02
1.728014723533648045e+00 5.687820068451914040e+02
1.728114747539409191e+00 5.687598508999989235e+02
1.728214771545170780e+00 5.687372933477241759e+02
1.728314795550931926e+00 5.687143348371780576e+02
1.728414819556693516e+00 5.686909760680496220e+02
1.728514843562455106e+00 5.686672177908093317e+02
1.728614867568216473e+00 5.686430608066154946e+02
1.728714891573977841e+00 5.686185059672041007e+02
1.728814915579739209e+00 5.685935541747771822e+02
1.728914939585500576e+00 5.685682063818823053e+02
1.729014963591261944e+00 5.685424635912851272e+02
1.729114987597023312e+00 5.685163268558354730e+02
1.729215011602784680e+00 5.684897972783269324e+02
1.729315035608546047e+00 5.684628760113489534e+02
1.729415059614307415e+00 5.684355642571310909e+02
1.729515083620068783e+00 5.684078632673831635e+02
1.729615107625830150e+00 5.683797743431244953e+02
1.729715131631591518e+00 5.683512988345140684e+02
1.729815155637352886e+00 5.683224381406622570e+02
1.729915179643114254e+00 5.682931937094474506e+02
1.730015203648875621e+00 5.682635670373188077e+02
1.730115227654636989e+00 5.682335596690943476e+02
1.730215251660398357e+00 5.682031731977546087e+02
1.730315275666159724e+00 5.681724092642248252e+02
1.730415299671921314e+00 5.681412695571566474e+02
1.730515323677682682e+00 5.681097558126982676e+02
1.730615347683444050e+00 5.680778698142601115e+02
1.730715371689205417e+00 5.680456133922752997e+02
1.730815395694966785e+00 5.680129884239513558e+02
1.730915419700728153e+00 5.679799968330181628e+02
1.731015443706489521e+00 5.679466405894660284e+02
1.731115467712250888e+00 5.679129217092812496e+02
1.731215491718012256e+00 5.678788422541737191e+02
1.731315515723773624e+00 5.678444043312985059e+02
1.731415539729534991e+00 5.678096100929697059e+02
1.731515563735296359e+00 5.677744617363727002e+02
1.731615587741057727e+00 5.677389615032645906e+02
1.731715611746819095e+00 5.677031116796729293e+02
1.731815635752580462e+00 5.676669145955878548e+02
1.731915659758341830e+00 5.676303726246447923e+02
1.732015683764103198e+00 5.675934881838077217e+02
1.732115707769864565e+00 5.675562637330392590e+02
1.732215731775626155e+00 5.675187017749713050e+02
1.732315755781387523e+00 5.674808048545656902e+02
1.732415779787148891e+00 5.674425755587733420e+02
1.732515803792910258e+00 5.674040165161816276e+02
1.732615827798671626e+00 5.673651303966624937e+02
1.732715851804432994e+00 5.673259199110119653e+02
1.732815875810194362e+00 5.672863878105846425e+02
1.732915899815955729e+00 5.672465368869220583e+02
1.733015923821717097e+00 5.672063699713776259e+02
1.733115947827478465e+00 5.671658899347344232e+02
1.733215971833239832e+00 5.671250996868195671e+02
1.733315995839001200e+00 5.670840021761109710e+02
1.733416019844762568e+00 5.670426003893411462e+02
1.733516043850523936e+00 5.670008973510953183e+02
1.733616067856285303e+00 5.669588961234047702e+02
1.733716091862046671e+00 5.669165998053340445e+02
1.733816115867808039e+00 5.668740115325648503e+02
1.733916139873569406e+00 5.668311344769748530e+02
1.734016163879330774e+00 5.667879718462102119e+02
1.734116187885092586e+00 5.667445268832552756e+02
1.734216211890853732e+00 5.667008028659981846e+02
1.734316235896615321e+00 5.666568031067890843e+02
1.734416259902376467e+00 5.666125309519959501e+02
1.734516283908138057e+00 5.665679897815555250e+02
1.734616307913899202e+00 5.665231830085210731e+02
1.734716331919660792e+00 5.664781140786035394e+02
1.734816355925421938e+00 5.664327864697095265e+02
1.734916379931183528e+00 5.663872036914767705e+02
1.735016403936944673e+00 5.663413692848021128e+02
1.735116427942706263e+00 5.662952868213690181e+02
1.735216451948467409e+00 5.662489599031682701e+02
1.735316475954228999e+00 5.662023921620177589e+02
1.735416499959990144e+00 5.661555872590745366e+02
1.735516523965751734e+00 5.661085488843475559e+02
1.735616547971512880e+00 5.660612807562019952e+02
1.735716571977274469e+00 5.660137866208660853e+02
1.735816595983035615e+00 5.659660702519274764e+02
1.735916619988797427e+00 5.659181354498314249e+02
1.736016643994558795e+00 5.658699860413731813e+02
1.736116668000320162e+00 5.658216258791877635e+02
1.736216692006081530e+00 5.657730588412370025e+02
1.736316716011842898e+00 5.657242888302915844e+02
1.736416740017604265e+00 5.656753197734126388e+02
1.736516764023365633e+00 5.656261556214268467e+02
1.736616788029127001e+00 5.655768003484034807e+02
1.736716812034888369e+00 5.655272579511240565e+02
1.736816836040649736e+00 5.654775324485520969e+02
1.736916860046411104e+00 5.654276278812963028e+02
1.737016884052172472e+00 5.653775483110784990e+02
1.737116908057933840e+00 5.653272978201908927e+02
1.737216932063695207e+00 5.652768805109545838e+02
1.737316956069456575e+00 5.652263005051783011e+02
1.737416980075217943e+00 5.651755619436079314e+02
1.737517004080979310e+00 5.651246689853813905e+02
1.737617028086740678e+00 5.650736258074764464e+02
1.737717052092502046e+00 5.650224366041568373e+02
1.737817076098263636e+00 5.649711055864202081e+02
1.737917100104025003e+00 5.649196369814382024e+02
1.738017124109786371e+00 5.648680350320001935e+02
1.738117148115547739e+00 5.648163039959512162e+02
1.738217172121309106e+00 5.647644481456316043e+02
1.738317196127070474e+00 5.647124717673116265e+02
1.738417220132831842e+00 5.646603791606283949e+02
1.738517244138593210e+00 5.646081746380165214e+02
1.738617268144354577e+00 5.645558625241421851e+02
1.738717292150115945e+00 5.645034471553331059e+02
1.738817316155877313e+00 5.644509328790090876e+02
1.738917340161638680e+00 5.643983240531085812e+02
1.739017364167400048e+00 5.643456250455169538e+02
1.739117388173161416e+00 5.642928402334948714e+02
1.739217412178922784e+00 5.642399740030995190e+02
1.739317436184684151e+00 5.641870307486127558e+02
1.739417460190445519e+00 5.641340148719649505e+02
1.739517484196206887e+00 5.640809307821571110e+02
1.739617508201968477e+00 5.640277828946831278e+02
1.739717532207729844e+00 5.639745756309540639e+02
1.739817556213491212e+00 5.639213134177200573e+02
1.739917580219252580e+00 5.638680006864896086e+02
1.740017604225013947e+00 5.638146418729529614e+02
