1.400008001760387089e+00 5.062990732862289178e+02
1.400108023765228360e+00 5.062706505672238109e+02
1.400208045770069409e+00 5.062423743025128147e+02
1.400308067774910459e+00 5.062142474696010481e+02
1.400408089779751286e+00 5.061862730292996844e+02
1.400508111784592558e+00 5.061584539253786943e+02
1.400608133789433607e+00 5.061307930842278324e+02
1.400708155794274656e+00 5.061032934145155764e+02
1.400808177799115706e+00 5.060759578068532960e+02
1.400908199803956755e+00 5.060487891334593655e+02
1.401008221808798027e+00 5.060217902478310066e+02
1.401108243813638854e+00 5.059949639844119247e+02
1.401208265818479903e+00 5.059683131582689839e+02
1.401308287823320953e+00 5.059418405647679720e+02
1.401408309828162224e+00 5.059155489792528897e+02
1.401508331833003274e+00 5.058894411567304132e+02
1.401608353837844323e+00 5.058635198315532762e+02
1.401708375842685372e+00 5.058377877171112118e+02
1.401808397847526200e+00 5.058122475055193945e+02
1.401908419852367249e+00 5.057869018673169421e+02
1.402008441857208521e+00 5.057617534511604731e+02
1.402108463862049570e+00 5.057368048835305672e+02
1.402208485866890619e+00 5.057120587684284487e+02
1.402308507871731891e+00 5.056875176870910877e+02
1.402408529876572940e+00 5.056631841976947044e+02
1.402508551881413768e+00 5.056390608350749289e+02
1.402608573886254817e+00 5.056151501104398562e+02
1.402708595891095866e+00 5.055914545110904896e+02
1.402808617895936916e+00 5.055679765001477790e+02
1.402908639900778187e+00 5.055447185162769870e+02
1.403008661905619237e+00 5.055216829734200132e+02
1.403108683910460286e+00 5.054988722605297653e+02
1.403208705915301113e+00 5.054762887413068597e+02
1.403308727920142385e+00 5.054539347539417804e+02
1.403408749924983434e+00 5.054318126108610159e+02
1.403508771929824483e+00 5.054099245984734239e+02
1.403608793934665533e+00 5.053882729769246680e+02
1.403708815939506582e+00 5.053668599798518244e+02
1.403808837944347410e+00 5.053456878141439006e+02
1.403908859949188681e+00 5.053247586597047984e+02
1.404008881954029730e+00 5.053040746692208245e+02
1.404108903958870780e+00 5.052836379679316110e+02
1.404208925963712051e+00 5.052634506534066077e+02
1.404308947968553101e+00 5.052435147953200385e+02
1.404408969973394150e+00 5.052238324352369432e+02
1.404508991978234977e+00 5.052044055863995027e+02
1.404609013983076027e+00 5.051852362335155817e+02
1.404709035987917076e+00 5.051663263325550588e+02
1.404809057992758348e+00 5.051476778105472931e+02
1.404909079997599397e+00 5.051292925653838211e+02
1.405009102002440446e+00 5.051111724656251454e+02
1.405109124007281718e+00 5.050933193503107077e+02
1.405209146012122545e+00 5.050757350287736926e+02
1.405309168016963595e+00 5.050584212804613458e+02
1.405409190021804644e+00 5.050413798547546094e+02
1.405509212026645693e+00 5.050246124707979902e+02
1.405609234031486743e+00 5.050081208173288587e+02
1.405709256036328014e+00 5.049919065525149904e+02
1.405809278041169064e+00 5.049759713037910274e+02
1.405909300046009891e+00 5.049603166677047739e+02
1.406009322050850940e+00 5.049449442097645715e+02
1.406109344055692212e+00 5.049298554642903127e+02
1.406209366060533261e+00 5.049150519342714460e+02
1.406309388065374311e+00 5.049005350912268568e+02
1.406409410070215360e+00 5.048863063750697506e+02
1.406509432075056409e+00 5.048723671939778797e+02
1.406609454079897237e+00 5.048587189242679187e+02
1.406709476084738508e+00 5.048453629102697278e+02
1.406809498089579558e+00 5.048323004642131195e+02
1.406909520094420607e+00 5.048195328661123540e+02
1.407009542099261878e+00 5.048070613636568851e+02
1.407109564104102928e+00 5.047948871721088722e+02
1.407209586108943977e+00 5.047830114741994976e+02
1.407309608113784805e+00 5.047714354200368234e+02
1.407409630118625854e+00 5.047601601270120568e+02
1.407509652123466903e+00 5.047491866797149669e+02
1.407609674128308175e+00 5.047385161298466301e+02
1.407709696133149224e+00 5.047281494961471822e+02
1.407809718137990274e+00 5.047180877643170334e+02
1.407909740142831545e+00 5.047083318869513278e+02
1.408009762147672372e+00 5.046988827834733229e+02
1.408109784152513422e+00 5.046897413400738515e+02
1.408209806157354471e+00 5.046809084096548190e+02
1.408309828162195521e+00 5.046723848117796933e+02
1.408409850167036570e+00 5.046641713326247327e+02
1.408509872171877841e+00 5.046562687249372630e+02
1.408609894176718891e+00 5.046486777079962280e+02
1.408709916181559718e+00 5.046413989675795051e+02
1.408809938186400768e+00 5.046344331559336069e+02
1.408909960191242039e+00 5.046277808917515699e+02
1.409009982196083088e+00 5.046214427601479997e+02
1.409110004200924138e+00 5.046154193126460541e+02
1.409210026205765187e+00 5.046097110671679502e+02
1.409310048210606237e+00 5.046043185080205831e+02
1.409410070215447064e+00 5.045992420859009826e+02
1.409510092220288335e+00 5.045944822178934714e+02
1.409610114225129385e+00 5.045900392874758609e+02
1.409710136229970434e+00 5.045859136445320701e+02
1.409810158234811706e+00 5.045821056053656548e+02
1.409910180239652755e+00 5.045786154527189638e+02
1.410010202244493804e+00 5.045754434357974674e+02
1.410110224249334632e+00 5.045725897702974976e+02
1.410210246254175681e+00 5.045700546384385916e+02
1.410310268259016730e+00 5.045678381890011224e+02
1.410410290263858002e+00 5.045659405373656341e+02
1.410510312268699051e+00 5.045643617655607613e+02
1.410610334273540101e+00 5.045631019223108638e+02
1.410710356278381372e+00 5.045621610230916758e+02
1.410810378283222200e+00 5.045615390501869229e+02
1.410910400288063249e+00 5.045612359527526678e+02
1.411010422292904298e+00 5.045612516468833064e+02
1.411110444297745348e+00 5.045615860156838153e+02
1.411210466302586397e+00 5.045622389093433640e+02
1.411310488307427669e+00 5.045632101452164875e+02
1.411410510312268718e+00 5.045644995079063051e+02
1.411510532317109545e+00 5.045661067493524570e+02
1.411610554321950595e+00 5.045680315889235317e+02
1.411710576326791866e+00 5.045702737135123925e+02
1.411810598331632916e+00 5.045728327776394053e+02
1.411910620336473965e+00 5.045757084035528806e+02
1.412010642341315014e+00 5.045789001813412256e+02
1.412110664346156064e+00 5.045824076690432776e+02
1.412210686350996891e+00 5.045862303927673906e+02
1.412310708355838162e+00 5.045903678468085900e+02
1.412410730360679212e+00 5.045948194937776066e+02
1.412510752365520261e+00 5.045995847647266146e+02
1.412610774370361533e+00 5.046046630592828137e+02
1.412710796375202582e+00 5.046100537457845689e+02
1.412810818380043631e+00 5.046157561614235192e+02
1.412910840384884459e+00 5.046217696123869700e+02
1.413010862389725508e+00 5.046280933740059140e+02
1.413110884394566558e+00 5.046347266909105542e+02
1.413210906399407829e+00 5.046416687771812803e+02
1.413310928404248878e+00 5.046489188165118662e+02
1.413410950409089928e+00 5.046564759623712462e+02
1.413510972413931199e+00 5.046643393381705778e+02
1.413610994418772027e+00 5.046725080374358754e+02
1.413711016423613076e+00 5.046809811239784267e+02
1.413811038428454125e+00 5.046897576320769190e+02
1.413911060433295175e+00 5.046988365666569507e+02
1.414011082438136224e+00 5.047082169034765116e+02
1.414111104442977496e+00 5.047178975893156689e+02
1.414211126447818545e+00 5.047278775421654018e+02
1.414311148452659372e+00 5.047381556514288263e+02
1.414411170457500422e+00 5.047487307781148047e+02
1.414511192462341693e+00 5.047596017550445140e+02
1.414611214467182743e+00 5.047707673870543204e+02
1.414711236472023792e+00 5.047822264512073502e+02
1.414811258476864841e+00 5.047939776970046637e+02
1.414911280481705891e+00 5.048060198466004636e+02
1.415011302486546718e+00 5.048183515950223637e+02
1.415111324491387990e+00 5.048309716103944993e+02
1.415211346496229039e+00 5.048438785341581934e+02
1.415311368501070088e+00 5.048570709813068333e+02
1.415411390505911360e+00 5.048705475406126197e+02
1.415511412510752409e+00 5.048843067748624662e+02
1.415611434515593459e+00 5.048983472210969694e+02
1.415711456520434286e+00 5.049126673908483554e+02
1.415811478525275335e+00 5.049272657703857590e+02
1.415911500530116385e+00 5.049421408209626634e+02
1.416011522534957656e+00 5.049572909790623498e+02
1.416111544539798706e+00 5.049727146566535794e+02
1.416211566544639755e+00 5.049884102414432618e+02
1.416311588549481026e+00 5.050043760971352071e+02
1.416411610554321854e+00 5.050206105636891607e+02
1.416511632559162903e+00 5.050371119575845569e+02
1.416611654564003953e+00 5.050538785720856936e+02
1.416711676568845002e+00 5.050709086775092374e+02
1.416811698573686051e+00 5.050882005214961055e+02
1.416911720578527323e+00 5.051057523292831206e+02
1.417011742583368372e+00 5.051235623039782467e+02
1.417111764588209200e+00 5.051416286268395197e+02
1.417211786593050249e+00 5.051599494575556832e+02
1.417311808597891520e+00 5.051785229345264270e+02
1.417411830602732570e+00 5.051973471751491616e+02
1.417511852607573619e+00 5.052164202761058505e+02
1.417611874612414669e+00 5.052357403136504672e+02
1.417711896617255718e+00 5.052553053439019095e+02
1.417811918622096545e+00 5.052751134031380502e+02
1.417911940626937817e+00 5.052951625080877989e+02
1.418011962631778866e+00 5.053154506562325423e+02
1.418111984636619916e+00 5.053359758261022989e+02
1.418212006641461187e+00 5.053567359775793193e+02
1.418312028646302236e+00 5.053777290521998111e+02
1.418412050651143286e+00 5.053989529734588473e+02
1.418512072655984113e+00 5.054204056471164677e+02
1.418612094660825163e+00 5.054420849615093516e+02
1.418712116665666212e+00 5.054639887878567492e+02
1.418812138670507483e+00 5.054861149805734613e+02
1.418912160675348533e+00 5.055084613775845241e+02
1.419012182680189582e+00 5.055310258006388153e+02
1.419112204685030854e+00 5.055538060556251594e+02
1.419212226689871681e+00 5.055767999328901965e+02
1.419312248694712730e+00 5.056000052075576150e+02
1.419412270699553780e+00 5.056234196398495442e+02
1.419512292704394829e+00 5.056470409754052753e+02
1.419612314709235878e+00 5.056708669456082248e+02
1.419712336714077150e+00 5.056948952679064746e+02
1.419812358718918199e+00 5.057191236461397921e+02
1.419912380723759027e+00 5.057435497708667071e+02
1.420012402728600076e+00 5.057681713196909072e+02
1.420112424733441348e+00 5.057929859575884848e+02
1.420212446738282397e+00 5.058179913372408123e+02
1.420312468743123446e+00 5.058431850993601984e+02
1.420412490747964496e+00 5.058685648730253206e+02
1.420512512752805545e+00 5.058941282760106333e+02
1.420612534757646372e+00 5.059198729151194129e+02
1.420712556762487644e+00 5.059457963865181114e+02
1.420812578767328693e+00 5.059718962760694581e+02
1.420912600772169743e+00 5.059981701596672110e+02
1.421012622777011014e+00 5.060246156035717604e+02
1.421112644781852064e+00 5.060512301647461300e+02
1.421212666786692891e+00 5.060780113911905005e+02
1.421312688791533940e+00 5.061049568222820767e+02
1.421412710796374990e+00 5.061320639891082465e+02
1.421512732801216039e+00 5.061593304148061634e+02
1.421612754806057310e+00 5.061867536148998852e+02
1.421712776810898360e+00 5.062143310976382509e+02
1.421812798815739409e+00 5.062420603643322465e+02
1.421912820820580237e+00 5.062699389096935079e+02
1.422012842825421508e+00 5.062979642221721406e+02
1.422112864830262557e+00 5.063261337842957914e+02
1.422212886835103607e+00 5.063544450730063886e+02
1.422312908839944656e+00 5.063828955599987012e+02
1.422412930844785706e+00 5.064114827120594668e+02
1.422512952849626977e+00 5.064402039914021429e+02
1.422612974854467804e+00 5.064690568560088764e+02
1.422712996859308854e+00 5.064980387599632081e+02
1.422813018864149903e+00 5.065271471537897696e+02
1.422913040868991175e+00 5.065563794847899430e+02
1.423013062873832224e+00 5.065857331973788860e+02
1.423113084878673273e+00 5.066152057334202823e+02
1.423213106883514323e+00 5.066447945325614910e+02
1.423313128888355150e+00 5.066744970325685244e+02
1.423413150893196200e+00 5.067043106696613108e+02
1.423513172898037471e+00 5.067342328788439545e+02
1.423613194902878520e+00 5.067642610942415331e+02
1.423713216907719570e+00 5.067943927494281979e+02
1.423813238912560841e+00 5.068246252777606173e+02
1.423913260917401891e+00 5.068549561127084075e+02
1.424013282922242718e+00 5.068853826881822329e+02
1.424113304927083767e+00 5.069159024388637249e+02
1.424213326931924817e+00 5.069465128005315364e+02
1.424313348936765866e+00 5.069772112103893846e+02
1.424413370941607138e+00 5.070079951073909115e+02
1.424513392946448187e+00 5.070388619325635773e+02
1.424613414951289236e+00 5.070698091293336347e+02
1.424713436956130064e+00 5.071008341438445086e+02
1.424813458960971335e+00 5.071319344252830206e+02
1.424913480965812385e+00 5.071631074261935623e+02
1.425013502970653434e+00 5.071943506027994317e+02
1.425113524975494483e+00 5.072256614153190526e+02
1.425213546980335533e+00 5.072570373282803189e+02
1.425313568985176804e+00 5.072884758108367578e+02
1.425413590990017632e+00 5.073199743370764736e+02
1.425513612994858681e+00 5.073515303863371173e+02
1.425613634999699730e+00 5.073831414435125566e+02
1.425713657004541002e+00 5.074148049993607970e+02
1.425813679009382051e+00 5.074465185508107083e+02
1.425913701014223101e+00 5.074782796012663084e+02
1.426013723019064150e+00 5.075100856609091124e+02
1.426113745023904977e+00 5.075419342469995172e+02
1.426213767028746027e+00 5.075738228841736372e+02
1.426313789033587298e+00 5.076057491047430403e+02
1.426413811038428348e+00 5.076377104489890826e+02
1.426513833043269397e+00 5.076697044654547994e+02
1.426613855048110668e+00 5.077017287112388999e+02
1.426713877052951718e+00 5.077337807522818593e+02
1.426813899057792545e+00 5.077658581636560484e+02
1.426913921062633595e+00 5.077979585298473921e+02
1.427013943067474644e+00 5.078300794450425428e+02
1.427113965072315693e+00 5.078622185134059350e+02
1.427213987077156965e+00 5.078943733493604782e+02
1.427314009081998014e+00 5.079265415778630768e+02
1.427414031086839064e+00 5.079587208346787861e+02
1.427514053091679891e+00 5.079909087666531491e+02
1.427614075096521162e+00 5.080231030319799856e+02
1.427714097101362212e+00 5.080553013004703757e+02
1.427814119106203261e+00 5.080875012538163560e+02
1.427914141111044311e+00 5.081197005858514899e+02
1.428014163115885360e+00 5.081518970028145645e+02
1.428114185120726631e+00 5.081840882236027142e+02
1.428214207125567459e+00 5.082162719800269315e+02
1.428314229130408508e+00 5.082484460170656462e+02
1.428414251135249557e+00 5.082806080931133579e+02
1.428514273140090829e+00 5.083127559802262567e+02
1.428614295144931878e+00 5.083448874643684690e+02
1.428714317149772928e+00 5.083770003456502309e+02
1.428814339154613977e+00 5.084090924385705534e+02
1.428914361159454804e+00 5.084411615722507918e+02
1.429014383164295854e+00 5.084732055906667370e+02
1.429114405169137125e+00 5.085052223528811624e+02
1.429214427173978175e+00 5.085372097332706858e+02
1.429314449178819224e+00 5.085691656217493914e+02
1.429414471183660496e+00 5.086010879239918268e+02
1.429514493188501545e+00 5.086329745616504852e+02
1.429614515193342372e+00 5.086648234725723228e+02
1.429714537198183422e+00 5.086966326110117507e+02
1.429814559203024471e+00 5.087283999478392502e+02
1.429914581207865520e+00 5.087601234707514095e+02
1.430014603212706792e+00 5.087918011844706143e+02
1.430114625217547841e+00 5.088234311109473538e+02
1.430214647222388891e+00 5.088550112895597408e+02
1.430314669227229718e+00 5.088865397773047903e+02
1.430414691232070989e+00 5.089180146489929939e+02
1.430514713236912039e+00 5.089494339974329478e+02
1.430614735241753088e+00 5.089807959336198451e+02
1.430714757246594138e+00 5.090120985869157266e+02
1.430814779251435187e+00 5.090433401052272302e+02
1.430914801256276458e+00 5.090745186551828283e+02
1.431014823261117286e+00 5.091056324223046659e+02
1.431114845265958335e+00 5.091366796111751682e+02
1.431214867270799385e+00 5.091676584456056389e+02
1.431314889275640656e+00 5.091985671687964441e+02
1.431414911280481705e+00 5.092294040434985050e+02
1.431514933285322755e+00 5.092601673521645580e+02
1.431614955290163804e+00 5.092908553971057017e+02
1.431714977295004632e+00 5.093214665006385644e+02
1.431814999299845681e+00 5.093519990052304252e+02
1.431915021304686952e+00 5.093824512736418910e+02
1.432015043309528002e+00 5.094128216890659360e+02
1.432115065314369051e+00 5.094431086552623356e+02
1.432215087319210323e+00 5.094733105966909079e+02
1.432315109324051372e+00 5.095034259586369672e+02
1.432415131328892199e+00 5.095334532073408695e+02
1.432515153333733249e+00 5.095633908301156794e+02
1.432615175338574298e+00 5.095932373354668812e+02
1.432715197343415348e+00 5.096229912532064645e+02
1.432815219348256619e+00 5.096526511345642803e+02
1.432915241353097668e+00 5.096822155522956450e+02
1.433015263357938718e+00 5.097116831007847395e+02
1.433115285362779545e+00 5.097410523961458466e+02
1.433215307367620817e+00 5.097703220763204399e+02
1.433315329372461866e+00 5.097994908011697817e+02
1.433415351377302915e+00 5.098285572525667249e+02
1.433515373382143965e+00 5.098575201344797279e+02
1.433615395386985014e+00 5.098863781730572100e+02
1.433715417391826286e+00 5.099151301167069619e+02
1.433815439396667113e+00 5.099437747361715765e+02
1.433915461401508162e+00 5.099723108246005836e+02
1.434015483406349212e+00 5.100007371976196282e+02
1.434115505411190483e+00 5.100290526933945898e+02
1.434215527416031533e+00 5.100572561726953040e+02
1.434315549420872582e+00 5.100853465189501321e+02
1.434415571425713631e+00 5.101133226383045667e+02
1.434515593430554459e+00 5.101411834596689232e+02
1.434615615435395508e+00 5.101689279347672255e+02
1.434715637440236780e+00 5.101965550381804633e+02
1.434815659445077829e+00 5.102240637673885999e+02
1.434915681449918878e+00 5.102514531428030296e+02
1.435015703454760150e+00 5.102787222078053446e+02
1.435115725459601199e+00 5.103058700287728016e+02
1.435215747464442027e+00 5.103328956951061741e+02
1.435315769469283076e+00 5.103597983192520360e+02
1.435415791474124125e+00 5.103865770367222581e+02
1.435515813478965175e+00 5.104132310061088447e+02
1.435615835483806446e+00 5.104397594090966095e+02
1.435715857488647496e+00 5.104661614504708496e+02
1.435815879493488545e+00 5.104924363581242233e+02
1.435915901498329372e+00 5.105185833830563524e+02
1.436015923503170644e+00 5.105446017993720034e+02
1.436115945508011693e+00 5.105704909042781310e+02
1.436215967512852743e+00 5.105962500180716575e+02
1.436315989517693792e+00 5.106218784841299794e+02
1.436416011522534841e+00 5.106473756688937442e+02
1.436516033527376113e+00 5.106727409618483762e+02
1.436616055532216940e+00 5.106979737755008273e+02
1.436716077537057989e+00 5.107230735453548505e+02
1.436816099541899039e+00 5.107480397298798493e+02
1.436916121546740310e+00 5.107728718104800123e+02
1.437016143551581360e+00 5.107975692914577621e+02
1.437116165556422409e+00 5.108221316999729993e+02
1.437216187561263459e+00 5.108465585860024021e+02
1.437316209566104286e+00 5.108708495222912802e+02
1.437416231570945335e+00 5.108950041043065653e+02
1.437516253575786607e+00 5.109190219501818433e+02
1.437616275580627656e+00 5.109429027006627848e+02
1.437716297585468705e+00 5.109666460190479711e+02
1.437816319590309977e+00 5.109902515911261958e+02
1.437916341595151026e+00 5.110137191251108106e+02
1.438016363599991854e+00 5.110370483515700357e+02
1.438116385604832903e+00 5.110602390233578376e+02
1.438216407609673952e+00 5.110832909155352581e+02
1.438316429614515002e+00 5.111062038252950970e+02
1.438416451619356273e+00 5.111289775718778401e+02
1.438516473624197323e+00 5.111516119964891800e+02
1.438616495629038150e+00 5.111741069622129885e+02
1.438716517633879199e+00 5.111964623539172408e+02
1.438816539638720471e+00 5.112186780781647713e+02
1.438916561643561520e+00 5.112407540631141956e+02
1.439016583648402570e+00 5.112626902584196955e+02
1.439116605653243619e+00 5.112844866351301789e+02
1.439216627658084668e+00 5.113061431855834940e+02
1.439316649662925496e+00 5.113276599232962099e+02
1.439416671667766767e+00 5.113490368828553869e+02
1.439516693672607817e+00 5.113702741198007402e+02
1.439616715677448866e+00 5.113913717105110663e+02
1.439716737682290137e+00 5.114123297520825417e+02
1.439816759687131187e+00 5.114331483622056567e+02
1.439916781691972236e+00 5.114538276790418649e+02
1.440016803696813064e+00 5.114743678610940378e+02
1.440116825701654113e+00 5.114947690870751558e+02
1.440216847706495162e+00 5.115150315557764316e+02
1.440316869711336434e+00 5.115351554859305452e+02
1.440416891716177483e+00 5.115551411160723774e+02
1.440516913721018533e+00 5.115749887043981516e+02
1.440616935725859804e+00 5.115946985286223594e+02
1.440716957730700631e+00 5.116142708858293418e+02
1.440816979735541681e+00 5.116337060923262925e+02
1.440917001740382730e+00 5.116530044834913724e+02
1.441017023745223780e+00 5.116721664136192089e+02
1.441117045750064829e+00 5.116911922557657135e+02
1.441217067754906100e+00 5.117100824015884086e+02
1.441317089759747150e+00 5.117288372611869818e+02
1.441417111764587977e+00 5.117474572629379281e+02
1.441517133769429027e+00 5.117659428533318078e+02
1.441617155774270298e+00 5.117842944968022039e+02
1.441717177779111347e+00 5.118025126755584893e+02
1.441817199783952397e+00 5.118205978894123973e+02
1.441917221788793446e+00 5.118385506556036262e+02
1.442017243793634496e+00 5.118563715086243064e+02
1.442117265798475323e+00 5.118740610000389779e+02
1.442217287803316594e+00 5.118916196983058171e+02
1.442317309808157644e+00 5.119090481885918962e+02
1.442417331812998693e+00 5.119263470725916818e+02
1.442517353817839965e+00 5.119435169683368940e+02
1.442617375822681014e+00 5.119605585100114240e+02
1.442717397827522063e+00 5.119774723477579528e+02
1.442817419832362891e+00 5.119942591474892311e+02
1.442917441837203940e+00 5.120109195906910600e+02
1.443017463842044990e+00 5.120274543742277729e+02
1.443117485846886261e+00 5.120438642101462392e+02
1.443217507851727310e+00 5.120601498254743547e+02
1.443317529856568360e+00 5.120763119620218049e+02
1.443417551861409631e+00 5.120923513761766799e+02
1.443517573866250459e+00 5.121082688387024291e+02
1.443617595871091508e+00 5.121240651345327706e+02
1.443717617875932557e+00 5.121397410625622797e+02
1.443817639880773607e+00 5.121552974354405023e+02
1.443917661885614656e+00 5.121707350793608384e+02
1.444017683890455928e+00 5.121860548338487433e+02
1.444117705895296977e+00 5.122012575515504977e+02
1.444217727900137804e+00 5.122163440980177711e+02
1.444317749904978854e+00 5.122313153514932083e+02
1.444417771909820125e+00 5.122461722026923781e+02
1.444517793914661175e+00 5.122609155545894737e+02
1.444617815919502224e+00 5.122755463221940317e+02
1.444717837924343273e+00 5.122900654323341314e+02
1.444817859929184323e+00 5.123044738234329998e+02
1.444917881934025150e+00 5.123187724452894827e+02
1.445017903938866421e+00 5.123329622588521488e+02
1.445117925943707471e+00 5.123470442359960089e+02
1.445217947948548520e+00 5.123610193592990072e+02
1.445317969953389792e+00 5.123748886218131702e+02
1.445417991958230841e+00 5.123886530268400747e+02
1.445518013963071891e+00 5.124023135877014283e+02
1.445618035967912718e+00 5.124158713275126047e+02
1.445718057972753767e+00 5.124293272789516323e+02
1.445818079977594817e+00 5.124426824840303425e+02
1.445918101982436088e+00 5.124559379938638131e+02
1.446018123987277137e+00 5.124690948684365139e+02
1.446118145992118187e+00 5.124821541763760706e+02
1.446218167996959458e+00 5.124951169947153176e+02
1.446318190001800286e+00 5.125079844086626508e+02
1.446418212006641335e+00 5.125207575113685152e+02
1.446518234011482384e+00 5.125334374036903000e+02
1.446618256016323434e+00 5.125460251939591672e+02
1.446718278021164483e+00 5.125585219977464249e+02
1.446818300026005755e+00 5.125709289376269453e+02
1.446918322030846804e+00 5.125832471429448560e+02
1.447018344035687631e+00 5.125954777495796861e+02
1.447118366040528681e+00 5.126076218997086471e+02
1.447218388045369952e+00 5.126196807415730063e+02
1.447318410050211002e+00 5.126316554292408227e+02
1.447418432055052051e+00 5.126435471223721834e+02
1.447518454059893100e+00 5.126553569859837580e+02
1.447618476064734150e+00 5.126670861902106253e+02
1.447718498069574977e+00 5.126787359100746926e+02
1.447818520074416249e+00 5.126903073252440208e+02
1.447918542079257298e+00 5.127018016198011310e+02
1.448018564084098347e+00 5.127132199820067626e+02
1.448118586088939619e+00 5.127245636040623822e+02
1.448218608093780668e+00 5.127358336818791713e+02
1.448318630098621718e+00 5.127470314148388297e+02
1.448418652103462545e+00 5.127581580055637005e+02
1.448518674108303594e+00 5.127692146596792782e+02
1.448618696113144644e+00 5.127802025855817192e+02
1.448718718117985915e+00 5.127911229942052387e+02
1.448818740122826965e+00 5.128019770987883703e+02
1.448918762127668014e+00 5.128127661146424998e+02
1.449018784132509285e+00 5.128234912589190344e+02
1.449118806137350113e+00 5.128341537503798691e+02
1.449218828142191162e+00 5.128447548091653516e+02
1.449318850147032212e+00 5.128552956565647492e+02
1.449418872151873261e+00 5.128657775147873963e+02
1.449518894156714310e+00 5.128762016067337299e+02
1.449618916161555582e+00 5.128865691557681430e+02
1.449718938166396631e+00 5.128968813854911559e+02
1.449818960171237459e+00 5.129071395195130663e+02
1.449918982176078508e+00 5.129173447812311224e+02
1.450019004180919779e+00 5.129274983936010130e+02
1.450119026185760829e+00 5.129376015789168832e+02
1.450219048190601878e+00 5.129476555585875985e+02
1.450319070195442928e+00 5.129576615529148285e+02
1.450419092200283977e+00 5.129676207808726076e+02
1.450519114205124804e+00 5.129775344598889433e+02
1.450619136209966076e+00 5.129874038056253767e+02
1.450719158214807125e+00 5.129972300317632516e+02
1.450819180219648175e+00 5.130070143497840718e+02
1.450919202224489446e+00 5.130167579687565649e+02
1.451019224229330495e+00 5.130264620951221559e+02
1.451119246234171545e+00 5.130361279324835095e+02
1.451219268239012372e+00 5.130457566813945505e+02
1.451319290243853422e+00 5.130553495391465049e+02
1.451419312248694471e+00 5.130649076995650830e+02
1.451519334253535742e+00 5.130744323527983397e+02
1.451619356258376792e+00 5.130839246851153348e+02
1.451719378263217841e+00 5.130933858786994506e+02
1.451819400268059113e+00 5.131028171114468250e+02
1.451919422272899940e+00 5.131122195567644440e+02
1.452019444277740989e+00 5.131215943833711890e+02
1.452119466282582039e+00 5.131309427551007047e+02
1.452219488287423088e+00 5.131402658307017646e+02
1.452319510292264138e+00 5.131495647636472768e+02
1.452419532297105409e+00 5.131588407019394253e+02
1.452519554301946458e+00 5.131680947879177666e+02
1.452619576306787286e+00 5.131773281580699404e+02
1.452719598311628335e+00 5.131865419428436326e+02
1.452819620316469607e+00 5.131957372664612649e+02
1.452919642321310656e+00 5.132049152467338899e+02
1.453019664326151705e+00 5.132140769948789512e+02
1.453119686330992755e+00 5.132232236153394069e+02
1.453219708335833804e+00 5.132323562056070614e+02
1.453319730340674631e+00 5.132414758560422570e+02
1.453419752345515903e+00 5.132505836496995926e+02
1.453519774350356952e+00 5.132596806621560290e+02
1.453619796355198002e+00 5.132687679613381988e+02
1.453719818360039273e+00 5.132778466073540358e+02
1.453819840364880323e+00 5.132869176523261103e+02
1.453919862369721372e+00 5.132959821402234866e+02
1.454019884374562199e+00 5.133050411067019922e+02
1.454119906379403249e+00 5.133140955789416466e+02
1.454219928384244298e+00 5.133231465754870442e+02
1.454319950389085569e+00 5.133321951060921720e+02
1.454419972393926619e+00 5.133412421715628398e+02
1.454519994398767668e+00 5.133502887636086598e+02
1.454620016403608940e+00 5.133593358646886600e+02
1.454720038408449767e+00 5.133683844478622404e+02
1.454820060413290816e+00 5.133774354766492252e+02
1.454920082418131866e+00 5.133864899048786583e+02
1.455020104422972915e+00 5.133955486765532896e+02
1.455120126427813965e+00 5.134046127257067837e+02
1.455220148432655236e+00 5.134136829762675234e+02
1.455320170437496285e+00 5.134227603419253683e+02
1.455420192442337113e+00 5.134318457259984143e+02
1.455520214447178162e+00 5.134409400213015715e+02
1.455620236452019434e+00 5.134500441100221906e+02
1.455720258456860483e+00 5.134591588635906874e+02
1.455820280461701532e+00 5.134682851425626495e+02
1.455920302466542582e+00 5.134774237964938948e+02
1.456020324471383409e+00 5.134865756638246239e+02
1.456120346476224459e+00 5.134957415717640288e+02
1.456220368481065730e+00 5.135049223361749000e+02
1.456320390485906779e+00 5.135141187614665341e+02
1.456420412490747829e+00 5.135233316404828656e+02
1.456520434495589100e+00 5.135325617543991257e+02
1.456620456500430150e+00 5.135418098726171365e+02
1.456720478505270977e+00 5.135510767526646987e+02
1.456820500510112026e+00 5.135603631400985023e+02
1.456920522514953076e+00 5.135696697684068113e+02
1.457020544519794125e+00 5.135789973589162400e+02
1.457120566524635397e+00 5.135883466207021684e+02
1.457220588529476446e+00 5.135977182505005203e+02
1.457320610534317495e+00 5.136071129326198843e+02
1.457420632539158323e+00 5.136165313388621598e+02
1.457520654543999594e+00 5.136259741284376332e+02
1.457620676548840644e+00 5.136354419478911950e+02
1.457720698553681693e+00 5.136449354310245781e+02
1.457820720558522742e+00 5.136544551988238254e+02
1.457920742563363792e+00 5.136640018593894865e+02
1.458020764568205063e+00 5.136735760078694284e+02
1.458120786573045891e+00 5.136831782263925561e+02
1.458220808577886940e+00 5.136928090840079904e+02
1.458320830582727989e+00 5.137024691366234492e+02
1.458420852587569261e+00 5.137121589269499964e+02
1.458520874592410310e+00 5.137218789844458797e+02
1.458620896597251360e+00 5.137316298252665092e+02
1.458720918602092409e+00 5.137414119522110241e+02
1.458820940606933236e+00 5.137512258546812518e+02
1.458920962611774286e+00 5.137610720086338461e+02
1.459020984616615557e+00 5.137709508765385635e+02
1.459121006621456607e+00 5.137808629073415432e+02
1.459221028626297656e+00 5.137908085364271074e+02
1.459321050631138927e+00 5.138007881855860433e+02
1.459421072635979977e+00 5.138108022629817242e+02
1.459521094640820804e+00 5.138208511631252122e+02
1.459621116645661854e+00 5.138309352668462680e+02
1.459721138650502903e+00 5.138410549412719774e+02
1.459821160655343952e+00 5.138512105398046970e+02
1.459921182660185224e+00 5.138614024021067053e+02
1.460021204665026273e+00 5.138716308540814452e+02
1.460121226669867323e+00 5.138818962078623827e+02
1.460221248674708150e+00 5.138921987618031153e+02
1.460321270679549421e+00 5.139025388004691877e+02
1.460421292684390471e+00 5.139129165946317244e+02
1.460521314689231520e+00 5.139233324012678850e+02
1.460621336694072570e+00 5.139337864635575670e+02
1.460721358698913619e+00 5.139442790108879535e+02
1.460821380703754890e+00 5.139548102588590837e+02
1.460921402708595718e+00 5.139653804092890823e+02
1.461021424713436767e+00 5.139759896502265519e+02
1.461121446718277817e+00 5.139866381559620550e+02
1.461221468723119088e+00 5.139973260870442573e+02
1.461321490727960137e+00 5.140080535902969814e+02
1.461421512732801187e+00 5.140188207988392151e+02
1.461521534737642236e+00 5.140296278321085310e+02
1.461621556742483063e+00 5.140404747958854159e+02
1.461721578747324113e+00 5.140513617823213508e+02
1.461821600752165384e+00 5.140622888699681425e+02
1.461921622757006434e+00 5.140732561238113476e+02
1.462021644761847483e+00 5.140842635953039235e+02
1.462121666766688755e+00 5.140953113224061326e+02
1.462221688771529804e+00 5.141063993296205581e+02
1.462321710776370631e+00 5.141175276280396247e+02
1.462421732781211681e+00 5.141286962153847071e+02
1.462521754786052730e+00 5.141399050760574028e+02
1.462621776790893779e+00 5.141511541811853476e+02
1.462721798795735051e+00 5.141624434886757626e+02
1.462821820800576100e+00 5.141737729432670676e+02
1.462921842805417150e+00 5.141851424765872025e+02
1.463021864810257977e+00 5.141965520072105846e+02
1.463121886815099248e+00 5.142080014407181352e+02
1.463221908819940298e+00 5.142194906697609440e+02
1.463321930824781347e+00 5.142310195741252983e+02
1.463421952829622397e+00 5.142425880207986211e+02
1.463521974834463446e+00 5.142541958640404118e+02
1.463621996839304717e+00 5.142658429454527322e+02
1.463722018844145545e+00 5.142775290940533068e+02
1.463822040848986594e+00 5.142892541263533985e+02
1.463922062853827644e+00 5.143010178464323872e+02
1.464022084858668915e+00 5.143128200460218977e+02
1.464122106863509964e+00 5.143246605045842443e+02
1.464222128868351014e+00 5.143365389893974680e+02
1.464322150873192063e+00 5.143484552556420795e+02
1.464422172878032891e+00 5.143604090464888259e+02
1.464522194882873940e+00 5.143724000931885030e+02
1.464622216887715211e+00 5.143844281151648374e+02
1.464722238892556261e+00 5.143964928201065732e+02
1.464822260897397310e+00 5.144085939040646736e+02
1.464922282902238582e+00 5.144207310515504332e+02
1.465022304907079631e+00 5.144329039356342719e+02
1.465122326911920458e+00 5.144451122180464608e+02
1.465222348916761508e+00 5.144573555492831929e+02
1.465322370921602557e+00 5.144696335687076498e+02
1.465422392926443607e+00 5.144819459046606198e+02
1.465522414931284878e+00 5.144942921745662261e+02
1.465622436936125927e+00 5.145066719850441359e+02
1.465722458940966977e+00 5.145190849320199504e+02
1.465822480945807804e+00 5.145315306008408243e+02
1.465922502950649076e+00 5.145440085663885839e+02
1.466022524955490125e+00 5.145565183931985302e+02
1.466122546960331174e+00 5.145690596355769912e+02
1.466222568965172224e+00 5.145816318377206926e+02
1.466322590970013273e+00 5.145942345338406767e+02
1.466422612974854545e+00 5.146068672482826969e+02
1.466522634979695372e+00 5.146195294956543194e+02
1.466622656984536421e+00 5.146322207809485008e+02
1.466722678989377471e+00 5.146449405996739870e+02
1.466822700994218742e+00 5.146576884379815056e+02
1.466922722999059792e+00 5.146704637727956424e+02
1.467022745003900841e+00 5.146832660719462638e+02
1.467122767008741890e+00 5.146960947943015299e+02
1.467222789013582718e+00 5.147089493899021591e+02
1.467322811018423767e+00 5.147218293000955782e+02
1.467422833023265039e+00 5.147347339576745071e+02
1.467522855028106088e+00 5.147476627870148604e+02
1.467622877032947137e+00 5.147606152042139911e+02
1.467722899037788409e+00 5.147735906172314344e+02
1.467822921042629458e+00 5.147865884260298799e+02
1.467922943047470286e+00 5.147996080227177345e+02
1.468022965052311335e+00 5.148126487916950964e+02
1.468122987057152384e+00 5.148257101097932491e+02
1.468223009061993434e+00 5.148387913464262056e+02
1.468323031066834705e+00 5.148518918637314528e+02
1.468423053071675755e+00 5.148650110167226330e+02
1.468523075076516804e+00 5.148781481534359727e+02
1.468623097081357631e+00 5.148913026150777341e+02
1.468723119086198903e+00 5.149044737361763282e+02
1.468823141091039952e+00 5.149176608447340868e+02
1.468923163095881002e+00 5.149308632623769881e+02
1.469023185100722051e+00 5.149440803045085886e+02
1.469123207105563100e+00 5.149573112804630455e+02
1.469223229110404372e+00 5.149705554936577983e+02
1.469323251115245199e+00 5.149838122417511386e+02
1.469423273120086249e+00 5.149970808167931864e+02
1.469523295124927298e+00 5.150103605053873252e+02
1.469623317129768569e+00 5.150236505888408374e+02
1.469723339134609619e+00 5.150369503433257705e+02
1.469823361139450668e+00 5.150502590400353711e+02
1.469923383144291718e+00 5.150635759453413129e+02
1.470023405149132545e+00 5.150769003209538823e+02
1.470123427153973594e+00 5.150902314240790929e+02
1.470223449158814866e+00 5.151035685075781885e+02
1.470323471163655915e+00 5.151169108201282825e+02
1.470423493168496965e+00 5.151302576063828838e+02
1.470523515173338236e+00 5.151436081071281023e+02
1.470623537178179285e+00 5.151569615594478364e+02
1.470723559183020113e+00 5.151703171968830475e+02
1.470823581187861162e+00 5.151836742495901262e+02
1.470923603192702211e+00 5.151970319445065343e+02
1.471023625197543261e+00 5.152103895055088287e+02
1.471123647202384532e+00 5.152237461535738703e+02
1.471223669207225582e+00 5.152371011069421911e+02
1.471323691212066631e+00 5.152504535812782933e+02
1.471423713216907458e+00 5.152638027898321980e+02
1.471523735221748730e+00 5.152771479436006530e+02
1.471623757226589779e+00 5.152904882514900464e+02
1.471723779231430829e+00 5.153038229204751133e+02
1.471823801236271878e+00 5.153171511557628719e+02
1.471923823241112927e+00 5.153304721609520129e+02
1.472023845245954199e+00 5.153437851381945620e+02
1.472123867250795026e+00 5.153570892883561783e+02
1.472223889255636076e+00 5.153703838111773621e+02
1.472323911260477125e+00 5.153836679054329579e+02
1.472423933265318396e+00 5.153969407690919979e+02
1.472523955270159446e+00 5.154102015994786825e+02
1.472623977275000495e+00 5.154234495934307461e+02
1.472723999279841545e+00 5.154366839474563449e+02
1.472824021284682372e+00 5.154499038578975387e+02
1.472924043289523421e+00 5.154631085210834271e+02
1.473024065294364693e+00 5.154762971334901067e+02
1.473124087299205742e+00 5.154894688918974452e+02
1.473224109304046792e+00 5.155026229935463107e+02
1.473324131308888063e+00 5.155157586362927304e+02
1.473424153313728890e+00 5.155288750187653477e+02
1.473524175318569940e+00 5.155419713405185576e+02
1.473624197323410989e+00 5.155550468021888264e+02
1.473724219328252039e+00 5.155681006056455544e+02
1.473824241333093088e+00 5.155811319541461444e+02
1.473924263337934359e+00 5.155941400524865230e+02
1.474024285342775409e+00 5.156071241071545046e+02
1.474124307347616236e+00 5.156200833264773564e+02
1.474224329352457286e+00 5.156330169207740255e+02
1.474324351357298557e+00 5.156459241025042957e+02
1.474424373362139606e+00 5.156588040864133973e+02
1.474524395366980656e+00 5.156716560896842338e+02
1.474624417371821705e+00 5.156844793320792633e+02
1.474724439376662755e+00 5.156972730360886317e+02
1.474824461381503582e+00 5.157100364270737600e+02
1.474924483386344853e+00 5.157227687334086568e+02
1.475024505391185903e+00 5.157354691866263465e+02
1.475124527396026952e+00 5.157481370215565448e+02
1.475224549400868224e+00 5.157607714764676530e+02
1.475324571405709273e+00 5.157733717932053423e+02
1.475424593410550322e+00 5.157859372173311385e+02
1.475524615415391150e+00 5.157984669982587320e+02
1.475624637420232199e+00 5.158109603893906296e+02
1.475724659425073249e+00 5.158234166482494629e+02
1.475824681429914520e+00 5.158358350366170271e+02
1.475924703434755569e+00 5.158482148206612692e+02
1.476024725439596619e+00 5.158605552710694155e+02
1.476124747444437890e+00 5.158728556631767788e+02
1.476224769449278718e+00 5.158851152770956787e+02
1.476324791454119767e+00 5.158973333978412938e+02
1.476424813458960816e+00 5.159095093154594451e+02
1.476524835463801866e+00 5.159216423251471042e+02
1.476624857468642915e+00 5.159337317273791541e+02
1.476724879473484187e+00 5.159457768280263963e+02
1.476824901478325236e+00 5.159577769384776502e+02
1.476924923483166063e+00 5.159697313757574193e+02
1.477024945488007113e+00 5.159816394626440115e+02
1.477124967492848384e+00 5.159935005277823166e+02
1.477224989497689434e+00 5.160053139058013585e+02
1.477325011502530483e+00 5.160170789374243441e+02
1.477425033507371532e+00 5.160287949695796215e+02
1.477525055512212582e+00 5.160404613555125479e+02
1.477625077517053409e+00 5.160520774548883765e+02
1.477725099521894681e+00 5.160636426339042373e+02
1.477825121526735730e+00 5.160751562653898645e+02
1.477925143531576779e+00 5.160866177289108236e+02
1.478025165536418051e+00 5.160980264108716256e+02
1.478125187541259100e+00 5.161093817046131562e+02
1.478225209546100150e+00 5.161206830105112431e+02
1.478325231550940977e+00 5.161319297360740848e+02
1.478425253555782026e+00 5.161431212960344510e+02
1.478525275560623076e+00 5.161542571124444976e+02
1.478625297565464347e+00 5.161653366147647830e+02
1.478725319570305397e+00 5.161763592399551044e+02
1.478825341575146446e+00 5.161873244325618089e+02
1.478925363579987717e+00 5.161982316448008987e+02
1.479025385584828545e+00 5.162090803366456839e+02
1.479125407589669594e+00 5.162198699759060219e+02
1.479225429594510643e+00 5.162306000383086939e+02
1.479325451599351693e+00 5.162412700075773273e+02
1.479425473604192742e+00 5.162518793755074284e+02
1.479525495609034014e+00 5.162624276420408478e+02
1.479625517613875063e+00 5.162729143153391078e+02
1.479725539618715890e+00 5.162833389118544574e+02
1.479825561623556940e+00 5.162937009563978563e+02
1.479925583628398211e+00 5.163039999822067330e+02
1.480025605633239261e+00 5.163142355310096718e+02
1.480125627638080310e+00 5.163244071530897372e+02
1.480225649642921359e+00 5.163345144073454094e+02
1.480325671647762409e+00 5.163445568613499290e+02
1.480425693652603236e+00 5.163545340914089365e+02
1.480525715657444508e+00 5.163644456826153828e+02
1.480625737662285557e+00 5.163742912289035303e+02
1.480725759667126606e+00 5.163840703330980659e+02
1.480825781671967878e+00 5.163937826069691255e+02
1.480925803676808927e+00 5.164034276712712881e+02
1.481025825681649977e+00 5.164130051557968955e+02
1.481125847686490804e+00 5.164225146994144779e+02
1.481225869691331853e+00 5.164319559501128651e+02
1.481325891696172903e+00 5.164413285650390435e+02
1.481425913701014174e+00 5.164506322105361278e+02
1.481525935705855224e+00 5.164598665621784903e+02
1.481625957710696273e+00 5.164690313048060943e+02
1.481725979715537544e+00 5.164781261325543937e+02
1.481826001720378372e+00 5.164871507488835505e+02
1.481926023725219421e+00 5.164961048666077659e+02
1.482026045730060471e+00 5.165049882079193821e+02
1.482126067734901520e+00 5.165138005044095735e+02
1.482226089739742569e+00 5.165225414970941529e+02
1.482326111744583841e+00 5.165312109364292610e+02
1.482426133749424890e+00 5.165398085823298970e+02
1.482526155754265718e+00 5.165483342041843571e+02
1.482626177759106767e+00 5.165567875808673080e+02
1.482726199763948038e+00 5.165651685007518381e+02
1.482826221768789088e+00 5.165734767617175294e+02
1.482926243773630137e+00 5.165817121711563686e+02
1.483026265778471187e+00 5.165898745459794554e+02
1.483126287783312236e+00 5.165979637126192756e+02
1.483226309788153063e+00 5.166059795070307246e+02
1.483326331792994335e+00 5.166139217746894019e+02
1.483426353797835384e+00 5.166217903705878598e+02
1.483526375802676434e+00 5.166295851592325334e+02
1.483626397807517705e+00 5.166373060146354419e+02
1.483726419812358754e+00 5.166449528203040700e+02
1.483826441817199804e+00 5.166525254692301132e+02
1.483926463822040631e+00 5.166600238638793599e+02
1.484026485826881681e+00 5.166674479161727049e+02
1.484126507831722730e+00 5.166747975474711438e+02
1.484226529836564001e+00 5.166820726885561044e+02
1.484326551841405051e+00 5.166892732796079599e+02
1.484426573846246100e+00 5.166963992701839743e+02
1.484526595851087372e+00 5.167034506191926084e+02
1.484626617855928199e+00 5.167104272948660082e+02
1.484726639860769248e+00 5.167173292747337427e+02
1.484826661865610298e+00 5.167241565455879027e+02
1.484926683870451347e+00 5.167309091034534276e+02
1.485026705875292397e+00 5.167375869535533184e+02
1.485126727880133668e+00 5.167441901102712336e+02
1.485226749884974717e+00 5.167507185971132913e+02
1.485326771889815545e+00 5.167571724466668002e+02
1.485426793894656594e+00 5.167635517005617203e+02
1.485526815899497866e+00 5.167698564094218909e+02
1.485626837904338915e+00 5.167760866328227394e+02
1.485726859909179964e+00 5.167822424392422818e+02
1.485826881914021014e+00 5.167883239060112146e+02
1.485926903918862063e+00 5.167943311192630063e+02
1.486026925923702890e+00 5.168002641738806915e+02
1.486126947928544162e+00 5.168061231734393459e+02
1.486226969933385211e+00 5.168119082301541312e+02
1.486326991938226261e+00 5.168176194648181081e+02
1.486427013943067532e+00 5.168232570067431197e+02
1.486527035947908582e+00 5.168288209936999920e+02
1.486627057952749631e+00 5.168343115718528225e+02
1.486727079957590458e+00 5.168397288956945204e+02
1.486827101962431508e+00 5.168450731279791626e+02
1.486927123967272557e+00 5.168503444396556006e+02
1.487027145972113829e+00 5.168555430097956105e+02
1.487127167976954878e+00 5.168606690255224976e+02
1.487227189981795927e+00 5.168657226819378820e+02
1.487327211986637199e+00 5.168707041820465520e+02
1.487427233991478026e+00 5.168756137366802932e+02
1.487527255996319075e+00 5.168804515644195590e+02
1.487627278001160125e+00 5.168852178915144577e+02
1.487727300006001174e+00 5.168899129518028985e+02
1.487827322010842224e+00 5.168945369866279407e+02
1.487927344015683495e+00 5.168990902447537792e+02
1.488027366020524545e+00 5.169035729822812755e+02
1.488127388025365372e+00 5.169079854625599637e+02
1.488227410030206421e+00 5.169123279560994888e+02
1.488327432035047693e+00 5.169166007404805896e+02
1.488427454039888742e+00 5.169208041002632399e+02
1.488527476044729791e+00 5.169249383268945621e+02
1.488627498049570841e+00 5.169290037186143536e+02
1.488727520054411890e+00 5.169330005803612949e+02
1.488827542059252718e+00 5.169369292236748379e+02
1.488927564064093989e+00 5.169407899665978903e+02
1.489027586068935038e+00 5.169445831335791581e+02
1.489127608073776088e+00 5.169483090553709417e+02
1.489227630078617359e+00 5.169519680689292045e+02
1.489327652083458409e+00 5.169555605173103459e+02
1.489427674088299458e+00 5.169590867495669499e+02
1.489527696093140285e+00 5.169625471206441034e+02
1.489627718097981335e+00 5.169659419912725298e+02
1.489727740102822384e+00 5.169692717278610417e+02
1.489827762107663656e+00 5.169725367023902436e+02
1.489927784112504705e+00 5.169757372923012326e+02
1.490027806117345754e+00 5.169788738803861179e+02
1.490127828122187026e+00 5.169819468546761527e+02
1.490227850127027853e+00 5.169849566083321406e+02
1.490327872131868903e+00 5.169879035395285882e+02
1.490427894136709952e+00 5.169907880513394502e+02
1.490527916141551001e+00 5.169936105516251246e+02
1.490627938146392051e+00 5.169963714529149001e+02
1.490727960151233322e+00 5.169990711722921333e+02
1.490827982156074150e+00 5.170017101312748764e+02
1.490928004160915199e+00 5.170042887556975302e+02
1.491028026165756248e+00 5.170068074755947691e+02
1.491128048170597520e+00 5.170092667250768272e+02
1.491228070175438569e+00 5.170116669422138784e+02
1.491328092180279619e+00 5.170140085689109810e+02
1.491428114185120668e+00 5.170162920507897297e+02
1.491528136189961495e+00 5.170185178370610402e+02
1.491628158194802545e+00 5.170206863804070281e+02
1.491728180199643816e+00 5.170227981368548171e+02
1.491828202204484866e+00 5.170248535656508011e+02
1.491928224209325915e+00 5.170268531291391128e+02
1.492028246214167186e+00 5.170287972926346356e+02
1.492128268219008236e+00 5.170306865242960157e+02
1.492228290223849063e+00 5.170325212950015157e+02
1.492328312228690113e+00 5.170343020782212307e+02
1.492428334233531162e+00 5.170360293498897590e+02
1.492528356238372211e+00 5.170377035882800101e+02
1.492628378243213483e+00 5.170393252738739420e+02
1.492728400248054532e+00 5.170408948892352328e+02
1.492828422252895582e+00 5.170424129188807001e+02
1.492928444257736409e+00 5.170438798491517218e+02
1.493028466262577680e+00 5.170452961680853150e+02
1.493128488267418730e+00 5.170466623652841918e+02
1.493228510272259779e+00 5.170479789317894301e+02
1.493328532277100829e+00 5.170492463599495068e+02
1.493428554281941878e+00 5.170504651432901255e+02
1.493528576286783149e+00 5.170516357763868882e+02
1.493628598291623977e+00 5.170527587547331905e+02
1.493728620296465026e+00 5.170538345746119830e+02
1.493828642301306076e+00 5.170548637329649182e+02
1.493928664306147347e+00 5.170558467272641110e+02
1.494028686310988396e+00 5.170567840553794667e+02
1.494128708315829446e+00 5.170576762154533981e+02
1.494228730320670495e+00 5.170585237057676977e+02
1.494328752325511322e+00 5.170593270246140492e+02
1.494428774330352372e+00 5.170600866701672658e+02
1.494528796335193643e+00 5.170608031403546647e+02
1.494628818340034693e+00 5.170614769327274871e+02
1.494728840344875742e+00 5.170621085443311813e+02
1.494828862349717014e+00 5.170626984715786421e+02
1.494928884354558063e+00 5.170632472101209487e+02
1.495028906359398890e+00 5.170637552547193536e+02
1.495128928364239940e+00 5.170642230991204542e+02
1.495228950369080989e+00 5.170646512359242024e+02
1.495328972373922038e+00 5.170650401564614640e+02
1.495428994378763310e+00 5.170653903506670304e+02
1.495529016383604359e+00 5.170657023069522893e+02
1.495629038388445409e+00 5.170659765120794873e+02
1.495729060393286236e+00 5.170662134510404258e+02
1.495829082398127508e+00 5.170664136069279948e+02
1.495929104402968557e+00 5.170665774608149832e+02
1.496029126407809606e+00 5.170667054916299321e+02
1.496129148412650656e+00 5.170667981760350358e+02
1.496229170417491705e+00 5.170668559883033595e+02
1.496329192422332977e+00 5.170668794001984452e+02
1.496429214427173804e+00 5.170668688808544857e+02
1.496529236432014853e+00 5.170668248966530882e+02
1.496629258436855903e+00 5.170667479111094735e+02
1.496729280441697174e+00 5.170666383847482166e+02
1.496829302446538223e+00 5.170664967749912648e+02
1.496929324451379273e+00 5.170663235360364069e+02
1.497029346456220322e+00 5.170661191187443819e+02
1.497129368461061150e+00 5.170658839705229184e+02
1.497229390465902199e+00 5.170656185352129341e+02
1.497329412470743470e+00 5.170653232529737124e+02
1.497429434475584520e+00 5.170649985601727394e+02
1.497529456480425569e+00 5.170646448892736089e+02
1.497629478485266841e+00 5.170642626687250640e+02
1.497729500490107890e+00 5.170638523228509484e+02
1.497829522494948717e+00 5.170634142717448185e+02
1.497929544499789767e+00 5.170629489311598945e+02
1.498029566504630816e+00 5.170624567124035593e+02
1.498129588509471866e+00 5.170619380222329937e+02
1.498229610514313137e+00 5.170613932627500162e+02
1.498329632519154186e+00 5.170608228313000154e+02
1.498429654523995236e+00 5.170602271203681539e+02
1.498529676528836063e+00 5.170596065174808018e+02
1.498629698533677335e+00 5.170589614051045828e+02
1.498729720538518384e+00 5.170582921605497404e+02
1.498829742543359433e+00 5.170575991558738451e+02
1.498929764548200483e+00 5.170568827577834554e+02
1.499029786553041532e+00 5.170561433275437366e+02
1.499129808557882804e+00 5.170553812208820545e+02
1.499229830562723631e+00 5.170545967878991860e+02
1.499329852567564680e+00 5.170537903729776872e+02
1.499429874572405730e+00 5.170529623146929907e+02
1.499529896577247001e+00 5.170521129457284815e+02
1.499629918582088051e+00 5.170512425927846607e+02
1.499729940586929100e+00 5.170503515764999065e+02
1.499829962591770149e+00 5.170494402113631622e+02
1.499929984596610977e+00 5.170485088056359473e+02
1.500030006601452026e+00 5.197290776005332873e+02
1.500130028606293298e+00 5.198034850560839004e+02
1.500230050611134347e+00 5.198783051249495202e+02
1.500330072615975396e+00 5.199535354986378479e+02
1.500430094620816668e+00 5.200291738461075965e+02
1.500530116625657717e+00 5.201052178140464548e+02
1.500630138630498545e+00 5.201816650271488243e+02
1.500730160635339594e+00 5.202585130883974216e+02
1.500830182640180643e+00 5.203357595793480641e+02
1.500930204645021693e+00 5.204134020604155921e+02
1.501030226649862964e+00 5.204914380711624062e+02
1.501130248654704014e+00 5.205698651305896192e+02
1.501230270659545063e+00 5.206486807374295722e+02
1.501330292664385890e+00 5.207278823704394881e+02
1.501430314669227162e+00 5.208074674887018318e+02
1.501530336674068211e+00 5.208874335319198963e+02
1.501630358678909261e+00 5.209677779207222557e+02
1.501730380683750310e+00 5.210484980569625577e+02
1.501830402688591359e+00 5.211295913240269329e+02
1.501930424693432631e+00 5.212110550871407213e+02
1.502030446698273458e+00 5.212928866936747454e+02
1.502130468703114508e+00 5.213750834734581758e+02
1.502230490707955557e+00 5.214576427390909430e+02
1.502330512712796828e+00 5.215405617862553527e+02
1.502430534717637878e+00 5.216238378940331586e+02
1.502530556722478927e+00 5.217074683252228624e+02
1.502630578727319977e+00 5.217914503266566726e+02
1.502730600732160804e+00 5.218757811295222382e+02
1.502830622737001853e+00 5.219604579496848373e+02
1.502930644741843125e+00 5.220454779880076330e+02
1.503030666746684174e+00 5.221308384306785229e+02
1.503130688751525224e+00 5.222165364495344875e+02
1.503230710756366495e+00 5.223025692023885540e+02
1.503330732761207544e+00 5.223889338333599426e+02
1.503430754766048372e+00 5.224756274732003476e+02
1.503530776770889421e+00 5.225626472396262443e+02
1.503630798775730470e+00 5.226499902376496038e+02
1.503730820780571520e+00 5.227376535599122462e+02
1.503830842785412791e+00 5.228256342870157596e+02
1.503930864790253841e+00 5.229139294878609689e+02
1.504030886795094890e+00 5.230025362199774008e+02
1.504130908799935717e+00 5.230914515298653669e+02
1.504230930804776989e+00 5.231806724533287252e+02
1.504330952809618038e+00 5.232701960158146903e+02
1.504430974814459088e+00 5.233600192327505738e+02
1.504530996819300137e+00 5.234501391098859813e+02
1.504631018824141186e+00 5.235405526436281889e+02
1.504731040828982458e+00 5.236312568213863869e+02
1.504831062833823285e+00 5.237222486219093298e+02
1.504931084838664335e+00 5.238135250156283291e+02
1.505031106843505384e+00 5.239050829649983143e+02
1.505131128848346656e+00 5.239969194248395752e+02
1.505231150853187705e+00 5.240890313426799594e+02
1.505331172858028754e+00 5.241814156590971834e+02
1.505431194862869804e+00 5.242740693080619394e+02
1.505531216867710631e+00 5.243669892172816844e+02
1.505631238872551680e+00 5.244601723085397680e+02
1.505731260877392952e+00 5.245536154980432002e+02
1.505831282882234001e+00 5.246473156967629166e+02
1.505931304887075051e+00 5.247412698107765436e+02
1.506031326891916322e+00 5.248354747416133250e+02
1.506131348896757371e+00 5.249299273865940449e+02
1.506231370901598199e+00 5.250246246391757268e+02
1.506331392906439248e+00 5.251195633892931482e+02
1.506431414911280298e+00 5.252147405237003568e+02
1.506531436916121347e+00 5.253101529263137763e+02
1.506631458920962618e+00 5.254057974785514489e+02
1.506731480925803668e+00 5.255016710596746634e+02
1.506831502930644717e+00 5.255977705471302670e+02
1.506931524935485545e+00 5.256940928168868368e+02
1.507031546940326816e+00 5.257906347437772183e+02
1.507131568945167865e+00 5.258873932018345840e+02
1.507231590950008915e+00 5.259843650646331525e+02
1.507331612954849964e+00 5.260815472056211775e+02
1.507431634959691014e+00 5.261789364984632584e+02
1.507531656964532285e+00 5.262765298173693509e+02
1.507631678969373112e+00 5.263743240374353718e+02
1.507731700974214162e+00 5.264723160349734599e+02
1.507831722979055211e+00 5.265705026878451918e+02
1.507931744983896483e+00 5.266688808757955940e+02
1.508031766988737532e+00 5.267674474807806746e+02
1.508131788993578581e+00 5.268661993873004121e+02
1.508231810998419409e+00 5.269651334827242408e+02
1.508331833003260458e+00 5.270642466576213110e+02
1.508431855008101508e+00 5.271635358060835870e+02
1.508531877012942779e+00 5.272629978260536063e+02
1.508631899017783828e+00 5.273626296196448493e+02
1.508731921022624878e+00 5.274624280934673379e+02
1.508831943027466149e+00 5.275623901589444813e+02
1.508931965032306977e+00 5.276625127326354914e+02
1.509031987037148026e+00 5.277627927365506366e+02
1.509132009041989075e+00 5.278632270984694514e+02
1.509232031046830125e+00 5.279638127522523519e+02
1.509332053051671174e+00 5.280645466381567985e+02
1.509432075056512446e+00 5.281654257031466386e+02
1.509532097061353495e+00 5.282664469012003110e+02
1.509632119066194322e+00 5.283676071936205290e+02
1.509732141071035372e+00 5.284689035493399842e+02
1.509832163075876643e+00 5.285703329452229582e+02
1.509932185080717693e+00 5.286718923663705709e+02
1.510032207085558742e+00 5.287735788064163671e+02
1.510132229090399791e+00 5.288753892678299735e+02
1.510232251095240841e+00 5.289773207622087057e+02
1.510332273100081668e+00 5.290793703105716759e+02
1.510432295104922940e+00 5.291815349436545830e+02
1.510532317109763989e+00 5.292838117021969992e+02
1.510632339114605038e+00 5.293861976372295430e+02
1.510732361119446310e+00 5.294886898103598014e+02
1.510832383124287359e+00 5.295912852940556377e+02
1.510932405129128409e+00 5.296939811719245199e+02
1.511032427133969236e+00 5.297967745389925085e+02
1.511132449138810285e+00 5.298996625019802877e+02
1.511232471143651335e+00 5.300026421795752185e+02
1.511332493148492606e+00 5.301057107027035045e+02
1.511432515153333656e+00 5.302088652147980383e+02
1.511532537158174705e+00 5.303121028720646564e+02
1.511632559163015976e+00 5.304154208437436182e+02
1.511732581167856804e+00 5.305188163123718823e+02
1.511832603172697853e+00 5.306222864740417435e+02
1.511932625177538903e+00 5.307258285386528769e+02
1.512032647182379952e+00 5.308294397301685876e+02
1.512132669187221001e+00 5.309331172868622843e+02
1.512232691192062273e+00 5.310368584615666805e+02
1.512332713196903322e+00 5.311406605219162884e+02
1.512432735201744149e+00 5.312445207505902545e+02
1.512532757206585199e+00 5.313484364455484865e+02
1.512632779211426470e+00 5.314524049202693732e+02
1.512732801216267520e+00 5.315564235039807954e+02
1.512832823221108569e+00 5.316604895418884098e+02
1.512932845225949618e+00 5.317646003954058642e+02
1.513032867230790668e+00 5.318687534423735315e+02
1.513132889235631495e+00 5.319729460772812217e+02
1.513232911240472767e+00 5.320771757114861202e+02
1.513332933245313816e+00 5.321814397734235627e+02
1.513432955250154865e+00 5.322857357088222443e+02
1.513532977254996137e+00 5.323900609809068101e+02
1.513632999259837186e+00 5.324944130706062424e+02
1.513733021264678236e+00 5.325987894767529269e+02
1.513833043269519063e+00 5.327031877162804676e+02
1.513933065274360112e+00 5.328076053244190007e+02
1.514033087279201162e+00 5.329120398548872117e+02
1.514133109284042433e+00 5.330164888800761673e+02
1.514233131288883483e+00 5.331209499912382626e+02
1.514333153293724532e+00 5.332254207986659367e+02
1.514433175298565804e+00 5.333298989318694794e+02
1.514533197303406631e+00 5.334343820397514264e+02
1.514633219308247680e+00 5.335388677907769761e+02
1.514733241313088730e+00 5.336433538731396311e+02
1.514833263317929779e+00 5.337478379949290002e+02
1.514933285322770828e+00 5.338523178842858670e+02
1.515033307327612100e+00 5.339567912895615791e+02
1.515133329332453149e+00 5.340612559794691379e+02
1.515233351337293977e+00 5.341657097432355386e+02
1.515333373342135026e+00 5.342701503907433107e+02
1.515433395346976297e+00 5.343745757526754687e+02
1.515533417351817347e+00 5.344789836806540961e+02
1.515633439356658396e+00 5.345833720473711992e+02
1.515733461361499446e+00 5.346877387467245626e+02
1.515833483366340495e+00 5.347920816939424640e+02
1.515933505371181322e+00 5.348963988257072515e+02
1.516033527376022594e+00 5.350006881002751697e+02
1.516133549380863643e+00 5.351049474975937983e+02
1.516233571385704693e+00 5.352091750194122142e+02
1.516333593390545964e+00 5.353133686893905860e+02
1.516433615395387013e+00 5.354175265532063577e+02
1.516533637400228063e+00 5.355216466786520186e+02
1.516633659405068890e+00 5.356257271557351487e+02
1.516733681409909940e+00 5.357297660967690263e+02
1.516833703414750989e+00 5.358337616364653968e+02
1.516933725419592260e+00 5.359377119320165548e+02
1.517033747424433310e+00 5.360416151631793582e+02
1.517133769429274359e+00 5.361454695323523083e+02
1.517233791434115631e+00 5.362492732646505829e+02
1.517333813438956458e+00 5.363530246079748167e+02
1.517433835443797507e+00 5.364567218330773812e+02
1.517533857448638557e+00 5.365603632336265036e+02
1.517633879453479606e+00 5.366639471262622010e+02
1.517733901458320656e+00 5.367674718506541467e+02
1.517833923463161927e+00 5.368709357695479412e+02
1.517933945468002976e+00 5.369743372688170666e+02
1.518033967472843804e+00 5.370776747575022227e+02
1.518133989477684853e+00 5.371809466678500939e+02
1.518234011482526125e+00 5.372841514553507523e+02
1.518334033487367174e+00 5.373872875987680118e+02
1.518434055492208223e+00 5.374903536001655766e+02
1.518534077497049273e+00 5.375933479849306877e+02
1.518634099501890322e+00 5.376962693017952688e+02
1.518734121506731150e+00 5.377991161228486590e+02
1.518834143511572421e+00 5.379018870435520512e+02
1.518934165516413470e+00 5.380045806827444039e+02
1.519034187521254520e+00 5.381071956826466476e+02
1.519134209526095791e+00 5.382097307088611160e+02
1.519234231530936841e+00 5.383121844503691591e+02
1.519334253535777890e+00 5.384145556195210247e+02
1.519434275540618717e+00 5.385168429520268774e+02
1.519534297545459767e+00 5.386190452069386083e+02
1.519634319550300816e+00 5.387211611666314184e+02
1.519734341555142088e+00 5.388231896367808531e+02
1.519834363559983137e+00 5.389251294463342674e+02
1.519934385564824186e+00 5.390269794474814944e+02
1.520034407569665458e+00 5.391287385156193750e+02
1.520134429574506285e+00 5.392304055493123087e+02
1.520234451579347335e+00 5.393319794702499621e+02
1.520334473584188384e+00 5.394334592232023624e+02
1.520434495589029433e+00 5.395348437759681701e+02
1.520534517593870483e+00 5.396361321193210188e+02
1.520634539598711754e+00 5.397373232669523304e+02
1.520734561603552804e+00 5.398384162554100385e+02
1.520834583608393631e+00 5.399394101440333316e+02
1.520934605613234680e+00 5.400403040148837590e+02
1.521034627618075952e+00 5.401410969726709936e+02
1.521134649622917001e+00 5.402417881446802994e+02
1.521234671627758051e+00 5.403423766806896538e+02
1.521334693632599100e+00 5.404428617528866425e+02
1.521434715637440149e+00 5.405432425557818306e+02
1.521534737642280977e+00 5.406435183061180396e+02
1.521634759647122248e+00 5.407436882427742830e+02
1.521734781651963297e+00 5.408437516266701550e+02
1.521834803656804347e+00 5.409437077406626031e+02
1.521934825661645618e+00 5.410435558894411088e+02
1.522034847666486668e+00 5.411432953994192303e+02
1.522134869671327717e+00 5.412429256186217117e+02
1.522234891676168544e+00 5.413424459165707958e+02
1.522334913681009594e+00 5.414418556841640111e+02
1.522434935685850643e+00 5.415411543335549140e+02
1.522534957690691915e+00 5.416403412980242820e+02
1.522634979695532964e+00 5.417394160318526701e+02
1.522735001700374013e+00 5.418383780101876255e+02
1.522835023705215285e+00 5.419372267289058982e+02
1.522935045710056112e+00 5.420359617044757670e+02
1.523035067714897162e+00 5.421345824738150441e+02
1.523135089719738211e+00 5.422330885941421457e+02
1.523235111724579260e+00 5.423314796428300042e+02
1.523335133729420310e+00 5.424297552172535006e+02
1.523435155734261581e+00 5.425279149346306440e+02
1.523535177739102631e+00 5.426259584318693214e+02
1.523635199743943458e+00 5.427238853654002924e+02
1.523735221748784507e+00 5.428216954110148436e+02
1.523835243753625779e+00 5.429193882636988064e+02
1.523935265758466828e+00 5.430169636374570246e+02
1.524035287763307878e+00 5.431144212651429370e+02
1.524135309768148927e+00 5.432117608982800903e+02
1.524235331772989976e+00 5.433089823068839905e+02
1.524335353777830804e+00 5.434060852792773630e+02
1.524435375782672075e+00 5.435030696219054107e+02
1.524535397787513125e+00 5.435999351591476625e+02
1.524635419792354174e+00 5.436966817331266384e+02
1.524735441797195445e+00 5.437933092035138998e+02
1.524835463802036495e+00 5.438898174473324616e+02
1.524935485806877544e+00 5.439862063587590910e+02
1.525035507811718372e+00 5.440824758489202395e+02
1.525135529816559421e+00 5.441786258456891119e+02
1.525235551821400470e+00 5.442746562934780741e+02
1.525335573826241742e+00 5.443705671530270820e+02
1.525435595831082791e+00 5.444663584011941566e+02
1.525535617835923841e+00 5.445620300307386970e+02
1.525635639840764668e+00 5.446575820501036560e+02
1.525735661845605939e+00 5.447530144831988537e+02
1.525835683850446989e+00 5.448483273691754221e+02
1.525935705855288038e+00 5.449435207622033204e+02
1.526035727860129088e+00 5.450385947312461212e+02
1.526135749864970137e+00 5.451335493598294306e+02
1.526235771869811408e+00 5.452283847458104447e+02
1.526335793874652236e+00 5.453231010011463695e+02
1.526435815879493285e+00 5.454176982516576118e+02
1.526535837884334335e+00 5.455121766367915370e+02
1.526635859889175606e+00 5.456065363093820224e+02
1.526735881894016655e+00 5.457007774354082130e+02
1.526835903898857705e+00 5.457949001937518005e+02
1.526935925903698754e+00 5.458889047759507775e+02
1.527035947908539582e+00 5.459827913859531918e+02
1.527135969913380631e+00 5.460765602398685132e+02
1.527235991918221902e+00 5.461702115657153627e+02
1.527336013923062952e+00 5.462637456031702641e+02
1.527436035927904001e+00 5.463571626033128723e+02
1.527536057932745273e+00 5.464504628283709735e+02
1.527636079937586322e+00 5.465436465514630981e+02
1.527736101942427149e+00 5.466367140563371549e+02
1.527836123947268199e+00 5.467296656371134986e+02
1.527936145952109248e+00 5.468225015980199260e+02
1.528036167956950298e+00 5.469152222531317875e+02
1.528136189961791569e+00 5.470078279261031184e+02
1.528236211966632618e+00 5.471003189499037944e+02
1.528336233971473668e+00 5.471926956665504349e+02
1.528436255976314495e+00 5.472849584268383296e+02
1.528536277981155767e+00 5.473771075900721144e+02
1.528636299985996816e+00 5.474691435237946280e+02
1.528736321990837865e+00 5.475610666035141776e+02
1.528836343995678915e+00 5.476528772124323723e+02
1.528936366000519964e+00 5.477445757411691147e+02
1.529036388005361236e+00 5.478361625874890706e+02
1.529136410010202063e+00 5.479276381560242726e+02
1.529236432015043112e+00 5.480190028579979753e+02
1.529336454019884162e+00 5.481102571109471455e+02
1.529436476024725433e+00 5.482014013384440432e+02
1.529536498029566483e+00 5.482924359698160970e+02
1.529636520034407532e+00 5.483833614398688496e+02
1.529736542039248581e+00 5.484741781886020817e+02
1.529836564044089409e+00 5.485648866609318475e+02
1.529936586048930458e+00 5.486554873064078492e+02
1.530036608053771729e+00 5.487459805789300162e+02
1.530136630058612779e+00 5.488363669364695170e+02
1.530236652063453828e+00 5.489266468407834054e+02
1.530336674068295100e+00 5.490168207571319954e+02
1.530436696073136149e+00 5.491068891539963488e+02
1.530536718077976976e+00 5.491968525027949681e+02
1.530636740082818026e+00 5.492867112775977603e+02
1.530736762087659075e+00 5.493764659548450027e+02
1.530836784092500125e+00 5.494661170130617620e+02
1.530936806097341396e+00 5.495556649325750413e+02
1.531036828102182445e+00 5.496451101952276304e+02
1.531136850107023495e+00 5.497344532840977536e+02
1.531236872111864322e+00 5.498236946832118974e+02
1.531336894116705594e+00 5.499128348772637764e+02
1.531436916121546643e+00 5.500018743513282971e+02
1.531536938126387692e+00 5.500908135905812060e+02
1.531636960131228742e+00 5.501796530800147593e+02
1.531736982136069791e+00 5.502683933041557793e+02
1.531837004140911063e+00 5.503570347467829151e+02
1.531937026145751890e+00 5.504455778906458363e+02
1.532037048150592939e+00 5.505340232171838579e+02
1.532137070155433989e+00 5.506223712062466120e+02
1.532237092160275260e+00 5.507106223358108537e+02
1.532337114165116310e+00 5.507987770817048840e+02
1.532437136169957359e+00 5.508868359173291083e+02
1.532537158174798408e+00 5.509747993133761383e+02
1.532637180179639236e+00 5.510626677375564668e+02
1.532737202184480285e+00 5.511504416543215257e+02
1.532837224189321557e+00 5.512381215245864041e+02
1.532937246194162606e+00 5.513257078054598423e+02
1.533037268199003655e+00 5.514132009499667220e+02
1.533137290203844927e+00 5.515006014067781734e+02
1.533237312208685976e+00 5.515879096199394098e+02
1.533337334213526804e+00 5.516751260286002889e+02
1.533437356218367853e+00 5.517622510667470124e+02
1.533537378223208902e+00 5.518492851629322331e+02
1.533637400228049952e+00 5.519362287400114155e+02
1.533737422232891223e+00 5.520230822148755578e+02
1.533837444237732273e+00 5.521098459981906217e+02
1.533937466242573322e+00 5.521965204941304819e+02
1.534037488247414149e+00 5.522831061001221542e+02
1.534137510252255421e+00 5.523696032065810186e+02
1.534237532257096470e+00 5.524560121966558199e+02
1.534337554261937520e+00 5.525423334459730995e+02
1.534437576266778569e+00 5.526285673223816275e+02
1.534537598271619618e+00 5.527147141856994494e+02
1.534637620276460890e+00 5.528007743874630933e+02
1.534737642281301717e+00 5.528867482706797318e+02
1.534837664286142767e+00 5.529726361695770720e+02
1.534937686290983816e+00 5.530584384093593826e+02
1.535037708295825087e+00 5.531441553059655689e+02
1.535137730300666137e+00 5.532297871658226995e+02
1.535237752305507186e+00 5.533153342856109020e+02
1.535337774310348236e+00 5.534007969520233701e+02
1.535437796315189063e+00 5.534861754415327368e+02
1.535537818320030112e+00 5.535714700201535834e+02
1.535637840324871384e+00 5.536566809432163154e+02
1.535737862329712433e+00 5.537418084551337643e+02
1.535837884334553483e+00 5.538268527891769963e+02
1.535937906339394754e+00 5.539118141672499860e+02
1.536037928344235803e+00 5.539966927996656523e+02
1.536137950349076631e+00 5.540814888849295130e+02
1.536237972353917680e+00 5.541662026095197007e+02
1.536337994358758730e+00 5.542508341476714122e+02
1.536438016363599779e+00 5.543353836611664747e+02
1.536538038368441050e+00 5.544198512991226835e+02
1.536638060373282100e+00 5.545042371977851872e+02
1.536738082378123149e+00 5.545885414803219646e+02
1.536838104382963976e+00 5.546727642566238501e+02
1.536938126387805248e+00 5.547569056231018294e+02
1.537038148392646297e+00 5.548409656624913850e+02
1.537138170397487347e+00 5.549249444436597969e+02
1.537238192402328396e+00 5.550088420214132157e+02
1.537338214407169446e+00 5.550926584363078291e+02
1.537438236412010717e+00 5.551763937144661440e+02
1.537538258416851544e+00 5.552600478673928137e+02
1.537638280421692594e+00 5.553436208917938757e+02
1.537738302426533643e+00 5.554271127694040615e+02
1.537838324431374915e+00 5.555105234668058074e+02
1.537938346436215964e+00 5.555938529352663409e+02
1.538038368441057013e+00 5.556771011105645357e+02
1.538138390445898063e+00 5.557602679128267482e+02
1.538238412450738890e+00 5.558433532463678830e+02
1.538338434455579939e+00 5.559263569995290482e+02
1.538438456460421211e+00 5.560092790445268065e+02
1.538538478465262260e+00 5.560921192372967425e+02
1.538638500470103310e+00 5.561748774173465790e+02
1.538738522474944581e+00 5.562575534076114536e+02
1.538838544479785631e+00 5.563401470143091956e+02
1.538938566484626458e+00 5.564226580268041289e+02
1.539038588489467507e+00 5.565050862174682607e+02
1.539138610494308557e+00 5.565874313415525876e+02
1.539238632499149606e+00 5.566696931370543098e+02
1.539338654503990877e+00 5.567518713245946174e+02
1.539438676508831927e+00 5.568339656072954540e+02
1.539538698513672976e+00 5.569159756706588951e+02
1.539638720518513804e+00 5.569979011824568715e+02
1.539738742523355075e+00 5.570797417926142998e+02
1.539838764528196124e+00 5.571614971331051720e+02
1.539938786533037174e+00 5.572431668178453492e+02
1.540038808537878223e+00 5.573247504425937677e+02
1.540138830542719273e+00 5.574062475848533040e+02
1.540238852547560544e+00 5.574876578037784611e+02
1.540338874552401371e+00 5.575689806400852149e+02
1.540438896557242421e+00 5.576502156159643846e+02
1.540538918562083470e+00 5.577313622349981870e+02
1.540638940566924742e+00 5.578124199820838385e+02
1.540738962571765791e+00 5.578933883233551114e+02
1.540838984576606840e+00 5.579742667061132124e+02
1.540939006581447890e+00 5.580550545587580018e+02
1.541039028586288717e+00 5.581357512907245564e+02
1.541139050591129767e+00 5.582163562924217786e+02
1.541239072595971038e+00 5.582968689351788498e+02
1.541339094600812087e+00 5.583772885711892968e+02
1.541439116605653137e+00 5.584576145334635839e+02
1.541539138610494408e+00 5.585378461357857987e+02
1.541639160615335458e+00 5.586179826726698820e+02
1.541739182620176285e+00 5.586980234193246133e+02
1.541839204625017334e+00 5.587779676316188215e+02
1.541939226629858384e+00 5.588578145460529640e+02
1.542039248634699433e+00 5.589375633797337741e+02
1.542139270639540705e+00 5.590172133303512965e+02
1.542239292644381754e+00 5.590967635761619476e+02
1.542339314649222803e+00 5.591762132759755559e+02
1.542439336654063631e+00 5.592555615691444473e+02
1.542539358658904902e+00 5.593348075755575337e+02
1.542639380663745952e+00 5.594139503956390627e+02
1.542739402668587001e+00 5.594929891103496402e+02
1.542839424673428050e+00 5.595719227811931660e+02
1.542939446678269100e+00 5.596507504502263828e+02
1.543039468683109927e+00 5.597294711400710412e+02
1.543139490687951199e+00 5.598080838539347042e+02
1.543239512692792248e+00 5.598865875756310970e+02
1.543339534697633297e+00 5.599649812696044364e+02
1.543439556702474569e+00 5.600432638809611490e+02
1.543539578707315618e+00 5.601214343355034089e+02
1.543639600712156668e+00 5.601994915397644945e+02
1.543739622716997495e+00 5.602774343810528990e+02
1.543839644721838544e+00 5.603552617274974637e+02
1.543939666726679594e+00 5.604329724280966047e+02
1.544039688731520865e+00 5.605105653127702681e+02
1.544139710736361915e+00 5.605880391924198420e+02
1.544239732741202964e+00 5.606653928589875022e+02
1.544339754746044235e+00 5.607426250855237413e+02
1.544439776750885063e+00 5.608197346262542169e+02
1.544539798755726112e+00 5.608967202166555808e+02
1.544639820760567162e+00 5.609735805735293752e+02
1.544739842765408211e+00 5.610503143950860476e+02
1.544839864770249260e+00 5.611269203610295335e+02
1.544939886775090532e+00 5.612033971326432038e+02
1.545039908779931581e+00 5.612797433528868396e+02
1.545139930784772409e+00 5.613559576464912197e+02
1.545239952789613458e+00 5.614320386200574831e+02
1.545339974794454729e+00 5.615079848621642213e+02
1.545439996799295779e+00 5.615837949434744587e+02
1.545540018804136828e+00 5.616594674168464962e+02
1.545640040808977878e+00 5.617350008174524874e+02
1.545740062813818927e+00 5.618103936628967858e+02
1.545840084818659754e+00 5.618856444533380454e+02
1.545940106823501026e+00 5.619607516716203008e+02
1.546040128828342075e+00 5.620357137834009791e+02
1.546140150833183124e+00 5.621105292372863005e+02
1.546240172838024396e+00 5.621851964649704314e+02
1.546340194842865445e+00 5.622597138813787296e+02
1.546440216847706495e+00 5.623340798848128088e+02
1.546540238852547322e+00 5.624082928570993545e+02
1.546640260857388371e+00 5.624823511637451929e+02
1.546740282862229421e+00 5.625562531540930422e+02
1.546840304867070692e+00 5.626299971614849937e+02
1.546940326871911742e+00 5.627035815034211055e+02
1.547040348876752791e+00 5.627770044817355028e+02
1.547140370881594063e+00 5.628502643827597467e+02
1.547240392886434890e+00 5.629233594775017764e+02
1.547340414891275939e+00 5.629962880218254213e+02
1.547440436896116989e+00 5.630690482566303672e+02
1.547540458900958038e+00 5.631416384080378066e+02
1.547640480905799087e+00 5.632140566875806371e+02
1.547740502910640359e+00 5.632863012923945689e+02
1.547840524915481408e+00 5.633583704054141208e+02
1.547940546920322236e+00 5.634302621955724817e+02
1.548040568925163285e+00 5.635019748180037595e+02
1.548140590930004556e+00 5.635735064142473902e+02
1.548240612934845606e+00 5.636448551124600499e+02
1.548340634939686655e+00 5.637160190276234744e+02
1.548440656944527705e+00 5.637869962617653528e+02
1.548540678949368754e+00 5.638577849041748777e+02
1.548640700954209581e+00 5.639283830316242074e+02
1.548740722959050853e+00 5.639987887085960665e+02
1.548840744963891902e+00 5.640689999875095282e+02
1.548940766968732952e+00 5.641390149089517081e+02
1.549040788973574223e+00 5.642088315019140055e+02
1.549140810978415272e+00 5.642784477840268664e+02
1.549240832983256322e+00 5.643478617618008002e+02
1.549340854988097149e+00 5.644170714308701235e+02
1.549440876992938199e+00 5.644860747762395476e+02
1.549540898997779248e+00 5.645548697725317879e+02
1.549640921002620519e+00 5.646234543842390394e+02
1.549740943007461569e+00 5.646918265659801364e+02
1.549840965012302618e+00 5.647599842627558928e+02
1.549940987017143890e+00 5.648279254102092182e+02
1.550041009021984717e+00 5.648956479348883022e+02
1.550141031026825766e+00 5.649631497545133243e+02
1.550241053031666816e+00 5.650304287782416850e+02
1.550341075036507865e+00 5.650974829069417638e+02
1.550441097041348915e+00 5.651643100334630390e+02
1.550541119046190186e+00 5.652309080429148480e+02
1.550641141051031235e+00 5.652972748129428737e+02
1.550741163055872063e+00 5.653634082140080181e+02
1.550841185060713112e+00 5.654293061096743713e+02
1.550941207065554384e+00 5.654949663568878577e+02
1.551041229070395433e+00 5.655603868062695483e+02
1.551141251075236482e+00 5.656255653024018102e+02
1.551241273080077532e+00 5.656904996841223010e+02
1.551341295084918581e+00 5.657551877848165987e+02
1.551441317089759409e+00 5.658196274327164019e+02
1.551541339094600680e+00 5.658838164511955711e+02
1.551641361099441729e+00 5.659477526590731031e+02
1.551741383104282779e+00 5.660114338709124695e+02
1.551841405109124050e+00 5.660748578973302756e+02
1.551941427113965100e+00 5.661380225452966215e+02
1.552041449118806149e+00 5.662009256184484229e+02
1.552141471123646976e+00 5.662635649173973889e+02
1.552241493128488026e+00 5.663259382400412960e+02
1.552341515133329075e+00 5.663880433818774236e+02
1.552441537138170347e+00 5.664498781363178068e+02
1.552541559143011396e+00 5.665114402950061958e+02
1.552641581147852445e+00 5.665727276481360377e+02
1.552741603152693717e+00 5.666337379847706188e+02
1.552841625157534544e+00 5.666944690931635478e+02
1.552941647162375594e+00 5.667549187610817398e+02
1.553041669167216643e+00 5.668150847761285149e+02
1.553141691172057692e+00 5.668749649260727210e+02
1.553241713176898742e+00 5.669345569991700131e+02
1.553341735181740013e+00 5.669938587844947051e+02
1.553441757186581063e+00 5.670528680722678700e+02
1.553541779191421890e+00 5.671115826541861225e+02
1.553641801196262939e+00 5.671700003237546071e+02
1.553741823201104211e+00 5.672281188766203286e+02
1.553841845205945260e+00 5.672859361108999110e+02
1.553941867210786310e+00 5.673434498275232727e+02
1.554041889215627359e+00 5.674006578305587709e+02
1.554141911220468408e+00 5.674575579275564223e+02
1.554241933225309236e+00 5.675141479298802096e+02
1.554341955230150507e+00 5.675704256530497105e+02
1.554441977234991557e+00 5.676263889170734274e+02
1.554541999239832606e+00 5.676820355467916670e+02
1.554642021244673877e+00 5.677373633722138493e+02
1.554742043249514927e+00 5.677923702288578625e+02
1.554842065254355976e+00 5.678470539580922605e+02
1.554942087259196803e+00 5.679014124074763004e+02
1.555042109264037853e+00 5.679554434310999795e+02
1.555142131268878902e+00 5.680091448899263469e+02
1.555242153273720174e+00 5.680625146521334727e+02
1.555342175278561223e+00 5.681155505934563053e+02
1.555442197283402272e+00 5.681682505975275035e+02
1.555542219288243544e+00 5.682206125562208854e+02
1.555642241293084371e+00 5.682726343699928293e+02
1.555742263297925421e+00 5.683243139482261768e+02
1.555842285302766470e+00 5.683756492095685644e+02
1.555942307307607519e+00 5.684266380822782594e+02
1.556042329312448569e+00 5.684772785045644241e+02
1.556142351317289840e+00 5.685275684249284041e+02
1.556242373322130890e+00 5.685775058025055841e+02
1.556342395326971717e+00 5.686270886074055397e+02
1.556442417331812766e+00 5.686763148210550298e+02
1.556542439336654038e+00 5.687251824365342827e+02
1.556642461341495087e+00 5.687736894589207850e+02
1.556742483346336137e+00 5.688218339056249988e+02
1.556842505351177186e+00 5.688696138067306265e+02
1.556942527356018235e+00 5.689170272053331701e+02
1.557042549360859063e+00 5.689640721578753073e+02
1.557142571365700334e+00 5.690107467344846555e+02
1.557242593370541384e+00 5.690570490193088062e+02
1.557342615375382433e+00 5.691029771108492241e+02
1.557442637380223704e+00 5.691485291222978731e+02
1.557542659385064754e+00 5.691937031818670221e+02
1.557642681389905803e+00 5.692384974331223475e+02
1.557742703394746631e+00 5.692829100353139893e+02
1.557842725399587680e+00 5.693269391637056742e+02
1.557942747404428729e+00 5.693705830099039531e+02
1.558042769409270001e+00 5.694138397821831177e+02
1.558142791414111050e+00 5.694567077058145514e+02
1.558242813418952100e+00 5.694991850233886908e+02
1.558342835423793371e+00 5.695412699951391460e+02
1.558442857428634198e+00 5.695829608992642079e+02
1.558542879433475248e+00 5.696242560322464215e+02
1.558642901438316297e+00 5.696651537091753426e+02
1.558742923443157347e+00 5.697056522640569938e+02
1.558842945447998396e+00 5.697457500501358254e+02
1.558942967452839667e+00 5.697854454402067859e+02
1.559042989457680717e+00 5.698247368269256867e+02
1.559143011462521544e+00 5.698636226231211594e+02
1.559243033467362594e+00 5.699021012621013824e+02
1.559343055472203865e+00 5.699401711979625134e+02
1.559443077477044914e+00 5.699778309058909826e+02
1.559543099481885964e+00 5.700150788824673782e+02
1.559643121486727013e+00 5.700519136459668061e+02
1.559743143491568063e+00 5.700883337366553860e+02
1.559843165496408890e+00 5.701243377170901567e+02
1.559943187501250161e+00 5.701599241724073863e+02
1.560043209506091211e+00 5.701950917106190673e+02
1.560143231510932260e+00 5.702298389629011126e+02
1.560243253515773532e+00 5.702641645838788236e+02
1.560343275520614581e+00 5.702980672519121299e+02
1.560443297525455408e+00 5.703315456693786700e+02
1.560543319530296458e+00 5.703645985629530060e+02
1.560643341535137507e+00 5.703972246838827687e+02
1.560743363539978557e+00 5.704294228082643485e+02
1.560843385544819828e+00 5.704611917373148344e+02
1.560943407549660877e+00 5.704925302976394050e+02
1.561043429554501927e+00 5.705234373414996298e+02
1.561143451559342754e+00 5.705539117470782458e+02
1.561243473564184026e+00 5.705839524187358620e+02
1.561343495569025075e+00 5.706135582872731220e+02
1.561443517573866124e+00 5.706427283101838839e+02
1.561543539578707174e+00 5.706714614719076053e+02
1.561643561583548223e+00 5.706997567840784313e+02
1.561743583588389495e+00 5.707276132857720086e+02
1.561843605593230322e+00 5.707550300437474107e+02
1.561943627598071371e+00 5.707820061526883819e+02
1.562043649602912421e+00 5.708085407354381005e+02
1.562143671607753692e+00 5.708346329432354196e+02
1.562243693612594742e+00 5.708602819559430372e+02
1.562343715617435791e+00 5.708854869822745286e+02
1.562443737622276840e+00 5.709102472600204692e+02
1.562543759627117668e+00 5.709345620562650083e+02
1.562643781631958717e+00 5.709584306676060805e+02
1.562743803636799989e+00 5.709818524203660672e+02
1.562843825641641038e+00 5.710048266708045048e+02
1.562943847646482087e+00 5.710273528053226073e+02
1.563043869651323359e+00 5.710494302406676752e+02
1.563143891656164408e+00 5.710710584241293191e+02
1.563243913661005235e+00 5.710922368337396620e+02
1.563343935665846285e+00 5.711129649784608091e+02
1.563443957670687334e+00 5.711332423983762965e+02
1.563543979675528384e+00 5.711530686648752635e+02
1.563644001680369655e+00 5.711724433808309414e+02
1.563744023685210704e+00 5.711913661807791414e+02
1.563844045690051754e+00 5.712098367310928779e+02
1.563944067694892581e+00 5.712278547301489198e+02
1.564044089699733853e+00 5.712454199084940001e+02
1.564144111704574902e+00 5.712625320290069340e+02
1.564244133709415951e+00 5.712791908870547104e+02
1.564344155714257001e+00 5.712953963106481297e+02
1.564444177719098050e+00 5.713111481605882318e+02
1.564544199723939322e+00 5.713264463306142034e+02
1.564644221728780149e+00 5.713412907475424163e+02
1.564744243733621198e+00 5.713556813714051259e+02
1.564844265738462248e+00 5.713696181955823477e+02
1.564944287743303519e+00 5.713831012469318011e+02
1.565044309748144569e+00 5.713961305859114646e+02
1.565144331752985618e+00 5.714087063067031522e+02
1.565244353757826667e+00 5.714208285373241551e+02
1.565344375762667495e+00 5.714324974397434289e+02
1.565444397767508544e+00 5.714437132099861856e+02
1.565544419772349816e+00 5.714544760782378034e+02
1.565644441777190865e+00 5.714647863089428483e+02
1.565744463782031914e+00 5.714746442008998883e+02
1.565844485786873186e+00 5.714840500873506244e+02
1.565944507791714235e+00 5.714930043360657237e+02
1.566044529796555063e+00 5.715015073494265607e+02
1.566144551801396112e+00 5.715095595645010462e+02
1.566244573806237161e+00 5.715171614531165005e+02
1.566344595811078211e+00 5.715243135219271835e+02
1.566444617815919482e+00 5.715310163124775045e+02
1.566544639820760532e+00 5.715372704012604572e+02
1.566644661825601581e+00 5.715430763997719623e+02
1.566744683830442408e+00 5.715484349545600935e+02
1.566844705835283680e+00 5.715533467472714619e+02
1.566944727840124729e+00 5.715578124946878233e+02
1.567044749844965779e+00 5.715618329487676874e+02
1.567144771849806828e+00 5.715654088966717836e+02
1.567244793854647877e+00 5.715685411607930746e+02
1.567344815859489149e+00 5.715712305987763102e+02
1.567444837864329976e+00 5.715734781035371270e+02
1.567544859869171026e+00 5.715752846032735306e+02
1.567644881874012075e+00 5.715766510614722620e+02
1.567744903878853346e+00 5.715775784769166421e+02
1.567844925883694396e+00 5.715780678836785000e+02
1.567944947888535445e+00 5.715781203511153308e+02
1.568044969893376495e+00 5.715777369838615414e+02
1.568144991898217322e+00 5.715769189218069641e+02
1.568245013903058371e+00 5.715756673400807131e+02
1.568345035907899643e+00 5.715739834490251496e+02
1.568445057912740692e+00 5.715718684941637093e+02
1.568545079917581742e+00 5.715693237561688420e+02
1.568645101922423013e+00 5.715663505508202888e+02
1.568745123927264062e+00 5.715629502289630182e+02
1.568845145932104890e+00 5.715591241764561801e+02
1.568945167936945939e+00 5.715548738141192189e+02
1.569045189941786989e+00 5.715502005976765076e+02
1.569145211946628038e+00 5.715451060176881128e+02
1.569245233951469309e+00 5.715395915994879488e+02
1.569345255956310359e+00 5.715336589031063568e+02
1.569445277961151408e+00 5.715273095231942762e+02
1.569545299965992236e+00 5.715205450889416170e+02
1.569645321970833507e+00 5.715133672639879023e+02
1.569745343975674556e+00 5.715057777463323418e+02
1.569845365980515606e+00 5.714977782682359475e+02
1.569945387985356655e+00 5.714893705961196702e+02
1.570045409990197705e+00 5.714805565304608308e+02
1.570145431995038976e+00 5.714713379056787517e+02
1.570245453999879803e+00 5.714617165900215241e+02
1.570345476004720853e+00 5.714516944854447047e+02
1.570445498009561902e+00 5.714412735274862598e+02
1.570545520014403174e+00 5.714304556851378720e+02
1.570645542019244223e+00 5.714192429607078338e+02
1.570745564024085272e+00 5.714076373896858740e+02
1.570845586028926322e+00 5.713956410405946826e+02
1.570945608033767149e+00 5.713832560148463244e+02
1.571045630038608198e+00 5.713704844465852375e+02
1.571145652043449470e+00 5.713573285025320274e+02
1.571245674048290519e+00 5.713437903818221457e+02
1.571345696053131569e+00 5.713298723158362691e+02
1.571445718057972840e+00 5.713155765680312470e+02
1.571545740062813890e+00 5.713009054337637735e+02
1.571645762067654717e+00 5.712858612401076925e+02
1.571745784072495766e+00 5.712704463456707344e+02
1.571845806077336816e+00 5.712546631404039772e+02
1.571945828082177865e+00 5.712385140454075554e+02
1.572045850087019137e+00 5.712220015127325041e+02
1.572145872091860186e+00 5.712051280251777143e+02
1.572245894096701235e+00 5.711878960960814311e+02
1.572345916101542063e+00 5.711703082691094551e+02
1.572445938106383334e+00 5.711523671180384554e+02
1.572545960111224383e+00 5.711340752465371224e+02
1.572645982116065433e+00 5.711154352879387943e+02
1.572746004120906482e+00 5.710964499050112408e+02
1.572846026125747532e+00 5.710771217897267888e+02
1.572946048130588803e+00 5.710574536630194871e+02
1.573046070135429630e+00 5.710374482745470459e+02
1.573146092140270680e+00 5.710171084024404990e+02
1.573246114145111729e+00 5.709964368530567072e+02
1.573346136149953001e+00 5.709754364607211983e+02
1.573446158154794050e+00 5.709541100874696440e+02
1.573546180159635099e+00 5.709324606227861523e+02
1.573646202164476149e+00 5.709104909833326928e+02
1.573746224169316976e+00 5.708882041126814784e+02
1.573846246174158026e+00 5.708656029810380232e+02
1.573946268178999297e+00 5.708426905849614741e+02
1.574046290183840346e+00 5.708194699470799378e+02
1.574146312188681396e+00 5.707959441158081972e+02
1.574246334193522667e+00 5.707721161650506474e+02
1.574346356198363717e+00 5.707479891939095751e+02
1.574446378203204544e+00 5.707235663263867309e+02
1.574546400208045593e+00 5.706988507110788760e+02
1.574646422212886643e+00 5.706738455208720779e+02
1.574746444217727692e+00 5.706485539526331650e+02
1.574846466222568964e+00 5.706229792268921983e+02
1.574946488227410013e+00 5.705971245875300610e+02
1.575046510232251062e+00 5.705709933014538819e+02
1.575146532237091890e+00 5.705445886582725734e+02
1.575246554241933161e+00 5.705179139699711186e+02
1.575346576246774211e+00 5.704909725705762185e+02
1.575446598251615260e+00 5.704637678158228482e+02
1.575546620256456309e+00 5.704363030828156980e+02
1.575646642261297359e+00 5.704085817696859522e+02
1.575746664266138630e+00 5.703806072952478416e+02
1.575846686270979458e+00 5.703523830986493977e+02
1.575946708275820507e+00 5.703239126390203637e+02
1.576046730280661556e+00 5.702951993951182885e+02
1.576146752285502828e+00 5.702662468649688208e+02
1.576246774290343877e+00 5.702370585655060040e+02
1.576346796295184927e+00 5.702076380322075693e+02
1.576446818300025976e+00 5.701779888187279539e+02
1.576546840304866803e+00 5.701481144965268868e+02
1.576646862309707853e+00 5.701180186544967228e+02
1.576746884314549124e+00 5.700877048985876172e+02
1.576846906319390174e+00 5.700571768514264477e+02
1.576946928324231223e+00 5.700264381519357357e+02
1.577046950329072494e+00 5.699954924549516591e+02
1.577146972333913544e+00 5.699643434308319456e+02
1.577246994338754371e+00 5.699329947650702479e+02
1.577347016343595421e+00 5.699014501579026728e+02
1.577447038348436470e+00 5.698697133239111281e+02
1.577547060353277519e+00 5.698377879916279198e+02
1.577647082358118791e+00 5.698056779031343240e+02
1.577747104362959840e+00 5.697733868136594992e+02
1.577847126367800668e+00 5.697409184911742841e+02
1.577947148372641717e+00 5.697082767159846526e+02
1.578047170377482988e+00 5.696754652803251702e+02
1.578147192382324038e+00 5.696424879879415357e+02
1.578247214387165087e+00 5.696093486536847195e+02
1.578347236392006137e+00 5.695760511030861153e+02
1.578447258396847186e+00 5.695425991719500871e+02
1.578547280401688013e+00 5.695089967059249147e+02
1.578647302406529285e+00 5.694752475600871549e+02
1.578747324411370334e+00 5.694413555985161111e+02
1.578847346416211384e+00 5.694073246938677357e+02
1.578947368421052655e+00 5.693731587269492138e+02
1.579047390425893704e+00 5.693388615862882034e+02
1.579147412430734754e+00 5.693044371677037816e+02
1.579247434435575581e+00 5.692698893738739798e+02
1.579347456440416630e+00 5.692352221139022959e+02
1.579447478445257680e+00 5.692004393028817049e+02
1.579547500450098951e+00 5.691655448614592387e+02
1.579647522454940001e+00 5.691305427153971550e+02
1.579747544459781050e+00 5.690954367951334234e+02
1.579847566464622322e+00 5.690602310353425537e+02
1.579947588469463149e+00 5.690249293744934675e+02
1.580047610474304198e+00 5.689895357544045282e+02
1.580147632479145248e+00 5.689540541198022083e+02
1.580247654483986297e+00 5.689184884178755510e+02
1.580347676488827346e+00 5.688828425978286987e+02
1.580447698493668618e+00 5.688471206104347857e+02
1.580547720498509667e+00 5.688113264075892630e+02
1.580647742503350495e+00 5.687754639418592433e+02
1.580747764508191544e+00 5.687395371660356886e+02
1.580847786513032815e+00 5.687035500326840065e+02
1.580947808517873865e+00 5.686675064936900981e+02
1.581047830522714914e+00 5.686314104998137964e+02
1.581147852527555964e+00 5.685952660002334369e+02
1.581247874532397013e+00 5.685590769420950892e+02
1.581347896537237840e+00 5.685228472700612201e+02
1.581447918542079112e+00 5.684865809258537865e+02
1.581547940546920161e+00 5.684502818478076733e+02
1.581647962551761211e+00 5.684139539704116260e+02
1.581747984556602482e+00 5.683776012238552084e+02
1.581848006561443531e+00 5.683412275335808772e+02
1.581948028566284581e+00 5.683048368198224125e+02
1.582048050571125408e+00 5.682684329971572197e+02
1.582148072575966458e+00 5.682320199740495354e+02
1.582248094580807507e+00 5.681956016523997732e+02
1.582348116585648778e+00 5.681591819270890937e+02
1.582448138590489828e+00 5.681227646855285229e+02
1.582548160595330877e+00 5.680863538072038637e+02
1.582648182600172149e+00 5.680499531632269736e+02
1.582748204605012976e+00 5.680135666158815866e+02
1.582848226609854025e+00 5.679771980181722029e+02
1.582948248614695075e+00 5.679408512133754812e+02
1.583048270619536124e+00 5.679045300345891292e+02
1.583148292624377174e+00 5.678682383042810216e+02
1.583248314629218445e+00 5.678319798338441160e+02
1.583348336634059494e+00 5.677957584231459123e+02
1.583448358638900322e+00 5.677595778600837093e+02
1.583548380643741371e+00 5.677234419201374749e+02
1.583648402648582643e+00 5.676873543659257848e+02
1.583748424653423692e+00 5.676513189467599432e+02
1.583848446658264741e+00 5.676153393982058333e+02
1.583948468663105791e+00 5.675794194416373557e+02
1.584048490667946840e+00 5.675435627837995298e+02
1.584148512672787668e+00 5.675077731163673889e+02
1.584248534677628939e+00 5.674720541155112414e+02
1.584348556682469988e+00 5.674364094414568171e+02
1.584448578687311038e+00 5.674008427380530293e+02
1.584548600692152309e+00 5.673653576323387142e+02
1.584648622696993359e+00 5.673299577341095983e+02
1.584748644701834408e+00 5.672946466354887889e+02
1.584848666706675235e+00 5.672594279105007899e+02
1.584948688711516285e+00 5.672243051146410835e+02
1.585048710716357334e+00 5.671892817844545789e+02
1.585148732721198606e+00 5.671543614371113335e+02
1.585248754726039655e+00 5.671195475699864801e+02
1.585348776730880704e+00 5.670848436602411766e+02
1.585448798735721976e+00 5.670502531644043529e+02
1.585548820740562803e+00 5.670157795179610503e+02
1.585648842745403853e+00 5.669814261349375784e+02
1.585748864750244902e+00 5.669471964074907646e+02
1.585848886755085951e+00 5.669130937055019785e+02
1.585948908759927001e+00 5.668791213761705876e+02
1.586048930764768272e+00 5.668452827436098005e+02
1.586148952769609322e+00 5.668115811084460347e+02
1.586248974774450149e+00 5.667780197474222632e+02
1.586348996779291198e+00 5.667446019130003378e+02
1.586449018784132470e+00 5.667113308329676329e+02
1.586549040788973519e+00 5.666782097100483497e+02
1.586649062793814569e+00 5.666452417215135711e+02
1.586749084798655618e+00 5.666124300187977951e+02
1.586849106803496667e+00 5.665797777271166069e+02
1.586949128808337495e+00 5.665472879450848041e+02
1.587049150813178766e+00 5.665149637443439588e+02
1.587149172818019816e+00 5.664828081691862280e+02
1.587249194822860865e+00 5.664508242361844168e+02
1.587349216827702136e+00 5.664190149338246556e+02
1.587449238832543186e+00 5.663873832221438533e+02
1.587549260837384235e+00 5.663559320323646489e+02
1.587649282842225062e+00 5.663246642665422996e+02
1.587749304847066112e+00 5.662935827972070228e+02
1.587849326851907161e+00 5.662626904670142949e+02
1.587949348856748433e+00 5.662319900883958326e+02
1.588049370861589482e+00 5.662014844432161453e+02
1.588149392866430532e+00 5.661711762824318157e+02
1.588249414871271803e+00 5.661410683257530536e+02
1.588349436876112630e+00 5.661111632613113898e+02
1.588449458880953680e+00 5.660814637453270279e+02
1.588549480885794729e+00 5.660519724017858607e+02
1.588649502890635778e+00 5.660226918221136430e+02
1.588749524895476828e+00 5.659936245648571003e+02
1.588849546900318099e+00 5.659647731553716312e+02
1.588949568905159149e+00 5.659361400855054853e+02
1.589049590909999976e+00 5.659077278132959918e+02
1.589149612914841025e+00 5.658795387626645379e+02
1.589249634919682297e+00 5.658515753231159806e+02
1.589349656924523346e+00 5.658238398494438570e+02
1.589449678929364396e+00 5.657963346614403690e+02
1.589549700934205445e+00 5.657690620436057998e+02
1.589649722939046494e+00 5.657420242448669114e+02
1.589749744943887322e+00 5.657152234782990945e+02
1.589849766948728593e+00 5.656886619208482898e+02
1.589949788953569643e+00 5.656623417130635971e+02
1.590049810958410692e+00 5.656362649588273825e+02
1.590149832963251963e+00 5.656104337250975505e+02
1.590249854968093013e+00 5.655848500416465185e+02
1.590349876972934062e+00 5.655595159008075825e+02
1.590449898977774890e+00 5.655344332572300345e+02
1.590549920982615939e+00 5.655096040276303029e+02
1.590649942987456988e+00 5.654850300905552558e+02
1.590749964992298260e+00 5.654607132861438004e+02
1.590849986997139309e+00 5.654366554159016687e+02
1.590950009001980359e+00 5.654128582424687011e+02
1.591050031006821630e+00 5.653893234894012494e+02
1.591150053011662457e+00 5.653660528409550352e+02
1.591250075016503507e+00 5.653430479418731238e+02
1.591350097021344556e+00 5.653203103971778773e+02
1.591450119026185606e+00 5.652978417719685922e+02
1.591550141031026655e+00 5.652756435912244797e+02
1.591650163035867926e+00 5.652537173396115122e+02
1.591750185040708976e+00 5.652320644612932483e+02
1.591850207045549803e+00 5.652106863597502979e+02
1.591950229050390853e+00 5.651895843975980824e+02
1.592050251055232124e+00 5.651687598964190329e+02
1.592150273060073173e+00 5.651482141365885354e+02
1.592250295064914223e+00 5.651279483571156561e+02
1.592350317069755272e+00 5.651079637554832971e+02
1.592450339074596322e+00 5.650882614874948331e+02
1.592550361079437149e+00 5.650688426671263187e+02
1.592650383084278420e+00 5.650497083663830153e+02
1.592750405089119470e+00 5.650308596151626261e+02
1.592850427093960519e+00 5.650122974011201222e+02
1.592950449098801791e+00 5.649940226695417778e+02
1.593050471103642840e+00 5.649760363232222744e+02
1.593150493108483889e+00 5.649583392223478313e+02
1.593250515113324717e+00 5.649409321843813814e+02
1.593350537118165766e+00 5.649238159839603668e+02
1.593450559123006816e+00 5.649069913527905555e+02
1.593550581127848087e+00 5.648904589795521360e+02
1.593650603132689136e+00 5.648742195098074035e+02
1.593750625137530186e+00 5.648582735459160631e+02
1.593850647142371457e+00 5.648426216469520114e+02
1.593950669147212285e+00 5.648272643286329640e+02
1.594050691152053334e+00 5.648122020632458771e+02
1.594150713156894383e+00 5.647974352795827144e+02
1.594250735161735433e+00 5.647829643628850818e+02
1.594350757166576482e+00 5.647687896547861328e+02
1.594450779171417754e+00 5.647549114532648673e+02
1.594550801176258803e+00 5.647413300126008835e+02
1.594650823181099630e+00 5.647280455433386805e+02
1.594750845185940680e+00 5.647150582122520746e+02
1.594850867190781951e+00 5.647023681423227117e+02
1.594950889195623001e+00 5.646899754127139204e+02
1.595050911200464050e+00 5.646778800587550222e+02
1.595150933205305099e+00 5.646660820719330331e+02
1.595250955210145927e+00 5.646545813998864105e+02
1.595350977214986976e+00 5.646433779464036888e+02
1.595450999219828248e+00 5.646324715714318927e+02
1.595551021224669297e+00 5.646218620910834716e+02
1.595651043229510346e+00 5.646115492776582414e+02
1.595751065234351618e+00 5.646015328596612335e+02
1.595851087239192667e+00 5.645918125218315708e+02
1.595951109244033495e+00 5.645823879051743006e+02
1.596051131248874544e+00 5.645732586070005254e+02
1.596151153253715593e+00 5.645644241809682171e+02
1.596251175258556643e+00 5.645558841371350809e+02
1.596351197263397914e+00 5.645476379420090325e+02
1.596451219268238964e+00 5.645396850186118627e+02
1.596551241273080013e+00 5.645320247465417651e+02
1.596651263277920840e+00 5.645246564620453000e+02
1.596751285282762112e+00 5.645175794580940192e+02
1.596851307287603161e+00 5.645107929844654109e+02
1.596951329292444210e+00 5.645042962478290747e+02
1.597051351297285260e+00 5.644980884118417634e+02
1.597151373302126309e+00 5.644921685972412888e+02
1.597251395306967581e+00 5.644865358819529320e+02
1.597351417311808408e+00 5.644811893011969914e+02
1.597451439316649457e+00 5.644761278476005373e+02
1.597551461321490507e+00 5.644713504713191696e+02
1.597651483326331778e+00 5.644668560801604826e+02
1.597751505331172828e+00 5.644626435397133264e+02
1.597851527336013877e+00 5.644587116734825258e+02
1.597951549340854926e+00 5.644550592630311030e+02
1.598051571345695754e+00 5.644516850481229540e+02
1.598151593350536803e+00 5.644485877268760987e+02
1.598251615355378075e+00 5.644457659559168405e+02
1.598351637360219124e+00 5.644432183505424518e+02
1.598451659365060173e+00 5.644409434848861338e+02
1.598551681369901445e+00 5.644389398920885696e+02
1.598651703374742494e+00 5.644372060644774365e+02
1.598751725379583322e+00 5.644357404537432785e+02
1.598851747384424371e+00 5.644345414711340254e+02
1.598951769389265420e+00 5.644336074876404155e+02
1.599051791394106470e+00 5.644329368341956297e+02
1.599151813398947741e+00 5.644325278018775407e+02
1.599251835403788791e+00 5.644323786421168734e+02
1.599351857408629840e+00 5.644324875669055928e+02
1.599451879413470667e+00 5.644328527490171155e+02
1.599551901418311939e+00 5.644334723222276580e+02
1.599651923423152988e+00 5.644343443815416776e+02
1.599751945427994038e+00 5.644354669834265223e+02
1.599851967432835087e+00 5.644368381460449200e+02
1.599951989437676136e+00 5.644384558494992916e+02
1.600052011442517408e+00 5.644403180360774286e+02
1.600152033447358235e+00 5.644424226105032858e+02
1.600252055452199285e+00 5.644447674401923223e+02
1.600352077457040334e+00 5.644473503555116167e+02
1.600452099461881605e+00 5.644501691500457810e+02
1.600552121466722655e+00 5.644532215808661704e+02
1.600652143471563704e+00 5.644565053688062335e+02
1.600752165476404754e+00 5.644600181987375436e+02
1.600852187481245581e+00 5.644637577198564031e+02
1.600952209486086630e+00 5.644677215459691979e+02
1.601052231490927902e+00 5.644719072557868458e+02
1.601152253495768951e+00 5.644763123932210647e+02
1.601252275500610001e+00 5.644809344676838236e+02
1.601352297505451272e+00 5.644857709543938427e+02
1.601452319510292321e+00 5.644908192946895724e+02
1.601552341515133149e+00 5.644960768963369446e+02
1.601652363519974198e+00 5.645015411338533795e+02
1.601752385524815248e+00 5.645072093488274731e+02
1.601852407529656297e+00 5.645130788502473251e+02
1.601952429534497568e+00 5.645191469148296619e+02
1.602052451539338618e+00 5.645254107873552130e+02
1.602152473544179667e+00 5.645318676810099987e+02
1.602252495549020495e+00 5.645385147777245720e+02
1.602352517553861766e+00 5.645453492285230368e+02
1.602452539558702815e+00 5.645523681538743404e+02
1.602552561563543865e+00 5.645595686440451573e+02
1.602652583568384914e+00 5.645669477594595946e+02
1.602752605573225964e+00 5.645745025310619667e+02
1.602852627578067235e+00 5.645822299606807064e+02
1.602952649582908062e+00 5.645901270214002352e+02
1.603052671587749112e+00 5.645981906579334009e+02
1.603152693592590161e+00 5.646064177869977811e+02
1.603252715597431433e+00 5.646148052976971030e+02
1.603352737602272482e+00 5.646233500519050494e+02
1.603452759607113531e+00 5.646320488846513399e+02
1.603552781611954581e+00 5.646408986045147458e+02
1.603652803616795408e+00 5.646498959940156510e+02
1.603752825621636457e+00 5.646590378100136149e+02
1.603852847626477729e+00 5.646683207841073227e+02
1.603952869631318778e+00 5.646777416230424933e+02
1.604052891636159828e+00 5.646872970091114894e+02
1.604152913641001099e+00 5.646969836005710022e+02
1.604252935645842149e+00 5.647067980320512106e+02
1.604352957650682976e+00 5.647167369149719889e+02
1.604452979655524025e+00 5.647267968379633203e+02
1.604553001660365075e+00 5.647369743672873028e+02
1.604653023665206124e+00 5.647472660472602684e+02
1.604753045670047396e+00 5.647576684006841106e+02
1.604853067674888445e+00 5.647681779292752253e+02
1.604953089679729494e+00 5.647787911140961796e+02
1.605053111684570322e+00 5.647895044159922691e+02
1.605153133689411593e+00 5.648003142760305764e+02
1.605253155694252643e+00 5.648112171159397121e+02
1.605353177699093692e+00 5.648222093385522840e+02
1.605453199703934741e+00 5.648332873282527089e+02
1.605553221708775791e+00 5.648444474514215017e+02
1.605653243713617062e+00 5.648556860568901357e+02
1.605753265718457889e+00 5.648669994763879458e+02
1.605853287723298939e+00 5.648783840250021058e+02
1.605953309728139988e+00 5.648898360016296465e+02
1.606053331732981260e+00 5.649013516894393661e+02
1.606153353737822309e+00 5.649129273563310107e+02
1.606253375742663358e+00 5.649245592553983215e+02
1.606353397747504408e+00 5.649362436253935584e+02
1.606453419752345235e+00 5.649479766911930483e+02
1.606553441757186285e+00 5.649597546642671659e+02
1.606653463762027556e+00 5.649715737431481557e+02
1.606753485766868605e+00 5.649834301139019317e+02
1.606853507771709655e+00 5.649953199506034025e+02
1.606953529776550926e+00 5.650072394158061115e+02
1.607053551781391976e+00 5.650191846610234734e+02
1.607153573786232803e+00 5.650311518272042122e+02
1.607253595791073852e+00 5.650431370452084820e+02
1.607353617795914902e+00 5.650551364362925142e+02
1.607453639800755951e+00 5.650671461125871247e+02
1.607553661805597223e+00 5.650791621775791782e+02
1.607653683810438272e+00 5.650911807265971447e+02
1.607753705815279321e+00 5.651031978472963146e+02
1.607853727820120149e+00 5.651152096201412860e+02
1.607953749824961420e+00 5.651272121188948176e+02
1.608053771829802470e+00 5.651392014111039543e+02
1.608153793834643519e+00 5.651511735585881979e+02
1.608253815839484568e+00 5.651631246179297250e+02
1.608353837844325618e+00 5.651750506409600803e+02
1.608453859849166889e+00 5.651869476752531227e+02
1.608553881854007717e+00 5.651988117646145611e+02
1.608653903858848766e+00 5.652106389495713756e+02
1.608753925863689815e+00 5.652224252678661287e+02
1.608853947868531087e+00 5.652341667549470685e+02
1.608953969873372136e+00 5.652458594444606206e+02
1.609053991878213186e+00 5.652574993687444476e+02
1.609154013883054235e+00 5.652690825593186901e+02
1.609254035887895062e+00 5.652806050473794812e+02
1.609354057892736112e+00 5.652920628642928023e+02
1.609454079897577383e+00 5.653034520420849276e+02
1.609554101902418433e+00 5.653147686139363941e+02
1.609654123907259482e+00 5.653260086146740377e+02
1.609754145912100753e+00 5.653371680812638260e+02
1.609854167916941803e+00 5.653482430533022125e+02
1.609954189921782630e+00 5.653592295735089692e+02
1.610054211926623680e+00 5.653701236882164949e+02
1.610154233931464729e+00 5.653809214478627609e+02
1.610254255936305778e+00 5.653916189074808472e+02
1.610354277941147050e+00 5.654022121271873402e+02
1.610454299945988099e+00 5.654126971726740294e+02
1.610554321950829149e+00 5.654230701156955092e+02
1.610654343955669976e+00 5.654333270345546225e+02
1.610754365960511247e+00 5.654434640145930189e+02
1.610854387965352297e+00 5.654534771486743239e+02
1.610954409970193346e+00 5.654633625376702639e+02
1.611054431975034396e+00 5.654731162909444038e+02
1.611154453979875445e+00 5.654827345268356567e+02
1.611254475984716716e+00 5.654922133731399754e+02
1.611354497989557544e+00 5.655015489675903382e+02
1.611454519994398593e+00 5.655107374583360524e+02
1.611554541999239643e+00 5.655197750044229679e+02
1.611654564004080914e+00 5.655286577762680054e+02
1.611754586008921963e+00 5.655373819561343680e+02
1.611854608013763013e+00 5.655459437386084574e+02
1.611954630018604062e+00 5.655543393310678084e+02
1.612054652023444890e+00 5.655625649541543680e+02
1.612154674028285939e+00 5.655706168422439077e+02
1.612254696033127210e+00 5.655784912439119125e+02
1.612354718037968260e+00 5.655861844223995831e+02
1.612454740042809309e+00 5.655936926560787015e+02
1.612554762047650581e+00 5.656010122389110393e+02
1.612654784052491408e+00 5.656081394809112908e+02
1.612754806057332457e+00 5.656150707086011380e+02
1.612854828062173507e+00 5.656218022654693414e+02
1.612954850067014556e+00 5.656283305124212575e+02
1.613054872071855605e+00 5.656346518282337001e+02
1.613154894076696877e+00 5.656407626100019570e+02
1.613254916081537926e+00 5.656466592735882841e+02
1.613354938086378754e+00 5.656523382540647162e+02
1.613454960091219803e+00 5.656577960061576960e+02
1.613554982096061075e+00 5.656630290046846312e+02
1.613655004100902124e+00 5.656680337449944318e+02
1.613755026105743173e+00 5.656728067434003151e+02
1.613855048110584223e+00 5.656773445376126119e+02
1.613955070115425272e+00 5.656816436871665701e+02
1.614055092120266099e+00 5.656857007738511811e+02
1.614155114125107371e+00 5.656895124021324364e+02
1.614255136129948420e+00 5.656930751995732862e+02
1.614355158134789470e+00 5.656963858172520077e+02
1.614455180139630741e+00 5.656994409301796622e+02
1.614555202144471791e+00 5.657022372377099373e+02
1.614655224149312840e+00 5.657047714639479636e+02
1.614755246154153667e+00 5.657070403581587925e+02
1.614855268158994717e+00 5.657090406951689374e+02
1.614955290163835766e+00 5.657107692757659834e+02
1.615055312168677037e+00 5.657122229270966045e+02
1.615155334173518087e+00 5.657133985030568510e+02
1.615255356178359136e+00 5.657142928846850509e+02
1.615355378183200408e+00 5.657149029805485725e+02
1.615455400188041235e+00 5.657152257271238796e+02
1.615555422192882284e+00 5.657152580891781781e+02
1.615655444197723334e+00 5.657149970601475388e+02
1.615755466202564383e+00 5.657144396625051286e+02
1.615855488207405433e+00 5.657135829481337623e+02
1.615955510212246704e+00 5.657124239986890188e+02
1.616055532217087753e+00 5.657109599259629249e+02
1.616155554221928581e+00 5.657091878722396814e+02
1.616255576226769630e+00 5.657071050106518442e+02
1.616355598231610902e+00 5.657047085455280921e+02
1.616455620236451951e+00 5.657019957127432690e+02
1.616555642241293000e+00 5.656989637800560331e+02
1.616655664246134050e+00 5.656956100474524192e+02
1.616755686250975099e+00 5.656919318474766669e+02
1.616855708255815927e+00 5.656879265455631867e+02
1.616955730260657198e+00 5.656835915403634090e+02
1.617055752265498247e+00 5.656789242640670636e+02
1.617155774270339297e+00 5.656739221827207302e+02
1.617255796275180568e+00 5.656685827965422959e+02
1.617355818280021618e+00 5.656629036402302972e+02
1.617455840284862667e+00 5.656568822832692831e+02
1.617555862289703494e+00 5.656505163302315395e+02
1.617655884294544544e+00 5.656438034210721071e+02
1.617755906299385593e+00 5.656367412314250487e+02
1.617855928304226865e+00 5.656293274728867573e+02
1.617955950309067914e+00 5.656215598933040383e+02
1.618055972313908963e+00 5.656134362770502548e+02
1.618155994318750235e+00 5.656049544453007911e+02
1.618256016323591062e+00 5.655961122563035133e+02
1.618356038328432112e+00 5.655869076056451377e+02
1.618456060333273161e+00 5.655773384265091863e+02
1.618556082338114210e+00 5.655674026899367846e+02
1.618656104342955260e+00 5.655570984050739298e+02
1.618756126347796531e+00 5.655464236194208070e+02
1.618856148352637581e+00 5.655353764190747370e+02
1.618956170357478408e+00 5.655239549289663046e+02
1.619056192362319457e+00 5.655121573130911656e+02
1.619156214367160729e+00 5.654999817747407178e+02
1.619256236372001778e+00 5.654874265567225393e+02
1.619356258376842828e+00 5.654744899415820782e+02
1.619456280381683877e+00 5.654611702518111542e+02
1.619556302386524926e+00 5.654474658500607802e+02
1.619656324391365754e+00 5.654333751393439798e+02
1.619756346396207025e+00 5.654188965632316695e+02
1.619856368401048075e+00 5.654040286060495646e+02
1.619956390405889124e+00 5.653887697930655349e+02
1.620056412410730395e+00 5.653731186906734365e+02
1.620156434415571445e+00 5.653570739065710313e+02
1.620256456420412494e+00 5.653406340899359748e+02
1.620356478425253322e+00 5.653237979315906614e+02
1.620456500430094371e+00 5.653065641641694583e+02
1.620556522434935420e+00 5.652889315622745698e+02
1.620656544439776692e+00 5.652708989426312201e+02
1.620756566444617741e+00 5.652524651642326035e+02
1.620856588449458791e+00 5.652336291284873369e+02
1.620956610454300062e+00 5.652143897793533824e+02
1.621056632459140889e+00 5.651947461034729940e+02
1.621156654463981939e+00 5.651746971302989095e+02
1.621256676468822988e+00 5.651542419322180422e+02
1.621356698473664038e+00 5.651333796246665315e+02
1.621456720478505087e+00 5.651121093662433168e+02
1.621556742483346358e+00 5.650904303588160928e+02
1.621656764488187408e+00 5.650683418476228326e+02
1.621756786493028235e+00 5.650458431213664880e+02
1.621856808497869284e+00 5.650229335123085548e+02
1.621956830502710556e+00 5.649996123963524042e+02
1.622056852507551605e+00 5.649758791931244559e+02
1.622156874512392655e+00 5.649517333660489840e+02
1.622256896517233704e+00 5.649271744224184886e+02
1.622356918522074753e+00 5.649022019134549737e+02
1.622456940526915581e+00 5.648768154343753167e+02
1.622556962531756852e+00 5.648510146244387897e+02
1.622656984536597902e+00 5.648247991669993553e+02
1.622757006541438951e+00 5.647981687895468212e+02
1.622857028546280223e+00 5.647711232637467447e+02
1.622957050551121272e+00 5.647436624054710137e+02
1.623057072555962321e+00 5.647157860748262692e+02
1.623157094560803149e+00 5.646874941761758464e+02
1.623257116565644198e+00 5.646587866581567141e+02
1.623357138570485247e+00 5.646296635136886835e+02
1.623457160575326519e+00 5.646001247799847533e+02
1.623557182580167568e+00 5.645701705385478135e+02
1.623657204585008618e+00 5.645398009151678025e+02
1.623757226589849889e+00 5.645090160799117029e+02
1.623857248594690716e+00 5.644778162471091036e+02
1.623957270599531766e+00 5.644462016753305988e+02
1.624057292604372815e+00 5.644141726673635731e+02
1.624157314609213865e+00 5.643817295701787771e+02
1.624257336614054914e+00 5.643488727748982683e+02
1.624357358618896185e+00 5.643156027167498223e+02
1.624457380623737235e+00 5.642819198750228225e+02
1.624557402628578062e+00 5.642478247730151679e+02
1.624657424633419112e+00 5.642133179779772263e+02
1.624757446638260383e+00 5.641784001010481688e+02
1.624857468643101432e+00 5.641430717971901458e+02
1.624957490647942482e+00 5.641073337651140491e+02
1.625057512652783531e+00 5.640711867472018639e+02
1.625157534657624581e+00 5.640346315294257238e+02
1.625257556662465408e+00 5.639976689412566202e+02
1.625357578667306679e+00 5.639602998555726572e+02
1.625457600672147729e+00 5.639225251885623038e+02
1.625557622676988778e+00 5.638843458996175286e+02
1.625657644681830050e+00 5.638457629912277298e+02
1.625757666686671099e+00 5.638067775088658209e+02
1.625857688691512148e+00 5.637673905408687460e+02
1.625957710696352976e+00 5.637276032183140160e+02
1.626057732701194025e+00 5.636874167148916968e+02
1.626157754706035075e+00 5.636468322467715097e+02
1.626257776710876346e+00 5.636058510724612916e+02
1.626357798715717395e+00 5.635644744926661360e+02
1.626457820720558445e+00 5.635227038501395782e+02
1.626557842725399716e+00 5.634805405295285254e+02
1.626657864730240544e+00 5.634379859572187570e+02
1.626757886735081593e+00 5.633950416011676907e+02
1.626857908739922642e+00 5.633517089707381729e+02
1.626957930744763692e+00 5.633079896165273794e+02
1.627057952749604741e+00 5.632638851301861678e+02
1.627157974754446013e+00 5.632193971442409293e+02
1.627257996759287062e+00 5.631745273319031639e+02
1.627358018764127889e+00 5.631292774068795097e+02
1.627458040768968939e+00 5.630836491231762011e+02
1.627558062773810210e+00 5.630376442748963655e+02
1.627658084778651260e+00 5.629912646960360689e+02
1.627758106783492309e+00 5.629445122602737683e+02
1.627858128788333358e+00 5.628973888807557842e+02
1.627958150793174408e+00 5.628498965098774534e+02
1.628058172798015235e+00 5.628020371390597347e+02
1.628158194802856507e+00 5.627538127985203573e+02
1.628258216807697556e+00 5.627052255570424677e+02
1.628358238812538605e+00 5.626562775217377066e+02
1.628458260817379877e+00 5.626069708378030327e+02
1.628558282822220926e+00 5.625573076882799342e+02
1.628658304827061976e+00 5.625072902937997696e+02
1.628758326831902803e+00 5.624569209123326345e+02
1.628858348836743852e+00 5.624062018389289506e+02
1.628958370841584902e+00 5.623551354054563944e+02
1.629058392846426173e+00 5.623037239803330749e+02
1.629158414851267223e+00 5.622519699682596865e+02
1.629258436856108272e+00 5.621998758099408633e+02
1.629358458860949543e+00 5.621474439818101700e+02
1.629458480865790371e+00 5.620946769957456581e+02
1.629558502870631420e+00 5.620415773987834882e+02
1.629658524875472470e+00 5.619881477728281425e+02
1.629758546880313519e+00 5.619343907343577484e+02
1.629858568885154568e+00 5.618803089341255372e+02
1.629958590889995840e+00 5.618259050568597104e+02
1.630058612894836667e+00 5.617711818209548937e+02
1.630158634899677716e+00 5.617161419781652967e+02
1.630258656904518766e+00 5.616607883132911638e+02
1.630358678909360037e+00 5.616051236438619298e+02
1.630458700914201087e+00 5.615491508198158499e+02
1.630558722919042136e+00 5.614928727231769017e+02
1.630658744923883186e+00 5.614362922677271399e+02
1.630758766928724013e+00 5.613794123986764362e+02
1.630858788933565062e+00 5.613222360923292626e+02
1.630958810938406334e+00 5.612647663557448823e+02
1.631058832943247383e+00 5.612070062263996988e+02
1.631158854948088432e+00 5.611489587718421035e+02
1.631258876952929704e+00 5.610906270893447072e+02
1.631358898957770753e+00 5.610320143055560038e+02
1.631458920962611581e+00 5.609731235761443031e+02
1.631558942967452630e+00 5.609139580854439373e+02
1.631658964972293679e+00 5.608545210460955559e+02
1.631758986977134729e+00 5.607948156986815320e+02
1.631859008981976000e+00 5.607348453113620508e+02
1.631959030986817050e+00 5.606746131795089241e+02
1.632059052991658099e+00 5.606141226253297418e+02
1.632159074996498926e+00 5.605533769974990719e+02
1.632259097001340198e+00 5.604923796707792008e+02
1.632359119006181247e+00 5.604311340456415564e+02
1.632459141011022297e+00 5.603696435478846070e+02
1.632559163015863346e+00 5.603079116282510768e+02
1.632659185020704395e+00 5.602459417620377735e+02
1.632759207025545667e+00 5.601837374487095076e+02
1.632859229030386494e+00 5.601213022115056219e+02
1.632959251035227544e+00 5.600586395970453850e+02
1.633059273040068593e+00 5.599957531749332702e+02
1.633159295044909864e+00 5.599326465373590054e+02
1.633259317049750914e+00 5.598693232986959174e+02
1.633359339054591963e+00 5.598057870950991628e+02
1.633459361059433013e+00 5.597420415840994110e+02
1.633559383064273840e+00 5.596780904441963003e+02
1.633659405069114889e+00 5.596139373744493923e+02
1.633759427073956161e+00 5.595495860940645798e+02
1.633859449078797210e+00 5.594850403419841314e+02
1.633959471083638260e+00 5.594203038764694611e+02
1.634059493088479531e+00 5.593553804746859441e+02
1.634159515093320580e+00 5.592902739322814796e+02
1.634259537098161408e+00 5.592249880629700556e+02
1.634359559103002457e+00 5.591595266981061059e+02
1.634459581107843507e+00 5.590938936862655737e+02
1.634559603112684556e+00 5.590280928928162893e+02
1.634659625117525827e+00 5.589621281994934634e+02
1.634759647122366877e+00 5.588960035039732475e+02
1.634859669127207926e+00 5.588297227194406105e+02
1.634959691132048754e+00 5.587632897741621036e+02
1.635059713136890025e+00 5.586967086110511218e+02
1.635159735141731074e+00 5.586299831872366894e+02
1.635259757146572124e+00 5.585631174736288358e+02
1.635359779151413173e+00 5.584961154544836290e+02
1.635459801156254223e+00 5.584289811269669599e+02
1.635559823161095494e+00 5.583617185007162789e+02
1.635659845165936321e+00 5.582943315974041525e+02
1.635759867170777371e+00 5.582268244502987500e+02
1.635859889175618420e+00 5.581592011038229657e+02
1.635959911180459692e+00 5.580914656131158154e+02
1.636059933185300741e+00 5.580236220435897394e+02
1.636159955190141790e+00 5.579556744704891571e+02
1.636259977194982840e+00 5.578876269784476563e+02
1.636359999199823667e+00 5.578194836610459788e+02
1.636460021204664717e+00 5.577512486203679600e+02
1.636560043209505988e+00 5.576829259665556719e+02
1.636660065214347037e+00 5.576145198173671815e+02
1.636760087219188087e+00 5.575460342977307846e+02
1.636860109224029358e+00 5.574774735392993534e+02
1.636960131228870408e+00 5.574088416800070718e+02
1.637060153233711235e+00 5.573401428636232140e+02
1.637160175238552284e+00 5.572713812393083117e+02
1.637260197243393334e+00 5.572025609611648633e+02
1.637360219248234383e+00 5.571336861877974798e+02
1.637460241253075655e+00 5.570647610818637077e+02
1.637560263257916704e+00 5.569957898096308782e+02
1.637660285262757753e+00 5.569267765405302271e+02
1.637760307267598581e+00 5.568577254467134026e+02
1.637860329272439852e+00 5.567886407026051074e+02
1.637960351277280902e+00 5.567195264844638132e+02
1.638060373282121951e+00 5.566503869699354254e+02
1.638160395286963000e+00 5.565812263376078590e+02
1.638260417291804050e+00 5.565120487665735709e+02
1.638360439296645321e+00 5.564428584359824299e+02
1.638460461301486148e+00 5.563736595246041361e+02
1.638560483306327198e+00 5.563044562103845010e+02
1.638660505311168247e+00 5.562352526700069575e+02
1.638760527316009519e+00 5.561660530784533876e+02
1.638860549320850568e+00 5.560968616085634721e+02
1.638960571325691618e+00 5.560276824306006347e+02
1.639060593330532667e+00 5.559585197118108226e+02
1.639160615335373494e+00 5.558893776159915205e+02
1.639260637340214544e+00 5.558202603030539422e+02
1.639360659345055815e+00 5.557511719285894287e+02
1.639460681349896864e+00 5.556821166434394854e+02
1.639560703354737914e+00 5.556130985932607018e+02
1.639660725359579185e+00 5.555441219180986536e+02
1.639760747364420235e+00 5.554751907519564611e+02
1.639860769369261062e+00 5.554063092223680087e+02
1.639960791374102111e+00 5.553374814499726426e+02
