2.600072015843485573e+00 5.193584876997980473e+02
2.600172037848325957e+00 5.193816850600827593e+02
2.600272059853167672e+00 5.194047409859423396e+02
2.600372081858008499e+00 5.194276556670049558e+02
2.600472103862849771e+00 5.194504292964571732e+02
2.600572125867690598e+00 5.194730620710372477e+02
2.600672147872531870e+00 5.194955541910267129e+02
2.600772169877372697e+00 5.195179058602418536e+02
2.600872191882213524e+00 5.195401172860273391e+02
2.600972213887055240e+00 5.195621886792478108e+02
2.601072235891895623e+00 5.195841202542806059e+02
2.601172257896737339e+00 5.196059122290076857e+02
2.601272279901578166e+00 5.196275648248085872e+02
2.601372301906419438e+00 5.196490782665487131e+02
2.601472323911260265e+00 5.196704527825789910e+02
2.601572345916101092e+00 5.196916886047185926e+02
2.601672367920942364e+00 5.197127859682547069e+02
2.601772389925783191e+00 5.197337451119298066e+02
2.601872411930624907e+00 5.197545662779358508e+02
2.601972433935465290e+00 5.197752497119053032e+02
2.602072455940307005e+00 5.197957956629026057e+02
2.602172477945147833e+00 5.198162043834159931e+02
2.602272499949988660e+00 5.198364761293505580e+02
2.602372521954829931e+00 5.198566111600177919e+02
2.602472543959670759e+00 5.198766097381296731e+02
2.602572565964512030e+00 5.198964721297876395e+02
2.602672587969352858e+00 5.199161986044764490e+02
2.602772609974194573e+00 5.199357894350546303e+02
2.602872631979034956e+00 5.199552448977456152e+02
2.602972653983876228e+00 5.199745652721303486e+02
2.603072675988717499e+00 5.199937508411366025e+02
2.603172697993558327e+00 5.200128018910342007e+02
2.603272719998399598e+00 5.200317187114222861e+02
2.603372742003240425e+00 5.200505015952224994e+02
2.603472764008081697e+00 5.200691508386699979e+02
2.603572786012922524e+00 5.200876667413056111e+02
2.603672808017763352e+00 5.201060496059648131e+02
2.603772830022604623e+00 5.201242997387714695e+02
2.603872852027445894e+00 5.201424174491263557e+02
2.603972874032287166e+00 5.201604030497023814e+02
2.604072896037127993e+00 5.201782568564287885e+02
2.604172918041969265e+00 5.201959791884899005e+02
2.604272940046810092e+00 5.202135703683103429e+02
2.604372962051650919e+00 5.202310307215494731e+02
2.604472984056492191e+00 5.202483605770896702e+02
2.604573006061333018e+00 5.202655602670304233e+02
2.604673028066174290e+00 5.202826301266745759e+02
2.604773050071015561e+00 5.202995704945237776e+02
2.604873072075856832e+00 5.203163817122677983e+02
2.604973094080697660e+00 5.203330641247727044e+02
2.605073116085538487e+00 5.203496180800755155e+02
2.605173138090379759e+00 5.203660439293713580e+02
2.605273160095220586e+00 5.203823420270084625e+02
2.605373182100061857e+00 5.203985127304732714e+02
2.605473204104902685e+00 5.204145564003860045e+02
2.605573226109743956e+00 5.204304734004874717e+02
2.605673248114585228e+00 5.204462640976325929e+02
2.605773270119425611e+00 5.204619288617790289e+02
2.605873292124267326e+00 5.204774680659780870e+02
2.605973314129108154e+00 5.204928820863649435e+02
2.606073336133949425e+00 5.205081713021497762e+02
2.606173358138790253e+00 5.205233360956077604e+02
2.606273380143631524e+00 5.205383768520694048e+02
2.606373402148472351e+00 5.205532939599108886e+02
2.606473424153313179e+00 5.205680878105433749e+02
2.606573446158154894e+00 5.205827587984050524e+02
2.606673468162995277e+00 5.205973073209506765e+02
2.606773490167836993e+00 5.206117337786411099e+02
2.606873512172677820e+00 5.206260385749342277e+02
2.606973534177519092e+00 5.206402221162749129e+02
2.607073556182359919e+00 5.206542848120843701e+02
2.607173578187200746e+00 5.206682270747518260e+02
2.607273600192042018e+00 5.206820493196232746e+02
2.607373622196882845e+00 5.206957519649921551e+02
2.607473644201724561e+00 5.207093354320893468e+02
2.607573666206564944e+00 5.207228001450721422e+02
2.607673688211406660e+00 5.207361465310148105e+02
2.607773710216247487e+00 5.207493750199009810e+02
2.607873732221088314e+00 5.207624860446088633e+02
2.607973754225929586e+00 5.207754800409047675e+02
2.608073776230770413e+00 5.207883574474315083e+02
2.608173798235611685e+00 5.208011187056981726e+02
2.608273820240452512e+00 5.208137642600709114e+02
2.608373842245294227e+00 5.208262945577615710e+02
2.608473864250134611e+00 5.208387100488174610e+02
2.608573886254975882e+00 5.208510111861130554e+02
2.608673908259817154e+00 5.208631984253363498e+02
2.608773930264657981e+00 5.208752722249820408e+02
2.608873952269499252e+00 5.208872330463379967e+02
2.608973974274340080e+00 5.208990813534780955e+02
2.609073996279181351e+00 5.209108176132494918e+02
2.609174018284022178e+00 5.209224422952614759e+02
2.609274040288863006e+00 5.209339558718783110e+02
2.609374062293704277e+00 5.209453588182068415e+02
2.609474084298545549e+00 5.209566516120850110e+02
2.609574106303386820e+00 5.209678347340728806e+02
2.609674128308227647e+00 5.209789086674418286e+02
2.609774150313068919e+00 5.209898738981643191e+02
2.609874172317909746e+00 5.210007309149015100e+02
2.609974194322750574e+00 5.210114802089958630e+02
2.610074216327591845e+00 5.210221222744569332e+02
2.610174238332432672e+00 5.210326576079536380e+02
2.610274260337273944e+00 5.210430867088020932e+02
2.610374282342115215e+00 5.210534100789550394e+02
2.610474304346956487e+00 5.210636282229918379e+02
2.610574326351797314e+00 5.210737416481075570e+02
2.610674348356638141e+00 5.210837508641013756e+02
2.610774370361479413e+00 5.210936563833671471e+02
2.610874392366320240e+00 5.211034587208815765e+02
2.610974414371161512e+00 5.211131583941936469e+02
2.611074436376002339e+00 5.211227559234146156e+02
2.611174458380843610e+00 5.211322518312063039e+02
2.611274480385684882e+00 5.211416466427701835e+02
2.611374502390525265e+00 5.211509408858372581e+02
2.611474524395366981e+00 5.211601350906564676e+02
2.611574546400207808e+00 5.211692297899846835e+02
2.611674568405049079e+00 5.211782255190744308e+02
2.611774590409889907e+00 5.211871228156629741e+02
2.611874612414731178e+00 5.211959222199651549e+02
2.611974634419572006e+00 5.212046242746561120e+02
2.612074656424412833e+00 5.212132295248648006e+02
2.612174678429254548e+00 5.212217385181621694e+02
2.612274700434094932e+00 5.212301518045483135e+02
2.612374722438936647e+00 5.212384699364440621e+02
2.612474744443777475e+00 5.212466934686788136e+02
2.612574766448618746e+00 5.212548229584780302e+02
2.612674788453459573e+00 5.212628589654549387e+02
2.612774810458300401e+00 5.212708020515964336e+02
2.612874832463141672e+00 5.212786527812543227e+02
2.612974854467982500e+00 5.212864117211332768e+02
2.613074876472824215e+00 5.212940794402794609e+02
2.613174898477664598e+00 5.213016565100692787e+02
2.613274920482506314e+00 5.213091435041997102e+02
2.613374942487347141e+00 5.213165409986742134e+02
2.613474964492187969e+00 5.213238495717945398e+02
2.613574986497029240e+00 5.213310698041477735e+02
2.613675008501870067e+00 5.213382022785950767e+02
2.613775030506711339e+00 5.213452475802612298e+02
2.613875052511552166e+00 5.213522062965232635e+02
2.613975074516393882e+00 5.213590790169979527e+02
2.614075096521234265e+00 5.213658663335322672e+02
2.614175118526075536e+00 5.213725688401907519e+02
2.614275140530916808e+00 5.213791871332448409e+02
2.614375162535757635e+00 5.213857218111616021e+02
2.614475184540598907e+00 5.213921734745906633e+02
2.614575206545439734e+00 5.213985427263577321e+02
2.614675228550281005e+00 5.214048301714450417e+02
2.614775250555121833e+00 5.214110364169887362e+02
2.614875272559962660e+00 5.214171620722609077e+02
2.614975294564803932e+00 5.214232077486622075e+02
2.615075316569645203e+00 5.214291740597075204e+02
2.615175338574486474e+00 5.214350616210173257e+02
2.615275360579327302e+00 5.214408710503035991e+02
2.615375382584168573e+00 5.214466029673606045e+02
2.615475404589009401e+00 5.214522579940511378e+02
2.615575426593850228e+00 5.214578367542960677e+02
2.615675448598691499e+00 5.214633398740659231e+02
2.615775470603532327e+00 5.214687679813623618e+02
2.615875492608373598e+00 5.214741217062135092e+02
2.615975514613214870e+00 5.214794016806589525e+02
2.616075536618056141e+00 5.214846085387379162e+02
2.616175558622896968e+00 5.214897429164802816e+02
2.616275580627737796e+00 5.214948054518919207e+02
2.616375602632579067e+00 5.214997967849453744e+02
2.616475624637419894e+00 5.215047175575675737e+02
2.616575646642261166e+00 5.215095684136274485e+02
2.616675668647101993e+00 5.215143499989256952e+02
2.616775690651943265e+00 5.215190629611821578e+02
2.616875712656784536e+00 5.215237079500238906e+02
2.616975734661624919e+00 5.215282856169752677e+02
2.617075756666466635e+00 5.215327966154445676e+02
2.617175778671307462e+00 5.215372416007119227e+02
2.617275800676148734e+00 5.215416212299205654e+02
2.617375822680989561e+00 5.215459361620617074e+02
2.617475844685830833e+00 5.215501870579649903e+02
2.617575866690671660e+00 5.215543745802856392e+02
2.617675888695512487e+00 5.215584993934934346e+02
2.617775910700354203e+00 5.215625621638612301e+02
2.617875932705194586e+00 5.215665635594519927e+02
2.617975954710036302e+00 5.215705042501085700e+02
2.618075976714877129e+00 5.215743849074408445e+02
2.618175998719718400e+00 5.215782062048145917e+02
2.618276020724559228e+00 5.215819688173387476e+02
2.618376042729400055e+00 5.215856734218551765e+02
2.618476064734241326e+00 5.215893206969258244e+02
2.618576086739082154e+00 5.215929113228211236e+02
2.618676108743923869e+00 5.215964459815082819e+02
2.618776130748764253e+00 5.215999253566385505e+02
2.618876152753605968e+00 5.216033501335384699e+02
2.618976174758446795e+00 5.216067209991938398e+02
2.619076196763287623e+00 5.216100386422408519e+02
2.619176218768128894e+00 5.216133037529533567e+02
2.619276240772969722e+00 5.216165170232293349e+02
2.619376262777810993e+00 5.216196791465829392e+02
2.619476284782651820e+00 5.216227908181303974e+02
2.619576306787493536e+00 5.216258527345758012e+02
2.619676328792333919e+00 5.216288655942038304e+02
2.619776350797175191e+00 5.216318300968642916e+02
2.619876372802016462e+00 5.216347469439624547e+02
2.619976394806857289e+00 5.216376168384451830e+02
2.620076416811698561e+00 5.216404404847911565e+02
2.620176438816539388e+00 5.216432185889970015e+02
2.620276460821380660e+00 5.216459518585672868e+02
2.620376482826221487e+00 5.216486410025005398e+02
2.620476504831062314e+00 5.216512867312789012e+02
2.620576526835903586e+00 5.216538897568553921e+02
2.620676548840744857e+00 5.216564507926432270e+02
2.620776570845586129e+00 5.216589705535006942e+02
2.620876592850426956e+00 5.216614497557235381e+02
2.620976614855268227e+00 5.216638891170296120e+02
2.621076636860109055e+00 5.216662893565488730e+02
2.621176658864949882e+00 5.216686511948100815e+02
2.621276680869791154e+00 5.216709753537297729e+02
2.621376702874631981e+00 5.216732625565996386e+02
2.621476724879473252e+00 5.216755135280750437e+02
2.621576746884314524e+00 5.216777289941626350e+02
2.621676768889155795e+00 5.216799096822087449e+02
2.621776790893996623e+00 5.216820563208868862e+02
2.621876812898837450e+00 5.216841696401859281e+02
2.621976834903678721e+00 5.216862503713985006e+02
2.622076856908519549e+00 5.216882992471088301e+02
2.622176878913360820e+00 5.216903170011793236e+02
2.622276900918201648e+00 5.216923043687415884e+02
2.622376922923042919e+00 5.216942620861801743e+02
2.622476944927884190e+00 5.216961908911255250e+02
2.622576966932724574e+00 5.216980915224366981e+02
2.622676988937566289e+00 5.216999647201939752e+02
2.622777010942407117e+00 5.217018112256839686e+02
2.622877032947248388e+00 5.217036317813881396e+02
2.622977054952089215e+00 5.217054271309710884e+02
2.623077076956930487e+00 5.217071980192682759e+02
2.623177098961771314e+00 5.217089451922737453e+02
2.623277120966612141e+00 5.217106693971293225e+02
2.623377142971453857e+00 5.217123713821101774e+02
2.623477164976294240e+00 5.217140518966147056e+02
2.623577186981135956e+00 5.217157116911517960e+02
2.623677208985976783e+00 5.217173515173286660e+02
2.623777230990818055e+00 5.217189721278386969e+02
2.623877252995658882e+00 5.217205742764498382e+02
2.623977275000499709e+00 5.217221587179913058e+02
2.624077297005340981e+00 5.217237262083434644e+02
2.624177319010181808e+00 5.217252775044235023e+02
2.624277341015023524e+00 5.217268133641750865e+02
2.624377363019863907e+00 5.217283345465542652e+02
2.624477385024705622e+00 5.217298418115204868e+02
2.624577407029546450e+00 5.217313359200210243e+02
2.624677429034387277e+00 5.217328176339802894e+02
2.624777451039228549e+00 5.217342877162884633e+02
2.624877473044069376e+00 5.217357469307886504e+02
2.624977495048910647e+00 5.217371960422644861e+02
2.625077517053751475e+00 5.217386358164277453e+02
2.625177539058593190e+00 5.217400670199076558e+02
2.625277561063433573e+00 5.217414904202375965e+02
2.625377583068274845e+00 5.217429067858416829e+02
2.625477605073116116e+00 5.217443168860264677e+02
2.625577627077956944e+00 5.217457214909634331e+02
2.625677649082798215e+00 5.217471213716821694e+02
2.625777671087639042e+00 5.217485173000544592e+02
2.625877693092480314e+00 5.217499100487838177e+02
2.625977715097321141e+00 5.217513003913928742e+02
2.626077737102161969e+00 5.217526891022102973e+02
2.626177759107003240e+00 5.217540769563612457e+02
2.626277781111844511e+00 5.217554647297516794e+02
2.626377803116685783e+00 5.217568531990588099e+02
2.626477825121526610e+00 5.217582431417176849e+02
2.626577847126367882e+00 5.217596353359095929e+02
2.626677869131208709e+00 5.217610305605501253e+02
2.626777891136049536e+00 5.217624295952753073e+02
2.626877913140890808e+00 5.217638332204305698e+02
2.626977935145731635e+00 5.217652422170588125e+02
2.627077957150572907e+00 5.217666573668883530e+02
2.627177979155414178e+00 5.217680794523199665e+02
2.627278001160255450e+00 5.217695092564133574e+02
2.627378023165096277e+00 5.217709475628794280e+02
2.627478045169937104e+00 5.217723951560628848e+02
2.627578067174778376e+00 5.217738528209329161e+02
2.627678089179619203e+00 5.217753213430697770e+02
2.627778111184460474e+00 5.217768015086539890e+02
2.627878133189301302e+00 5.217782941044530389e+02
2.627978155194142573e+00 5.217797999178078499e+02
2.628078177198983845e+00 5.217813197366242548e+02
2.628178199203824228e+00 5.217828543493565121e+02
2.628278221208665943e+00 5.217844045449985515e+02
2.628378243213506771e+00 5.217859711130689675e+02
2.628478265218348042e+00 5.217875548436005602e+02
2.628578287223188870e+00 5.217891565271273748e+02
2.628678309228030141e+00 5.217907769546728787e+02
2.628778331232870968e+00 5.217924169177367730e+02
2.628878353237711796e+00 5.217940772082844205e+02
2.628978375242553511e+00 5.217957586187329753e+02
2.629078397247393895e+00 5.217974619419389910e+02
2.629178419252235610e+00 5.217991879711879619e+02
2.629278441257076437e+00 5.218009375001804528e+02
2.629378463261917709e+00 5.218027113230200484e+02
2.629478485266758536e+00 5.218045102342017572e+02
2.629578507271599364e+00 5.218063350286000741e+02
2.629678529276440635e+00 5.218081865014536334e+02
2.629778551281281462e+00 5.218100654483578182e+02
2.629878573286123178e+00 5.218119726652481631e+02
2.629978595290963561e+00 5.218139089483904627e+02
2.630078617295805277e+00 5.218158750943686073e+02
2.630178639300646104e+00 5.218178719000702586e+02
2.630278661305486931e+00 5.218199001626759355e+02
2.630378683310328203e+00 5.218219606796475318e+02
2.630478705315169030e+00 5.218240542487142193e+02
2.630578727320010302e+00 5.218261816678621017e+02
2.630678749324851129e+00 5.218283437353194358e+02
2.630778771329692844e+00 5.218305412495468545e+02
2.630878793334533228e+00 5.218327750092234965e+02
2.630978815339374499e+00 5.218350458132351832e+02
2.631078837344215771e+00 5.218373544606624819e+02
2.631178859349056598e+00 5.218397017507671762e+02
2.631278881353897869e+00 5.218420884829814668e+02
2.631378903358738697e+00 5.218445154568952375e+02
2.631478925363579968e+00 5.218469834722426413e+02
2.631578947368420796e+00 5.218494933288907305e+02
2.631678969373261623e+00 5.218520458268287712e+02
2.631778991378102894e+00 5.218546417661516443e+02
2.631879013382944166e+00 5.218572819470515469e+02
2.631979035387785437e+00 5.218599671698044631e+02
2.632079057392626265e+00 5.218626982347560670e+02
2.632179079397467536e+00 5.218654759423125142e+02
2.632279101402308363e+00 5.218683010929258899e+02
2.632379123407149191e+00 5.218711744870822713e+02
2.632479145411990462e+00 5.218740969252896775e+02
2.632579167416831289e+00 5.218770692080663594e+02
2.632679189421672561e+00 5.218800921359273843e+02
2.632779211426513832e+00 5.218831665093723586e+02
2.632879233431354216e+00 5.218862931288733762e+02
2.632979255436195931e+00 5.218894727948635364e+02
2.633079277441036758e+00 5.218927063077231878e+02
2.633179299445878030e+00 5.218959944677689009e+02
2.633279321450718857e+00 5.218993380752391431e+02
2.633379343455560129e+00 5.219027379302843883e+02
2.633479365460400956e+00 5.219061948329534744e+02
2.633579387465241783e+00 5.219097095831808701e+02
2.633679409470083499e+00 5.219132829807753069e+02
2.633779431474923882e+00 5.219169158254068179e+02
2.633879453479765598e+00 5.219206089165941194e+02
2.633979475484606425e+00 5.219243630536939236e+02
2.634079497489447697e+00 5.219281790358857052e+02
2.634179519494288524e+00 5.219320576621618102e+02
2.634279541499129351e+00 5.219359997313149506e+02
2.634379563503970623e+00 5.219400060419234251e+02
2.634479585508811450e+00 5.219440773923421375e+02
2.634579607513653166e+00 5.219482145806886138e+02
2.634679629518493549e+00 5.219524184048290181e+02
2.634779651523335264e+00 5.219566896623680350e+02
2.634879673528176092e+00 5.219610291506368185e+02
2.634979695533016919e+00 5.219654376666792359e+02
2.635079717537858190e+00 5.219699160072390214e+02
2.635179739542699018e+00 5.219744649687495439e+02
2.635279761547540289e+00 5.219790853473186871e+02
2.635379783552381117e+00 5.219837779387203227e+02
2.635479805557222832e+00 5.219885435383775985e+02
2.635579827562063215e+00 5.219933829413532749e+02
2.635679849566904487e+00 5.219982969423364239e+02
2.635779871571745758e+00 5.220032863356302641e+02
2.635879893576586586e+00 5.220083519151403380e+02
2.635979915581427857e+00 5.220134944743613232e+02
2.636079937586268684e+00 5.220187148063646418e+02
2.636179959591109956e+00 5.220240137037874320e+02
2.636279981595950783e+00 5.220293919588168592e+02
2.636380003600791611e+00 5.220348503631820449e+02
2.636480025605632882e+00 5.220403897081392870e+02
2.636580047610474153e+00 5.220460107844592130e+02
2.636680069615315425e+00 5.220517143824152981e+02
2.636780091620156252e+00 5.220575012917727236e+02
2.636880113624997524e+00 5.220633723017725742e+02
2.636980135629838351e+00 5.220693282011224028e+02
2.637080157634679178e+00 5.220753697779842923e+02
2.637180179639520450e+00 5.220814978199589405e+02
2.637280201644361277e+00 5.220877131140769052e+02
2.637380223649202549e+00 5.220940164467834848e+02
2.637480245654043820e+00 5.221004086039291678e+02
2.637580267658885091e+00 5.221068903707546269e+02
2.637680289663725919e+00 5.221134625318791223e+02
2.637780311668566746e+00 5.221201258712903837e+02
2.637880333673408018e+00 5.221268811723265344e+02
2.637980355678248845e+00 5.221337292176708615e+02
2.638080377683090116e+00 5.221406707893347630e+02
2.638180399687930944e+00 5.221477066686453554e+02
2.638280421692772215e+00 5.221548376362358113e+02
2.638380443697613487e+00 5.221620644720298969e+02
2.638480465702453870e+00 5.221693879552327644e+02
2.638580487707295585e+00 5.221768088643152623e+02
2.638680509712136413e+00 5.221843279770042727e+02
2.638780531716977684e+00 5.221919460702688411e+02
2.638880553721818512e+00 5.221996639203067616e+02
2.638980575726659783e+00 5.222074823025363912e+02
2.639080597731500610e+00 5.222154019915778917e+02
2.639180619736341438e+00 5.222234237612473180e+02
2.639280641741183153e+00 5.222315483845395647e+02
2.639380663746023536e+00 5.222397766336177938e+02
2.639480685750865252e+00 5.222481092798013833e+02
2.639580707755706079e+00 5.222565470935523990e+02
2.639680729760547351e+00 5.222650908444643392e+02
2.639780751765388178e+00 5.222737413012490606e+02
2.639880773770229005e+00 5.222824992317240458e+02
2.639980795775070277e+00 5.222913654028003521e+02
2.640080817779911104e+00 5.223003405804712429e+02
2.640180839784752820e+00 5.223094255297984319e+02
2.640280861789593203e+00 5.223186210148996906e+02
2.640380883794434919e+00 5.223279277989382763e+02
2.640480905799275746e+00 5.223373466441063329e+02
2.640580927804116573e+00 5.223468783116186387e+02
2.640680949808957845e+00 5.223565235616947575e+02
2.640780971813798672e+00 5.223662831535492614e+02
2.640880993818639944e+00 5.223761578453783159e+02
2.640981015823480771e+00 5.223861483943493340e+02
2.641081037828322486e+00 5.223962555565850607e+02
2.641181059833162870e+00 5.224064800871547050e+02
2.641281081838004141e+00 5.224168227400590467e+02
2.641381103842845413e+00 5.224272842682192959e+02
2.641481125847686240e+00 5.224378654234656096e+02
2.641581147852527511e+00 5.224485669565200396e+02
2.641681169857368339e+00 5.224593896169916434e+02
2.641781191862209610e+00 5.224703341533581806e+02
2.641881213867050437e+00 5.224814013129546311e+02
2.641981235871891265e+00 5.224925918419631898e+02
2.642081257876732536e+00 5.225039064853991704e+02
2.642181279881573808e+00 5.225153459870987263e+02
2.642281301886415079e+00 5.225269110897060045e+02
2.642381323891255906e+00 5.225386025346626866e+02
2.642481345896097178e+00 5.225504210621936636e+02
2.642581367900938005e+00 5.225623674112944173e+02
2.642681389905778833e+00 5.225744423197215838e+02
2.642781411910620104e+00 5.225866465239760146e+02
2.642881433915460931e+00 5.225989807592948182e+02
2.642981455920302203e+00 5.226114457596364673e+02
2.643081477925143474e+00 5.226240422576689753e+02
2.643181499929984746e+00 5.226367709847565948e+02
2.643281521934825573e+00 5.226496326709506093e+02
2.643381543939666400e+00 5.226626280449729620e+02
2.643481565944507672e+00 5.226757578342062516e+02
2.643581587949348499e+00 5.226890227646809990e+02
2.643681609954189771e+00 5.227024235610629148e+02
2.643781631959030598e+00 5.227159609466409620e+02
2.643881653963871869e+00 5.227296356433138271e+02
2.643981675968713141e+00 5.227434483715803708e+02
2.644081697973553524e+00 5.227573998505235977e+02
2.644181719978395240e+00 5.227714907978005385e+02
2.644281741983236067e+00 5.227857219296303128e+02
2.644381763988077338e+00 5.228000939607811688e+02
2.644481785992918166e+00 5.228146076045553627e+02
2.644581807997759437e+00 5.228292635727825655e+02
2.644681830002600265e+00 5.228440625758021270e+02
2.644781852007441092e+00 5.228590053224547773e+02
2.644881874012282807e+00 5.228740925200661422e+02
2.644981896017123191e+00 5.228893248744390121e+02
2.645081918021964906e+00 5.229047030898371986e+02
2.645181940026805734e+00 5.229202278689760988e+02
2.645281962031647005e+00 5.229358999130083703e+02
2.645381984036487832e+00 5.229517199215115397e+02
2.645482006041328660e+00 5.229676885924770886e+02
2.645582028046169931e+00 5.229838066222985162e+02
2.645682050051010759e+00 5.230000747057557646e+02
2.645782072055852474e+00 5.230164935360074878e+02
2.645882094060692857e+00 5.230330638045751357e+02
2.645982116065534573e+00 5.230497862013314716e+02
2.646082138070375400e+00 5.230666614144907953e+02
2.646182160075216228e+00 5.230836901305921174e+02
2.646282182080057499e+00 5.231008730344915421e+02
2.646382204084898326e+00 5.231182108093462375e+02
2.646482226089739598e+00 5.231357041366049998e+02
2.646582248094580425e+00 5.231533536959933599e+02
2.646682270099422141e+00 5.231711601655046024e+02
2.646782292104262524e+00 5.231891242213841906e+02
2.646882314109103795e+00 5.232072465381189659e+02
2.646982336113945067e+00 5.232255277884252109e+02
2.647082358118785894e+00 5.232439686432367125e+02
2.647182380123627166e+00 5.232625697716908917e+02
2.647282402128467993e+00 5.232813318411178898e+02
2.647382424133309264e+00 5.233002555170278356e+02
2.647482446138150092e+00 5.233193414630992493e+02
2.647582468142990919e+00 5.233385903411666504e+02
2.647682490147832191e+00 5.233580028112068021e+02
2.647782512152673462e+00 5.233775795313283652e+02
2.647882534157514733e+00 5.233973211577593929e+02
2.647982556162355561e+00 5.234172283448351664e+02
2.648082578167196832e+00 5.234373017449850067e+02
2.648182600172037660e+00 5.234575420087212478e+02
2.648282622176878487e+00 5.234779497846254799e+02
2.648382644181719758e+00 5.234985257193389998e+02
2.648482666186560586e+00 5.235192704575486005e+02
2.648582688191401857e+00 5.235401846419745198e+02
2.648682710196243129e+00 5.235612689133591857e+02
2.648782732201084400e+00 5.235825239104539151e+02
2.648882754205925227e+00 5.236039502700092498e+02
2.648982776210766055e+00 5.236255486267592687e+02
2.649082798215607326e+00 5.236473196134114687e+02
2.649182820220448153e+00 5.236692638606351693e+02
2.649282842225289425e+00 5.236913819970480972e+02
2.649382864230130252e+00 5.237136746492049042e+02
2.649482886234971524e+00 5.237361424415860256e+02
2.649582908239812795e+00 5.237587859965832422e+02
2.649682930244653178e+00 5.237816059344894484e+02
2.649782952249494894e+00 5.238046028734864876e+02
2.649882974254335721e+00 5.238277774296326470e+02
2.649982996259176993e+00 5.238511302168499242e+02
2.650083018264017820e+00 5.238746618469139094e+02
2.650183040268859092e+00 5.238983729294399154e+02
2.650283062273699919e+00 5.239222640718717230e+02
2.650383084278540746e+00 5.239463358794694159e+02
2.650483106283382462e+00 5.239705889552971030e+02
2.650583128288222845e+00 5.239950239002132548e+02
2.650683150293064561e+00 5.240196413128531958e+02
2.650783172297905388e+00 5.240444417896242157e+02
2.650883194302746659e+00 5.240694259246866977e+02
2.650983216307587487e+00 5.240945943099492297e+02
2.651083238312428314e+00 5.241199475350501871e+02
2.651183260317269585e+00 5.241454861873494337e+02
2.651283282322110413e+00 5.241712108519147932e+02
2.651383304326952128e+00 5.241971221115123853e+02
2.651483326331792512e+00 5.242232205465919606e+02
2.651583348336634227e+00 5.242495067352765545e+02
2.651683370341475054e+00 5.242759812533507784e+02
2.651783392346315882e+00 5.243026446742474036e+02
2.651883414351157153e+00 5.243294975690376987e+02
2.651983436355997981e+00 5.243565405064175593e+02
2.652083458360839252e+00 5.243837740526969355e+02
2.652183480365680079e+00 5.244111987717880083e+02
2.652283502370521795e+00 5.244388152251923430e+02
2.652383524375362178e+00 5.244666239719900886e+02
2.652483546380203450e+00 5.244946255688274732e+02
2.652583568385044721e+00 5.245228205699056616e+02
2.652683590389885548e+00 5.245512095269691599e+02
2.652783612394726820e+00 5.245797929892935372e+02
2.652883634399567647e+00 5.246085715036724650e+02
2.652983656404408919e+00 5.246375456144097598e+02
2.653083678409249746e+00 5.246667158633021018e+02
2.653183700414090573e+00 5.246960827896332376e+02
2.653283722418931845e+00 5.247256469301582911e+02
2.653383744423773116e+00 5.247554088190938728e+02
2.653483766428614388e+00 5.247853689881048922e+02
2.653583788433455215e+00 5.248155279662945532e+02
2.653683810438296486e+00 5.248458862801924170e+02
2.653783832443137314e+00 5.248764444537420104e+02
2.653883854447978141e+00 5.249072030082894571e+02
2.653983876452819413e+00 5.249381624625725635e+02
2.654083898457660240e+00 5.249693233327084272e+02
2.654183920462501511e+00 5.250006861321825227e+02
2.654283942467342783e+00 5.250322513718374466e+02
2.654383964472184054e+00 5.250640195598588207e+02
2.654483986477024882e+00 5.250959912017685838e+02
2.654584008481865709e+00 5.251281668004086214e+02
2.654684030486706980e+00 5.251605468559325800e+02
2.654784052491547808e+00 5.251931318657923384e+02
2.654884074496389079e+00 5.252259223247280033e+02
2.654984096501229907e+00 5.252589187247566542e+02
2.655084118506071178e+00 5.252921215551584737e+02
2.655184140510912449e+00 5.253255313024677662e+02
2.655284162515752833e+00 5.253591484504624987e+02
2.655384184520594548e+00 5.253929734801496352e+02
2.655484206525435376e+00 5.254270068697557008e+02
2.655584228530276647e+00 5.254612490947162087e+02
2.655684250535117474e+00 5.254957006276629272e+02
2.655784272539958746e+00 5.255303619384126250e+02
2.655884294544799573e+00 5.255652334939579760e+02
2.655984316549640400e+00 5.256003157584525525e+02
2.656084338554482116e+00 5.256356091932029813e+02
2.656184360559322499e+00 5.256711142566564376e+02
2.656284382564164215e+00 5.257068314043895043e+02
2.656384404569005042e+00 5.257427610890970300e+02
2.656484426573846314e+00 5.257789037605798512e+02
2.656584448578687141e+00 5.258152598657366070e+02
2.656684470583527968e+00 5.258518298485494142e+02
2.656784492588369240e+00 5.258886141500750000e+02
2.656884514593210067e+00 5.259256132084317414e+02
2.656984536598051783e+00 5.259628274587914802e+02
2.657084558602892166e+00 5.260002573333653118e+02
2.657184580607733881e+00 5.260379032613938080e+02
2.657284602612574709e+00 5.260757656691379225e+02
2.657384624617415536e+00 5.261138449798640977e+02
2.657484646622256808e+00 5.261521416138372160e+02
2.657584668627097635e+00 5.261906559883080945e+02
2.657684690631938906e+00 5.262293885175007517e+02
2.657784712636779734e+00 5.262683396126054731e+02
2.657884734641621449e+00 5.263075096817642589e+02
2.657984756646461832e+00 5.263468991300630933e+02
2.658084778651303104e+00 5.263865083595189844e+02
2.658184800656144375e+00 5.264263377690687093e+02
2.658284822660985203e+00 5.264663877545608557e+02
2.658384844665826474e+00 5.265066587087427479e+02
2.658484866670667301e+00 5.265471510212510111e+02
2.658584888675508573e+00 5.265878650785989521e+02
2.658684910680349400e+00 5.266288012641696241e+02
2.658784932685190228e+00 5.266699599581996836e+02
2.658884954690031499e+00 5.267113415377752972e+02
2.658984976694872771e+00 5.267529463768157711e+02
2.659084998699714042e+00 5.267947748460677531e+02
2.659185020704554869e+00 5.268368273130898842e+02
2.659285042709396141e+00 5.268791041422470016e+02
2.659385064714236968e+00 5.269216056946963818e+02
2.659485086719077795e+00 5.269643323283793279e+02
2.659585108723919067e+00 5.270072843980090056e+02
2.659685130728759894e+00 5.270504622550615750e+02
2.659785152733601166e+00 5.270938662477649359e+02
2.659885174738442437e+00 5.271374967210892919e+02
2.659985196743283709e+00 5.271813540167347583e+02
2.660085218748124536e+00 5.272254384731246546e+02
2.660185240752965363e+00 5.272697504253906118e+02
2.660285262757806635e+00 5.273142902053676835e+02
2.660385284762647462e+00 5.273590581415796805e+02
2.660485306767488733e+00 5.274040545592306444e+02
2.660585328772329561e+00 5.274492797801954111e+02
2.660685350777170832e+00 5.274947341230092661e+02
2.660785372782012104e+00 5.275404179028561202e+02
2.660885394786852487e+00 5.275863314315618027e+02
2.660985416791694202e+00 5.276324750175801910e+02
2.661085438796535030e+00 5.276788489659866173e+02
2.661185460801376301e+00 5.277254535784657037e+02
2.661285482806217129e+00 5.277722891533020402e+02
2.661385504811058400e+00 5.278193559853715442e+02
2.661485526815899227e+00 5.278666543661297510e+02
2.661585548820740055e+00 5.279141845836028324e+02
2.661685570825581770e+00 5.279619469223778196e+02
2.661785592830422154e+00 5.280099416635933949e+02
2.661885614835263869e+00 5.280581690849280676e+02
2.661985636840104696e+00 5.281066294605942630e+02
2.662085658844945968e+00 5.281553230613245660e+02
2.662185680849786795e+00 5.282042501543650133e+02
2.662285702854627623e+00 5.282534110034640662e+02
2.662385724859468894e+00 5.283028058688631745e+02
2.662485746864309721e+00 5.283524350072884772e+02
2.662585768869151437e+00 5.284022986719392065e+02
2.662685790873991820e+00 5.284523971124805257e+02
2.662785812878833536e+00 5.285027305750327287e+02
2.662885834883674363e+00 5.285532993021615766e+02
2.662985856888515190e+00 5.286041035328701128e+02
2.663085878893356462e+00 5.286551435025892260e+02
2.663185900898197289e+00 5.287064194431669648e+02
2.663285922903038561e+00 5.287579315828618292e+02
2.663385944907879388e+00 5.288096801463298107e+02
2.663485966912721103e+00 5.288616653546198449e+02
2.663585988917561487e+00 5.289138874251614197e+02
2.663686010922402758e+00 5.289663465717558211e+02
2.663786032927244030e+00 5.290190430045689709e+02
2.663886054932084857e+00 5.290719769301198312e+02
2.663986076936926128e+00 5.291251485512748332e+02
2.664086098941766956e+00 5.291785580672341212e+02
2.664186120946608227e+00 5.292322056735283695e+02
2.664286142951449055e+00 5.292860915620047990e+02
2.664386164956289882e+00 5.293402159208220610e+02
2.664486186961131153e+00 5.293945789344390960e+02
2.664586208965972425e+00 5.294491807836087673e+02
2.664686230970813696e+00 5.295040216453662651e+02
2.664786252975654524e+00 5.295591016930226260e+02
2.664886274980495795e+00 5.296144210961551835e+02
2.664986296985336622e+00 5.296699800206002919e+02
2.665086318990177450e+00 5.297257786284429812e+02
2.665186340995018721e+00 5.297818170780095670e+02
2.665286362999859548e+00 5.298380955238591241e+02
2.665386385004700820e+00 5.298946141167751875e+02
2.665486407009542091e+00 5.299513730037565438e+02
2.665586429014383363e+00 5.300083723280112054e+02
2.665686451019224190e+00 5.300656122289441328e+02
2.665786473024065018e+00 5.301230928421539375e+02
2.665886495028906289e+00 5.301808142994209447e+02
2.665986517033747116e+00 5.302387767287000315e+02
2.666086539038588388e+00 5.302969802541144873e+02
2.666186561043429215e+00 5.303554249959443041e+02
2.666286583048270487e+00 5.304141110706226527e+02
2.666386605053111758e+00 5.304730385907233767e+02
2.666486627057952141e+00 5.305322076649568999e+02
2.666586649062793857e+00 5.305916183981599943e+02
2.666686671067634684e+00 5.306512708912891867e+02
2.666786693072475956e+00 5.307111652414121181e+02
2.666886715077316783e+00 5.307713015417007227e+02
2.666986737082158054e+00 5.308316798814236108e+02
2.667086759086998882e+00 5.308923003459370875e+02
2.667186781091839709e+00 5.309531630166791274e+02
2.667286803096681425e+00 5.310142679711607343e+02
2.667386825101521808e+00 5.310756152829601433e+02
2.667486847106363523e+00 5.311372050217128162e+02
2.667586869111204351e+00 5.311990372531074627e+02
2.667686891116045178e+00 5.312611120388737618e+02
2.667786913120886449e+00 5.313234294367821349e+02
2.667886935125727277e+00 5.313859895006287388e+02
2.667986957130568548e+00 5.314487922802350113e+02
2.668086979135409376e+00 5.315118378214360746e+02
2.668187001140251091e+00 5.315751261660752789e+02
2.668287023145091474e+00 5.316386573519981766e+02
2.668387045149932746e+00 5.317024314130437688e+02
2.668487067154774017e+00 5.317664483790390477e+02
2.668587089159614845e+00 5.318307082757901298e+02
2.668687111164456116e+00 5.318952111250780490e+02
2.668787133169296943e+00 5.319599569446507985e+02
2.668887155174138215e+00 5.320249457482160551e+02
2.668987177178979042e+00 5.320901775454352673e+02
2.669087199183819870e+00 5.321556523419175164e+02
2.669187221188661141e+00 5.322213701392112171e+02
2.669287243193502412e+00 5.322873309347999111e+02
2.669387265198343684e+00 5.323535347220937410e+02
2.669487287203184511e+00 5.324199814904250161e+02
2.669587309208025783e+00 5.324866712250411638e+02
2.669687331212866610e+00 5.325536039070962033e+02
2.669787353217707437e+00 5.326207795136492678e+02
2.669887375222548709e+00 5.326881980176549405e+02
2.669987397227389536e+00 5.327558593879567752e+02
2.670087419232230808e+00 5.328237635892835442e+02
2.670187441237072079e+00 5.328919105822428719e+02
2.670287463241913350e+00 5.329603003233142999e+02
2.670387485246754178e+00 5.330289327648428070e+02
2.670487507251595005e+00 5.330978078550347163e+02
2.670587529256436277e+00 5.331669255379524657e+02
2.670687551261277104e+00 5.332362857535058538e+02
2.670787573266118375e+00 5.333058884374493118e+02
2.670887595270959203e+00 5.333757335213759916e+02
2.670987617275800474e+00 5.334458209327087843e+02
2.671087639280641746e+00 5.335161505947017986e+02
2.671187661285482129e+00 5.335867224264275137e+02
2.671287683290323844e+00 5.336575363427765524e+02
2.671387705295164672e+00 5.337285922544498362e+02
2.671487727300005943e+00 5.337998900679551753e+02
2.671587749304846771e+00 5.338714296856005603e+02
2.671687771309688042e+00 5.339432110054891609e+02
2.671787793314528869e+00 5.340152339215163693e+02
2.671887815319369697e+00 5.340874983233617286e+02
2.671987837324211412e+00 5.341600040964868867e+02
2.672087859329051795e+00 5.342327511221285476e+02
2.672187881333893511e+00 5.343057392772963112e+02
2.672287903338734338e+00 5.343789684347636921e+02
2.672387925343575610e+00 5.344524384630689156e+02
2.672487947348416437e+00 5.345261492265059360e+02
2.672587969353257265e+00 5.346001005851222772e+02
2.672687991358098536e+00 5.346742923947136887e+02
2.672788013362939363e+00 5.347487245068192578e+02
2.672888035367781079e+00 5.348233967687187942e+02
2.672988057372621462e+00 5.348983090234281690e+02
2.673088079377463178e+00 5.349734611096926074e+02
2.673188101382304005e+00 5.350488528619857789e+02
2.673288123387144832e+00 5.351244841105047954e+02
2.673388145391986104e+00 5.352003546811646402e+02
2.673488167396826931e+00 5.352764643955966903e+02
2.673588189401668203e+00 5.353528130711439417e+02
2.673688211406509030e+00 5.354294005208554381e+02
2.673788233411350745e+00 5.355062265534855896e+02
2.673888255416191129e+00 5.355832909734881468e+02
2.673988277421032400e+00 5.356605935810144956e+02
2.674088299425873672e+00 5.357381341719089960e+02
2.674188321430714499e+00 5.358159125377042074e+02
2.674288343435555770e+00 5.358939284656210020e+02
2.674388365440396598e+00 5.359721817385626537e+02
2.674488387445237869e+00 5.360506721351114265e+02
2.674588409450078696e+00 5.361293994295282346e+02
2.674688431454919524e+00 5.362083633917452516e+02
2.674788453459760795e+00 5.362875637873668211e+02
2.674888475464602067e+00 5.363670003776642261e+02
2.674988497469443338e+00 5.364466729195733024e+02
2.675088519474284166e+00 5.365265811656933010e+02
2.675188541479125437e+00 5.366067248642805225e+02
2.675288563483966264e+00 5.366871037592493394e+02
2.675388585488807092e+00 5.367677175901677629e+02
2.675488607493648363e+00 5.368485660922544866e+02
2.675588629498489190e+00 5.369296489963783188e+02
2.675688651503330462e+00 5.370109660290539750e+02
2.675788673508171733e+00 5.370925169124404874e+02
2.675888695513013005e+00 5.371743013643397262e+02
2.675988717517853832e+00 5.372563190981923071e+02
2.676088739522694659e+00 5.373385698230781600e+02
2.676188761527535931e+00 5.374210532437123220e+02
2.676288783532376758e+00 5.375037690604435738e+02
2.676388805537218030e+00 5.375867169692526204e+02
2.676488827542058857e+00 5.376698966617522046e+02
2.676588849546900128e+00 5.377533078251813095e+02
2.676688871551741400e+00 5.378369501424076589e+02
2.676788893556581783e+00 5.379208232919241937e+02
2.676888915561423499e+00 5.380049269478467977e+02
2.676988937566264326e+00 5.380892607799152074e+02
2.677088959571105597e+00 5.381738244534900559e+02
2.677188981575946425e+00 5.382586176295516225e+02
2.677289003580787696e+00 5.383436399646989230e+02
2.677389025585628524e+00 5.384288911111502784e+02
2.677489047590469351e+00 5.385143707167391085e+02
2.677589069595311067e+00 5.386000784249158642e+02
2.677689091600151450e+00 5.386860138747445035e+02
2.677789113604993165e+00 5.387721767009054474e+02
2.677889135609833993e+00 5.388585665336901229e+02
2.677989157614675264e+00 5.389451829990052829e+02
2.678089179619516091e+00 5.390320257183688000e+02
2.678189201624356919e+00 5.391190943089104621e+02
2.678289223629198190e+00 5.392063883833720865e+02
2.678389245634039018e+00 5.392939075501058142e+02
2.678489267638880733e+00 5.393816514130763835e+02
2.678589289643721116e+00 5.394696195718587433e+02
2.678689311648562832e+00 5.395578116216388480e+02
2.678789333653403659e+00 5.396462271532125214e+02
2.678889355658244487e+00 5.397348657529877300e+02
2.678989377663085758e+00 5.398237270029840147e+02
2.679089399667926585e+00 5.399128104808311264e+02
2.679189421672767857e+00 5.400021157597716410e+02
2.679289443677608684e+00 5.400916424086594816e+02
2.679389465682450400e+00 5.401813899919627602e+02
2.679489487687290783e+00 5.402713580697620728e+02
2.679589509692132054e+00 5.403615461977512950e+02
2.679689531696973326e+00 5.404519539272412203e+02
2.679789553701814153e+00 5.405425808051567174e+02
2.679889575706655425e+00 5.406334263740396864e+02
2.679989597711496252e+00 5.407244901720498547e+02
2.680089619716337523e+00 5.408157717329661409e+02
2.680189641721178351e+00 5.409072705861858594e+02
2.680289663726019178e+00 5.409989862567298360e+02
2.680389685730860450e+00 5.410909182652399068e+02
2.680489707735701721e+00 5.411830661279814194e+02
2.680589729740542992e+00 5.412754293568472121e+02
2.680689751745383820e+00 5.413680074593561358e+02
2.680789773750225091e+00 5.414607999386557822e+02
2.680889795755065919e+00 5.415538062935241896e+02
2.680989817759906746e+00 5.416470260183732535e+02
2.681089839764748017e+00 5.417404586032480438e+02
2.681189861769588845e+00 5.418341035338304437e+02
2.681289883774430116e+00 5.419279602914410816e+02
2.681389905779271388e+00 5.420220283530411507e+02
2.681489927784112659e+00 5.421163071912367286e+02
2.681589949788953486e+00 5.422107962742765039e+02
2.681689971793794314e+00 5.423054950660590521e+02
2.681789993798635585e+00 5.424004030261337448e+02
2.681890015803476413e+00 5.424955196097024555e+02
2.681990037808317684e+00 5.425908442676233108e+02
2.682090059813158511e+00 5.426863764464136466e+02
2.682190081817999783e+00 5.427821155882512585e+02
2.682290103822841054e+00 5.428780611309800861e+02
2.682390125827681437e+00 5.429742125081115773e+02
2.682490147832523153e+00 5.430705691488277580e+02
2.682590169837363980e+00 5.431671304779852107e+02
2.682690191842205252e+00 5.432638959161181447e+02
2.682790213847046079e+00 5.433608648794420333e+02
2.682890235851887351e+00 5.434580367798569114e+02
2.682990257856728178e+00 5.435554110249503310e+02
2.683090279861569005e+00 5.436529870180036141e+02
2.683190301866410721e+00 5.437507641579921938e+02
2.683290323871251104e+00 5.438487418395919804e+02
2.683390345876092820e+00 5.439469194531822041e+02
2.683490367880933647e+00 5.440452963848495074e+02
2.683590389885774918e+00 5.441438720163941980e+02
2.683690411890615746e+00 5.442426457253309309e+02
2.683790433895456573e+00 5.443416168848962116e+02
2.683890455900297844e+00 5.444407848640495331e+02
2.683990477905138672e+00 5.445401490274823573e+02
2.684090499909980387e+00 5.446397087356194788e+02
2.684190521914820771e+00 5.447394633446242551e+02
2.684290543919662486e+00 5.448394122064025851e+02
2.684390565924503314e+00 5.449395546686121179e+02
2.684490587929344141e+00 5.450398900746602067e+02
2.684590609934185412e+00 5.451404177637165276e+02
2.684690631939026240e+00 5.452411370707116021e+02
2.684790653943867511e+00 5.453420473263470285e+02
2.684890675948708338e+00 5.454431478570982108e+02
2.684990697953550054e+00 5.455444379852198153e+02
2.685090719958390437e+00 5.456459170287533880e+02
2.685190741963231709e+00 5.457475843015296277e+02
2.685290763968072980e+00 5.458494391131787324e+02
2.685390785972913807e+00 5.459514807691317628e+02
2.685490807977755079e+00 5.460537085706278049e+02
2.685590829982595906e+00 5.461561218147228374e+02
2.685690851987437178e+00 5.462587197942905277e+02
2.685790873992278005e+00 5.463615017980346238e+02
2.685890895997118832e+00 5.464644671104899771e+02
2.685990918001960104e+00 5.465676150120315242e+02
2.686090940006801375e+00 5.466709447788803118e+02
2.686190962011642647e+00 5.467744556831098635e+02
2.686290984016483474e+00 5.468781469926534555e+02
2.686391006021324745e+00 5.469820179713105972e+02
2.686491028026165573e+00 5.470860678787527149e+02
2.686591050031006400e+00 5.471902959705321337e+02
2.686691072035847672e+00 5.472947014980878748e+02
2.686791094040688499e+00 5.473992837087525913e+02
2.686891116045529770e+00 5.475040418457601845e+02
2.686991138050371042e+00 5.476089751482534211e+02
2.687091160055212313e+00 5.477140828512922326e+02
2.687191182060053141e+00 5.478193641858588308e+02
2.687291204064893968e+00 5.479248183788663482e+02
2.687391226069735239e+00 5.480304446531673648e+02
2.687491248074576067e+00 5.481362422275615245e+02
2.687591270079417338e+00 5.482422103168025842e+02
2.687691292084258166e+00 5.483483481316070538e+02
2.687791314089099437e+00 5.484546548786624953e+02
2.687891336093940708e+00 5.485611297606340031e+02
2.687991358098781092e+00 5.486677719761751177e+02
2.688091380103622807e+00 5.487745807199349883e+02
2.688191402108463635e+00 5.488815551825657622e+02
2.688291424113304906e+00 5.489886945507324754e+02
2.688391446118145733e+00 5.490959980071220343e+02
2.688491468122987005e+00 5.492034647304502641e+02
2.688591490127827832e+00 5.493110938954727089e+02
2.688691512132668660e+00 5.494188846729927036e+02
2.688791534137510375e+00 5.495268362298691045e+02
2.688891556142350758e+00 5.496349477290287950e+02
2.688991578147192474e+00 5.497432183294715742e+02
2.689091600152033301e+00 5.498516471862836852e+02
2.689191622156874573e+00 5.499602334506438410e+02
2.689291644161715400e+00 5.500689762698355025e+02
2.689391666166556227e+00 5.501778747872535860e+02
2.689491688171397499e+00 5.502869281424176506e+02
2.689591710176238326e+00 5.503961354709787202e+02
2.689691732181080042e+00 5.505054959047303100e+02
2.689791754185920425e+00 5.506150085716192280e+02
2.689891776190762140e+00 5.507246725957534181e+02
2.689991798195602968e+00 5.508344870974154901e+02
2.690091820200443795e+00 5.509444511930694262e+02
2.690191842205285067e+00 5.510545639953736554e+02
2.690291864210125894e+00 5.511648246131907172e+02
2.690391886214967165e+00 5.512752321515969243e+02
2.690491908219807993e+00 5.513857857118937318e+02
2.690591930224649708e+00 5.514964843916193331e+02
2.690691952229490091e+00 5.516073272845580959e+02
2.690791974234331363e+00 5.517183134807526130e+02
2.690891996239172634e+00 5.518294420665137068e+02
2.690992018244013462e+00 5.519407121244323662e+02
2.691092040248854733e+00 5.520521227333917977e+02
2.691192062253695561e+00 5.521636729685758382e+02
2.691292084258536832e+00 5.522753619014840751e+02
2.691392106263377659e+00 5.523871885999406004e+02
2.691492128268218487e+00 5.524991521281069708e+02
2.691592150273059758e+00 5.526112515464940316e+02
2.691692172277901030e+00 5.527234859119722614e+02
2.691792194282742301e+00 5.528358542777862112e+02
2.691892216287583128e+00 5.529483556935631441e+02
2.691992238292424400e+00 5.530609892053286103e+02
2.692092260297265227e+00 5.531737538555171341e+02
2.692192282302106054e+00 5.532866486829830137e+02
2.692292304306947326e+00 5.533996727230153283e+02
2.692392326311788153e+00 5.535128250073496474e+02
2.692492348316629425e+00 5.536261045641778082e+02
2.692592370321470696e+00 5.537395104181659917e+02
2.692692392326311968e+00 5.538530415904624533e+02
2.692792414331152795e+00 5.539666970987133254e+02
2.692892436335993622e+00 5.540804759570754641e+02
2.692992458340834894e+00 5.541943771762254300e+02
2.693092480345675721e+00 5.543083997633798390e+02
2.693192502350516992e+00 5.544225427223022962e+02
2.693292524355357820e+00 5.545368050533198812e+02
2.693392546360199091e+00 5.546511857533355396e+02
2.693492568365040363e+00 5.547656838158419532e+02
2.693592590369880746e+00 5.548802982309355230e+02
2.693692612374722462e+00 5.549950279853292159e+02
2.693792634379563289e+00 5.551098720623663212e+02
2.693892656384404560e+00 5.552248294420345474e+02
2.693992678389245388e+00 5.553398991009825068e+02
2.694092700394086659e+00 5.554550800125293790e+02
2.694192722398927486e+00 5.555703711466816230e+02
2.694292744403768314e+00 5.556857714701475288e+02
2.694392766408610029e+00 5.558012799463500642e+02
2.694492788413450413e+00 5.559168955354434729e+02
2.694592810418292128e+00 5.560326171943260078e+02
2.694692832423132955e+00 5.561484438766542553e+02
2.694792854427974227e+00 5.562643745328599607e+02
2.694892876432815054e+00 5.563804081101633301e+02
2.694992898437655882e+00 5.564965435525879229e+02
2.695092920442497153e+00 5.566127798009759999e+02
2.695192942447337980e+00 5.567291157930044392e+02
2.695292964452179696e+00 5.568455504631978101e+02
2.695392986457020079e+00 5.569620827429469045e+02
2.695493008461861795e+00 5.570787115605202189e+02
2.695593030466702622e+00 5.571954358410818031e+02
2.695693052471543449e+00 5.573122545067074043e+02
2.695793074476384721e+00 5.574291664763986773e+02
2.695893096481225548e+00 5.575461706660987602e+02
2.695993118486066820e+00 5.576632659887094405e+02
2.696093140490907647e+00 5.577804513541061624e+02
2.696193162495749363e+00 5.578977256691538287e+02
2.696293184500589746e+00 5.580150878377238541e+02
2.696393206505431017e+00 5.581325367607100816e+02
2.696493228510272289e+00 5.582500713360437885e+02
2.696593250515113116e+00 5.583676904587122181e+02
2.696693272519954387e+00 5.584853930207723351e+02
2.696793294524795215e+00 5.586031779113711764e+02
2.696893316529636486e+00 5.587210440167583556e+02
2.696993338534477314e+00 5.588389902203041402e+02
2.697093360539318141e+00 5.589570154025209376e+02
2.697193382544159412e+00 5.590751184410707992e+02
2.697293404549000684e+00 5.591932982107906582e+02
2.697393426553841955e+00 5.593115535837057450e+02
2.697493448558682783e+00 5.594298834290478908e+02
2.697593470563524054e+00 5.595482866132713298e+02
2.697693492568364881e+00 5.596667620000725947e+02
2.697793514573205709e+00 5.597853084504046137e+02
2.697893536578046980e+00 5.599039248224976291e+02
2.697993558582887808e+00 5.600226099718743171e+02
2.698093580587729079e+00 5.601413627513687743e+02
2.698193602592570350e+00 5.602601820111426605e+02
2.698293624597411622e+00 5.603790665987055490e+02
2.698393646602252449e+00 5.604980153589326619e+02
2.698493668607093277e+00 5.606170271340788531e+02
2.698593690611934548e+00 5.607361007638014598e+02
2.698693712616775375e+00 5.608552350851769006e+02
2.698793734621616647e+00 5.609744289327186380e+02
2.698893756626457474e+00 5.610936811383951408e+02
2.698993778631298746e+00 5.612129905316494387e+02
2.699093800636140017e+00 5.613323559394170843e+02
2.699193822640980400e+00 5.614517761861440022e+02
2.699293844645822116e+00 5.615712500938078620e+02
2.699393866650662943e+00 5.616907764819334261e+02
2.699493888655504215e+00 5.618103541676123314e+02
2.699593910660345042e+00 5.619299819655245756e+02
2.699693932665186313e+00 5.620496586879556844e+02
2.699793954670027141e+00 5.621693831448135370e+02
2.699893976674867968e+00 5.622891541436516718e+02
2.699993998679709684e+00 5.624089704896869080e+02
2.700094020684550067e+00 5.625288309858173079e+02
2.700194042689391782e+00 5.626487344326441189e+02
2.700294064694232610e+00 5.627686796284881439e+02
2.700394086699073881e+00 5.628886653694135020e+02
2.700494108703914709e+00 5.630086904492433177e+02
2.700594130708755536e+00 5.631287536595823440e+02
2.700694152713596807e+00 5.632488537898336745e+02
2.700794174718437635e+00 5.633689896272228452e+02
2.700894196723279350e+00 5.634891599568139782e+02
2.700994218728119733e+00 5.636093635615325184e+02
2.701094240732961449e+00 5.637295992221831966e+02
2.701194262737802276e+00 5.638498657174720847e+02
2.701294284742643104e+00 5.639701618240263770e+02
2.701394306747484375e+00 5.640904863164137168e+02
2.701494328752325202e+00 5.642108379671637977e+02
2.701594350757166474e+00 5.643312155467888260e+02
2.701694372762007301e+00 5.644516178238034172e+02
2.701794394766849017e+00 5.645720435647463091e+02
2.701894416771689400e+00 5.646924915341999167e+02
2.701994438776530671e+00 5.648129604948125007e+02
2.702094460781371943e+00 5.649334492073168121e+02
2.702194482786212770e+00 5.650539564305546492e+02
2.702294504791054042e+00 5.651744809214948191e+02
2.702394526795894869e+00 5.652950214352545117e+02
2.702494548800735696e+00 5.654155767251226052e+02
2.702594570805576968e+00 5.655361455425791064e+02
2.702694592810417795e+00 5.656567266373169787e+02
2.702794614815259067e+00 5.657773187572619236e+02
2.702894636820100338e+00 5.658979206485989835e+02
2.702994658824941610e+00 5.660185310557866387e+02
2.703094680829782437e+00 5.661391487215863663e+02
2.703194702834623264e+00 5.662597723870768505e+02
2.703294724839464536e+00 5.663804007916806995e+02
2.703394746844305363e+00 5.665010326731851364e+02
2.703494768849146634e+00 5.666216667677626901e+02
2.703594790853987462e+00 5.667423018099949559e+02
2.703694812858828733e+00 5.668629365328929453e+02
2.703794834863670005e+00 5.669835696679198236e+02
2.703894856868510388e+00 5.671041999450137610e+02
2.703994878873352103e+00 5.672248260926096464e+02
2.704094900878192931e+00 5.673454468376608020e+02
2.704194922883034202e+00 5.674660609056618341e+02
2.704294944887875030e+00 5.675866670206715980e+02
2.704394966892716301e+00 5.677072639053350258e+02
2.704494988897557128e+00 5.678278502809049542e+02
2.704595010902397956e+00 5.679484248672679314e+02
2.704695032907239671e+00 5.680689863829622936e+02
2.704795054912080055e+00 5.681895335452034033e+02
2.704895076916921770e+00 5.683100650699080916e+02
2.704995098921762597e+00 5.684305796717138719e+02
2.705095120926603869e+00 5.685510760640049739e+02
2.705195142931444696e+00 5.686715529589331481e+02
2.705295164936285524e+00 5.687920090674424500e+02
2.705395186941126795e+00 5.689124430992900443e+02
2.705495208945967622e+00 5.690328537630731489e+02
2.705595230950809338e+00 5.691532397662492713e+02
2.705695252955649721e+00 5.692735998151591730e+02
2.705795274960491437e+00 5.693939326150522220e+02
2.705895296965332264e+00 5.695142368701087889e+02
2.705995318970173091e+00 5.696345112834638940e+02
2.706095340975014363e+00 5.697547545572303989e+02
2.706195362979855190e+00 5.698749653925233360e+02
2.706295384984696462e+00 5.699951424894819638e+02
2.706395406989537289e+00 5.701152845472964827e+02
2.706495428994379004e+00 5.702353902642277035e+02
2.706595450999219388e+00 5.703554583376344453e+02
2.706695473004060659e+00 5.704754874639951367e+02
2.706795495008901931e+00 5.705954763389333948e+02
2.706895517013742758e+00 5.707154236572399668e+02
2.706995539018584029e+00 5.708353281128991057e+02
2.707095561023424857e+00 5.709551883991106251e+02
2.707195583028266128e+00 5.710750032083155929e+02
2.707295605033106956e+00 5.711947712322184998e+02
2.707395627037947783e+00 5.713144911618139759e+02
2.707495649042789054e+00 5.714341616874095280e+02
2.707595671047630326e+00 5.715537814986491867e+02
2.707695693052471597e+00 5.716733492845402225e+02
2.707795715057312425e+00 5.717928637334754285e+02
2.707895737062153696e+00 5.719123235332581316e+02
2.707995759066994523e+00 5.720317273711278858e+02
2.708095781071835351e+00 5.721510739337822997e+02
2.708195803076676622e+00 5.722703619074048902e+02
2.708295825081517449e+00 5.723895899776882743e+02
2.708395847086358721e+00 5.725087568298580436e+02
2.708495869091199992e+00 5.726278611486984573e+02
2.708595891096041264e+00 5.727469016185768851e+02
2.708695913100882091e+00 5.728658769234698411e+02
2.708795935105722918e+00 5.729847857469850396e+02
2.708895957110564190e+00 5.731036267723899300e+02
2.708995979115405017e+00 5.732223986826338660e+02
2.709096001120246289e+00 5.733411001603741397e+02
2.709196023125087116e+00 5.734597298880007656e+02
2.709296045129928387e+00 5.735782865476618326e+02
2.709396067134769659e+00 5.736967688212890835e+02
2.709496089139610042e+00 5.738151753906217891e+02
2.709596111144451758e+00 5.739335049372327830e+02
2.709696133149292585e+00 5.740517561425538133e+02
2.709796155154133857e+00 5.741699276879003264e+02
2.709896177158974684e+00 5.742880182544972740e+02
2.709996199163815955e+00 5.744060265235036695e+02
2.710096221168656783e+00 5.745239511760391906e+02
2.710196243173497610e+00 5.746417908932083947e+02
2.710296265178339326e+00 5.747595443561276625e+02
2.710396287183179709e+00 5.748772102459473672e+02
2.710496309188021424e+00 5.749947872438821150e+02
2.710596331192862252e+00 5.751122740312330279e+02
2.710696353197703523e+00 5.752296692894143462e+02
2.710796375202544350e+00 5.753469716999782122e+02
2.710896397207385178e+00 5.754641799446415007e+02
2.710996419212226449e+00 5.755812927053113981e+02
2.711096441217067277e+00 5.756983086641099590e+02
2.711196463221908992e+00 5.758152265034010497e+02
2.711296485226749375e+00 5.759320449058152462e+02
2.711396507231591091e+00 5.760487625542764363e+02
2.711496529236431918e+00 5.761653781320266035e+02
2.711596551241272746e+00 5.762818903226531120e+02
2.711696573246114017e+00 5.763982978101126946e+02
2.711796595250954844e+00 5.765145992787593059e+02
2.711896617255796116e+00 5.766307934133691333e+02
2.711996639260636943e+00 5.767468788991653810e+02
2.712096661265478659e+00 5.768628544218469187e+02
2.712196683270319042e+00 5.769787186676110196e+02
2.712296705275160313e+00 5.770944703231837138e+02
2.712396727280001585e+00 5.772101080758397984e+02
2.712496749284842412e+00 5.773256306134351235e+02
2.712596771289683684e+00 5.774410366244283068e+02
2.712696793294524511e+00 5.775563247979096104e+02
2.712796815299365782e+00 5.776714938236239050e+02
2.712896837304206610e+00 5.777865423920003423e+02
2.712996859309047437e+00 5.779014691941770252e+02
2.713096881313888709e+00 5.780162729220259052e+02
2.713196903318729980e+00 5.781309522681802946e+02
2.713296925323571251e+00 5.782455059260612416e+02
2.713396947328412079e+00 5.783599325899036785e+02
2.713496969333253350e+00 5.784742309547817740e+02
2.713596991338094178e+00 5.785883997166355357e+02
2.713697013342935005e+00 5.787024375722979812e+02
2.713797035347776276e+00 5.788163432195203768e+02
2.713897057352617104e+00 5.789301153569989538e+02
2.713997079357458375e+00 5.790437526844009426e+02
2.714097101362299647e+00 5.791572539023912896e+02
2.714197123367140918e+00 5.792706177126581224e+02
2.714297145371981745e+00 5.793838428179401490e+02
2.714397167376822573e+00 5.794969279220528051e+02
2.714497189381663844e+00 5.796098717299140617e+02
2.714597211386504672e+00 5.797226729475707998e+02
2.714697233391345943e+00 5.798353302822254136e+02
2.714797255396186770e+00 5.799478424422624130e+02
2.714897277401028042e+00 5.800602081372746852e+02
2.714997299405869313e+00 5.801724260780893019e+02
2.715097321410709696e+00 5.802844949767937806e+02
2.715197343415551412e+00 5.803964135467651886e+02
2.715297365420392239e+00 5.805081805026916300e+02
2.715397387425233511e+00 5.806197945606035091e+02
2.715497409430074338e+00 5.807312544378961547e+02
2.715597431434915610e+00 5.808425588533585824e+02
2.715697453439756437e+00 5.809537065271993015e+02
2.715797475444597264e+00 5.810646961810716675e+02
2.715897497449438980e+00 5.811755265381019626e+02
2.715997519454279363e+00 5.812861963229148614e+02
2.716097541459121079e+00 5.813967042616594654e+02
2.716197563463961906e+00 5.815070490820367013e+02
2.716297585468803177e+00 5.816172295133237640e+02
2.716397607473644005e+00 5.817272442864032200e+02
2.716497629478484832e+00 5.818370921337876780e+02
2.716597651483326104e+00 5.819467717896459362e+02
2.716697673488166931e+00 5.820562819898304951e+02
2.716797695493008646e+00 5.821656214719031368e+02
2.716897717497849030e+00 5.822747889751601633e+02
2.716997739502690745e+00 5.823837832406620691e+02
2.717097761507531573e+00 5.824926030112554827e+02
2.717197783512372400e+00 5.826012470316034069e+02
2.717297805517213671e+00 5.827097140482096620e+02
2.717397827522054499e+00 5.828180028094441241e+02
2.717497849526895770e+00 5.829261120655712602e+02
2.717597871531736597e+00 5.830340405687753673e+02
2.717697893536578313e+00 5.831417870731863786e+02
2.717797915541418696e+00 5.832493503349068078e+02
2.717897937546259968e+00 5.833567291120369873e+02
2.717997959551101239e+00 5.834639221647032628e+02
2.718097981555942066e+00 5.835709282550818671e+02
2.718198003560783338e+00 5.836777461474259781e+02
2.718298025565624165e+00 5.837843746080926621e+02
2.718398047570465437e+00 5.838908124055679991e+02
2.718498069575306264e+00 5.839970583104933439e+02
2.718598091580147091e+00 5.841031110956917018e+02
2.718698113584988363e+00 5.842089695361945587e+02
2.718798135589829634e+00 5.843146324092656414e+02
2.718898157594670906e+00 5.844200984944294532e+02
2.718998179599511733e+00 5.845253665734952619e+02
2.719098201604353005e+00 5.846304354305849529e+02
2.719198223609193832e+00 5.847353038521582675e+02
2.719298245614034659e+00 5.848399706270359957e+02
2.719398267618875931e+00 5.849444345464323760e+02
2.719498289623716758e+00 5.850486944039744230e+02
2.719598311628558029e+00 5.851527489957303487e+02
2.719698333633399301e+00 5.852565971202368473e+02
2.719798355638240572e+00 5.853602375785220602e+02
2.719898377643081400e+00 5.854636691741334289e+02
2.719998399647922227e+00 5.855668907131633887e+02
2.720098421652763498e+00 5.856699010042721056e+02
2.720198443657604326e+00 5.857726988587185133e+02
2.720298465662445597e+00 5.858752830903806625e+02
2.720398487667286425e+00 5.859776525157849392e+02
2.720498509672127696e+00 5.860798059541292560e+02
2.720598531676968967e+00 5.861817422273105649e+02
2.720698553681809351e+00 5.862834601599496409e+02
2.720798575686651066e+00 5.863849585794141603e+02
2.720898597691491894e+00 5.864862363158492826e+02
2.720998619696333165e+00 5.865872922021982276e+02
2.721098641701173992e+00 5.866881250742306975e+02
2.721198663706015264e+00 5.867887337705653863e+02
2.721298685710856091e+00 5.868891171326988569e+02
2.721398707715696919e+00 5.869892740050268003e+02
2.721498729720538634e+00 5.870892032348737075e+02
2.721598751725379017e+00 5.871889036725124242e+02
2.721698773730220733e+00 5.872883741711965513e+02
2.721798795735061560e+00 5.873876135871773840e+02
2.721898817739902832e+00 5.874866207797348352e+02
2.721998839744743659e+00 5.875853946112003996e+02
2.722098861749584486e+00 5.876839339469833021e+02
2.722198883754425758e+00 5.877822376555920982e+02
2.722298905759266585e+00 5.878803046086635504e+02
2.722398927764108301e+00 5.879781336809851382e+02
2.722498949768948684e+00 5.880757237505200692e+02
2.722598971773790399e+00 5.881730736984327450e+02
2.722698993778631227e+00 5.882701824091132039e+02
2.722799015783472054e+00 5.883670487702001992e+02
2.722899037788313326e+00 5.884636716726083705e+02
2.722999059793154153e+00 5.885600500105505262e+02
2.723099081797995424e+00 5.886561826815639051e+02
2.723199103802836252e+00 5.887520685865328005e+02
2.723299125807677967e+00 5.888477066297137981e+02
2.723399147812518351e+00 5.889430957187613558e+02
2.723499169817359622e+00 5.890382347647487222e+02
2.723599191822200893e+00 5.891331226821957898e+02
2.723699213827041721e+00 5.892277583890906953e+02
2.723799235831882992e+00 5.893221408069149447e+02
2.723899257836723820e+00 5.894162688606678557e+02
2.723999279841565091e+00 5.895101414788890679e+02
2.724099301846405918e+00 5.896037575936836674e+02
2.724199323851246746e+00 5.896971161407461750e+02
2.724299345856088017e+00 5.897902160593820327e+02
2.724399367860929289e+00 5.898830562925356844e+02
2.724499389865770560e+00 5.899756357868096757e+02
2.724599411870611387e+00 5.900679534924909149e+02
2.724699433875452659e+00 5.901600083635727287e+02
2.724799455880293486e+00 5.902517993577805555e+02
2.724899477885134313e+00 5.903433254365924086e+02
2.724999499889975585e+00 5.904345855652651380e+02
2.725099521894816412e+00 5.905255787128546672e+02
2.725199543899657684e+00 5.906163038522416855e+02
2.725299565904498955e+00 5.907067599601542724e+02
2.725399587909340227e+00 5.907969460171891569e+02
2.725499609914181054e+00 5.908868610078372967e+02
2.725599631919021881e+00 5.909765039205050243e+02
2.725699653923863153e+00 5.910658737475379212e+02
2.725799675928703980e+00 5.911549694852434413e+02
2.725899697933545252e+00 5.912437901339120572e+02
2.725999719938386079e+00 5.913323346978422705e+02
2.726099741943227350e+00 5.914206021853620996e+02
2.726199763948068622e+00 5.915085916088518161e+02
2.726299785952909005e+00 5.915963019847652049e+02
2.726399807957750721e+00 5.916837323336530972e+02
2.726499829962591548e+00 5.917708816801862213e+02
2.726599851967432819e+00 5.918577490531758940e+02
2.726699873972273647e+00 5.919443334855965304e+02
2.726799895977114918e+00 5.920306340146084949e+02
2.726899917981955745e+00 5.921166496815803839e+02
2.726999939986796573e+00 5.922023795321073294e+02
2.727099961991638288e+00 5.922878226160380564e+02
2.727199983996478672e+00 5.923729779874939823e+02
2.727300006001320387e+00 5.924578447048892258e+02
2.727400028006161214e+00 5.925424218309544813e+02
2.727500050011002486e+00 5.926267084327595285e+02
2.727600072015843313e+00 5.927107035817314227e+02
2.727700094020684141e+00 5.927944063536771182e+02
2.727800116025525412e+00 5.928778158288051827e+02
2.727900138030366239e+00 5.929609310917478524e+02
2.728000160035207955e+00 5.930437512315800177e+02
2.728100182040048338e+00 5.931262753418407101e+02
2.728200204044890054e+00 5.932085025205547026e+02
2.728300226049730881e+00 5.932904318702529736e+02
2.728400248054571708e+00 5.933720624979941931e+02
2.728500270059412980e+00 5.934533935153830271e+02
2.728600292064253807e+00 5.935344240385933290e+02
2.728700314069095079e+00 5.936151531883874668e+02
2.728800336073935906e+00 5.936955800901349676e+02
2.728900358078777622e+00 5.937757038738368465e+02
2.729000380083618005e+00 5.938555236741408407e+02
2.729100402088459276e+00 5.939350386303665346e+02
2.729200424093300548e+00 5.940142478865204794e+02
2.729300446098141375e+00 5.940931505913199544e+02
2.729400468102982646e+00 5.941717458982102471e+02
2.729500490107823474e+00 5.942500329653855715e+02
2.729600512112664745e+00 5.943280109558074855e+02
2.729700534117505573e+00 5.944056790372272872e+02
2.729800556122346400e+00 5.944830363822010213e+02
2.729900578127187671e+00 5.945600821681122170e+02
2.730000600132028943e+00 5.946368155771899637e+02
2.730100622136870214e+00 5.947132357965281244e+02
2.730200644141711042e+00 5.947893420181038664e+02
2.730300666146552313e+00 5.948651334387966472e+02
2.730400688151393140e+00 5.949406092604084506e+02
2.730500710156233968e+00 5.950157686896797031e+02
2.730600732161075239e+00 5.950906109383103058e+02
2.730700754165916067e+00 5.951651352229778240e+02
2.730800776170757338e+00 5.952393407653541999e+02
2.730900798175598609e+00 5.953132267921263292e+02
2.731000820180439881e+00 5.953867925350123187e+02
2.731100842185280708e+00 5.954600372307803582e+02
2.731200864190121536e+00 5.955329601212667967e+02
2.731300886194962807e+00 5.956055604533941050e+02
2.731400908199803634e+00 5.956778374791877013e+02
2.731500930204644906e+00 5.957497904557955053e+02
2.731600952209485733e+00 5.958214186455027175e+02
2.731700974214327005e+00 5.958927213157520555e+02
2.731800996219168276e+00 5.959636977391589880e+02
2.731901018224008659e+00 5.960343471935300386e+02
2.732001040228850375e+00 5.961046689618799519e+02
2.732101062233691202e+00 5.961746623324469283e+02
2.732201084238532474e+00 5.962443265987126324e+02
2.732301106243373301e+00 5.963136610594165177e+02
2.732401128248214572e+00 5.963826650185723111e+02
2.732501150253055400e+00 5.964513377854868850e+02
2.732601172257896227e+00 5.965196786747740134e+02
2.732701194262737943e+00 5.965876870063723345e+02
2.732801216267578326e+00 5.966553621055614940e+02
2.732901238272420041e+00 5.967227033029766972e+02
2.733001260277260869e+00 5.967897099346263303e+02
2.733101282282102140e+00 5.968563813419071948e+02
2.733201304286942968e+00 5.969227168716204233e+02
2.733301326291783795e+00 5.969887158759870545e+02
2.733401348296625066e+00 5.970543777126625855e+02
2.733501370301465894e+00 5.971197017447532289e+02
2.733601392306307609e+00 5.971846873408326246e+02
2.733701414311147992e+00 5.972493338749532086e+02
2.733801436315989708e+00 5.973136407266647439e+02
2.733901458320830535e+00 5.973776072810280766e+02
2.734001480325671363e+00 5.974412329286283239e+02
2.734101502330512634e+00 5.975045170655923812e+02
2.734201524335353461e+00 5.975674590936007462e+02
2.734301546340194733e+00 5.976300584199046853e+02
2.734401568345035560e+00 5.976923144573368063e+02
2.734501590349877276e+00 5.977542266243289077e+02
2.734601612354717659e+00 5.978157943449245977e+02
2.734701634359558930e+00 5.978770170487914584e+02
2.734801656364400202e+00 5.979378941712384403e+02
2.734901678369241029e+00 5.979984251532252983e+02
2.735001700374082301e+00 5.980586094413799856e+02
2.735101722378923128e+00 5.981184464880091127e+02
2.735201744383764400e+00 5.981779357511134094e+02
2.735301766388605227e+00 5.982370766943989793e+02
2.735401788393446054e+00 5.982958687872926475e+02
2.735501810398287326e+00 5.983543115049516246e+02
2.735601832403128597e+00 5.984124043282783987e+02
2.735701854407969869e+00 5.984701467439334692e+02
2.735801876412810696e+00 5.985275382443481931e+02
2.735901898417651967e+00 5.985845783277336523e+02
2.736001920422492795e+00 5.986412664980981617e+02
2.736101942427333622e+00 5.986976022652551137e+02
2.736201964432174893e+00 5.987535851448373023e+02
2.736301986437015721e+00 5.988092146583077238e+02
2.736402008441856992e+00 5.988644903329718545e+02
2.736502030446698264e+00 5.989194117019874284e+02
2.736602052451539535e+00 5.989739783043791022e+02
2.736702074456380362e+00 5.990281896850467547e+02
2.736802096461221190e+00 5.990820453947787882e+02
2.736902118466062461e+00 5.991355449902612236e+02
2.737002140470903289e+00 5.991886880340900916e+02
2.737102162475744560e+00 5.992414740947818927e+02
2.737202184480585387e+00 5.992939027467826918e+02
2.737302206485426215e+00 5.993459735704811919e+02
2.737402228490267930e+00 5.993976861522173749e+02
2.737502250495108314e+00 5.994490400842931876e+02
2.737602272499950029e+00 5.995000349649811824e+02
2.737702294504790856e+00 5.995506703985372496e+02
2.737802316509632128e+00 5.996009459952089173e+02
2.737902338514472955e+00 5.996508613712430815e+02
2.738002360519313783e+00 5.997004161489001035e+02
2.738102382524155054e+00 5.997496099564571068e+02
2.738202404528995881e+00 5.997984424282237796e+02
2.738302426533837597e+00 5.998469132045460128e+02
2.738402448538677980e+00 5.998950219318179506e+02
2.738502470543519696e+00 5.999427682624896079e+02
2.738602492548360523e+00 5.999901518550749415e+02
2.738702514553201350e+00 6.000371723741631058e+02
2.738802536558042622e+00 6.000838294904229997e+02
2.738902558562883449e+00 6.001301228806144081e+02
2.739002580567724721e+00 6.001760522275945959e+02
2.739102602572565548e+00 6.002216172203271753e+02
2.739202624577407263e+00 6.002668175538886999e+02
2.739302646582247647e+00 6.003116529294768497e+02
2.739402668587088918e+00 6.003561230544196405e+02
2.739502690591930190e+00 6.004002276421801980e+02
2.739602712596771017e+00 6.004439664123644889e+02
2.739702734601612288e+00 6.004873390907299608e+02
2.739802756606453116e+00 6.005303454091906588e+02
2.739902778611294387e+00 6.005729851058245004e+02
2.740002800616135215e+00 6.006152579248816892e+02
2.740102822620976042e+00 6.006571636167880115e+02
2.740202844625817313e+00 6.006987019381531354e+02
2.740302866630658585e+00 6.007398726517767500e+02
2.740402888635499856e+00 6.007806755266548180e+02
2.740502910640340684e+00 6.008211103379834412e+02
2.740602932645181955e+00 6.008611768671680693e+02
2.740702954650022782e+00 6.009008749018250910e+02
2.740802976654863610e+00 6.009402042357903611e+02
2.740902998659704881e+00 6.009791646691235201e+02
2.741003020664545708e+00 6.010177560081131105e+02
2.741103042669386980e+00 6.010559780652804420e+02
2.741203064674228251e+00 6.010938306593859579e+02
2.741303086679069523e+00 6.011313136154342374e+02
2.741403108683910350e+00 6.011684267646770650e+02
2.741503130688751178e+00 6.012051699446183193e+02
2.741603152693592449e+00 6.012415429990180655e+02
2.741703174698433276e+00 6.012775457778982400e+02
2.741803196703274548e+00 6.013131781375432183e+02
2.741903218708115375e+00 6.013484399405072054e+02
2.742003240712956647e+00 6.013833310556158267e+02
2.742103262717797918e+00 6.014178513579709033e+02
2.742203284722638301e+00 6.014520007289510204e+02
2.742303306727480017e+00 6.014857790562177797e+02
2.742403328732320844e+00 6.015191862337176190e+02
2.742503350737162116e+00 6.015522221616848810e+02
2.742603372742002943e+00 6.015848867466432921e+02
2.742703394746844214e+00 6.016171799014108501e+02
2.742803416751685042e+00 6.016491015450992563e+02
2.742903438756525869e+00 6.016806516031192587e+02
2.743003460761367585e+00 6.017118300071815611e+02
2.743103482766207968e+00 6.017426366952968237e+02
2.743203504771049683e+00 6.017730716117800966e+02
2.743303526775890511e+00 6.018031347072510471e+02
2.743403548780731782e+00 6.018328259386366881e+02
2.743503570785572609e+00 6.018621452691709237e+02
2.743603592790413437e+00 6.018910926683976186e+02
2.743703614795254708e+00 6.019196681121690062e+02
2.743803636800095536e+00 6.019478715826487587e+02
2.743903658804937251e+00 6.019757030683126686e+02
2.744003680809777634e+00 6.020031625639489903e+02
2.744103702814619350e+00 6.020302500706561659e+02
2.744203724819460177e+00 6.020569655958474868e+02
2.744303746824301005e+00 6.020833091532476828e+02
2.744403768829142276e+00 6.021092807628950823e+02
2.744503790833983103e+00 6.021348804511391108e+02
2.744603812838824375e+00 6.021601082506417697e+02
2.744703834843665202e+00 6.021849642003772942e+02
2.744803856848506918e+00 6.022094483456289709e+02
2.744903878853347301e+00 6.022335607379907287e+02
2.745003900858188572e+00 6.022573014353654344e+02
2.745103922863029844e+00 6.022806705019638684e+02
2.745203944867870671e+00 6.023036680083010879e+02
2.745303966872711943e+00 6.023262940311998364e+02
2.745403988877552770e+00 6.023485486537830411e+02
2.745504010882394041e+00 6.023704319654768824e+02
2.745604032887234869e+00 6.023919440620061323e+02
2.745704054892075696e+00 6.024130850453916537e+02
2.745804076896916968e+00 6.024338550239513097e+02
2.745904098901758239e+00 6.024542541122934836e+02
2.746004120906599510e+00 6.024742824313179881e+02
2.746104142911440338e+00 6.024939401082099266e+02
2.746204164916281609e+00 6.025132272764390109e+02
2.746304186921122437e+00 6.025321440757575147e+02
2.746404208925963264e+00 6.025506906521928840e+02
2.746504230930804535e+00 6.025688671580484197e+02
2.746604252935645363e+00 6.025866737518991840e+02
2.746704274940486634e+00 6.026041105985847253e+02
2.746804296945327906e+00 6.026211778692108965e+02
2.746904318950169177e+00 6.026378757411403058e+02
2.747004340955010004e+00 6.026542043979911796e+02
2.747104362959850832e+00 6.026701640296338383e+02
2.747204384964692103e+00 6.026857548321836475e+02
2.747304406969532931e+00 6.027009770079964710e+02
2.747404428974374202e+00 6.027158307656670786e+02
2.747504450979215029e+00 6.027303163200199378e+02
2.747604472984056301e+00 6.027444338921077360e+02
2.747704494988897572e+00 6.027581837092034220e+02
2.747804516993737955e+00 6.027715660047956590e+02
2.747904538998579671e+00 6.027845810185845039e+02
2.748004561003420498e+00 6.027972289964739048e+02
2.748104583008261770e+00 6.028095101905655611e+02
2.748204605013102597e+00 6.028214248591544902e+02
2.748304627017943869e+00 6.028329732667217513e+02
2.748404649022784696e+00 6.028441556839286477e+02
2.748504671027625523e+00 6.028549723876087683e+02
2.748604693032467239e+00 6.028654236607632129e+02
2.748704715037307622e+00 6.028755097925526343e+02
2.748804737042149338e+00 6.028852310782903032e+02
2.748904759046990165e+00 6.028945878194341503e+02
2.749004781051831436e+00 6.029035803235819913e+02
2.749104803056672264e+00 6.029122089044606128e+02
2.749204825061513091e+00 6.029204738819207705e+02
2.749304847066354363e+00 6.029283755819279804e+02
2.749404869071195190e+00 6.029359143365554701e+02
2.749504891076036905e+00 6.029430904839748564e+02
2.749604913080877289e+00 6.029499043684504613e+02
2.749704935085719004e+00 6.029563563403258968e+02
2.749804957090559832e+00 6.029624467560217909e+02
2.749904979095400659e+00 6.029681759780212360e+02
2.750005001100241930e+00 6.029735443748650141e+02
2.750105023105082758e+00 6.029785523211410236e+02
2.750205045109924029e+00 6.029832001974747300e+02
2.750305067114764856e+00 6.029874883905195020e+02
2.750405089119606572e+00 6.029914172929491087e+02
2.750505111124446955e+00 6.029949873034454413e+02
2.750605133129288227e+00 6.029981988266908957e+02
2.750705155134129498e+00 6.030010522733558673e+02
2.750805177138970326e+00 6.030035480600922710e+02
2.750905199143811597e+00 6.030056866095189889e+02
2.751005221148652424e+00 6.030074683502153903e+02
2.751105243153493696e+00 6.030088937167074619e+02
2.751205265158334523e+00 6.030099631494591677e+02
2.751305287163175350e+00 6.030106770948611938e+02
2.751405309168016622e+00 6.030110360052183296e+02
2.751505331172857893e+00 6.030110403387403721e+02
2.751605353177699165e+00 6.030106905595300759e+02
2.751705375182539992e+00 6.030099871375705334e+02
2.751805397187381264e+00 6.030089305487151705e+02
2.751905419192222091e+00 6.030075212746744455e+02
2.752005441197062918e+00 6.030057598030050485e+02
2.752105463201904190e+00 6.030036466270975097e+02
2.752205485206745017e+00 6.030011822461626707e+02
2.752305507211586288e+00 6.029983671652211115e+02
2.752405529216427560e+00 6.029952018950899628e+02
2.752505551221268831e+00 6.029916869523689229e+02
2.752605573226109659e+00 6.029878228594293432e+02
2.752705595230950486e+00 6.029836101443997904e+02
2.752805617235791757e+00 6.029790493411534271e+02
2.752905639240632585e+00 6.029741409892949378e+02
2.753005661245473856e+00 6.029688856341455221e+02
2.753105683250314684e+00 6.029632838267324360e+02
2.753205705255155955e+00 6.029573361237711424e+02
2.753305727259997226e+00 6.029510430876548526e+02
2.753405749264837610e+00 6.029444052864381547e+02
2.753505771269679325e+00 6.029374232938249634e+02
2.753605793274520153e+00 6.029300976891513528e+02
2.753705815279361424e+00 6.029224290573739609e+02
2.753805837284202251e+00 6.029144179890523674e+02
2.753905859289043523e+00 6.029060650803376120e+02
2.754005881293884350e+00 6.028973709329549138e+02
2.754105903298725178e+00 6.028883361541893464e+02
2.754205925303566893e+00 6.028789613568688992e+02
2.754305947308407276e+00 6.028692471593523123e+02
2.754405969313248992e+00 6.028591941855114555e+02
2.754505991318089819e+00 6.028488030647162077e+02
2.754606013322931091e+00 6.028380744318178586e+02
2.754706035327771918e+00 6.028270089271342158e+02
2.754806057332612745e+00 6.028156071964326657e+02
2.754906079337454017e+00 6.028038698909151663e+02
2.755006101342294844e+00 6.027917976671999440e+02
2.755106123347136560e+00 6.027793911873067145e+02
2.755206145351976943e+00 6.027666511186382650e+02
2.755306167356818658e+00 6.027535781339669256e+02
2.755406189361659486e+00 6.027401729114136515e+02
2.755506211366500313e+00 6.027264361344316512e+02
2.755606233371341585e+00 6.027123684917930859e+02
2.755706255376182412e+00 6.026979706775656496e+02
2.755806277381023683e+00 6.026832433911008593e+02
2.755906299385864511e+00 6.026681873370121139e+02
2.756006321390706226e+00 6.026528032251584364e+02
2.756106343395546610e+00 6.026370917706276487e+02
2.756206365400387881e+00 6.026210536937167035e+02
2.756306387405229152e+00 6.026046897199140631e+02
2.756406409410069980e+00 6.025880005798805996e+02
2.756506431414911251e+00 6.025709870094331109e+02
2.756606453419752079e+00 6.025536497495243111e+02
2.756706475424593350e+00 6.025359895462238455e+02
2.756806497429434177e+00 6.025180071506997592e+02
2.756906519434275005e+00 6.024997033191993978e+02
2.757006541439116276e+00 6.024810788130312176e+02
2.757106563443957548e+00 6.024621343985443218e+02
2.757206585448798819e+00 6.024428708471081109e+02
2.757306607453639646e+00 6.024232889350969344e+02
2.757406629458480918e+00 6.024033894438647394e+02
2.757506651463321745e+00 6.023831731597292674e+02
2.757606673468162573e+00 6.023626408739512499e+02
2.757706695473003844e+00 6.023417933827139450e+02
2.757806717477844671e+00 6.023206314871017639e+02
2.757906739482685943e+00 6.022991559930826497e+02
2.758006761487527214e+00 6.022773677114853399e+02
2.758106783492368486e+00 6.022552674579809491e+02
2.758206805497209313e+00 6.022328560530584127e+02
2.758306827502050140e+00 6.022101343220080025e+02
2.758406849506891412e+00 6.021871030948985890e+02
2.758506871511732239e+00 6.021637632065560410e+02
2.758606893516573511e+00 6.021401154965426485e+02
2.758706915521414338e+00 6.021161608091348398e+02
2.758806937526255609e+00 6.020918999933035138e+02
2.758906959531096881e+00 6.020673339026911890e+02
2.759006981535937264e+00 6.020424633955901754e+02
2.759107003540778980e+00 6.020172893349210881e+02
2.759207025545619807e+00 6.019918125882114737e+02
2.759307047550461078e+00 6.019660340275725048e+02
2.759407069555301906e+00 6.019399545296776068e+02
2.759507091560143177e+00 6.019135749757409712e+02
2.759607113564984004e+00 6.018868962514927716e+02
2.759707135569824832e+00 6.018599192471587003e+02
2.759807157574666547e+00 6.018326448574358665e+02
2.759907179579506931e+00 6.018050739814724466e+02
2.760007201584348646e+00 6.017772075228409676e+02
2.760107223589189474e+00 6.017490463895185258e+02
2.760207245594030745e+00 6.017205914938623437e+02
2.760307267598871572e+00 6.016918437525864647e+02
2.760407289603712400e+00 6.016628040867390155e+02
2.760507311608553671e+00 6.016334734216770812e+02
2.760607333613394498e+00 6.016038526870464693e+02
2.760707355618236214e+00 6.015739428167540837e+02
2.760807377623076597e+00 6.015437447489460965e+02
2.760907399627918313e+00 6.015132594259854386e+02
2.761007421632759140e+00 6.014824877944229229e+02
2.761107443637599967e+00 6.014514308049790543e+02
2.761207465642441239e+00 6.014200894125164041e+02
2.761307487647282066e+00 6.013884645760149397e+02
2.761407509652123338e+00 6.013565572585489463e+02
2.761507531656964165e+00 6.013243684272637211e+02
2.761607553661805881e+00 6.012918990533447641e+02
2.761707575666646264e+00 6.012591501120012936e+02
2.761807597671487535e+00 6.012261225824358917e+02
2.761907619676328807e+00 6.011928174478207438e+02
2.762007641681169634e+00 6.011592356952726277e+02
2.762107663686010905e+00 6.011253783158292663e+02
2.762207685690851733e+00 6.010912463044202241e+02
2.762307707695693004e+00 6.010568406598454203e+02
2.762407729700533832e+00 6.010221623847472756e+02
2.762507751705374659e+00 6.009872124855868378e+02
2.762607773710215930e+00 6.009519919726152466e+02
2.762707795715057202e+00 6.009165018598511097e+02
2.762807817719898473e+00 6.008807431650524222e+02
2.762907839724739301e+00 6.008447169096909874e+02
2.763007861729580572e+00 6.008084241189278600e+02
2.763107883734421399e+00 6.007718658215842424e+02
2.763207905739262227e+00 6.007350430501172696e+02
2.763307927744103498e+00 6.006979568405945429e+02
2.763407949748944326e+00 6.006606082326640035e+02
2.763507971753785597e+00 6.006229982695302851e+02
2.763607993758626868e+00 6.005851279979281117e+02
2.763708015763468140e+00 6.005469984680934203e+02
2.763808037768308967e+00 6.005086107337382373e+02
2.763908059773149795e+00 6.004699658520230514e+02
2.764008081777991066e+00 6.004310648835312350e+02
2.764108103782831893e+00 6.003919088922382343e+02
2.764208125787673165e+00 6.003524989454881506e+02
2.764308147792513992e+00 6.003128361139645222e+02
2.764408169797355264e+00 6.002729214716639490e+02
2.764508191802196535e+00 6.002327560958676713e+02
2.764608213807036918e+00 6.001923410671139436e+02
2.764708235811878634e+00 6.001516774691710907e+02
2.764808257816719461e+00 6.001107663890091999e+02
2.764908279821560733e+00 6.000696089167732907e+02
2.765008301826401560e+00 6.000282061457538703e+02
2.765108323831242831e+00 5.999865591723597618e+02
2.765208345836083659e+00 5.999446690960901378e+02
2.765308367840924486e+00 5.999025370195068945e+02
2.765408389845766202e+00 5.998601640482050925e+02
2.765508411850606585e+00 5.998175512907843085e+02
2.765608433855448300e+00 5.997746998588240785e+02
2.765708455860289128e+00 5.997316108668487686e+02
2.765808477865130399e+00 5.996882854323065430e+02
2.765908499869971227e+00 5.996447246755348033e+02
2.766008521874812054e+00 5.996009297197344949e+02
2.766108543879653325e+00 5.995569016909413449e+02
2.766208565884494153e+00 5.995126417179941427e+02
2.766308587889335868e+00 5.994681509325105253e+02
2.766408609894176251e+00 5.994234304688541215e+02
2.766508631899017967e+00 5.993784814641069261e+02
2.766608653903858794e+00 5.993333050580408781e+02
2.766708675908699622e+00 5.992879023930869380e+02
2.766808697913540893e+00 5.992422746143076893e+02
2.766908719918381721e+00 5.991964228693665291e+02
2.767008741923222992e+00 5.991503483084990194e+02
2.767108763928063819e+00 5.991040520844838966e+02
2.767208785932905535e+00 5.990575353526121489e+02
2.767308807937745918e+00 5.990107992706589357e+02
2.767408829942587190e+00 5.989638449988522098e+02
2.767508851947428461e+00 5.989166736998467968e+02
2.767608873952269288e+00 5.988692865386889252e+02
2.767708895957110560e+00 5.988216846827897371e+02
2.767808917961951387e+00 5.987738693018976619e+02
2.767908939966792659e+00 5.987258415680627195e+02
2.768008961971633486e+00 5.986776026556119632e+02
2.768108983976474313e+00 5.986291537411166246e+02
2.768209005981315585e+00 5.985804960033610769e+02
2.768309027986156856e+00 5.985316306233162322e+02
2.768409049990998128e+00 5.984825587841068000e+02
2.768509071995838955e+00 5.984332816709796816e+02
2.768609094000680226e+00 5.983838004712774818e+02
2.768709116005521054e+00 5.983341163744054256e+02
2.768809138010361881e+00 5.982842305718011175e+02
2.768909160015203152e+00 5.982341442569047558e+02
2.769009182020043980e+00 5.981838586251286642e+02
2.769109204024885251e+00 5.981333748738265967e+02
2.769209226029726523e+00 5.980826942022615640e+02
2.769309248034567794e+00 5.980318178115785486e+02
2.769409270039408621e+00 5.979807469047702853e+02
2.769509292044249449e+00 5.979294826866482708e+02
2.769609314049090720e+00 5.978780263638130918e+02
2.769709336053931548e+00 5.978263791446202049e+02
2.769809358058772819e+00 5.977745422391518559e+02
2.769909380063613646e+00 5.977225168591861575e+02
2.770009402068454918e+00 5.976703042181643468e+02
2.770109424073296189e+00 5.976179055311607726e+02
2.770209446078136573e+00 5.975653220148526543e+02
2.770309468082978288e+00 5.975125548874876813e+02
2.770409490087819115e+00 5.974596053688520669e+02
2.770509512092660387e+00 5.974064746802439458e+02
2.770609534097501214e+00 5.973531640444368804e+02
2.770709556102342486e+00 5.972996746856496202e+02
2.770809578107183313e+00 5.972460078295191579e+02
2.770909600112024140e+00 5.971921647030633267e+02
2.771009622116865856e+00 5.971381465346546520e+02
2.771109644121706239e+00 5.970839545539855635e+02
2.771209666126547955e+00 5.970295899920382681e+02
2.771309688131388782e+00 5.969750540810540542e+02
2.771409710136230053e+00 5.969203480545000957e+02
2.771509732141070881e+00 5.968654731470404613e+02
2.771609754145911708e+00 5.968104305945025772e+02
2.771709776150752980e+00 5.967552216338456219e+02
2.771809798155593807e+00 5.966998475031314229e+02
2.771909820160435522e+00 5.966443094414900088e+02
2.772009842165275906e+00 5.965886086890898241e+02
2.772109864170117177e+00 5.965327464871056691e+02
2.772209886174958449e+00 5.964767240776860717e+02
2.772309908179799276e+00 5.964205427039246388e+02
2.772409930184640547e+00 5.963642036098251538e+02
2.772509952189481375e+00 5.963077080402697447e+02
2.772609974194322646e+00 5.962510572409918268e+02
2.772709996199163474e+00 5.961942524585385854e+02
2.772810018204004301e+00 5.961372949402440327e+02
2.772910040208845572e+00 5.960801859341929685e+02
2.773010062213686844e+00 5.960229266891926727e+02
2.773110084218528115e+00 5.959655184547402769e+02
2.773210106223368943e+00 5.959079624809892266e+02
2.773310128228210214e+00 5.958502600187206326e+02
2.773410150233051041e+00 5.957924123193090509e+02
2.773510172237891869e+00 5.957344206346911051e+02
2.773610194242733140e+00 5.956762862173358144e+02
2.773710216247573968e+00 5.956180103202078726e+02
2.773810238252415239e+00 5.955595941967427507e+02
2.773910260257256510e+00 5.955010391008083843e+02
2.774010282262097782e+00 5.954423462866783439e+02
2.774110304266938609e+00 5.953835170089957955e+02
2.774210326271779437e+00 5.953245525227449662e+02
2.774310348276620708e+00 5.952654540832186285e+02
2.774410370281461535e+00 5.952062229459839955e+02
2.774510392286302807e+00 5.951468603668556625e+02
2.774610414291143634e+00 5.950873676018584320e+02
2.774710436295984906e+00 5.950277459071985504e+02
2.774810458300826177e+00 5.949679965392319900e+02
2.774910480305666560e+00 5.949081207544318204e+02
2.775010502310508276e+00 5.948481198093562625e+02
2.775110524315349103e+00 5.947879949606181071e+02
2.775210546320190375e+00 5.947277474648509497e+02
2.775310568325031202e+00 5.946673785786796316e+02
2.775410590329872473e+00 5.946068895586880672e+02
2.775510612334713301e+00 5.945462816613849100e+02
2.775610634339554128e+00 5.944855561431769502e+02
2.775710656344395844e+00 5.944247142603305747e+02
2.775810678349236227e+00 5.943637572689475519e+02
2.775910700354077942e+00 5.943026864249271739e+02
2.776010722358918770e+00 5.942415029839384033e+02
2.776110744363760041e+00 5.941802082013870177e+02
2.776210766368600869e+00 5.941188033323828677e+02
2.776310788373441696e+00 5.940572896317098639e+02
2.776410810378282967e+00 5.939956683537943718e+02
2.776510832383123795e+00 5.939339407526726973e+02
2.776610854387965510e+00 5.938721080819595954e+02
2.776710876392805893e+00 5.938101715948182573e+02
2.776810898397647609e+00 5.937481325439264310e+02
2.776910920402488436e+00 5.936859921814470908e+02
2.777010942407329264e+00 5.936237517589961499e+02
2.777110964412170535e+00 5.935614125276099458e+02
2.777210986417011362e+00 5.934989757377171600e+02
2.777311008421852634e+00 5.934364426391025518e+02
2.777411030426693461e+00 5.933738144808811512e+02
2.777511052431535177e+00 5.933110925114614247e+02
2.777611074436375560e+00 5.932482779785186722e+02
2.777711096441216831e+00 5.931853721289611485e+02
2.777811118446058103e+00 5.931223762088992544e+02
2.777911140450898930e+00 5.930592914636152955e+02
2.778011162455740202e+00 5.929961191375314229e+02
2.778111184460581029e+00 5.929328604741791651e+02
2.778211206465422300e+00 5.928695167161674817e+02
2.778311228470263128e+00 5.928060891051522958e+02
2.778411250475103955e+00 5.927425788818065939e+02
2.778511272479945227e+00 5.926789872857876844e+02
2.778611294484786498e+00 5.926153155557067294e+02
2.778711316489627769e+00 5.925515649290989586e+02
2.778811338494468597e+00 5.924877366423909280e+02
2.778911360499309868e+00 5.924238319308720975e+02
2.779011382504150696e+00 5.923598520286627718e+02
2.779111404508991523e+00 5.922957981686831772e+02
2.779211426513832794e+00 5.922316715826237896e+02
2.779311448518673622e+00 5.921674735009129336e+02
2.779411470523514893e+00 5.921032051526881332e+02
2.779511492528356165e+00 5.920388677657659855e+02
2.779611514533197436e+00 5.919744625666094180e+02
2.779711536538038263e+00 5.919099907802991538e+02
2.779811558542879091e+00 5.918454536305026750e+02
2.779911580547720362e+00 5.917808523394437543e+02
2.780011602552561190e+00 5.917161881278730107e+02
2.780111624557402461e+00 5.916514622150373270e+02
2.780211646562243288e+00 5.915866758186489278e+02
2.780311668567084560e+00 5.915218301548572981e+02
2.780411690571925831e+00 5.914569264382166693e+02
2.780511712576766215e+00 5.913919658816580522e+02
2.780611734581607930e+00 5.913269496964585414e+02
2.780711756586448757e+00 5.912618790922113021e+02
2.780811778591290029e+00 5.911967552767960115e+02
2.780911800596130856e+00 5.911315794563497548e+02
2.781011822600972128e+00 5.910663528352372396e+02
2.781111844605812955e+00 5.910010766160189633e+02
2.781211866610653782e+00 5.909357519994252925e+02
2.781311888615495498e+00 5.908703801843242900e+02
2.781411910620335881e+00 5.908049623676942019e+02
2.781511932625177597e+00 5.907394997445927629e+02
2.781611954630018424e+00 5.906739935081286603e+02
2.781711976634859695e+00 5.906084448494314074e+02
2.781811998639700523e+00 5.905428549576237174e+02
2.781912020644541350e+00 5.904772250197918311e+02
2.782012042649382622e+00 5.904115562209558448e+02
2.782112064654223449e+00 5.903458497440424253e+02
2.782212086659065164e+00 5.902801067698530915e+02
2.782312108663905548e+00 5.902143284770397713e+02
2.782412130668747263e+00 5.901485160420718330e+02
2.782512152673588091e+00 5.900826706392101642e+02
2.782612174678428918e+00 5.900167934404784091e+02
2.782712196683270189e+00 5.899508856156326146e+02
2.782812218688111017e+00 5.898849483321355365e+02
2.782912240692952288e+00 5.898189827551261715e+02
2.783012262697793116e+00 5.897529900473936095e+02
2.783112284702634831e+00 5.896869713693466792e+02
2.783212306707475214e+00 5.896209278789876862e+02
2.783312328712316486e+00 5.895548607318833092e+02
2.783412350717157757e+00 5.894887710811372017e+02
2.783512372721998585e+00 5.894226600773628206e+02
2.783612394726839856e+00 5.893565288686547774e+02
2.783712416731680683e+00 5.892903786005617803e+02
2.783812438736521955e+00 5.892242104160583267e+02
2.783912460741362782e+00 5.891580254555188958e+02
2.784012482746203609e+00 5.890918248566881630e+02
2.784112504751044881e+00 5.890256097546566707e+02
2.784212526755886152e+00 5.889593812818310425e+02
2.784312548760727424e+00 5.888931405679087447e+02
2.784412570765568251e+00 5.888268887398496645e+02
2.784512592770409523e+00 5.887606269218507578e+02
2.784612614775250350e+00 5.886943562353183097e+02
2.784712636780091177e+00 5.886280777988398540e+02
2.784812658784932449e+00 5.885617927281610946e+02
2.784912680789773276e+00 5.884955021361568015e+02
2.785012702794614547e+00 5.884292071328043221e+02
2.785112724799455819e+00 5.883629088251589110e+02
2.785212746804297090e+00 5.882966083173256493e+02
2.785312768809137918e+00 5.882303067104346610e+02
2.785412790813978745e+00 5.881640051026149649e+02
2.785512812818820017e+00 5.880977045889674173e+02
2.785612834823660844e+00 5.880314062615410649e+02
2.785712856828502115e+00 5.879651112093049505e+02
2.785812878833342943e+00 5.878988205181233297e+02
2.785912900838184214e+00 5.878325352707327056e+02
2.786012922843025486e+00 5.877662565467123841e+02
2.786112944847865869e+00 5.876999854224616229e+02
2.786212966852707584e+00 5.876337229711739383e+02
2.786312988857548412e+00 5.875674702628117529e+02
2.786413010862389683e+00 5.875012283640824080e+02
2.786513032867230510e+00 5.874349983384121288e+02
2.786613054872071782e+00 5.873687812459216957e+02
2.786713076876912609e+00 5.873025781434017745e+02
2.786813098881753437e+00 5.872363900842888143e+02
2.786913120886595152e+00 5.871702181186402640e+02
2.787013142891435535e+00 5.871040632931097889e+02
2.787113164896277251e+00 5.870379266509253284e+02
2.787213186901118078e+00 5.869718092318611298e+02
2.787313208905959350e+00 5.869057120722170566e+02
2.787413230910800177e+00 5.868396362047938055e+02
2.787513252915641004e+00 5.867735826588689179e+02
2.787613274920482276e+00 5.867075524601735879e+02
2.787713296925323103e+00 5.866415466308684472e+02
2.787813318930164819e+00 5.865755661895212825e+02
2.787913340935005202e+00 5.865096121510824787e+02
2.788013362939846917e+00 5.864436855268629643e+02
2.788113384944687745e+00 5.863777873245119281e+02
2.788213406949528572e+00 5.863119185479908992e+02
2.788313428954369844e+00 5.862460801975536242e+02
2.788413450959210671e+00 5.861802732697241254e+02
2.788513472964051942e+00 5.861144987572706668e+02
2.788613494968892770e+00 5.860487576491877917e+02
2.788713516973734485e+00 5.859830509306702879e+02
2.788813538978574869e+00 5.859173795830922700e+02
2.788913560983416140e+00 5.858517445839868287e+02
2.789013582988257411e+00 5.857861469070215890e+02
2.789113604993098239e+00 5.857205875219792688e+02
2.789213626997939510e+00 5.856550673947334644e+02
2.789313649002780338e+00 5.855895874872301192e+02
2.789413671007621609e+00 5.855241487574633084e+02
2.789513693012462436e+00 5.854587521594568216e+02
2.789613715017303264e+00 5.853933986432400616e+02
2.789713737022144535e+00 5.853280891548300815e+02
2.789813759026985807e+00 5.852628246362079381e+02
2.789913781031827078e+00 5.851976060253001606e+02
2.790013803036667905e+00 5.851324342559565821e+02
2.790113825041509177e+00 5.850673102579316947e+02
2.790213847046350004e+00 5.850022349568620257e+02
2.790313869051190832e+00 5.849372092742488576e+02
2.790413891056032103e+00 5.848722341274340124e+02
2.790513913060872930e+00 5.848073104295851863e+02
2.790613935065714202e+00 5.847424390896730984e+02
2.790713957070555473e+00 5.846776210124502313e+02
2.790813979075396745e+00 5.846128570984348016e+02
2.790914001080237572e+00 5.845481482438912053e+02
2.791014023085078399e+00 5.844834953408069396e+02
2.791114045089919671e+00 5.844188992768795288e+02
2.791214067094760498e+00 5.843543609354903765e+02
2.791314089099601770e+00 5.842898811956935106e+02
2.791414111104442597e+00 5.842254609321912540e+02
2.791514133109283868e+00 5.841611010153185362e+02
2.791614155114125140e+00 5.840968023110240210e+02
2.791714177118965523e+00 5.840325656808503254e+02
2.791814199123807239e+00 5.839683919819202629e+02
2.791914221128648066e+00 5.839042820669122875e+02
2.792014243133489337e+00 5.838402367840498073e+02
2.792114265138330165e+00 5.837762569770777645e+02
2.792214287143171436e+00 5.837123434852487662e+02
2.792314309148012264e+00 5.836484971433048941e+02
2.792414331152853091e+00 5.835847187814587187e+02
2.792514353157694806e+00 5.835210092253790890e+02
2.792614375162535190e+00 5.834573692961720326e+02
2.792714397167376905e+00 5.833937998103655218e+02
2.792814419172217733e+00 5.833303015798925344e+02
2.792914441177059004e+00 5.832668754120730910e+02
2.793014463181899831e+00 5.832035221096000441e+02
2.793114485186740659e+00 5.831402424705222529e+02
2.793214507191581930e+00 5.830770372882273023e+02
2.793314529196422757e+00 5.830139073514284291e+02
2.793414551201264473e+00 5.829508534441463325e+02
2.793514573206104856e+00 5.828878763456940533e+02
2.793614595210946572e+00 5.828249768306634451e+02
2.793714617215787399e+00 5.827621556689074396e+02
2.793814639220628226e+00 5.826994136255261765e+02
2.793914661225469498e+00 5.826367514608519969e+02
2.794014683230310325e+00 5.825741699304365966e+02
2.794114705235151597e+00 5.825116697850320406e+02
2.794214727239992424e+00 5.824492517705804175e+02
2.794314749244834140e+00 5.823869166281972412e+02
2.794414771249674523e+00 5.823246650941581493e+02
2.794514793254515794e+00 5.822624978998853749e+02
2.794614815259357066e+00 5.822004157719335353e+02
2.794714837264197893e+00 5.821384194319748531e+02
2.794814859269039165e+00 5.820765095967873322e+02
2.794914881273879992e+00 5.820146869782407748e+02
2.795014903278721263e+00 5.819529522832841621e+02
2.795114925283562091e+00 5.818913062139309886e+02
2.795214947288402918e+00 5.818297494672478933e+02
2.795314969293244189e+00 5.817682827353420407e+02
2.795414991298085461e+00 5.817069067053477056e+02
2.795515013302926732e+00 5.816456220594141087e+02
2.795615035307767560e+00 5.815844294746942751e+02
2.795715057312608831e+00 5.815233296233312785e+02
2.795815079317449658e+00 5.814623231724473271e+02
2.795915101322290486e+00 5.814014107841326222e+02
2.796015123327131757e+00 5.813405931154321706e+02
2.796115145331972585e+00 5.812798708183360077e+02
2.796215167336813856e+00 5.812192445397668052e+02
2.796315189341655127e+00 5.811587149215703221e+02
2.796415211346496399e+00 5.810982826005023298e+02
2.796515233351337226e+00 5.810379482082190634e+02
2.796615255356178054e+00 5.809777123712674438e+02
2.796715277361019325e+00 5.809175757110738232e+02
2.796815299365860152e+00 5.808575388439323888e+02
2.796915321370701424e+00 5.807976023809983417e+02
2.797015343375542251e+00 5.807377669282751640e+02
2.797115365380383523e+00 5.806780330866056374e+02
2.797215387385224794e+00 5.806184014516630896e+02
2.797315409390065177e+00 5.805588726139412756e+02
2.797415431394906893e+00 5.804994471587449425e+02
2.797515453399747720e+00 5.804401256661811885e+02
2.797615475404588992e+00 5.803809087111512781e+02
2.797715497409429819e+00 5.803217968633398414e+02
2.797815519414271090e+00 5.802627906872080530e+02
2.797915541419111918e+00 5.802038907419854468e+02
2.798015563423952745e+00 5.801450975816594564e+02
2.798115585428794461e+00 5.800864117549714365e+02
2.798215607433634844e+00 5.800278338054026790e+02
2.798315629438476559e+00 5.799693642711748680e+02
2.798415651443317387e+00 5.799110036852331405e+02
2.798515673448158658e+00 5.798527525752468819e+02
2.798615695452999486e+00 5.797946114635982440e+02
2.798715717457840313e+00 5.797365808673749825e+02
2.798815739462681584e+00 5.796786612983665918e+02
2.798915761467522412e+00 5.796208532630546415e+02
2.799015783472364127e+00 5.795631572626073194e+02
2.799115805477204511e+00 5.795055737928729513e+02
2.799215827482046226e+00 5.794481033443744309e+02
2.799315849486887053e+00 5.793907464023018292e+02
2.799415871491727881e+00 5.793335034465089848e+02
2.799515893496569152e+00 5.792763749515052041e+02
2.799615915501409980e+00 5.792193613864508279e+02
2.799715937506251251e+00 5.791624632151524565e+02
2.799815959511092078e+00 5.791056808960581748e+02
2.799915981515933794e+00 5.790490148822499350e+02
2.800016003520774177e+00 5.789924656214418519e+02
2.800116025525615449e+00 5.789360335559747455e+02
2.800216047530456720e+00 5.788797191228097745e+02
2.800316069535297547e+00 5.788235227535272998e+02
2.800416091540138819e+00 5.787674448743198354e+02
2.800516113544979646e+00 5.787114859059896617e+02
2.800616135549820918e+00 5.786556462639470055e+02
2.800716157554661745e+00 5.785999263582011736e+02
2.800816179559502572e+00 5.785443265933619159e+02
2.800916201564343844e+00 5.784888473686344241e+02
2.801016223569185115e+00 5.784334890778158069e+02
2.801116245574026387e+00 5.783782521092945217e+02
2.801216267578867214e+00 5.783231368460444628e+02
2.801316289583708485e+00 5.782681436656246206e+02
2.801416311588549313e+00 5.782132729401741926e+02
2.801516333593390140e+00 5.781585250364164494e+02
2.801616355598231412e+00 5.781039003156474791e+02
2.801716377603072239e+00 5.780493991337433499e+02
2.801816399607913510e+00 5.779950218411520382e+02
2.801916421612754782e+00 5.779407687828960434e+02
2.802016443617596053e+00 5.778866402985677269e+02
2.802116465622436881e+00 5.778326367223321540e+02
2.802216487627277708e+00 5.777787583829214100e+02
2.802316509632118979e+00 5.777250056036376691e+02
2.802416531636959807e+00 5.776713787023512623e+02
2.802516553641801078e+00 5.776178779914991992e+02
2.802616575646641905e+00 5.775645037780866460e+02
2.802716597651483177e+00 5.775112563636851064e+02
2.802816619656324448e+00 5.774581360444348093e+02
2.802916641661164832e+00 5.774051431110424346e+02
2.803016663666006547e+00 5.773522778487822507e+02
2.803116685670847374e+00 5.772995405374995244e+02
2.803216707675688646e+00 5.772469314516059740e+02
2.803316729680529473e+00 5.771944508600849986e+02
2.803416751685370745e+00 5.771420990264923603e+02
2.803516773690211572e+00 5.770898762089544789e+02
2.803616795695052399e+00 5.770377826601737752e+02
2.803716817699894115e+00 5.769858186274277614e+02
2.803816839704734498e+00 5.769339843525722245e+02
2.803916861709576214e+00 5.768822800720416808e+02
2.804016883714417041e+00 5.768307060168540374e+02
2.804116905719258313e+00 5.767792624126095689e+02
2.804216927724099140e+00 5.767279494794966013e+02
2.804316949728939967e+00 5.766767674322924222e+02
2.804416971733781239e+00 5.766257164803665773e+02
2.804516993738622066e+00 5.765747968276835991e+02
2.804617015743463782e+00 5.765240086728080087e+02
2.804717037748304165e+00 5.764733522089035205e+02
2.804817059753145880e+00 5.764228276237423643e+02
2.804917081757986708e+00 5.763724350997039210e+02
2.805017103762827535e+00 5.763221748137805207e+02
2.805117125767668806e+00 5.762720469375831271e+02
2.805217147772509634e+00 5.762220516373422470e+02
2.805317169777350905e+00 5.761721890739160017e+02
2.805417191782191733e+00 5.761224594027913781e+02
2.805517213787033448e+00 5.760728627740909360e+02
2.805617235791873831e+00 5.760233993325779238e+02
2.805717257796715103e+00 5.759740692176595758e+02
2.805817279801556374e+00 5.759248725633946151e+02
2.805917301806397202e+00 5.758758094984957552e+02
2.806017323811238473e+00 5.758268801463404998e+02
2.806117345816079300e+00 5.757780846249705746e+02
2.806217367820920572e+00 5.757294230471009087e+02
2.806317389825761399e+00 5.756808955201277058e+02
2.806417411830602227e+00 5.756325021461315146e+02
2.806517433835443498e+00 5.755842430218846175e+02
2.806617455840284769e+00 5.755361182388581938e+02
2.806717477845126041e+00 5.754881278832290263e+02
2.806817499849966868e+00 5.754402720358866645e+02
2.806917521854807696e+00 5.753925507724389945e+02
2.807017543859648967e+00 5.753449641632212206e+02
2.807117565864489794e+00 5.752975122733041644e+02
2.807217587869331066e+00 5.752501951624982439e+02
2.807317609874171893e+00 5.752030128853647284e+02
2.807417631879013165e+00 5.751559654912227870e+02
2.807517653883854436e+00 5.751090530241572196e+02
2.807617675888694819e+00 5.750622755230268695e+02
2.807717697893536535e+00 5.750156330214722402e+02
2.807817719898377362e+00 5.749691255479262963e+02
2.807917741903218634e+00 5.749227531256208295e+02
2.808017763908059461e+00 5.748765157725974859e+02
2.808117785912900732e+00 5.748304135017162935e+02
2.808217807917741560e+00 5.747844463206628234e+02
2.808317829922582387e+00 5.747386142319605824e+02
2.808417851927424103e+00 5.746929172329798803e+02
2.808517873932264486e+00 5.746473553159462426e+02
2.808617895937106201e+00 5.746019284679514385e+02
2.808717917941947029e+00 5.745566366709638260e+02
2.808817939946788300e+00 5.745114799018382428e+02
2.808917961951629128e+00 5.744664581323256698e+02
2.809017983956469955e+00 5.744215713290850545e+02
2.809118005961311226e+00 5.743768194536938836e+02
2.809218027966152054e+00 5.743322024626577331e+02
2.809318049970993769e+00 5.742877203074242516e+02
2.809418071975834152e+00 5.742433729343895266e+02
2.809518093980675868e+00 5.741991602849150240e+02
2.809618115985516695e+00 5.741550822953353190e+02
2.809718137990357523e+00 5.741111388969713971e+02
2.809818159995198794e+00 5.740673300161417956e+02
2.809918182000039621e+00 5.740236555741740858e+02
2.810018204004880893e+00 5.739801154874204485e+02
2.810118226009721720e+00 5.739367096672656317e+02
2.810218248014563436e+00 5.738934380201408203e+02
2.810318270019403819e+00 5.738503004475375064e+02
2.810418292024245090e+00 5.738072968460197671e+02
2.810518314029086362e+00 5.737644271072356332e+02
2.810618336033927189e+00 5.737216911179336876e+02
2.810718358038768461e+00 5.736790887599715916e+02
2.810818380043609288e+00 5.736366199103341614e+02
2.810918402048450560e+00 5.735942844411424630e+02
2.811018424053291387e+00 5.735520822196731388e+02
2.811118446058132214e+00 5.735100131083659107e+02
2.811218468062973486e+00 5.734680769648424530e+02
2.811318490067814757e+00 5.734262736419182147e+02
2.811418512072656029e+00 5.733846029876167449e+02
2.811518534077496856e+00 5.733430648451861771e+02
2.811618556082338127e+00 5.733016590531113934e+02
2.811718578087178955e+00 5.732603854451294865e+02
2.811818600092019782e+00 5.732192438502464711e+02
2.811918622096861053e+00 5.731782340927493351e+02
2.812018644101701881e+00 5.731373559922232062e+02
2.812118666106543152e+00 5.730966093635676089e+02
2.812218688111384424e+00 5.730559940170086293e+02
2.812318710116225695e+00 5.730155097581173322e+02
2.812418732121066522e+00 5.729751563878255638e+02
2.812518754125907350e+00 5.729349337024401621e+02
2.812618776130748621e+00 5.728948414936610334e+02
2.812718798135589449e+00 5.728548795485949086e+02
2.812818820140430720e+00 5.728150476497753516e+02
2.812918842145271547e+00 5.727753455751742422e+02
2.813018864150112819e+00 5.727357730982237172e+02
2.813118886154954090e+00 5.726963299878293583e+02
2.813218908159794474e+00 5.726570160083883820e+02
2.813318930164636189e+00 5.726178309198065790e+02
2.813418952169477016e+00 5.725787744775166175e+02
2.813518974174318288e+00 5.725398464324917995e+02
2.813618996179159115e+00 5.725010465312690258e+02
2.813719018184000387e+00 5.724623745159619830e+02
2.813819040188841214e+00 5.724238301242797888e+02
2.813919062193682041e+00 5.723854130895467733e+02
2.814019084198523757e+00 5.723471231407186224e+02
2.814119106203364140e+00 5.723089600024013635e+02
2.814219128208205856e+00 5.722709233948693281e+02
2.814319150213046683e+00 5.722330130340830010e+02
2.814419172217887954e+00 5.721952286317098242e+02
2.814519194222728782e+00 5.721575698951398863e+02
2.814619216227569609e+00 5.721200365275079776e+02
2.814719238232410881e+00 5.720826282277087103e+02
2.814819260237251708e+00 5.720453446904191424e+02
2.814919282242093423e+00 5.720081856061159442e+02
2.815019304246933807e+00 5.719711506610954075e+02
2.815119326251775522e+00 5.719342395374933403e+02
2.815219348256616350e+00 5.718974519133043941e+02
2.815319370261457177e+00 5.718607874623997986e+02
2.815419392266298448e+00 5.718242458545516911e+02
2.815519414271139276e+00 5.717878267554480090e+02
2.815619436275980547e+00 5.717515298267167054e+02
2.815719458280821375e+00 5.717153547259434845e+02
2.815819480285663090e+00 5.716793011066934014e+02
2.815919502290503473e+00 5.716433686185305305e+02
2.816019524295344745e+00 5.716075569070389975e+02
2.816119546300186016e+00 5.715718656138440110e+02
2.816219568305026844e+00 5.715362943766313037e+02
2.816319590309868115e+00 5.715008428291706650e+02
2.816419612314708942e+00 5.714655106013335626e+02
2.816519634319550214e+00 5.714302973191183810e+02
2.816619656324391041e+00 5.713952026046679293e+02
2.816719678329231868e+00 5.713602260762928609e+02
2.816819700334073140e+00 5.713253673484935007e+02
2.816919722338914411e+00 5.712906260319796274e+02
2.817019744343755683e+00 5.712560017336953706e+02
2.817119766348596510e+00 5.712214940568378552e+02
2.817219788353437782e+00 5.711871026008800527e+02
2.817319810358278609e+00 5.711528269615947693e+02
2.817419832363119436e+00 5.711186667310754501e+02
2.817519854367960708e+00 5.710846214977567570e+02
2.817619876372801535e+00 5.710506908464411708e+02
2.817719898377642807e+00 5.710168743583174091e+02
2.817819920382484078e+00 5.709831716109857780e+02
2.817919942387325349e+00 5.709495821784796590e+02
2.818019964392166177e+00 5.709161056312884739e+02
2.818119986397007004e+00 5.708827415363815589e+02
2.818220008401848276e+00 5.708494894572303338e+02
2.818320030406689103e+00 5.708163489538312660e+02
2.818420052411530374e+00 5.707833195827304280e+02
2.818520074416371202e+00 5.707504008970449831e+02
2.818620096421212473e+00 5.707175924464891068e+02
2.818720118426053745e+00 5.706848937773953594e+02
2.818820140430894128e+00 5.706523044327398111e+02
2.818920162435735843e+00 5.706198239521639834e+02
2.819020184440576671e+00 5.705874518720024753e+02
2.819120206445417942e+00 5.705551877253021757e+02
2.819220228450258769e+00 5.705230310418501176e+02
2.819320250455100041e+00 5.704909813481942820e+02
2.819420272459940868e+00 5.704590381676730431e+02
2.819520294464781696e+00 5.704272010204331309e+02
2.819620316469623411e+00 5.703954694234593035e+02
2.819720338474463794e+00 5.703638428905956061e+02
2.819820360479305510e+00 5.703323209325719745e+02
2.819920382484146337e+00 5.703009030570278810e+02
2.820020404488987609e+00 5.702695887685364369e+02
2.820120426493828436e+00 5.702383775686336094e+02
2.820220448498669263e+00 5.702072689558366392e+02
2.820320470503510535e+00 5.701762624256730305e+02
2.820420492508351362e+00 5.701453574707077223e+02
2.820520514513193078e+00 5.701145535805615054e+02
2.820620536518033461e+00 5.700838502419444467e+02
2.820720558522875177e+00 5.700532469386758976e+02
2.820820580527716004e+00 5.700227431517108698e+02
2.820920602532556831e+00 5.699923383591677748e+02
2.821020624537398103e+00 5.699620320363518431e+02
2.821120646542238930e+00 5.699318236557814998e+02
2.821220668547080201e+00 5.699017126872146264e+02
2.821320690551921029e+00 5.698716985976748219e+02
2.821420712556762744e+00 5.698417808514755052e+02
2.821520734561603128e+00 5.698119589102475402e+02
2.821620756566444399e+00 5.697822322329657254e+02
2.821720778571285670e+00 5.697526002759749417e+02
2.821820800576126498e+00 5.697230624930127760e+02
2.821920822580967769e+00 5.696936183352416947e+02
2.822020844585808597e+00 5.696642672512722356e+02
2.822120866590649868e+00 5.696350086871890426e+02
2.822220888595490695e+00 5.696058420865790595e+02
2.822320910600331523e+00 5.695767668905564278e+02
2.822420932605172794e+00 5.695477825377915906e+02
2.822520954610014066e+00 5.695188884645349390e+02
2.822620976614855337e+00 5.694900841046472806e+02
2.822720998619696164e+00 5.694613688896229178e+02
2.822821020624537436e+00 5.694327422486190926e+02
2.822921042629378263e+00 5.694042036084825895e+02
2.823021064634219091e+00 5.693757523937772476e+02
2.823121086639060362e+00 5.693473880268088578e+02
2.823221108643901189e+00 5.693191099276550631e+02
2.823321130648742461e+00 5.692909175141908236e+02
2.823421152653583732e+00 5.692628102021172936e+02
2.823521174658425004e+00 5.692347874049876282e+02
2.823621196663265831e+00 5.692068485342355189e+02
2.823721218668106658e+00 5.691789929992025918e+02
2.823821240672947930e+00 5.691512202071635329e+02
2.823921262677788757e+00 5.691235295633590567e+02
2.824021284682630029e+00 5.690959204710177346e+02
2.824121306687470856e+00 5.690683923313873720e+02
2.824221328692312127e+00 5.690409445437617251e+02
2.824321350697153399e+00 5.690135765055075581e+02
2.824421372701993782e+00 5.689862876120936335e+02
2.824521394706835498e+00 5.689590772571172010e+02
2.824621416711676325e+00 5.689319448323346933e+02
2.824721438716517596e+00 5.689048897276858270e+02
2.824821460721358424e+00 5.688779113313252083e+02
2.824921482726199695e+00 5.688510090296479120e+02
2.825021504731040523e+00 5.688241822073189269e+02
2.825121526735881350e+00 5.687974302473007810e+02
2.825221548740723065e+00 5.687707525308825325e+02
2.825321570745563449e+00 5.687441484377062579e+02
2.825421592750405164e+00 5.687176173457975210e+02
2.825521614755245992e+00 5.686911586315922023e+02
2.825621636760087263e+00 5.686647716699648072e+02
2.825721658764928090e+00 5.686384558342583659e+02
2.825821680769768918e+00 5.686122104963108086e+02
2.825921702774610189e+00 5.685860350264845238e+02
2.826021724779451016e+00 5.685599287936952351e+02
2.826121746784292732e+00 5.685338911654403091e+02
2.826221768789133115e+00 5.685079215078254720e+02
2.826321790793974831e+00 5.684820191855968687e+02
2.826421812798815658e+00 5.684561835621661885e+02
2.826521834803656485e+00 5.684304139996412459e+02
2.826621856808497757e+00 5.684047098588549716e+02
2.826721878813338584e+00 5.683790704993926965e+02
2.826821900818179856e+00 5.683534952796215975e+02
2.826921922823020683e+00 5.683279835567192322e+02
2.827021944827862399e+00 5.683025346867025291e+02
2.827121966832702782e+00 5.682771480244574605e+02
2.827221988837544053e+00 5.682518229237650758e+02
2.827322010842385325e+00 5.682265587373333346e+02
2.827422032847226152e+00 5.682013548168237094e+02
2.827522054852067424e+00 5.681762105128822213e+02
2.827622076856908251e+00 5.681511251751667260e+02
2.827722098861749522e+00 5.681260981523757891e+02
2.827822120866590350e+00 5.681011287922776773e+02
2.827922142871431177e+00 5.680762164417409394e+02
2.828022164876272448e+00 5.680513604467603272e+02
2.828122186881113720e+00 5.680265601524890826e+02
2.828222208885954991e+00 5.680018149032644033e+02
2.828322230890795819e+00 5.679771240426395025e+02
2.828422252895637090e+00 5.679524869134113487e+02
2.828522274900477917e+00 5.679279028576480641e+02
2.828622296905318745e+00 5.679033712167205294e+02
2.828722318910160016e+00 5.678788913313304647e+02
2.828822340915000844e+00 5.678544625415383962e+02
2.828922362919842115e+00 5.678300841867942381e+02
2.829022384924683386e+00 5.678057556059635544e+02
2.829122406929524658e+00 5.677814761373610963e+02
2.829222428934365485e+00 5.677572451187756997e+02
2.829322450939206313e+00 5.677330618875009804e+02
2.829422472944047584e+00 5.677089257803633018e+02
2.829522494948888411e+00 5.676848361337534925e+02
2.829622516953729683e+00 5.676607922836516309e+02
2.829722538958570510e+00 5.676367935656601276e+02
2.829822560963411782e+00 5.676128393150293050e+02
2.829922582968253053e+00 5.675889288666892298e+02
2.830022604973093436e+00 5.675650615552760883e+02
2.830122626977935152e+00 5.675412367151635635e+02
2.830222648982775979e+00 5.675174536804902345e+02
2.830322670987617251e+00 5.674937117851875428e+02
2.830422692992458078e+00 5.674700103630124204e+02
2.830522714997299349e+00 5.674463487475724150e+02
2.830622737002140177e+00 5.674227262723552485e+02
2.830722759006981004e+00 5.673991422707598531e+02
2.830822781011822720e+00 5.673755960761232018e+02
2.830922803016663103e+00 5.673520870217490710e+02
2.831022825021504818e+00 5.673286144409387362e+02
2.831122847026345646e+00 5.673051776670173467e+02
2.831222869031186917e+00 5.672817760333650767e+02
2.831322891036027745e+00 5.672584088734433863e+02
2.831422913040868572e+00 5.672350755208259443e+02
2.831522935045709843e+00 5.672117753092267094e+02
2.831622957050550671e+00 5.671885075725268734e+02
2.831722979055392386e+00 5.671652716448073761e+02
2.831823001060232770e+00 5.671420668603731201e+02
2.831923023065074485e+00 5.671188925537842351e+02
2.832023045069915312e+00 5.670957480598854090e+02
2.832123067074756140e+00 5.670726327138310126e+02
2.832223089079597411e+00 5.670495458511169318e+02
2.832323111084438239e+00 5.670264868076080802e+02
2.832423133089279510e+00 5.670034549195650015e+02
2.832523155094120337e+00 5.669804495236758157e+02
2.832623177098962053e+00 5.669574699570816847e+02
2.832723199103802436e+00 5.669345155574065984e+02
2.832823221108643708e+00 5.669115856627848871e+02
2.832923243113484979e+00 5.668886796118900975e+02
2.833023265118325806e+00 5.668657967439629601e+02
2.833123287123167078e+00 5.668429363988395835e+02
2.833223309128007905e+00 5.668200979169796483e+02
2.833323331132849177e+00 5.667972806394952840e+02
2.833423353137690004e+00 5.667744839081766486e+02
2.833523375142530831e+00 5.667517070655238740e+02
2.833623397147372103e+00 5.667289494547715094e+02
2.833723419152213374e+00 5.667062104199181931e+02
2.833823441157054646e+00 5.666834893057540512e+02
2.833923463161895473e+00 5.666607854578892329e+02
2.834023485166736744e+00 5.666380982227811955e+02
2.834123507171577572e+00 5.666154269477615344e+02
2.834223529176418399e+00 5.665927709810653141e+02
2.834323551181259671e+00 5.665701296718584672e+02
2.834423573186100498e+00 5.665475023702632598e+02
2.834523595190941769e+00 5.665248884273895555e+02
2.834623617195783041e+00 5.665022871953592585e+02
2.834723639200624312e+00 5.664796980273345071e+02
2.834823661205465140e+00 5.664571202775449592e+02
2.834923683210305967e+00 5.664345533013168961e+02
2.835023705215147238e+00 5.664119964550982331e+02
2.835123727219988066e+00 5.663894490964854640e+02
2.835223749224829337e+00 5.663669105842534464e+02
2.835323771229670164e+00 5.663443802783805268e+02
2.835423793234511436e+00 5.663218575400750296e+02
2.835523815239352707e+00 5.662993417318043612e+02
2.835623837244193091e+00 5.662768322173196793e+02
2.835723859249034806e+00 5.662543283616845429e+02
2.835823881253875633e+00 5.662318295313001499e+02
2.835923903258716905e+00 5.662093350939326228e+02
2.836023925263557732e+00 5.661868444187399518e+02
2.836123947268399004e+00 5.661643568762990526e+02
2.836223969273239831e+00 5.661418718386304363e+02
2.836323991278080658e+00 5.661193886792262902e+02
2.836424013282922374e+00 5.660969067730762845e+02
2.836524035287762757e+00 5.660744254966934932e+02
2.836624057292604473e+00 5.660519442281409965e+02
2.836724079297445300e+00 5.660294623470588249e+02
2.836824101302286572e+00 5.660069792346872646e+02
2.836924123307127399e+00 5.659844942738965301e+02
2.837024145311968226e+00 5.659620068492096152e+02
2.837124167316809498e+00 5.659395163468303735e+02
2.837224189321650325e+00 5.659170221546676203e+02
2.837324211326492041e+00 5.658945236623604842e+02
2.837424233331332424e+00 5.658720202613070569e+02
2.837524255336174139e+00 5.658495113446857658e+02
2.837624277341014967e+00 5.658269963074845919e+02
2.837724299345855794e+00 5.658044745465217602e+02
2.837824321350697065e+00 5.657819454604772318e+02
2.837924343355537893e+00 5.657594084499113478e+02
2.838024365360379164e+00 5.657368629172956389e+02
2.838124387365219992e+00 5.657143082670330614e+02
2.838224409370061707e+00 5.656917439054867600e+02
2.838324431374902090e+00 5.656691692410017822e+02
2.838424453379743362e+00 5.656465836839316808e+02
2.838524475384584633e+00 5.656239866466630701e+02
2.838624497389425461e+00 5.656013775436385913e+02
2.838724519394266732e+00 5.655787557913843102e+02
2.838824541399107559e+00 5.655561208085304088e+02
2.838924563403948831e+00 5.655334720158382424e+02
2.839024585408789658e+00 5.655108088362242142e+02
2.839124607413630486e+00 5.654881306947812618e+02
2.839224629418471757e+00 5.654654370188073926e+02
2.839324651423313028e+00 5.654427272378241014e+02
2.839424673428154300e+00 5.654200007836060422e+02
2.839524695432995127e+00 5.653972570901996733e+02
2.839624717437836399e+00 5.653744955939489500e+02
2.839724739442677226e+00 5.653517157335196543e+02
2.839824761447518053e+00 5.653289169499207674e+02
2.839924783452359325e+00 5.653060986865305040e+02
2.840024805457200152e+00 5.652832603891158669e+02
