1.900018003960871393e+00 5.137829012206096877e+02
1.900118025965712443e+00 5.137902277696638293e+02
1.900218047970553270e+00 5.137975693697001134e+02
1.900318069975394319e+00 5.138049257006964581e+02
1.900418091980235591e+00 5.138122964420451808e+02
1.900518113985076640e+00 5.138196812725670952e+02
1.900618135989917690e+00 5.138270798705234483e+02
1.900718157994758739e+00 5.138344919136286535e+02
1.900818179999599788e+00 5.138419170790650696e+02
1.900918202004440616e+00 5.138493550434927783e+02
1.901018224009281887e+00 5.138568054830653864e+02
1.901118246014122937e+00 5.138642680734415080e+02
1.901218268018963986e+00 5.138717424897985211e+02
1.901318290023805258e+00 5.138792284068448453e+02
1.901418312028646307e+00 5.138867254988326749e+02
1.901518334033487356e+00 5.138942334395730995e+02
1.901618356038328184e+00 5.139017519024465628e+02
1.901718378043169233e+00 5.139092805604174146e+02
1.901818400048010282e+00 5.139168190860466439e+02
1.901918422052851554e+00 5.139243671515055212e+02
1.902018444057692603e+00 5.139319244285870809e+02
1.902118466062533653e+00 5.139394905887222649e+02
1.902218488067374924e+00 5.139470653029896994e+02
1.902318510072215751e+00 5.139546482421311566e+02
1.902418532077056801e+00 5.139622390765633781e+02
1.902518554081897850e+00 5.139698374763934225e+02
1.902618576086738900e+00 5.139774431114287836e+02
1.902718598091579949e+00 5.139850556511938748e+02
1.902818620096421220e+00 5.139926747649396930e+02
1.902918642101262270e+00 5.140003001216612120e+02
1.903018664106103097e+00 5.140079313901067053e+02
1.903118686110944147e+00 5.140155682387942306e+02
1.903218708115785418e+00 5.140232103360227711e+02
1.903318730120626467e+00 5.140308573498861051e+02
1.903418752125467517e+00 5.140385089482874719e+02
1.903518774130308566e+00 5.140461647989502580e+02
1.903618796135149616e+00 5.140538245694342550e+02
1.903718818139990443e+00 5.140614879271467998e+02
1.903818840144831714e+00 5.140691545393569868e+02
1.903918862149672764e+00 5.140768240732089680e+02
1.904018884154513813e+00 5.140844961957352552e+02
1.904118906159355085e+00 5.140921705738707033e+02
1.904218928164196134e+00 5.140998468744646743e+02
1.904318950169037183e+00 5.141075247642952490e+02
1.904418972173878011e+00 5.141152039100818456e+02
1.904518994178719060e+00 5.141228839785010223e+02
1.904619016183560110e+00 5.141305646361961408e+02
1.904719038188401381e+00 5.141382455497937372e+02
1.904819060193242430e+00 5.141459263859155726e+02
1.904919082198083480e+00 5.141536068111921622e+02
1.905019104202924751e+00 5.141612864922761901e+02
1.905119126207765579e+00 5.141689650958572884e+02
1.905219148212606628e+00 5.141766422886727241e+02
1.905319170217447677e+00 5.141843177375229743e+02
1.905419192222288727e+00 5.141919911092849134e+02
1.905519214227129776e+00 5.141996620709238641e+02
1.905619236231971048e+00 5.142073302895086044e+02
1.905719258236812097e+00 5.142149954322239864e+02
1.905819280241652924e+00 5.142226571663841241e+02
1.905919302246493974e+00 5.142303151594462634e+02
1.906019324251335245e+00 5.142379690790246514e+02
1.906119346256176295e+00 5.142456185929021331e+02
1.906219368261017344e+00 5.142532633690457260e+02
1.906319390265858393e+00 5.142609030756183301e+02
1.906419412270699443e+00 5.142685373809928251e+02
1.906519434275540270e+00 5.142761659537653713e+02
1.906619456280381542e+00 5.142837884627698486e+02
1.906719478285222591e+00 5.142914045770883149e+02
1.906819500290063640e+00 5.142990139660678324e+02
1.906919522294904912e+00 5.143066162993304715e+02
1.907019544299745961e+00 5.143142112467895686e+02
1.907119566304587011e+00 5.143217984786618899e+02
1.907219588309427838e+00 5.143293776654797966e+02
1.907319610314268887e+00 5.143369484781063647e+02
1.907419632319109937e+00 5.143445105877475498e+02
1.907519654323951208e+00 5.143520636659670799e+02
1.907619676328792258e+00 5.143596073846960053e+02
1.907719698333633307e+00 5.143671414162512292e+02
1.907819720338474578e+00 5.143746654333436936e+02
1.907919742343315406e+00 5.143821791090949773e+02
1.908019764348156455e+00 5.143896821170494604e+02
1.908119786352997505e+00 5.143971741311875121e+02
1.908219808357838554e+00 5.144046548259378824e+02
1.908319830362679603e+00 5.144121238761920267e+02
1.908419852367520875e+00 5.144195809573175211e+02
1.908519874372361924e+00 5.144270257451697717e+02
1.908619896377202751e+00 5.144344579161065667e+02
1.908719918382043801e+00 5.144418771470001275e+02
1.908819940386885072e+00 5.144492831152501822e+02
1.908919962391726122e+00 5.144566754987987451e+02
1.909019984396567171e+00 5.144640539761408036e+02
1.909120006401408220e+00 5.144714182263386419e+02
1.909220028406249048e+00 5.144787679290358255e+02
1.909320050411090097e+00 5.144861027644669775e+02
1.909420072415931369e+00 5.144934224134749456e+02
1.909520094420772418e+00 5.145007265575201245e+02
1.909620116425613467e+00 5.145080148786955760e+02
1.909720138430454739e+00 5.145152870597394212e+02
1.909820160435295788e+00 5.145225427840466637e+02
1.909920182440136616e+00 5.145297817356843098e+02
1.910020204444977665e+00 5.145370035994021691e+02
1.910120226449818714e+00 5.145442080606459285e+02
1.910220248454659764e+00 5.145513948055706805e+02
1.910320270459501035e+00 5.145585635210543387e+02
1.910420292464342085e+00 5.145657138947082103e+02
1.910520314469183134e+00 5.145728456148913210e+02
1.910620336474023961e+00 5.145799583707230340e+02
1.910720358478865233e+00 5.145870518520952146e+02
1.910820380483706282e+00 5.145941257496846220e+02
1.910920402488547332e+00 5.146011797549670064e+02
1.911020424493388381e+00 5.146082135602274548e+02
1.911120446498229430e+00 5.146152268585748288e+02
1.911220468503070702e+00 5.146222193439534749e+02
1.911320490507911529e+00 5.146291907111556156e+02
1.911420512512752579e+00 5.146361406558347653e+02
1.911520534517593628e+00 5.146430688745157340e+02
1.911620556522434899e+00 5.146499750646108851e+02
1.911720578527275949e+00 5.146568589244282066e+02
1.911820600532116998e+00 5.146637201531876826e+02
1.911920622536958048e+00 5.146705584510298195e+02
1.912020644541798875e+00 5.146773735190317893e+02
1.912120666546639924e+00 5.146841650592157293e+02
1.912220688551481196e+00 5.146909327745643168e+02
1.912320710556322245e+00 5.146976763690302050e+02
1.912420732561163295e+00 5.147043955475502344e+02
1.912520754566004566e+00 5.147110900160566871e+02
1.912620776570845615e+00 5.147177594814895656e+02
1.912720798575686443e+00 5.147244036518076200e+02
1.912820820580527492e+00 5.147310222360015359e+02
1.912920842585368542e+00 5.147376149441060988e+02
1.913020864590209591e+00 5.147441814872107670e+02
1.913120886595050862e+00 5.147507215774726319e+02
1.913220908599891912e+00 5.147572349281275592e+02
1.913320930604732961e+00 5.147637212535021263e+02
1.913420952609573789e+00 5.147701802690271506e+02
1.913520974614415060e+00 5.147766116912451935e+02
1.913620996619256109e+00 5.147830152378279536e+02
1.913721018624097159e+00 5.147893906275819518e+02
1.913821040628938208e+00 5.147957375804643334e+02
1.913921062633779258e+00 5.148020558175940096e+02
1.914021084638620529e+00 5.148083450612598426e+02
1.914121106643461356e+00 5.148146050349373581e+02
1.914221128648302406e+00 5.148208354632942019e+02
1.914321150653143455e+00 5.148270360722071928e+02
1.914421172657984727e+00 5.148332065887694853e+02
1.914521194662825776e+00 5.148393467413050075e+02
1.914621216667666825e+00 5.148454562593765331e+02
1.914721238672507875e+00 5.148515348737995510e+02
1.914821260677348702e+00 5.148575823166524970e+02
1.914921282682189752e+00 5.148635983212863039e+02
1.915021304687031023e+00 5.148695826223380436e+02
1.915121326691872072e+00 5.148755349557416139e+02
1.915221348696713122e+00 5.148814550587360372e+02
1.915321370701554393e+00 5.148873426698798994e+02
1.915421392706395443e+00 5.148931975290590799e+02
1.915521414711236270e+00 5.148990193775000535e+02
1.915621436716077319e+00 5.149048079577793260e+02
1.915721458720918369e+00 5.149105630138345759e+02
1.915821480725759418e+00 5.149162842909748861e+02
1.915921502730600690e+00 5.149219715358930216e+02
1.916021524735441739e+00 5.149276244966723652e+02
1.916121546740282788e+00 5.149332429228018100e+02
1.916221568745123616e+00 5.149388265651834899e+02
1.916321590749964887e+00 5.149443751761435806e+02
1.916421612754805937e+00 5.149498885094429852e+02
1.916521634759646986e+00 5.149553663202888174e+02
1.916621656764488035e+00 5.149608083653420181e+02
1.916721678769329085e+00 5.149662144027295199e+02
1.916821700774170356e+00 5.149715841920542516e+02
1.916921722779011183e+00 5.149769174944038923e+02
1.917021744783852233e+00 5.149822140723636039e+02
1.917121766788693282e+00 5.149874736900225116e+02
1.917221788793534554e+00 5.149926961129863230e+02
1.917321810798375603e+00 5.149978811083865367e+02
1.917421832803216653e+00 5.150030284448891962e+02
1.917521854808057702e+00 5.150081378927067135e+02
1.917621876812898529e+00 5.150132092236050312e+02
1.917721898817739579e+00 5.150182422109151048e+02
1.917821920822580850e+00 5.150232366295426800e+02
1.917921942827421899e+00 5.150281922559761369e+02
1.918021964832262949e+00 5.150331088682970631e+02
1.918121986837104220e+00 5.150379862461900302e+02
1.918222008841945270e+00 5.150428241709513486e+02
1.918322030846786097e+00 5.150476224254983890e+02
1.918422052851627146e+00 5.150523807943781094e+02
1.918522074856468196e+00 5.150570990637786508e+02
1.918622096861309245e+00 5.150617770215359315e+02
1.918722118866150517e+00 5.150664144571431962e+02
1.918822140870991566e+00 5.150710111617609073e+02
1.918922162875832615e+00 5.150755669282245890e+02
1.919022184880673443e+00 5.150800815510551729e+02
1.919122206885514714e+00 5.150845548264671834e+02
1.919222228890355764e+00 5.150889865523755589e+02
1.919322250895196813e+00 5.150933765284064521e+02
1.919422272900037862e+00 5.150977245559066660e+02
1.919522294904878912e+00 5.151020304379503614e+02
1.919622316909720183e+00 5.151062939793464466e+02
1.919722338914561011e+00 5.151105149866515376e+02
1.919822360919402060e+00 5.151146932681714361e+02
1.919922382924243109e+00 5.151188286339777278e+02
1.920022404929084381e+00 5.151229208959090329e+02
1.920122426933925430e+00 5.151269698675824884e+02
1.920222448938766480e+00 5.151309753644009106e+02
1.920322470943607529e+00 5.151349372035613214e+02
1.920422492948448356e+00 5.151388552040629065e+02
1.920522514953289406e+00 5.151427291867137228e+02
1.920622536958130677e+00 5.151465589741407030e+02
1.920722558962971727e+00 5.151503443907952260e+02
1.920822580967812776e+00 5.151540852629623259e+02
1.920922602972654047e+00 5.151577814187675131e+02
1.921022624977495097e+00 5.151614326881840498e+02
1.921122646982335924e+00 5.151650389030421593e+02
1.921222668987176974e+00 5.151685998970340279e+02
1.921322690992018023e+00 5.151721155057232409e+02
1.921422712996859072e+00 5.151755855665505806e+02
1.921522735001700344e+00 5.151790099188420982e+02
1.921622757006541393e+00 5.151823884038157075e+02
1.921722779011382443e+00 5.151857208645892570e+02
1.921822801016223270e+00 5.151890071461857588e+02
1.921922823021064541e+00 5.151922470955424842e+02
1.922022845025905591e+00 5.151954405615147152e+02
1.922122867030746640e+00 5.151985873948872268e+02
1.922222889035587690e+00 5.152016874483762194e+02
1.922322911040428739e+00 5.152047405766387556e+02
1.922422933045270010e+00 5.152077466362787845e+02
1.922522955050110838e+00 5.152107054858520314e+02
1.922622977054951887e+00 5.152136169858760013e+02
1.922722999059792937e+00 5.152164809988322531e+02
1.922823021064634208e+00 5.152192973891752672e+02
1.922923043069475257e+00 5.152220660233383569e+02
1.923023065074316307e+00 5.152247867697382162e+02
1.923123087079157356e+00 5.152274594987832188e+02
1.923223109083998184e+00 5.152300840828777382e+02
1.923323131088839233e+00 5.152326603964289689e+02
1.923423153093680504e+00 5.152351883158521559e+02
1.923523175098521554e+00 5.152376677195758248e+02
1.923623197103362603e+00 5.152400984880496253e+02
1.923723219108203875e+00 5.152424805037474016e+02
1.923823241113044924e+00 5.152448136511743542e+02
1.923923263117885751e+00 5.152470978168717011e+02
1.924023285122726801e+00 5.152493328894228171e+02
1.924123307127567850e+00 5.152515187594573263e+02
1.924223329132408900e+00 5.152536553196575824e+02
1.924323351137250171e+00 5.152557424647631024e+02
1.924423373142091220e+00 5.152577800915753414e+02
1.924523395146932270e+00 5.152597680989636046e+02
1.924623417151773097e+00 5.152617063878694807e+02
1.924723439156614369e+00 5.152635948613111623e+02
1.924823461161455418e+00 5.152654334243893572e+02
1.924923483166296467e+00 5.152672219842911545e+02
1.925023505171137517e+00 5.152689604502944576e+02
1.925123527175978566e+00 5.152706487337731005e+02
1.925223549180819838e+00 5.152722867482012816e+02
1.925323571185660665e+00 5.152738744091569743e+02
1.925423593190501714e+00 5.152754116343269288e+02
1.925523615195342764e+00 5.152768983435115615e+02
1.925623637200184035e+00 5.152783344586291605e+02
1.925723659205025085e+00 5.152797199037166820e+02
1.925823681209866134e+00 5.152810546049374807e+02
1.925923703214707183e+00 5.152823384905844932e+02
1.926023725219548011e+00 5.152835714910829665e+02
1.926123747224389060e+00 5.152847535389946643e+02
1.926223769229230331e+00 5.152858845690207090e+02
1.926323791234071381e+00 5.152869645180079488e+02
1.926423813238912430e+00 5.152879933249479336e+02
1.926523835243753702e+00 5.152889709309851014e+02
1.926623857248594529e+00 5.152898972794164365e+02
1.926723879253435578e+00 5.152907723156970405e+02
1.926823901258276628e+00 5.152915959874421787e+02
1.926923923263117677e+00 5.152923682444293263e+02
1.927023945267958727e+00 5.152930890386040801e+02
1.927123967272799998e+00 5.152937583240802724e+02
1.927223989277641047e+00 5.152943760571452003e+02
1.927324011282481875e+00 5.152949421962598535e+02
1.927424033287322924e+00 5.152954567020631202e+02
1.927524055292164196e+00 5.152959195373748571e+02
1.927624077297005245e+00 5.152963306671970258e+02
1.927724099301846294e+00 5.152966900587172177e+02
1.927824121306687344e+00 5.152969976813092217e+02
1.927924143311528393e+00 5.152972535065382544e+02
1.928024165316369221e+00 5.152974575081605053e+02
1.928124187321210492e+00 5.152976096621276838e+02
1.928224209326051541e+00 5.152977099465852007e+02
1.928324231330892591e+00 5.152977583418780796e+02
1.928424253335733862e+00 5.152977548305506161e+02
1.928524275340574912e+00 5.152976993973497883e+02
1.928624297345415961e+00 5.152975920292245746e+02
1.928724319350256788e+00 5.152974327153290233e+02
1.928824341355097838e+00 5.152972214470245262e+02
1.928924363359938887e+00 5.152969582178800465e+02
1.929024385364780159e+00 5.152966430236729138e+02
1.929124407369621208e+00 5.152962758623910986e+02
1.929224429374462257e+00 5.152958567342359402e+02
1.929324451379303529e+00 5.152953856416197596e+02
1.929424473384144356e+00 5.152948625891694974e+02
1.929524495388985406e+00 5.152942875837264864e+02
1.929624517393826455e+00 5.152936606343472477e+02
1.929724539398667504e+00 5.152929817523065594e+02
1.929824561403508554e+00 5.152922509510930240e+02
1.929924583408349825e+00 5.152914682464165708e+02
1.930024605413190875e+00 5.152906336562026581e+02
1.930124627418031702e+00 5.152897472005959116e+02
1.930224649422872751e+00 5.152888089019610334e+02
1.930324671427714023e+00 5.152878187848800735e+02
1.930424693432555072e+00 5.152867768761564093e+02
1.930524715437396122e+00 5.152856832048112210e+02
1.930624737442237171e+00 5.152845378020870157e+02
1.930724759447078220e+00 5.152833407014441036e+02
1.930824781451919048e+00 5.152820919385625302e+02
1.930924803456760319e+00 5.152807915513418493e+02
1.931024825461601369e+00 5.152794395799010090e+02
1.931124847466442418e+00 5.152780360665751687e+02
1.931224869471283689e+00 5.152765810559189958e+02
1.931324891476124739e+00 5.152750745947041651e+02
1.931424913480965788e+00 5.152735167319193579e+02
1.931524935485806616e+00 5.152719075187676481e+02
1.931624957490647665e+00 5.152702470086687754e+02
1.931724979495488714e+00 5.152685352572561897e+02
1.931825001500329986e+00 5.152667723223759140e+02
1.931925023505171035e+00 5.152649582640869994e+02
1.932025045510012085e+00 5.152630931446587965e+02
1.932125067514853356e+00 5.152611770285702733e+02
1.932225089519694183e+00 5.152592099825096739e+02
1.932325111524535233e+00 5.152571920753709946e+02
1.932425133529376282e+00 5.152551233782544386e+02
1.932525155534217332e+00 5.152530039644640283e+02
1.932625177539058381e+00 5.152508339095061274e+02
1.932725199543899652e+00 5.152486132910873948e+02
1.932825221548740702e+00 5.152463421891128519e+02
1.932925243553581529e+00 5.152440206856854275e+02
1.933025265558422578e+00 5.152416488651014106e+02
1.933125287563263850e+00 5.152392268138504505e+02
1.933225309568104899e+00 5.152367546206132829e+02
1.933325331572945949e+00 5.152342323762577507e+02
1.933425353577786998e+00 5.152316601738388044e+02
1.933525375582628048e+00 5.152290381085945228e+02
1.933625397587468875e+00 5.152263662779436117e+02
1.933725419592310146e+00 5.152236447814839266e+02
1.933825441597151196e+00 5.152208737209895162e+02
1.933925463601992245e+00 5.152180532004066436e+02
1.934025485606833517e+00 5.152151833258520810e+02
1.934125507611674566e+00 5.152122642056103814e+02
1.934225529616515615e+00 5.152092959501308087e+02
1.934325551621356443e+00 5.152062786720225631e+02
1.934425573626197492e+00 5.152032124860543263e+02
1.934525595631038541e+00 5.152000975091494865e+02
1.934625617635879813e+00 5.151969338603835240e+02
1.934725639640720862e+00 5.151937216609786674e+02
1.934825661645561912e+00 5.151904610343042350e+02
1.934925683650403183e+00 5.151871521058682220e+02
1.935025705655244010e+00 5.151837950033185507e+02
1.935125727660085060e+00 5.151803898564359088e+02
1.935225749664926109e+00 5.151769367971304519e+02
1.935325771669767159e+00 5.151734359594395301e+02
1.935425793674608208e+00 5.151698874795224583e+02
1.935525815679449479e+00 5.151662914956573331e+02
1.935625837684290529e+00 5.151626481482347799e+02
1.935725859689131356e+00 5.151589575797565885e+02
1.935825881693972406e+00 5.151552199348302565e+02
1.935925903698813677e+00 5.151514353601639868e+02
1.936025925703654726e+00 5.151476040045622540e+02
1.936125947708495776e+00 5.151437260189227345e+02
1.936225969713336825e+00 5.151398015562302817e+02
1.936325991718177875e+00 5.151358307715528326e+02
1.936426013723018702e+00 5.151318138220367473e+02
1.936526035727859973e+00 5.151277508669015788e+02
1.936626057732701023e+00 5.151236420674347301e+02
1.936726079737542072e+00 5.151194875869881571e+02
1.936826101742383344e+00 5.151152875909713202e+02
1.936926123747224393e+00 5.151110422468475463e+02
1.937026145752065442e+00 5.151067517241278892e+02
1.937126167756906270e+00 5.151024161943654462e+02
1.937226189761747319e+00 5.150980358311521741e+02
1.937326211766588369e+00 5.150936108101100217e+02
1.937426233771429640e+00 5.150891413088883155e+02
1.937526255776270689e+00 5.150846275071567106e+02
1.937626277781111739e+00 5.150800695866001888e+02
1.937726299785953010e+00 5.150754677309118961e+02
1.937826321790793838e+00 5.150708221257900732e+02
1.937926343795634887e+00 5.150661329589288471e+02
1.938026365800475936e+00 5.150614004200133422e+02
1.938126387805316986e+00 5.150566247007157017e+02
1.938226409810158035e+00 5.150518059946864469e+02
1.938326431814999307e+00 5.150469444975486795e+02
1.938426453819840356e+00 5.150420404068921698e+02
1.938526475824681183e+00 5.150370939222667630e+02
1.938626497829522233e+00 5.150321052451779451e+02
1.938726519834363504e+00 5.150270745790753608e+02
1.938826541839204554e+00 5.150220021293513355e+02
1.938926563844045603e+00 5.150168881033317803e+02
1.939026585848886652e+00 5.150117327102694844e+02
1.939126607853727702e+00 5.150065361613378627e+02
1.939226629858568529e+00 5.150012986696236794e+02
1.939326651863409801e+00 5.149960204501202270e+02
1.939426673868250850e+00 5.149907017197205050e+02
1.939526695873091899e+00 5.149853426972090347e+02
1.939626717877933171e+00 5.149799436032567428e+02
1.939726739882774220e+00 5.149745046604109575e+02
1.939826761887615270e+00 5.149690260930902923e+02
1.939926783892456097e+00 5.149635081275771427e+02
1.940026805897297146e+00 5.149579509920081364e+02
1.940126827902138196e+00 5.149523549163684493e+02
1.940226849906979467e+00 5.149467201324845291e+02
1.940326871911820517e+00 5.149410468740144324e+02
1.940426893916661566e+00 5.149353353764421399e+02
1.940526915921502837e+00 5.149295858770681207e+02
1.940626937926343665e+00 5.149237986150027382e+02
1.940726959931184714e+00 5.149179738311570418e+02
1.940826981936025764e+00 5.149121117682350359e+02
1.940927003940866813e+00 5.149062126707275411e+02
1.941027025945707862e+00 5.149002767849002566e+02
1.941127047950549134e+00 5.148943043587890998e+02
1.941227069955390183e+00 5.148882956421889503e+02
1.941327091960231011e+00 5.148822508866486487e+02
1.941427113965072060e+00 5.148761703454583767e+02
1.941527135969913331e+00 5.148700542736455645e+02
1.941627157974754381e+00 5.148639029279621582e+02
1.941727179979595430e+00 5.148577165668788211e+02
1.941827201984436480e+00 5.148514954505756123e+02
1.941927223989277529e+00 5.148452398409316402e+02
1.942027245994118356e+00 5.148389500015192652e+02
1.942127267998959628e+00 5.148326261975917078e+02
1.942227290003800677e+00 5.148262686960772498e+02
1.942327312008641726e+00 5.148198777655668437e+02
1.942427334013482998e+00 5.148134536763084270e+02
1.942527356018324047e+00 5.148069967001957821e+02
1.942627378023165097e+00 5.148005071107592130e+02
1.942727400028005924e+00 5.147939851831573606e+02
1.942827422032846973e+00 5.147874311941667429e+02
1.942927444037688023e+00 5.147808454221731154e+02
1.943027466042529294e+00 5.147742281471611250e+02
1.943127488047370344e+00 5.147675796507058976e+02
1.943227510052211393e+00 5.147609002159626925e+02
1.943327532057052665e+00 5.147541901276572389e+02
1.943427554061893492e+00 5.147474496720761863e+02
1.943527576066734541e+00 5.147406791370569863e+02
1.943627598071575591e+00 5.147338788119793662e+02
1.943727620076416640e+00 5.147270489877528235e+02
1.943827642081257689e+00 5.147201899568090084e+02
1.943927664086098961e+00 5.147133020130913792e+02
1.944027686090939788e+00 5.147063854520438326e+02
1.944127708095780838e+00 5.146994405706014959e+02
1.944227730100621887e+00 5.146924676671807219e+02
1.944327752105463158e+00 5.146854670416681756e+02
1.944427774110304208e+00 5.146784389954107155e+02
1.944527796115145257e+00 5.146713838312055032e+02
1.944627818119986307e+00 5.146643018532889755e+02
1.944727840124827134e+00 5.146571933673269541e+02
1.944827862129668183e+00 5.146500586804023669e+02
1.944927884134509455e+00 5.146428981010077450e+02
1.945027906139350504e+00 5.146357119390323760e+02
1.945127928144191554e+00 5.146285005057505941e+02
1.945227950149032825e+00 5.146212641138149593e+02
1.945327972153873874e+00 5.146140030772405680e+02
1.945427994158714702e+00 5.146067177113980051e+02
1.945528016163555751e+00 5.145994083330003832e+02
1.945628038168396801e+00 5.145920752600929973e+02
1.945728060173237850e+00 5.145847188120429792e+02
1.945828082178079121e+00 5.145773393095266783e+02
1.945928104182920171e+00 5.145699370745196575e+02
1.946028126187761220e+00 5.145625124302848690e+02
1.946128148192602048e+00 5.145550657013625369e+02
1.946228170197443319e+00 5.145475972135569691e+02
1.946328192202284368e+00 5.145401072939280311e+02
1.946428214207125418e+00 5.145325962707764802e+02
1.946528236211966467e+00 5.145250644736349841e+02
1.946628258216807517e+00 5.145175122332552746e+02
1.946728280221648788e+00 5.145099398815983704e+02
1.946828302226489615e+00 5.145023477518199115e+02
1.946928324231330665e+00 5.144947361782623148e+02
1.947028346236171714e+00 5.144871054964398809e+02
1.947128368241012986e+00 5.144794560430291313e+02
1.947228390245854035e+00 5.144717881558559611e+02
1.947328412250695084e+00 5.144641021738842710e+02
1.947428434255536134e+00 5.144563984372045979e+02
1.947528456260376961e+00 5.144486772870208142e+02
1.947628478265218011e+00 5.144409390656394407e+02
1.947728500270059282e+00 5.144331841164582784e+02
1.947828522274900331e+00 5.144254127839515149e+02
1.947928544279741381e+00 5.144176254136605166e+02
1.948028566284582652e+00 5.144098223521808677e+02
1.948128588289423702e+00 5.144020039471495238e+02
1.948228610294264529e+00 5.143941705472343529e+02
1.948328632299105578e+00 5.143863225021195831e+02
1.948428654303946628e+00 5.143784601624945481e+02
1.948528676308787677e+00 5.143705838800427728e+02
1.948628698313628949e+00 5.143626940074269669e+02
1.948728720318469998e+00 5.143547908982789068e+02
1.948828742323311047e+00 5.143468749071852244e+02
1.948928764328151875e+00 5.143389463896771758e+02
1.949028786332993146e+00 5.143310057022152932e+02
1.949128808337834196e+00 5.143230532021796080e+02
1.949228830342675245e+00 5.143150892478549849e+02
1.949328852347516294e+00 5.143071141984196402e+02
1.949428874352357344e+00 5.142991284139313848e+02
1.949528896357198615e+00 5.142911322553169384e+02
1.949628918362039443e+00 5.142831260843572636e+02
1.949728940366880492e+00 5.142751102636752876e+02
1.949828962371721541e+00 5.142670851567239652e+02
1.949928984376562813e+00 5.142590511277721816e+02
1.950029006381403862e+00 5.142510085418928156e+02
1.950129028386244912e+00 5.142429577649493240e+02
1.950229050391085961e+00 5.142348991635836910e+02
1.950329072395926788e+00 5.142268331052026724e+02
1.950429094400767838e+00 5.142187599579638118e+02
1.950529116405609109e+00 5.142106800907645265e+02
1.950629138410450159e+00 5.142025938732277837e+02
1.950729160415291208e+00 5.141945016756903897e+02
1.950829182420132479e+00 5.141864038691873020e+02
1.950929204424973529e+00 5.141783008254400329e+02
1.951029226429814356e+00 5.141701929168455081e+02
1.951129248434655405e+00 5.141620805164579906e+02
1.951229270439496455e+00 5.141539639979807816e+02
1.951329292444337504e+00 5.141458437357496223e+02
1.951429314449178776e+00 5.141377201047221206e+02
1.951529336454019825e+00 5.141295934804610397e+02
1.951629358458860874e+00 5.141214642391240659e+02
1.951729380463701702e+00 5.141133327574498253e+02
1.951829402468542973e+00 5.141051994127426497e+02
1.951929424473384023e+00 5.140970645828618899e+02
1.952029446478225072e+00 5.140889286462058863e+02
1.952129468483066121e+00 5.140807919817013953e+02
1.952229490487907171e+00 5.140726549687864235e+02
1.952329512492748442e+00 5.140645179874001087e+02
1.952429534497589270e+00 5.140563814179678275e+02
1.952529556502430319e+00 5.140482456413874388e+02
1.952629578507271368e+00 5.140401110390156418e+02
1.952729600512112640e+00 5.140319779926556976e+02
1.952829622516953689e+00 5.140238468845427633e+02
1.952929644521794739e+00 5.140157180973293407e+02
1.953029666526635788e+00 5.140075920140745893e+02
1.953129688531476615e+00 5.139994690182262502e+02
1.953229710536317665e+00 5.139913494936117786e+02
1.953329732541158936e+00 5.139832338244218590e+02
1.953429754545999986e+00 5.139751223951967631e+02
1.953529776550841035e+00 5.139670155908135030e+02
1.953629798555682306e+00 5.139589137964717338e+02
1.953729820560523356e+00 5.139508173976793159e+02
1.953829842565364183e+00 5.139427267802407187e+02
1.953929864570205233e+00 5.139346423302403082e+02
1.954029886575046282e+00 5.139265644340307517e+02
1.954129908579887331e+00 5.139184934782181244e+02
1.954229930584728603e+00 5.139104298496487218e+02
1.954329952589569652e+00 5.139023739353949622e+02
1.954429974594410702e+00 5.138943261227399262e+02
1.954529996599251529e+00 5.138862867991688290e+02
1.954630018604092800e+00 5.138782563523481031e+02
1.954730040608933850e+00 5.138702351701148245e+02
1.954830062613774899e+00 5.138622236404662544e+02
1.954930084618615949e+00 5.138542221515380106e+02
1.955030106623456998e+00 5.138462310915981561e+02
1.955130128628298269e+00 5.138382508490283271e+02
1.955230150633139097e+00 5.138302818123116822e+02
1.955330172637980146e+00 5.138223243700182366e+02
1.955430194642821196e+00 5.138143789107925841e+02
1.955530216647662467e+00 5.138064458233370715e+02
1.955630238652503516e+00 5.137985254964008845e+02
1.955730260657344566e+00 5.137906183187634497e+02
1.955830282662185615e+00 5.137827246792227243e+02
1.955930304667026443e+00 5.137748449665797352e+02
1.956030326671867492e+00 5.137669795696261872e+02
1.956130348676708763e+00 5.137591288771282052e+02
1.956230370681549813e+00 5.137512932778138293e+02
1.956330392686390862e+00 5.137434731603597129e+02
1.956430414691232134e+00 5.137356689133754344e+02
1.956530436696073183e+00 5.137278809253913323e+02
1.956630458700914010e+00 5.137201095848424757e+02
1.956730480705755060e+00 5.137123552800564994e+02
1.956830502710596109e+00 5.137046183992393935e+02
1.956930524715437159e+00 5.136968993304606101e+02
1.957030546720278430e+00 5.136891984616390801e+02
1.957130568725119479e+00 5.136815161805313892e+02
1.957230590729960529e+00 5.136738528747143846e+02
1.957330612734801356e+00 5.136662089315744879e+02
1.957430634739642628e+00 5.136585847382917791e+02
1.957530656744483677e+00 5.136509806818263542e+02
1.957630678749324726e+00 5.136433971489047963e+02
1.957730700754165776e+00 5.136358345260066471e+02
1.957830722759006825e+00 5.136282931993484908e+02
1.957930744763848097e+00 5.136207735548736082e+02
1.958030766768688924e+00 5.136132759782337871e+02
1.958130788773529973e+00 5.136058008547789768e+02
1.958230810778371023e+00 5.135983485695401214e+02
1.958330832783212294e+00 5.135909195072201783e+02
1.958430854788053344e+00 5.135835140521736548e+02
1.958530876792894393e+00 5.135761325883984227e+02
1.958630898797735442e+00 5.135687754995199157e+02
1.958730920802576270e+00 5.135614431687743036e+02
1.958830942807417319e+00 5.135541359790006481e+02
1.958930964812258591e+00 5.135468543126216900e+02
1.959030986817099640e+00 5.135395985516330484e+02
1.959131008821940689e+00 5.135323690775881005e+02
1.959231030826781961e+00 5.135251662715845669e+02
1.959331052831623010e+00 5.135179905142505277e+02
1.959431074836463837e+00 5.135108421857316898e+02
1.959531096841304887e+00 5.135037216656758119e+02
1.959631118846145936e+00 5.134966293332203122e+02
1.959731140850986986e+00 5.134895655669790813e+02
1.959831162855828257e+00 5.134825307450261107e+02
1.959931184860669307e+00 5.134755252448849205e+02
1.960031206865510356e+00 5.134685494435133251e+02
1.960131228870351183e+00 5.134616037172894494e+02
1.960231250875192455e+00 5.134546884419994512e+02
1.960331272880033504e+00 5.134478039928228554e+02
1.960431294884874553e+00 5.134409507443178882e+02
1.960531316889715603e+00 5.134341290704120411e+02
1.960631338894556652e+00 5.134273393443820623e+02
1.960731360899397924e+00 5.134205819388474765e+02
1.960831382904238751e+00 5.134138572257514852e+02
1.960931404909079800e+00 5.134071655763501667e+02
1.961031426913920850e+00 5.134005073611986063e+02
1.961131448918762121e+00 5.133938829501366854e+02
1.961231470923603171e+00 5.133872927122771443e+02
1.961331492928444220e+00 5.133807370159903485e+02
1.961431514933285047e+00 5.133742162288924646e+02
1.961531536938126097e+00 5.133677307178311366e+02
1.961631558942967146e+00 5.133612808488730934e+02
1.961731580947808418e+00 5.133548669872889150e+02
1.961831602952649467e+00 5.133484894975429143e+02
1.961931624957490516e+00 5.133421487432758568e+02
1.962031646962331788e+00 5.133358450872951835e+02
1.962131668967172615e+00 5.133295788915610274e+02
1.962231690972013665e+00 5.133233505171716615e+02
1.962331712976854714e+00 5.133171603243520167e+02
1.962431734981695763e+00 5.133110086724374241e+02
1.962531756986536813e+00 5.133048959198664534e+02
1.962631778991378084e+00 5.132988224241616990e+02
1.962731800996219134e+00 5.132927885419205722e+02
1.962831823001059961e+00 5.132867946288001804e+02
1.962931845005901010e+00 5.132808410395059582e+02
1.963031867010742282e+00 5.132749281277775708e+02
1.963131889015583331e+00 5.132690562463773176e+02
1.963231911020424381e+00 5.132632257470748982e+02
1.963331933025265430e+00 5.132574369806375216e+02
1.963431955030106479e+00 5.132516902968146724e+02
1.963531977034947307e+00 5.132459860443269690e+02
1.963631999039788578e+00 5.132403245708529766e+02
1.963732021044629628e+00 5.132347062230156780e+02
1.963832043049470677e+00 5.132291313463708775e+02
1.963932065054311948e+00 5.132236002853933314e+02
1.964032087059152998e+00 5.132181133834660614e+02
1.964132109063994047e+00 5.132126709828667117e+02
1.964232131068834875e+00 5.132072734247545895e+02
1.964332153073675924e+00 5.132019210491583863e+02
1.964432175078516973e+00 5.131966141949640132e+02
1.964532197083358245e+00 5.131913531999027782e+02
1.964632219088199294e+00 5.131861384005381979e+02
1.964732241093040344e+00 5.131809701322533783e+02
1.964832263097881615e+00 5.131758487292401014e+02
1.964932285102722442e+00 5.131707745244843863e+02
1.965032307107563492e+00 5.131657478497572811e+02
1.965132329112404541e+00 5.131607690355990599e+02
1.965232351117245591e+00 5.131558384113113789e+02
1.965332373122086640e+00 5.131509563049407916e+02
1.965432395126927911e+00 5.131461230432698812e+02
1.965532417131768961e+00 5.131413389518046415e+02
1.965632439136609788e+00 5.131366043547600384e+02
1.965732461141450838e+00 5.131319195750531890e+02
1.965832483146292109e+00 5.131272849342852851e+02
1.965932505151133158e+00 5.131227007527351134e+02
1.966032527155974208e+00 5.131181673493439348e+02
1.966132549160815257e+00 5.131136850417062760e+02
1.966232571165656307e+00 5.131092541460557186e+02
1.966332593170497134e+00 5.131048749772543260e+02
1.966432615175338405e+00 5.131005478487821847e+02
1.966532637180179455e+00 5.130962730727242160e+02
1.966632659185020504e+00 5.130920509597584669e+02
1.966732681189861776e+00 5.130878818191482651e+02
1.966832703194702825e+00 5.130837659587247117e+02
1.966932725199543874e+00 5.130797036848809967e+02
1.967032747204384702e+00 5.130756953025578468e+02
1.967132769209225751e+00 5.130717411152332943e+02
1.967232791214066800e+00 5.130678414249127854e+02
1.967332813218908072e+00 5.130639965321147429e+02
1.967432835223749121e+00 5.130602067358615841e+02
1.967532857228590171e+00 5.130564723336698307e+02
1.967632879233431442e+00 5.130527936215369209e+02
1.967732901238272269e+00 5.130491708939314321e+02
1.967832923243113319e+00 5.130456044437813716e+02
1.967932945247954368e+00 5.130420945624641718e+02
1.968032967252795418e+00 5.130386415397960036e+02
1.968132989257636467e+00 5.130352456640199534e+02
1.968233011262477739e+00 5.130319072217969278e+02
1.968333033267318788e+00 5.130286264981923523e+02
1.968433055272159615e+00 5.130254037766694637e+02
1.968533077277000665e+00 5.130222393390756679e+02
1.968633099281841936e+00 5.130191334656343543e+02
1.968733121286682985e+00 5.130160864349309122e+02
1.968833143291524035e+00 5.130130985239064785e+02
1.968933165296365084e+00 5.130101700078465683e+02
1.969033187301206134e+00 5.130073011603685700e+02
1.969133209306046961e+00 5.130044922534140142e+02
1.969233231310888232e+00 5.130017435572381146e+02
1.969333253315729282e+00 5.129990553403983995e+02
1.969433275320570331e+00 5.129964278697461850e+02
1.969533297325411603e+00 5.129938614104163435e+02
1.969633319330252652e+00 5.129913562258166166e+02
1.969733341335093701e+00 5.129889125776186347e+02
1.969833363339934529e+00 5.129865307257473432e+02
1.969933385344775578e+00 5.129842109283720220e+02
1.970033407349616628e+00 5.129819534418968487e+02
1.970133429354457899e+00 5.129797585209511226e+02
1.970233451359298948e+00 5.129776264183785770e+02
1.970333473364139998e+00 5.129755573852299904e+02
1.970433495368981269e+00 5.129735516707521583e+02
1.970533517373822097e+00 5.129716095223786851e+02
1.970633539378663146e+00 5.129697311857222530e+02
1.970733561383504195e+00 5.129679169045635945e+02
1.970833583388345245e+00 5.129661669208426247e+02
1.970933605393186294e+00 5.129644814746516204e+02
1.971033627398027566e+00 5.129628608042223732e+02
1.971133649402868615e+00 5.129613051459209601e+02
1.971233671407709442e+00 5.129598147342359198e+02
1.971333693412550492e+00 5.129583898017720003e+02
1.971433715417391763e+00 5.129570305792385625e+02
1.971533737422232813e+00 5.129557372954440098e+02
1.971633759427073862e+00 5.129545101772852149e+02
1.971733781431914911e+00 5.129533494497386528e+02
1.971833803436755961e+00 5.129522553358535788e+02
1.971933825441596788e+00 5.129512280567423659e+02
1.972033847446438060e+00 5.129502678315723188e+02
1.972133869451279109e+00 5.129493748775574886e+02
1.972233891456120158e+00 5.129485494099513971e+02
1.972333913460961430e+00 5.129477916420370320e+02
1.972433935465802479e+00 5.129471017851197985e+02
1.972533957470643529e+00 5.129464800485204705e+02
1.972633979475484356e+00 5.129459266395659824e+02
1.972734001480325405e+00 5.129454417635803338e+02
1.972834023485166455e+00 5.129450256238800421e+02
1.972934045490007726e+00 5.129446784217645927e+02
1.973034067494848776e+00 5.129444003565077992e+02
1.973134089499689825e+00 5.129441916253516638e+02
1.973234111504531096e+00 5.129440524234993291e+02
1.973334133509371924e+00 5.129439829441050733e+02
1.973434155514212973e+00 5.129439833782707865e+02
1.973534177519054023e+00 5.129440539150347149e+02
1.973634199523895072e+00 5.129441947413670277e+02
1.973734221528736121e+00 5.129444060421609493e+02
1.973834243533577393e+00 5.129446880002270746e+02
1.973934265538418442e+00 5.129450407962850704e+02
1.974034287543259270e+00 5.129454646089579910e+02
1.974134309548100319e+00 5.129459596147636375e+02
1.974234331552941590e+00 5.129465259881101247e+02
1.974334353557782640e+00 5.129471639012878086e+02
1.974434375562623689e+00 5.129478735244607606e+02
1.974534397567464739e+00 5.129486550256648343e+02
1.974634419572305788e+00 5.129495085707965245e+02
1.974734441577146615e+00 5.129504343236101249e+02
1.974834463581987887e+00 5.129514324457086332e+02
1.974934485586828936e+00 5.129525030965381802e+02
1.975034507591669986e+00 5.129536464333834829e+02
1.975134529596511257e+00 5.129548626113598857e+02
1.975234551601352306e+00 5.129561517834077904e+02
1.975334573606193356e+00 5.129575141002867440e+02
1.975434595611034183e+00 5.129589497105703231e+02
1.975534617615875232e+00 5.129604587606386303e+02
1.975634639620716282e+00 5.129620413946742019e+02
1.975734661625557553e+00 5.129636977546543903e+02
1.975834683630398603e+00 5.129654279803490908e+02
1.975934705635239652e+00 5.129672322093111916e+02
1.976034727640080924e+00 5.129691105768745274e+02
1.976134749644921751e+00 5.129710632161460353e+02
1.976234771649762800e+00 5.129730902580017755e+02
1.976334793654603850e+00 5.129751918310818155e+02
1.976434815659444899e+00 5.129773680617847731e+02
1.976534837664285948e+00 5.129796190742620183e+02
1.976634859669127220e+00 5.129819449904147177e+02
1.976734881673968269e+00 5.129843459298859898e+02
1.976834903678809097e+00 5.129868220100594272e+02
1.976934925683650146e+00 5.129893733460512522e+02
1.977034947688491417e+00 5.129920000507079294e+02
1.977134969693332467e+00 5.129947022346004815e+02
1.977234991698173516e+00 5.129974800060208509e+02
1.977335013703014566e+00 5.130003334709759883e+02
1.977435035707855615e+00 5.130032627331846697e+02
1.977535057712696442e+00 5.130062678940734031e+02
1.977635079717537714e+00 5.130093490527715403e+02
1.977735101722378763e+00 5.130125063061070705e+02
1.977835123727219813e+00 5.130157397486043465e+02
1.977935145732061084e+00 5.130190494724774908e+02
1.978035167736902133e+00 5.130224355676275536e+02
1.978135189741743183e+00 5.130258981216408074e+02
1.978235211746584010e+00 5.130294372197815846e+02
1.978335233751425060e+00 5.130330529449906862e+02
1.978435255756266109e+00 5.130367453778821982e+02
1.978535277761107380e+00 5.130405145967392855e+02
1.978635299765948430e+00 5.130443606775095304e+02
1.978735321770789479e+00 5.130482836938043647e+02
1.978835343775630307e+00 5.130522837168942942e+02
1.978935365780471578e+00 5.130563608157058297e+02
1.979035387785312627e+00 5.130605150568184172e+02
1.979135409790153677e+00 5.130647465044613682e+02
1.979235431794994726e+00 5.130690552205113590e+02
1.979335453799835776e+00 5.130734412644909526e+02
1.979435475804677047e+00 5.130779046935621182e+02
1.979535497809517874e+00 5.130824455625271412e+02
1.979635519814358924e+00 5.130870639238244166e+02
1.979735541819199973e+00 5.130917598275276532e+02
1.979835563824041245e+00 5.130965333213399617e+02
1.979935585828882294e+00 5.131013844505960151e+02
1.980035607833723343e+00 5.131063132582561366e+02
1.980135629838564393e+00 5.131113197849065273e+02
1.980235651843405220e+00 5.131164040687558554e+02
1.980335673848246270e+00 5.131215661456337784e+02
1.980435695853087541e+00 5.131268060489885556e+02
1.980535717857928590e+00 5.131321238098869344e+02
1.980635739862769640e+00 5.131375194570102849e+02
1.980735761867610911e+00 5.131429930166531221e+02
1.980835783872451961e+00 5.131485445127245839e+02
1.980935805877292788e+00 5.131541739667418369e+02
1.981035827882133837e+00 5.131598813978341695e+02
1.981135849886974887e+00 5.131656668227359432e+02
1.981235871891815936e+00 5.131715302557915948e+02
1.981335893896657208e+00 5.131774717089487012e+02
1.981435915901498257e+00 5.131834911917612772e+02
1.981535937906339306e+00 5.131895887113856816e+02
1.981635959911180134e+00 5.131957642725822097e+02
1.981735981916021405e+00 5.132020178777123647e+02
1.981836003920862455e+00 5.132083495267391982e+02
1.981936025925703504e+00 5.132147592172262875e+02
1.982036047930544553e+00 5.132212469443375085e+02
1.982136069935385603e+00 5.132278127008361253e+02
1.982236091940226874e+00 5.132344564770837678e+02
1.982336113945067702e+00 5.132411782610419095e+02
1.982436135949908751e+00 5.132479780382708441e+02
1.982536157954749800e+00 5.132548557919280938e+02
1.982636179959591072e+00 5.132618115027706835e+02
1.982736201964432121e+00 5.132688451491534352e+02
1.982836223969273171e+00 5.132759567070301046e+02
1.982936245974114220e+00 5.132831461499529269e+02
1.983036267978955047e+00 5.132904134490729575e+02
1.983136289983796097e+00 5.132977585731405270e+02
1.983236311988637368e+00 5.133051814885066051e+02
1.983336333993478418e+00 5.133126821591213229e+02
1.983436355998319467e+00 5.133202605465362467e+02
1.983536378003160738e+00 5.133279166099040367e+02
1.983636400008001788e+00 5.133356503059806073e+02
1.983736422012842615e+00 5.133434615891243311e+02
1.983836444017683664e+00 5.133513504112971759e+02
1.983936466022524714e+00 5.133593167220685700e+02
1.984036488027365763e+00 5.133673604686107410e+02
1.984136510032207035e+00 5.133754815957061055e+02
1.984236532037048084e+00 5.133836800457448817e+02
1.984336554041889134e+00 5.133919557587266809e+02
1.984436576046729961e+00 5.134003086722633498e+02
1.984536598051571232e+00 5.134087387215796525e+02
1.984636620056412282e+00 5.134172458395144076e+02
1.984736642061253331e+00 5.134258299565236712e+02
1.984836664066094380e+00 5.134344910006800546e+02
1.984936686070935430e+00 5.134432288976779546e+02
1.985036708075776701e+00 5.134520435708315063e+02
1.985136730080617529e+00 5.134609349410800405e+02
1.985236752085458578e+00 5.134699029269888797e+02
1.985336774090299627e+00 5.134789474447495650e+02
1.985436796095140899e+00 5.134880684081865638e+02
1.985536818099981948e+00 5.134972657287549964e+02
1.985636840104822998e+00 5.135065393155459788e+02
1.985736862109664047e+00 5.135158890752882144e+02
1.985836884114504874e+00 5.135253149123499270e+02
1.985936906119345924e+00 5.135348167287428396e+02
1.986036928124187195e+00 5.135443944241242207e+02
1.986136950129028245e+00 5.135540478957989308e+02
1.986236972133869294e+00 5.135637770387238561e+02
1.986336994138710565e+00 5.135735817455099550e+02
1.986437016143551615e+00 5.135834619064255548e+02
1.986537038148392442e+00 5.135934174093996489e+02
1.986637060153233492e+00 5.136034481400248524e+02
1.986737082158074541e+00 5.136135539815606990e+02
1.986837104162915590e+00 5.136237348149372792e+02
1.986937126167756862e+00 5.136339905187579689e+02
1.987037148172597911e+00 5.136443209693054541e+02
1.987137170177438961e+00 5.136547260405407087e+02
1.987237192182279788e+00 5.136652056041125434e+02
1.987337214187121059e+00 5.136757595293557870e+02
1.987437236191962109e+00 5.136863876832991309e+02
1.987537258196803158e+00 5.136970899306669480e+02
1.987637280201644208e+00 5.137078661338850907e+02
1.987737302206485257e+00 5.137187161530831645e+02
1.987837324211326528e+00 5.137296398460993032e+02
1.987937346216167356e+00 5.137406370684848298e+02
1.988037368221008405e+00 5.137517076735094861e+02
1.988137390225849455e+00 5.137628515121626833e+02
1.988237412230690726e+00 5.137740684331620287e+02
1.988337434235531775e+00 5.137853582829552579e+02
1.988437456240372825e+00 5.137967209057251239e+02
1.988537478245213874e+00 5.138081561433949673e+02
1.988637500250054702e+00 5.138196638356339463e+02
1.988737522254895751e+00 5.138312438198598784e+02
1.988837544259737022e+00 5.138428959312464031e+02
1.988937566264578072e+00 5.138546200027262785e+02
1.989037588269419121e+00 5.138664158649984302e+02
1.989137610274260393e+00 5.138782833465306794e+02
1.989237632279101442e+00 5.138902222735677014e+02
1.989337654283942269e+00 5.139022324701347770e+02
1.989437676288783319e+00 5.139143137580424536e+02
1.989537698293624368e+00 5.139264659568937077e+02
1.989637720298465418e+00 5.139386888840899701e+02
1.989737742303306689e+00 5.139509823548339682e+02
1.989837764308147738e+00 5.139633461821377978e+02
1.989937786312988788e+00 5.139757801768290619e+02
1.990037808317829615e+00 5.139882841475542818e+02
1.990137830322670887e+00 5.140008579007868548e+02
1.990237852327511936e+00 5.140135012408334205e+02
1.990337874332352985e+00 5.140262139698385226e+02
1.990437896337194035e+00 5.140389958877910885e+02
1.990537918342035084e+00 5.140518467925310233e+02
1.990637940346876356e+00 5.140647664797556899e+02
1.990737962351717183e+00 5.140777547430263894e+02
1.990837984356558232e+00 5.140908113737741587e+02
1.990938006361399282e+00 5.141039361613056826e+02
1.991038028366240553e+00 5.141171288928132981e+02
1.991138050371081603e+00 5.141303893533772680e+02
1.991238072375922652e+00 5.141437173259741940e+02
1.991338094380763701e+00 5.141571125914859977e+02
1.991438116385604529e+00 5.141705749287043545e+02
1.991538138390445578e+00 5.141841041143369466e+02
1.991638160395286850e+00 5.141976999230170122e+02
1.991738182400127899e+00 5.142113621273098261e+02
1.991838204404968948e+00 5.142250904977174741e+02
1.991938226409810220e+00 5.142388848026896540e+02
1.992038248414651269e+00 5.142527448086292452e+02
1.992138270419492097e+00 5.142666702798987899e+02
1.992238292424333146e+00 5.142806609788286778e+02
1.992338314429174195e+00 5.142947166657266962e+02
1.992438336434015245e+00 5.143088370988809856e+02
1.992538358438856516e+00 5.143230220345740236e+02
1.992638380443697566e+00 5.143372712270839884e+02
1.992738402448538615e+00 5.143515844286959009e+02
1.992838424453379442e+00 5.143659613897106055e+02
1.992938446458220714e+00 5.143804018584497726e+02
1.993038468463061763e+00 5.143949055812654478e+02
1.993138490467902812e+00 5.144094723025468738e+02
1.993238512472743862e+00 5.144241017647319723e+02
1.993338534477584911e+00 5.144387937083113229e+02
1.993438556482426183e+00 5.144535478718387367e+02
1.993538578487267010e+00 5.144683639919393272e+02
1.993638600492108059e+00 5.144832418033176964e+02
1.993738622496949109e+00 5.144981810387663472e+02
1.993838644501790380e+00 5.145131814291738692e+02
1.993938666506631430e+00 5.145282427035349428e+02
1.994038688511472479e+00 5.145433645889561376e+02
1.994138710516313528e+00 5.145585468106685312e+02
1.994238732521154356e+00 5.145737890920338486e+02
1.994338754525995405e+00 5.145890911545519657e+02
1.994438776530836677e+00 5.146044527178738690e+02
1.994538798535677726e+00 5.146198734998068858e+02
1.994638820540518775e+00 5.146353532163270756e+02
1.994738842545360047e+00 5.146508915815849150e+02
1.994838864550201096e+00 5.146664883079162109e+02
1.994938886555041924e+00 5.146821431058513099e+02
1.995038908559882973e+00 5.146978556841240788e+02
1.995138930564724022e+00 5.147136257496815688e+02
1.995238952569565072e+00 5.147294530076926549e+02
1.995338974574406343e+00 5.147453371615574724e+02
1.995438996579247393e+00 5.147612779129193541e+02
1.995539018584088442e+00 5.147772749616697183e+02
1.995639040588929269e+00 5.147933280059621666e+02
1.995739062593770541e+00 5.148094367422198729e+02
1.995839084598611590e+00 5.148256008651462707e+02
1.995939106603452640e+00 5.148418200677327832e+02
1.996039128608293689e+00 5.148580940412721247e+02
1.996139150613134738e+00 5.148744224753659182e+02
1.996239172617975566e+00 5.148908050579337896e+02
1.996339194622816837e+00 5.149072414752261011e+02
1.996439216627657887e+00 5.149237314118321365e+02
1.996539238632498936e+00 5.149402745506899919e+02
1.996639260637340207e+00 5.149568705730989677e+02
1.996739282642181257e+00 5.149735191587262761e+02
1.996839304647022306e+00 5.149902199856206835e+02
1.996939326651863134e+00 5.150069727302209230e+02
1.997039348656704183e+00 5.150237770673670639e+02
1.997139370661545232e+00 5.150406326703093782e+02
1.997239392666386504e+00 5.150575392107218704e+02
1.997339414671227553e+00 5.150744963587090979e+02
1.997439436676068603e+00 5.150915037828194727e+02
1.997539458680909874e+00 5.151085611500548112e+02
1.997639480685750701e+00 5.151256681258814751e+02
1.997739502690591751e+00 5.151428243742404902e+02
1.997839524695432800e+00 5.151600295575588007e+02
1.997939546700273850e+00 5.151772833367606381e+02
1.998039568705114899e+00 5.151945853712767303e+02
1.998139590709956170e+00 5.152119353190576021e+02
1.998239612714797220e+00 5.152293328365827847e+02
1.998339634719638047e+00 5.152467775788716153e+02
1.998439656724479097e+00 5.152642691994963116e+02
1.998539678729320368e+00 5.152818073505923167e+02
1.998639700734161417e+00 5.152993916828665988e+02
1.998739722739002467e+00 5.153170218456129987e+02
1.998839744743843516e+00 5.153346974867225754e+02
1.998939766748684566e+00 5.153524182526924733e+02
1.999039788753525393e+00 5.153701837886408157e+02
1.999139810758366664e+00 5.153879937383143215e+02
1.999239832763207714e+00 5.154058477441033119e+02
1.999339854768048763e+00 5.154237454470506918e+02
1.999439876772890035e+00 5.154416864868649100e+02
1.999539898777731084e+00 5.154596705019308729e+02
1.999639920782572133e+00 5.154776971293210863e+02
1.999739942787412961e+00 5.154957660048094112e+02
1.999839964792254010e+00 5.155138767628801588e+02
1.999939986797095060e+00 5.155320290367416192e+02
2.000040008801936331e+00 5.487915401707750789e+02
2.000140030806777602e+00 5.489147646891581189e+02
2.000240052811618430e+00 5.490379085597186304e+02
2.000340074816459701e+00 5.491609695500915223e+02
2.000440096821300529e+00 5.492839454296456552e+02
2.000540118826141356e+00 5.494068339695463692e+02
2.000640140830982627e+00 5.495296329428184663e+02
2.000740162835823899e+00 5.496523401244074876e+02
2.000840184840664726e+00 5.497749532912428094e+02
2.000940206845505998e+00 5.498974702222999440e+02
2.001040228850347269e+00 5.500198886986631805e+02
2.001140250855187652e+00 5.501422065035857258e+02
2.001240272860028924e+00 5.502644214225555288e+02
2.001340294864870195e+00 5.503865312433526924e+02
2.001440316869711022e+00 5.505085337561148435e+02
2.001540338874552294e+00 5.506304267533975008e+02
2.001640360879393565e+00 5.507522080302377390e+02
2.001740382884234393e+00 5.508738753842119422e+02
2.001840404889075220e+00 5.509954266155008327e+02
2.001940426893916491e+00 5.511168595269515436e+02
2.002040448898757319e+00 5.512381719241353721e+02
2.002140470903598590e+00 5.513593616154125812e+02
2.002240492908439862e+00 5.514804264119925392e+02
2.002340514913280689e+00 5.516013641279943158e+02
2.002440536918121960e+00 5.517221725805081860e+02
2.002540558922962788e+00 5.518428495896574759e+02
2.002640580927804059e+00 5.519633929786581348e+02
2.002740602932644887e+00 5.520838005738804668e+02
2.002840624937486158e+00 5.522040702049088168e+02
2.002940646942326985e+00 5.523241997046036431e+02
2.003040668947168257e+00 5.524441869091612034e+02
2.003140690952009528e+00 5.525640296581731263e+02
2.003240712956850356e+00 5.526837257946879163e+02
2.003340734961691183e+00 5.528032731652708662e+02
2.003440756966532454e+00 5.529226696200643119e+02
2.003540778971373726e+00 5.530419130128464076e+02
2.003640800976214553e+00 5.531610012010919490e+02
2.003740822981055825e+00 5.532799320460321724e+02
2.003840844985896652e+00 5.533987034127131892e+02
2.003940866990737923e+00 5.535173131700588556e+02
2.004040888995578751e+00 5.536357591909232951e+02
2.004140911000420022e+00 5.537540393521585429e+02
2.004240933005260850e+00 5.538721515346660453e+02
2.004340955010102121e+00 5.539900936234615756e+02
2.004440977014943392e+00 5.541078635077294621e+02
2.004540999019784220e+00 5.542254590808848889e+02
2.004641021024625047e+00 5.543428782406297159e+02
2.004741043029466319e+00 5.544601188890117101e+02
2.004841065034307590e+00 5.545771789324843439e+02
2.004941087039148417e+00 5.546940562819632987e+02
2.005041109043989689e+00 5.548107488528830800e+02
2.005141131048830516e+00 5.549272545652590907e+02
2.005241153053671788e+00 5.550435713437414051e+02
2.005341175058512615e+00 5.551596971176733177e+02
2.005441197063353886e+00 5.552756298211500052e+02
2.005541219068194714e+00 5.553913673930744608e+02
2.005641241073035985e+00 5.555069077772147921e+02
2.005741263077877257e+00 5.556222489222611784e+02
2.005841285082718084e+00 5.557373887818835101e+02
2.005941307087559355e+00 5.558523253147860714e+02
2.006041329092400183e+00 5.559670564847659762e+02
2.006141351097241010e+00 5.560815802607688738e+02
2.006241373102082282e+00 5.561958946169431783e+02
2.006341395106923553e+00 5.563099975326992990e+02
2.006441417111764380e+00 5.564238869927634141e+02
2.006541439116605652e+00 5.565375609872314726e+02
2.006641461121446923e+00 5.566510175116296750e+02
2.006741483126287307e+00 5.567642545669638139e+02
2.006841505131128578e+00 5.568772701597785044e+02
2.006941527135969849e+00 5.569900623022098216e+02
2.007041549140810677e+00 5.571026290120412341e+02
2.007141571145651948e+00 5.572149683127578328e+02
2.007241593150493220e+00 5.573270782336007869e+02
2.007341615155334047e+00 5.574389568096200946e+02
2.007441637160174874e+00 5.575506020817311992e+02
2.007541659165016146e+00 5.576620120967662615e+02
2.007641681169856973e+00 5.577731849075289574e+02
2.007741703174698245e+00 5.578841185728489336e+02
2.007841725179539516e+00 5.579948111576311476e+02
2.007941747184380343e+00 5.581052607329147577e+02
2.008041769189221615e+00 5.582154653759191660e+02
2.008141791194062442e+00 5.583254231701034769e+02
2.008241813198903714e+00 5.584351322052132218e+02
2.008341835203744541e+00 5.585445905773361801e+02
2.008441857208585812e+00 5.586537963889524008e+02
2.008541879213426640e+00 5.587627477489872945e+02
2.008641901218267911e+00 5.588714427728613146e+02
2.008741923223109183e+00 5.589798795825447542e+02
2.008841945227950010e+00 5.590880563066042441e+02
2.008941967232790837e+00 5.591959710802586869e+02
2.009041989237632109e+00 5.593036220454257545e+02
2.009142011242473380e+00 5.594110073507754350e+02
2.009242033247314208e+00 5.595181251517781220e+02
2.009342055252155479e+00 5.596249736107552053e+02
2.009442077256996306e+00 5.597315508969315943e+02
2.009542099261837578e+00 5.598378551864808514e+02
2.009642121266678405e+00 5.599438846625781707e+02
2.009742143271519677e+00 5.600496375154476709e+02
2.009842165276360504e+00 5.601551119424120770e+02
2.009942187281201775e+00 5.602603061479425151e+02
2.010042209286043047e+00 5.603652183437029635e+02
2.010142231290883874e+00 5.604698467486045956e+02
2.010242253295724701e+00 5.605741895888484123e+02
2.010342275300565973e+00 5.606782450979764008e+02
2.010442297305407244e+00 5.607820115169172368e+02
2.010542319310248072e+00 5.608854870940349429e+02
2.010642341315089343e+00 5.609886700851744763e+02
2.010742363319930170e+00 5.610915587537103875e+02
2.010842385324771442e+00 5.611941513705914986e+02
2.010942407329612269e+00 5.612964462143886522e+02
2.011042429334453541e+00 5.613984415713402996e+02
2.011142451339294368e+00 5.615001357353988851e+02
2.011242473344135639e+00 5.616015270082749566e+02
2.011342495348976911e+00 5.617026136994843455e+02
2.011442517353817738e+00 5.618033941263921633e+02
2.011542539358659010e+00 5.619038666142581633e+02
2.011642561363499837e+00 5.620040294962815324e+02
2.011742583368340664e+00 5.621038811136431832e+02
2.011842605373181936e+00 5.622034198155544118e+02
2.011942627378023207e+00 5.623026439592947554e+02
2.012042649382864035e+00 5.624015519102608778e+02
2.012142671387705306e+00 5.625001420420064733e+02
2.012242693392546578e+00 5.625984127362866047e+02
2.012342715397386961e+00 5.626963623831007908e+02
2.012442737402228232e+00 5.627939893807350700e+02
2.012542759407069504e+00 5.628912921358032690e+02
2.012642781411910331e+00 5.629882690632912272e+02
2.012742803416751602e+00 5.630849185865971549e+02
2.012842825421592874e+00 5.631812391375718789e+02
2.012942847426433701e+00 5.632772291565629530e+02
2.013042869431274529e+00 5.633728870924526291e+02
2.013142891436115800e+00 5.634682114026998079e+02
2.013242913440956627e+00 5.635632005533815345e+02
2.013342935445797899e+00 5.636578530192304015e+02
2.013442957450639170e+00 5.637521672836774087e+02
2.013542979455479998e+00 5.638461418388875472e+02
2.013643001460320825e+00 5.639397751858027732e+02
2.013743023465162096e+00 5.640330658341799790e+02
2.013843045470003368e+00 5.641260123026280553e+02
2.013943067474844195e+00 5.642186131186472267e+02
2.014043089479685467e+00 5.643108668186687282e+02
2.014143111484526294e+00 5.644027719480898213e+02
2.014243133489367565e+00 5.644943270613130153e+02
2.014343155494208393e+00 5.645855307217829022e+02
2.014443177499049664e+00 5.646763815020233324e+02
2.014543199503890492e+00 5.647668779836736803e+02
2.014643221508731763e+00 5.648570187575255659e+02
2.014743243513573034e+00 5.649468024235576422e+02
2.014843265518413862e+00 5.650362275909742493e+02
2.014943287523255133e+00 5.651252928782371328e+02
2.015043309528095961e+00 5.652139969131038697e+02
2.015143331532937232e+00 5.653023383326603835e+02
2.015243353537778059e+00 5.653903157833574369e+02
2.015343375542619331e+00 5.654779279210432605e+02
2.015443397547460158e+00 5.655651734109982272e+02
2.015543419552301430e+00 5.656520509279694124e+02
2.015643441557142701e+00 5.657385591562012905e+02
2.015743463561983528e+00 5.658246967894723412e+02
2.015843485566824356e+00 5.659104625311247219e+02
2.015943507571665627e+00 5.659958550940992836e+02
2.016043529576506899e+00 5.660808732009649020e+02
2.016143551581347726e+00 5.661655155839530380e+02
2.016243573586188997e+00 5.662497809849870691e+02
2.016343595591029825e+00 5.663336681557144630e+02
2.016443617595870652e+00 5.664171758575394051e+02
2.016543639600711924e+00 5.665003028616495158e+02
2.016643661605553195e+00 5.665830479490498419e+02
2.016743683610394022e+00 5.666654099105886644e+02
2.016843705615235294e+00 5.667473875469934228e+02
2.016943727620076565e+00 5.668289796688931119e+02
2.017043749624917393e+00 5.669101850968523877e+02
2.017143771629758220e+00 5.669910026613965783e+02
2.017243793634599491e+00 5.670714312030439714e+02
2.017343815639440319e+00 5.671514695723296882e+02
2.017443837644281590e+00 5.672311166298368335e+02
2.017543859649122862e+00 5.673103712462224166e+02
2.017643881653963689e+00 5.673892323022430446e+02
2.017743903658804960e+00 5.674676986887849353e+02
2.017843925663645788e+00 5.675457693068872231e+02
2.017943947668486615e+00 5.676234430677706086e+02
2.018043969673327886e+00 5.677007188928612322e+02
2.018143991678169158e+00 5.677775957138172771e+02
2.018244013683009985e+00 5.678540724725530708e+02
2.018344035687851257e+00 5.679301481212655744e+02
2.018444057692692528e+00 5.680058216224567786e+02
2.018544079697533355e+00 5.680810919489592834e+02
2.018644101702374183e+00 5.681559580839599448e+02
2.018744123707215454e+00 5.682304190210228398e+02
2.018844145712056282e+00 5.683044737641138227e+02
2.018944167716897553e+00 5.683781213276201925e+02
2.019044189721738825e+00 5.684513607363770689e+02
2.019144211726579652e+00 5.685241910256875144e+02
2.019244233731420479e+00 5.685966112413439077e+02
2.019344255736261751e+00 5.686686204396501125e+02
2.019444277741103022e+00 5.687402176874445558e+02
2.019544299745943849e+00 5.688114020621164855e+02
2.019644321750785121e+00 5.688821726516309809e+02
2.019744343755625948e+00 5.689525285545472570e+02
2.019844365760467220e+00 5.690224688800376498e+02
2.019944387765308047e+00 5.690919927479080798e+02
2.020044409770149318e+00 5.691610992886179474e+02
2.020144431774990146e+00 5.692297876432974135e+02
2.020244453779831417e+00 5.692980569637670669e+02
2.020344475784672689e+00 5.693659064125547502e+02
2.020444497789513516e+00 5.694333351629145454e+02
2.020544519794354787e+00 5.695003423988443956e+02
2.020644541799195615e+00 5.695669273151012248e+02
2.020744563804036886e+00 5.696330891172200381e+02
2.020844585808877714e+00 5.696988270215293824e+02
2.020944607813718985e+00 5.697641402551678311e+02
2.021044629818559812e+00 5.698290280560976271e+02
2.021144651823401084e+00 5.698934896731238950e+02
2.021244673828242355e+00 5.699575243659060106e+02
2.021344695833083183e+00 5.700211314049744260e+02
2.021444717837924010e+00 5.700843100717452216e+02
2.021544739842765281e+00 5.701470596585324984e+02
2.021644761847606553e+00 5.702093794685624744e+02
2.021744783852447380e+00 5.702712688159880372e+02
2.021844805857288652e+00 5.703327270259012494e+02
2.021944827862129479e+00 5.703937534343449443e+02
2.022044849866970306e+00 5.704543473883265960e+02
2.022144871871811578e+00 5.705145082458277557e+02
2.022244893876652849e+00 5.705742353758196259e+02
2.022344915881493677e+00 5.706335281582701100e+02
2.022444937886334948e+00 5.706923859841577951e+02
2.022544959891176219e+00 5.707508082554808198e+02
2.022644981896017047e+00 5.708087943852672197e+02
2.022745003900857874e+00 5.708663437975860688e+02
2.022845025905699146e+00 5.709234559275549827e+02
2.022945047910539973e+00 5.709801302213509189e+02
2.023045069915381244e+00 5.710363661362192715e+02
2.023145091920222516e+00 5.710921631404794425e+02
2.023245113925063343e+00 5.711475207135370056e+02
2.023345135929904615e+00 5.712024383458888224e+02
2.023445157934745442e+00 5.712569155391300910e+02
2.023545179939586269e+00 5.713109518059641232e+02
2.023645201944427541e+00 5.713645466702064368e+02
2.023745223949268812e+00 5.714176996667918047e+02
2.023845245954109640e+00 5.714704103417814167e+02
2.023945267958950911e+00 5.715226782523668589e+02
2.024045289963792182e+00 5.715745029668769348e+02
2.024145311968633010e+00 5.716258840647808483e+02
2.024245333973473837e+00 5.716768211366952528e+02
2.024345355978315109e+00 5.717273137843865243e+02
2.024445377983155936e+00 5.717773616207749683e+02
2.024545399987997207e+00 5.718269642699395945e+02
2.024645421992838479e+00 5.718761213671201631e+02
2.024745443997679306e+00 5.719248325587203681e+02
2.024845466002520133e+00 5.719730975023102246e+02
2.024945488007361405e+00 5.720209158666286839e+02
2.025045510012202676e+00 5.720682873315848838e+02
2.025145532017043504e+00 5.721152115882603084e+02
2.025245554021884775e+00 5.721616883389096984e+02
2.025345576026725603e+00 5.722077172969604817e+02
2.025445598031566874e+00 5.722532981870160711e+02
2.025545620036407701e+00 5.722984307448530217e+02
2.025645642041248973e+00 5.723431147174219404e+02
2.025745664046089800e+00 5.723873498628482821e+02
2.025845686050931072e+00 5.724311359504279153e+02
2.025945708055772343e+00 5.724744727606295100e+02
2.026045730060613170e+00 5.725173600850908997e+02
2.026145752065454442e+00 5.725597977266176031e+02
2.026245774070295269e+00 5.726017854991793001e+02
2.026345796075136541e+00 5.726433232279088088e+02
2.026445818079977368e+00 5.726844107490987881e+02
2.026545840084818639e+00 5.727250479101969631e+02
2.026645862089659467e+00 5.727652345698039653e+02
2.026745884094500738e+00 5.728049705976679888e+02
2.026845906099342010e+00 5.728442558746812665e+02
2.026945928104182837e+00 5.728830902928748401e+02
2.027045950109023664e+00 5.729214737554132171e+02
2.027145972113864936e+00 5.729594061765901643e+02
2.027245994118706207e+00 5.729968874818201812e+02
2.027346016123547034e+00 5.730339176076359990e+02
2.027446038128388306e+00 5.730704965016783490e+02
2.027546060133229133e+00 5.731066241226919828e+02
2.027646082138069961e+00 5.731423004405173742e+02
2.027746104142911232e+00 5.731775254360823055e+02
2.027846126147752503e+00 5.732122991013955016e+02
2.027946148152593331e+00 5.732466214395374209e+02
2.028046170157434602e+00 5.732804924646517293e+02
2.028146192162275874e+00 5.733139122019376828e+02
2.028246214167116701e+00 5.733468806876391000e+02
2.028346236171957528e+00 5.733793979690346987e+02
2.028446258176798800e+00 5.734114641044299105e+02
2.028546280181639627e+00 5.734430791631457396e+02
2.028646302186480899e+00 5.734742432255077347e+02
2.028746324191322170e+00 5.735049563828356440e+02
2.028846346196162997e+00 5.735352187374305686e+02
2.028946368201004269e+00 5.735650304025660944e+02
2.029046390205845096e+00 5.735943915024743092e+02
2.029146412210685924e+00 5.736233021723335241e+02
2.029246434215527195e+00 5.736517625582567916e+02
2.029346456220368466e+00 5.736797728172780353e+02
2.029446478225209294e+00 5.737073331173385213e+02
2.029546500230050565e+00 5.737344436372738983e+02
2.029646522234891837e+00 5.737611045668006682e+02
2.029746544239732664e+00 5.737873161064999294e+02
2.029846566244573491e+00 5.738130784678044165e+02
2.029946588249414763e+00 5.738383918729836068e+02
2.030046610254255590e+00 5.738632565551272364e+02
2.030146632259096862e+00 5.738876727581302930e+02
2.030246654263938133e+00 5.739116407366775547e+02
2.030346676268778960e+00 5.739351607562265372e+02
2.030446698273619788e+00 5.739582330929897580e+02
2.030546720278461059e+00 5.739808580339225728e+02
2.030646742283302331e+00 5.740030358766989593e+02
2.030746764288143158e+00 5.740247669296995809e+02
2.030846786292984429e+00 5.740460515119898446e+02
2.030946808297825257e+00 5.740668899533055765e+02
2.031046830302666528e+00 5.740872825940301709e+02
2.031146852307507356e+00 5.741072297851799249e+02
2.031246874312348627e+00 5.741267318883814141e+02
2.031346896317189454e+00 5.741457892758535309e+02
2.031446918322030726e+00 5.741644023303875883e+02
2.031546940326871997e+00 5.741825714453269711e+02
2.031646962331712825e+00 5.742002970245461029e+02
2.031746984336553652e+00 5.742175794824307786e+02
2.031847006341394923e+00 5.742344192438556547e+02
2.031947028346236195e+00 5.742508167441629894e+02
2.032047050351077022e+00 5.742667724291430886e+02
2.032147072355918294e+00 5.742822867550088404e+02
2.032247094360759121e+00 5.742973601883752508e+02
2.032347116365600392e+00 5.743119932062367070e+02
2.032447138370441220e+00 5.743261862959436712e+02
2.032547160375282491e+00 5.743399399551782381e+02
2.032647182380123319e+00 5.743532546919332162e+02
2.032747204384964590e+00 5.743661310244857532e+02
2.032847226389805861e+00 5.743785694813727787e+02
2.032947248394646689e+00 5.743905706013688359e+02
2.033047270399487960e+00 5.744021349334597062e+02
2.033147292404328788e+00 5.744132630368159198e+02
2.033247314409169615e+00 5.744239554807704735e+02
2.033347336414010886e+00 5.744342128447894993e+02
2.033447358418852158e+00 5.744440357184497543e+02
2.033547380423692985e+00 5.744534247014082666e+02
2.033647402428534257e+00 5.744623804033794841e+02
2.033747424433375528e+00 5.744709034441044651e+02
2.033847446438215911e+00 5.744789944533285961e+02
2.033947468443057183e+00 5.744866540707678269e+02
2.034047490447898454e+00 5.744938829460858187e+02
2.034147512452739281e+00 5.745006817388633635e+02
2.034247534457580553e+00 5.745070511185706437e+02
2.034347556462421824e+00 5.745129917645376736e+02
2.034447578467262652e+00 5.745185043659262192e+02
2.034547600472103479e+00 5.745235896217002391e+02
2.034647622476944751e+00 5.745282482405946212e+02
2.034747644481785578e+00 5.745324809410888065e+02
2.034847666486626849e+00 5.745362884513729114e+02
2.034947688491468121e+00 5.745396715093183957e+02
2.035047710496308948e+00 5.745426308624490730e+02
2.035147732501150220e+00 5.745451672679068906e+02
2.035247754505991047e+00 5.745472814924232807e+02
2.035347776510832318e+00 5.745489743122853952e+02
2.035447798515673146e+00 5.745502465133074566e+02
2.035547820520514417e+00 5.745510988907924457e+02
2.035647842525355244e+00 5.745515322495074315e+02
2.035747864530196516e+00 5.745515474036445767e+02
2.035847886535037787e+00 5.745511451767912376e+02
2.035947908539878615e+00 5.745503264018955178e+02
2.036047930544719442e+00 5.745490919212329572e+02
2.036147952549560713e+00 5.745474425863727674e+02
2.036247974554401985e+00 5.745453792581442940e+02
2.036347996559242812e+00 5.745429028066005230e+02
2.036448018564084084e+00 5.745400141109865899e+02
2.036548040568924911e+00 5.745367140597021489e+02
2.036648062573766182e+00 5.745330035502677219e+02
2.036748084578607010e+00 5.745288834892878640e+02
2.036848106583448281e+00 5.745243547924176255e+02
2.036948128588289109e+00 5.745194183843248084e+02
2.037048150593130380e+00 5.745140751986530177e+02
2.037148172597971651e+00 5.745083261779881241e+02
2.037248194602812479e+00 5.745021722738188146e+02
2.037348216607653306e+00 5.744956144465002126e+02
2.037448238612494578e+00 5.744886536652174982e+02
2.037548260617335849e+00 5.744812909079485053e+02
2.037648282622176676e+00 5.744735271614233625e+02
2.037748304627017948e+00 5.744653634210906148e+02
2.037848326631858775e+00 5.744568006910747044e+02
2.037948348636700047e+00 5.744478399841412966e+02
2.038048370641540874e+00 5.744384823216554423e+02
2.038148392646382145e+00 5.744287287335448582e+02
2.038248414651222973e+00 5.744185802582587712e+02
2.038348436656064244e+00 5.744080379427299476e+02
2.038448458660905516e+00 5.743971028423349026e+02
2.038548480665746343e+00 5.743857760208522905e+02
2.038648502670587614e+00 5.743740585504249339e+02
2.038748524675428442e+00 5.743619515115175318e+02
2.038848546680269269e+00 5.743494559928769831e+02
2.038948568685110541e+00 5.743365730914921414e+02
2.039048590689951812e+00 5.743233039125510686e+02
2.039148612694792639e+00 5.743096495694004489e+02
2.039248634699633911e+00 5.742956111835042066e+02
2.039348656704475182e+00 5.742811898844016696e+02
2.039448678709315566e+00 5.742663868096656188e+02
2.039548700714156837e+00 5.742512031048587460e+02
2.039648722718998108e+00 5.742356399234932951e+02
2.039748744723838936e+00 5.742196984269863833e+02
2.039848766728680207e+00 5.742033797846191874e+02
2.039948788733521479e+00 5.741866851734924921e+02
2.040048810738362306e+00 5.741696157784816705e+02
2.040148832743203133e+00 5.741521727921972342e+02
2.040248854748044405e+00 5.741343574149373126e+02
2.040348876752885232e+00 5.741161708546457021e+02
2.040448898757726504e+00 5.740976143268670739e+02
2.040548920762567775e+00 5.740786890547022949e+02
2.040648942767408602e+00 5.740593962687645444e+02
2.040748964772249874e+00 5.740397372071334985e+02
2.040848986777090701e+00 5.740197131153113332e+02
2.040949008781931973e+00 5.739993252461772499e+02
2.041049030786772800e+00 5.739785748599416593e+02
2.041149052791614071e+00 5.739574632241000245e+02
2.041249074796454899e+00 5.739359916133890920e+02
2.041349096801296170e+00 5.739141613097390291e+02
2.041449118806137442e+00 5.738919736022281768e+02
2.041549140810978269e+00 5.738694297870354148e+02
2.041649162815819096e+00 5.738465311673960514e+02
2.041749184820660368e+00 5.738232790535519143e+02
2.041849206825501639e+00 5.737996747627073546e+02
2.041949228830342467e+00 5.737757196189793376e+02
2.042049250835183738e+00 5.737514149533535601e+02
2.042149272840024565e+00 5.737267621036330638e+02
2.042249294844865837e+00 5.737017624143935564e+02
2.042349316849706664e+00 5.736764172369346397e+02
2.042449338854547936e+00 5.736507279292306976e+02
2.042549360859388763e+00 5.736246958558840561e+02
2.042649382864230034e+00 5.735983223880773494e+02
2.042749404869071306e+00 5.735716089035215646e+02
2.042849426873912133e+00 5.735445567864118175e+02
2.042949448878752960e+00 5.735171674273753979e+02
2.043049470883594232e+00 5.734894422234229978e+02
2.043149492888435503e+00 5.734613825779010767e+02
2.043249514893276331e+00 5.734329899004419531e+02
2.043349536898117602e+00 5.734042656069125314e+02
2.043449558902958429e+00 5.733752111193662131e+02
2.043549580907799701e+00 5.733458278659944654e+02
2.043649602912640528e+00 5.733161172810732751e+02
2.043749624917481800e+00 5.732860808049157413e+02
2.043849646922322627e+00 5.732557198838214845e+02
2.043949668927163899e+00 5.732250359700248055e+02
2.044049690932005170e+00 5.731940305216461411e+02
2.044149712936845997e+00 5.731627050026387451e+02
2.044249734941687269e+00 5.731310608827400301e+02
2.044349756946528096e+00 5.730990996374205224e+02
2.044449778951368923e+00 5.730668227478302015e+02
2.044549800956210195e+00 5.730342317007513202e+02
2.044649822961051466e+00 5.730013279885425845e+02
2.044749844965892294e+00 5.729681131090907229e+02
2.044849866970733565e+00 5.729345885657575081e+02
2.044949888975574837e+00 5.729007558673279163e+02
2.045049910980415220e+00 5.728666165279588540e+02
2.045149932985256491e+00 5.728321720671267485e+02
2.045249954990097763e+00 5.727974240095740015e+02
2.045349976994938590e+00 5.727623738852590805e+02
2.045449998999779861e+00 5.727270232293034269e+02
2.045550021004621133e+00 5.726913735819356361e+02
2.045650043009461960e+00 5.726554264884451868e+02
2.045750065014302788e+00 5.726191834991233236e+02
2.045850087019144059e+00 5.725826461692123530e+02
2.045950109023984886e+00 5.725458160588558485e+02
2.046050131028826158e+00 5.725086947330401017e+02
2.046150153033667429e+00 5.724712837615442140e+02
2.046250175038508257e+00 5.724335847188860953e+02
2.046350197043349528e+00 5.723955991842690310e+02
2.046450219048190355e+00 5.723573287415273398e+02
2.046550241053031627e+00 5.723187749790737371e+02
2.046650263057872454e+00 5.722799394898462424e+02
2.046750285062713726e+00 5.722408238712506545e+02
2.046850307067554553e+00 5.722014297251124617e+02
2.046950329072395824e+00 5.721617586576162466e+02
2.047050351077237096e+00 5.721218122792581653e+02
2.047150373082077923e+00 5.720815922047862614e+02
2.047250395086918751e+00 5.720411000531487389e+02
2.047350417091760022e+00 5.720003374474392785e+02
2.047450439096601293e+00 5.719593060148425820e+02
2.047550461101442121e+00 5.719180073865800296e+02
2.047650483106283392e+00 5.718764431978535185e+02
2.047750505111124220e+00 5.718346150877930540e+02
2.047850527115965491e+00 5.717925246994004738e+02
2.047950549120806318e+00 5.717501736794939688e+02
2.048050571125647590e+00 5.717075636786562427e+02
2.048150593130488417e+00 5.716646963511750528e+02
2.048250615135329689e+00 5.716215733549922788e+02
2.048350637140170960e+00 5.715781963516452606e+02
2.048450659145011787e+00 5.715345670062147292e+02
2.048550681149852615e+00 5.714906869872671678e+02
2.048650703154693886e+00 5.714465579668006967e+02
2.048750725159535158e+00 5.714021816201898218e+02
2.048850747164375985e+00 5.713575596261293867e+02
2.048950769169217256e+00 5.713126936665777293e+02
2.049050791174058084e+00 5.712675854267054092e+02
2.049150813178898911e+00 5.712222365948346123e+02
2.049250835183740183e+00 5.711766488623869691e+02
2.049350857188581454e+00 5.711308239238252327e+02
2.049450879193422281e+00 5.710847634766006422e+02
2.049550901198263553e+00 5.710384692210951698e+02
2.049650923203104824e+00 5.709919428605641087e+02
2.049750945207945652e+00 5.709451861010844596e+02
2.049850967212786479e+00 5.708982006514950172e+02
2.049950989217627750e+00 5.708509882233427106e+02
2.050051011222468578e+00 5.708035505308259872e+02
2.050151033227309849e+00 5.707558892907388781e+02
2.050251055232151121e+00 5.707080062224142694e+02
2.050351077236991948e+00 5.706599030476688768e+02
2.050451099241833219e+00 5.706115814907468575e+02
2.050551121246674047e+00 5.705630432782636490e+02
2.050651143251514874e+00 5.705142901391492387e+02
2.050751165256356146e+00 5.704653238045930266e+02
2.050851187261197417e+00 5.704161460079876633e+02
2.050951209266038244e+00 5.703667584848709566e+02
2.051051231270879516e+00 5.703171629728731205e+02
2.051151253275720787e+00 5.702673612116565209e+02
2.051251275280561615e+00 5.702173549428630395e+02
2.051351297285402442e+00 5.701671459100555239e+02
2.051451319290243713e+00 5.701167358586631053e+02
2.051551341295084541e+00 5.700661265359232175e+02
2.051651363299925812e+00 5.700153196908278233e+02
2.051751385304767084e+00 5.699643170740632740e+02
2.051851407309607911e+00 5.699131204379596056e+02
2.051951429314448738e+00 5.698617315364286924e+02
2.052051451319290010e+00 5.698101521249121788e+02
2.052151473324131281e+00 5.697583839603227034e+02
2.052251495328972108e+00 5.697064288009889879e+02
2.052351517333813380e+00 5.696542884065995622e+02
2.052451539338654207e+00 5.696019645381460350e+02
2.052551561343495479e+00 5.695494589578661362e+02
2.052651583348336306e+00 5.694967734291914212e+02
2.052751605353177577e+00 5.694439097166851980e+02
2.052851627358018405e+00 5.693908695859917088e+02
2.052951649362859676e+00 5.693376548037766725e+02
2.053051671367700948e+00 5.692842671376727139e+02
2.053151693372541775e+00 5.692307083562243406e+02
2.053251715377383047e+00 5.691769802288284836e+02
2.053351737382223874e+00 5.691230845256822022e+02
2.053451759387065145e+00 5.690690230177251578e+02
2.053551781391905973e+00 5.690147974765829986e+02
2.053651803396747244e+00 5.689604096745125617e+02
2.053751825401588071e+00 5.689058613843462808e+02
2.053851847406429343e+00 5.688511543794352292e+02
2.053951869411270614e+00 5.687962904335950043e+02
2.054051891416111442e+00 5.687412713210468382e+02
2.054151913420952269e+00 5.686860988163662114e+02
2.054251935425793540e+00 5.686307746944243036e+02
2.054351957430634812e+00 5.685753007303334243e+02
2.054451979435475639e+00 5.685196786993907381e+02
2.054552001440316911e+00 5.684639103770243764e+02
2.054652023445157738e+00 5.684079975387365948e+02
2.054752045449998565e+00 5.683519419600484071e+02
2.054852067454839837e+00 5.682957454164447881e+02
2.054952089459681108e+00 5.682394096833202184e+02
2.055052111464521936e+00 5.681829365359222948e+02
2.055152133469363207e+00 5.681263277492964789e+02
2.055252155474204478e+00 5.680695850982318689e+02
2.055352177479045306e+00 5.680127103572074247e+02
2.055452199483886133e+00 5.679557053003327383e+02
2.055552221488727405e+00 5.678985717012989198e+02
2.055652243493568232e+00 5.678413113333190267e+02
2.055752265498409503e+00 5.677839259690763356e+02
2.055852287503250775e+00 5.677264173806687495e+02
2.055952309508091602e+00 5.676687873395542283e+02
2.056052331512932874e+00 5.676110376164955369e+02
2.056152353517773701e+00 5.675531699815081765e+02
2.056252375522614528e+00 5.674951862038038826e+02
2.056352397527455800e+00 5.674370880517367368e+02
2.056452419532297071e+00 5.673788772927513264e+02
2.056552441537137899e+00 5.673205556933249909e+02
2.056652463541979170e+00 5.672621250189175726e+02
2.056752485546820441e+00 5.672035870339144594e+02
2.056852507551661269e+00 5.671449435015755398e+02
2.056952529556502096e+00 5.670861961839794958e+02
2.057052551561343368e+00 5.670273468419715073e+02
2.057152573566184195e+00 5.669683972351098191e+02
2.057252595571025466e+00 5.669093491216109442e+02
2.057352617575866738e+00 5.668502042582983904e+02
2.057452639580707565e+00 5.667909644005488872e+02
2.057552661585548393e+00 5.667316313022384975e+02
2.057652683590389664e+00 5.666722067156899811e+02
2.057752705595230935e+00 5.666126923916222040e+02
2.057852727600071763e+00 5.665530900790932947e+02
2.057952749604913034e+00 5.664934015254526685e+02
2.058052771609753862e+00 5.664336284762850937e+02
2.058152793614595133e+00 5.663737726753596462e+02
2.058252815619435960e+00 5.663138358645778681e+02
2.058352837624277232e+00 5.662538197839211307e+02
2.058452859629118059e+00 5.661937261713992484e+02
2.058552881633959331e+00 5.661335567629969319e+02
2.058652903638800602e+00 5.660733132926253575e+02
2.058752925643641429e+00 5.660129974920670293e+02
2.058852947648482701e+00 5.659526110909263252e+02
2.058952969653323528e+00 5.658921558165778833e+02
2.059052991658164800e+00 5.658316333941155563e+02
2.059153013663005627e+00 5.657710455463011385e+02
2.059253035667846898e+00 5.657103939935120707e+02
2.059353057672687726e+00 5.656496804536935770e+02
2.059453079677528997e+00 5.655889066423054601e+02
2.059553101682370269e+00 5.655280742722733294e+02
2.059653123687211096e+00 5.654671850539369871e+02
2.059753145692051923e+00 5.654062406950004060e+02
2.059853167696893195e+00 5.653452429004840951e+02
2.059953189701734466e+00 5.652841933726696197e+02
2.060053211706575294e+00 5.652230938110562874e+02
2.060153233711416565e+00 5.651619459123073739e+02
2.060253255716257392e+00 5.651007513702019196e+02
2.060353277721098220e+00 5.650395118755857311e+02
2.060453299725939491e+00 5.649782291163203354e+02
2.060553321730780763e+00 5.649169047772384147e+02
2.060653343735621590e+00 5.648555405400895779e+02
2.060753365740462861e+00 5.647941380834954543e+02
2.060853387745304133e+00 5.647326990828996713e+02
2.060953409750144960e+00 5.646712252105194239e+02
2.061053431754985787e+00 5.646097181352978396e+02
2.061153453759827059e+00 5.645481795228566853e+02
2.061253475764667886e+00 5.644866110354462307e+02
2.061353497769509158e+00 5.644250143318996606e+02
2.061453519774350429e+00 5.643633910675856669e+02
2.061553541779191256e+00 5.643017428943592222e+02
2.061653563784032528e+00 5.642400714605151961e+02
2.061753585788873355e+00 5.641783784107435622e+02
2.061853607793714183e+00 5.641166653860791484e+02
2.061953629798555454e+00 5.640549340238582090e+02
2.062053651803396725e+00 5.639931859576682882e+02
2.062153673808237553e+00 5.639314228173064976e+02
2.062253695813078824e+00 5.638696462287294935e+02
2.062353717817920096e+00 5.638078578140097079e+02
2.062453739822760923e+00 5.637460591912899872e+02
2.062553761827601750e+00 5.636842519747352753e+02
2.062653783832443022e+00 5.636224377744912317e+02
2.062753805837283849e+00 5.635606181966359145e+02
2.062853827842125121e+00 5.634987948431363520e+02
2.062953849846966392e+00 5.634369693118037503e+02
2.063053871851807219e+00 5.633751431962490415e+02
2.063153893856648047e+00 5.633133180858369542e+02
2.063253915861489318e+00 5.632514955656446318e+02
2.063353937866330590e+00 5.631896772164147933e+02
2.063453959871171417e+00 5.631278646145140101e+02
2.063553981876012688e+00 5.630660593318889369e+02
2.063654003880853516e+00 5.630042629360214050e+02
2.063754025885694787e+00 5.629424769898871546e+02
2.063854047890535615e+00 5.628807030519121781e+02
2.063954069895376886e+00 5.628189426759299749e+02
2.064054091900217713e+00 5.627571974111381223e+02
2.064154113905058985e+00 5.626954688020584854e+02
2.064254135909900256e+00 5.626337583884915148e+02
2.064354157914741084e+00 5.625720677054782755e+02
2.064454179919582355e+00 5.625103982832547445e+02
2.064554201924423182e+00 5.624487516472148627e+02
2.064654223929264454e+00 5.623871293178647193e+02
2.064754245934105281e+00 5.623255328107854893e+02
2.064854267938946553e+00 5.622639636365889828e+02
2.064954289943787380e+00 5.622024233008803549e+02
2.065054311948628651e+00 5.621409133042152462e+02
2.065154333953469923e+00 5.620794351420620387e+02
2.065254355958310750e+00 5.620179903047588823e+02
2.065354377963151578e+00 5.619565802774773147e+02
2.065454399967992849e+00 5.618952065401805385e+02
2.065554421972834120e+00 5.618338705675843130e+02
2.065654443977674948e+00 5.617725738291185280e+02
2.065754465982516219e+00 5.617113177888900282e+02
2.065854487987357047e+00 5.616501039056399804e+02
2.065954509992197874e+00 5.615889336327097681e+02
2.066054531997039145e+00 5.615278084180010865e+02
2.066154554001880417e+00 5.614667297039366076e+02
2.066254576006721244e+00 5.614056989274251919e+02
2.066354598011562516e+00 5.613447175198228933e+02
2.066454620016403787e+00 5.612837869068958980e+02
2.066554642021244170e+00 5.612229085087848262e+02
2.066654664026085442e+00 5.611620837399658512e+02
2.066754686030926713e+00 5.611013140092159119e+02
2.066854708035767541e+00 5.610406007195767870e+02
2.066954730040608812e+00 5.609799452683179197e+02
2.067054752045450083e+00 5.609193490469012886e+02
2.067154774050290911e+00 5.608588134409468466e+02
2.067254796055131738e+00 5.607983398301956868e+02
2.067354818059973010e+00 5.607379295884758221e+02
2.067454840064813837e+00 5.606775840836681937e+02
2.067554862069655108e+00 5.606173046776714273e+02
2.067654884074496380e+00 5.605570927263668182e+02
2.067754906079337207e+00 5.604969495795872945e+02
2.067854928084178479e+00 5.604368765810803552e+02
2.067954950089019306e+00 5.603768750684758970e+02
2.068054972093860577e+00 5.603169463732538134e+02
2.068154994098701405e+00 5.602570918207101158e+02
2.068255016103542676e+00 5.601973127299249882e+02
2.068355038108383503e+00 5.601376104137293623e+02
2.068455060113224775e+00 5.600779861786737683e+02
2.068555082118066046e+00 5.600184413249950239e+02
2.068655104122906874e+00 5.599589771465866761e+02
2.068755126127747701e+00 5.598995949309660318e+02
2.068855148132588972e+00 5.598402959592434627e+02
2.068955170137430244e+00 5.597810815060912546e+02
2.069055192142271071e+00 5.597219528397138220e+02
2.069155214147112343e+00 5.596629112218161026e+02
2.069255236151953170e+00 5.596039579075747952e+02
2.069355258156794442e+00 5.595450941456077771e+02
2.069455280161635269e+00 5.594863211779445464e+02
2.069555302166476540e+00 5.594276402399980270e+02
2.069655324171317368e+00 5.593690525605329640e+02
2.069755346176158639e+00 5.593105593616413671e+02
2.069855368180999911e+00 5.592521618587088597e+02
2.069955390185840738e+00 5.591938612603908041e+02
2.070055412190681565e+00 5.591356587685828572e+02
2.070155434195522837e+00 5.590775555783922073e+02
2.070255456200364108e+00 5.590195528781127905e+02
2.070355478205204935e+00 5.589616518491949364e+02
2.070455500210046207e+00 5.589038536662205843e+02
2.070555522214887034e+00 5.588461594968771351e+02
2.070655544219728306e+00 5.587885705019294846e+02
2.070755566224569133e+00 5.587310878351960355e+02
2.070855588229410404e+00 5.586737126435192522e+02
2.070955610234251232e+00 5.586164460667463345e+02
2.071055632239092503e+00 5.585592892376970440e+02
2.071155654243933775e+00 5.585022432821441498e+02
2.071255676248774602e+00 5.584453093187870536e+02
2.071355698253615873e+00 5.583884884592262097e+02
2.071455720258456701e+00 5.583317818079399331e+02
2.071555742263297528e+00 5.582751904622627990e+02
2.071655764268138800e+00 5.582187155123576758e+02
2.071755786272980071e+00 5.581623580411960575e+02
2.071855808277820898e+00 5.581061191245344162e+02
2.071955830282662170e+00 5.580499998308901013e+02
2.072055852287503441e+00 5.579940012215206480e+02
2.072155874292343825e+00 5.579381243504017220e+02
2.072255896297185096e+00 5.578823702642039279e+02
2.072355918302026367e+00 5.578267400022715492e+02
2.072455940306867195e+00 5.577712345966025396e+02
2.072555962311708466e+00 5.577158550718266952e+02
2.072655984316549738e+00 5.576606024451854182e+02
2.072756006321390565e+00 5.576054777265103439e+02
2.072856028326231392e+00 5.575504819182042411e+02
2.072956050331072664e+00 5.574956160152212306e+02
2.073056072335913491e+00 5.574408810050472312e+02
2.073156094340754763e+00 5.573862778676794960e+02
2.073256116345596034e+00 5.573318075756100143e+02
2.073356138350436861e+00 5.572774710938040243e+02
2.073456160355278133e+00 5.572232693796846661e+02
2.073556182360118960e+00 5.571692033831127446e+02
2.073656204364960232e+00 5.571152740463694499e+02
2.073756226369801059e+00 5.570614823041394175e+02
2.073856248374642330e+00 5.570078290834936752e+02
2.073956270379483158e+00 5.569543153038714536e+02
2.074056292384324429e+00 5.569009418770638149e+02
2.074156314389165701e+00 5.568477097072000106e+02
2.074256336394006528e+00 5.567946196907282683e+02
2.074356358398847355e+00 5.567416727164002168e+02
2.074456380403688627e+00 5.566888696652580393e+02
2.074556402408529898e+00 5.566362114106173067e+02
2.074656424413370726e+00 5.565836988180517437e+02
2.074756446418211997e+00 5.565313327453807233e+02
2.074856468423052824e+00 5.564791140426524407e+02
2.074956490427894096e+00 5.564270435521319769e+02
2.075056512432734923e+00 5.563751221082874281e+02
2.075156534437576195e+00 5.563233505377745587e+02
2.075256556442417022e+00 5.562717296594274785e+02
2.075356578447258293e+00 5.562202602842414763e+02
2.075456600452099565e+00 5.561689432153629014e+02
2.075556622456940392e+00 5.561177792480780226e+02
2.075656644461781219e+00 5.560667691697991586e+02
2.075756666466622491e+00 5.560159137600528538e+02
2.075856688471463762e+00 5.559652137904706706e+02
2.075956710476304590e+00 5.559146700247761146e+02
2.076056732481145861e+00 5.558642832187757676e+02
2.076156754485986689e+00 5.558140541203462135e+02
2.076256776490827960e+00 5.557639834694273304e+02
2.076356798495668787e+00 5.557140719980101267e+02
2.076456820500510059e+00 5.556643204301270771e+02
2.076556842505350886e+00 5.556147294818446198e+02
2.076656864510192158e+00 5.555652998612521287e+02
2.076756886515033429e+00 5.555160322684555467e+02
2.076856908519874256e+00 5.554669273955668132e+02
2.076956930524715528e+00 5.554179859266973835e+02
2.077056952529556355e+00 5.553692085379506125e+02
2.077156974534397182e+00 5.553205958974114083e+02
2.077256996539238454e+00 5.552721486651437317e+02
2.077357018544079725e+00 5.552238674931805917e+02
2.077457040548920553e+00 5.551757530255171105e+02
2.077557062553761824e+00 5.551278058981067716e+02
2.077657084558603096e+00 5.550800267388531211e+02
2.077757106563443479e+00 5.550324161676052199e+02
2.077857128568284750e+00 5.549849747961521871e+02
2.077957150573126022e+00 5.549377032282169466e+02
2.078057172577966849e+00 5.548906020594550910e+02
2.078157194582808120e+00 5.548436718774441943e+02
2.078257216587649392e+00 5.547969132616858587e+02
2.078357238592490219e+00 5.547503267835971883e+02
2.078457260597331047e+00 5.547039130065112431e+02
2.078557282602172318e+00 5.546576724856691953e+02
2.078657304607013145e+00 5.546116057682215796e+02
2.078757326611854417e+00 5.545657133932227225e+02
2.078857348616695688e+00 5.545199958916294918e+02
2.078957370621536516e+00 5.544744537862989091e+02
2.079057392626377787e+00 5.544290875919868995e+02
2.079157414631218614e+00 5.543838978153447670e+02
2.079257436636059886e+00 5.543388849549204451e+02
2.079357458640900713e+00 5.542940495011564508e+02
2.079457480645741985e+00 5.542493919363890882e+02
2.079557502650582812e+00 5.542049127348481079e+02
2.079657524655424083e+00 5.541606123626568206e+02
2.079757546660265355e+00 5.541164912778306189e+02
2.079857568665106182e+00 5.540725499302820936e+02
2.079957590669947010e+00 5.540287887618167133e+02
2.080057612674788281e+00 5.539852082061361216e+02
2.080157634679629552e+00 5.539418086888393873e+02
2.080257656684470380e+00 5.538985906274256195e+02
2.080357678689311651e+00 5.538555544312936263e+02
2.080457700694152479e+00 5.538127005017457805e+02
2.080557722698993750e+00 5.537700292319907476e+02
2.080657744703834577e+00 5.537275410071459874e+02
2.080757766708675849e+00 5.536852362042391178e+02
2.080857788713516676e+00 5.536431151922147365e+02
2.080957810718357948e+00 5.536011783319347614e+02
2.081057832723199219e+00 5.535594259761846843e+02
2.081157854728040046e+00 5.535178584696769803e+02
2.081257876732880874e+00 5.534764761490552019e+02
2.081357898737722145e+00 5.534352793429006852e+02
2.081457920742563417e+00 5.533942683717324371e+02
2.081557942747404244e+00 5.533534435480210050e+02
2.081657964752245515e+00 5.533128051761875668e+02
2.081757986757086343e+00 5.532723535526107526e+02
2.081858008761927614e+00 5.532320889656364216e+02
2.081958030766768442e+00 5.531920116955787989e+02
2.082058052771609713e+00 5.531521220147332087e+02
2.082158074776450540e+00 5.531124201873776656e+02
2.082258096781291812e+00 5.530729064697842432e+02
2.082358118786133083e+00 5.530335811102249863e+02
2.082458140790973911e+00 5.529944443489798687e+02
2.082558162795815182e+00 5.529554964183453194e+02
2.082658184800656009e+00 5.529167375426434319e+02
2.082758206805496837e+00 5.528781679382286711e+02
2.082858228810338108e+00 5.528397878134987877e+02
2.082958250815179380e+00 5.528015973689044813e+02
2.083058272820020207e+00 5.527635967969569037e+02
2.083158294824861478e+00 5.527257862822384595e+02
2.083258316829702750e+00 5.526881660014147428e+02
2.083358338834543133e+00 5.526507361232427229e+02
2.083458360839384405e+00 5.526134968085812034e+02
2.083558382844225676e+00 5.525764482104043509e+02
2.083658404849066503e+00 5.525395904738105628e+02
2.083758426853907775e+00 5.525029237360342904e+02
2.083858448858749046e+00 5.524664481264589995e+02
2.083958470863589874e+00 5.524301637666287661e+02
2.084058492868430701e+00 5.523940707702603277e+02
2.084158514873271972e+00 5.523581692432544514e+02
2.084258536878112800e+00 5.523224592837116234e+02
2.084358558882954071e+00 5.522869409819429620e+02
2.084458580887795343e+00 5.522516144204843158e+02
2.084558602892636170e+00 5.522164796741095643e+02
2.084658624897476997e+00 5.521815368098458521e+02
2.084758646902318269e+00 5.521467858869856400e+02
2.084858668907159540e+00 5.521122269571028482e+02
2.084958690912000367e+00 5.520778600640667264e+02
2.085058712916841639e+00 5.520436852440577695e+02
2.085158734921682466e+00 5.520097025255819290e+02
2.085258756926523738e+00 5.519759119294856191e+02
2.085358778931364565e+00 5.519423134689741346e+02
2.085458800936205837e+00 5.519089071496243832e+02
2.085558822941046664e+00 5.518756929694034170e+02
2.085658844945887935e+00 5.518426709186837797e+02
2.085758866950729207e+00 5.518098409802604465e+02
2.085858888955570034e+00 5.517772031293684449e+02
2.085958910960411306e+00 5.517447573337004769e+02
2.086058932965252133e+00 5.517125035534224935e+02
2.086158954970093404e+00 5.516804417411930217e+02
2.086258976974934232e+00 5.516485718421815818e+02
2.086358998979775503e+00 5.516168937940864225e+02
2.086459020984616330e+00 5.515854075271518013e+02
2.086559042989457602e+00 5.515541129641890166e+02
2.086659064994298873e+00 5.515230100205940289e+02
2.086759086999139701e+00 5.514920986043673565e+02
2.086859109003980528e+00 5.514613786161326061e+02
2.086959131008821799e+00 5.514308499491573912e+02
2.087059153013663071e+00 5.514005124893733409e+02
2.087159175018503898e+00 5.513703661153954272e+02
2.087259197023345170e+00 5.513404106985427688e+02
2.087359219028185997e+00 5.513106461028598915e+02
2.087459241033026824e+00 5.512810721851378730e+02
2.087559263037868096e+00 5.512516887949336706e+02
2.087659285042709367e+00 5.512224957745946767e+02
2.087759307047550195e+00 5.511934929592764547e+02
2.087859329052391466e+00 5.511646801769690001e+02
2.087959351057232738e+00 5.511360572485160674e+02
2.088059373062073565e+00 5.511076239876380214e+02
2.088159395066914392e+00 5.510793802009538922e+02
2.088259417071755664e+00 5.510513256880060453e+02
2.088359439076596491e+00 5.510234602412824643e+02
2.088459461081437762e+00 5.509957836462385785e+02
2.088559483086279034e+00 5.509682956813235251e+02
2.088659505091119861e+00 5.509409961180011805e+02
2.088759527095961133e+00 5.509138847207744902e+02
2.088859549100801960e+00 5.508869612472135486e+02
2.088959571105642787e+00 5.508602254479739031e+02
2.089059593110484059e+00 5.508336770668254303e+02
2.089159615115325330e+00 5.508073158406768925e+02
2.089259637120166158e+00 5.507811414995985615e+02
2.089359659125007429e+00 5.507551537668498440e+02
2.089459681129848700e+00 5.507293523589050892e+02
2.089559703134689528e+00 5.507037369854764393e+02
2.089659725139530355e+00 5.506783073495423650e+02
2.089759747144371627e+00 5.506530631473741551e+02
2.089859769149212454e+00 5.506280040685595623e+02
2.089959791154053725e+00 5.506031297960322490e+02
2.090059813158894997e+00 5.505784400060960024e+02
2.090159835163735824e+00 5.505539343684547475e+02
2.090259857168576652e+00 5.505296125462380132e+02
2.090359879173417923e+00 5.505054741960259435e+02
2.090459901178259194e+00 5.504815189678829483e+02
2.090559923183100022e+00 5.504577465053790775e+02
2.090659945187941293e+00 5.504341564456223068e+02
2.090759967192782121e+00 5.504107484192846869e+02
2.090859989197623392e+00 5.503875220506323558e+02
2.090960011202464219e+00 5.503644769575522560e+02
2.091060033207305491e+00 5.503416127515827156e+02
2.091160055212146318e+00 5.503189290379401655e+02
2.091260077216987590e+00 5.502964254155514254e+02
2.091360099221828861e+00 5.502741014770815582e+02
2.091460121226669688e+00 5.502519568089614950e+02
2.091560143231510960e+00 5.502299909914212321e+02
2.091660165236351787e+00 5.502082035985176844e+02
2.091760187241193059e+00 5.501865941981657215e+02
2.091860209246033886e+00 5.501651623521681813e+02
2.091960231250875157e+00 5.501439076162449737e+02
2.092060253255715985e+00 5.501228295400675279e+02
2.092160275260557256e+00 5.501019276672852811e+02
2.092260297265398528e+00 5.500812015355591029e+02
2.092360319270239355e+00 5.500606506765933545e+02
2.092460341275080182e+00 5.500402746161649929e+02
2.092560363279921454e+00 5.500200728741563125e+02
2.092660385284762725e+00 5.500000449645866638e+02
2.092760407289603553e+00 5.499801903956453089e+02
2.092860429294444824e+00 5.499605086697217757e+02
2.092960451299285651e+00 5.499409992834390550e+02
2.093060473304126479e+00 5.499216617276862280e+02
2.093160495308967750e+00 5.499024954876510947e+02
2.093260517313809022e+00 5.498835000428521198e+02
2.093360539318649849e+00 5.498646748671721980e+02
2.093460561323491120e+00 5.498460194288912817e+02
2.093560583328332392e+00 5.498275331907209420e+02
2.093660605333173219e+00 5.498092156098346095e+02
2.093760627338014046e+00 5.497910661379063413e+02
2.093860649342855318e+00 5.497730842211383333e+02
2.093960671347696145e+00 5.497552693003007107e+02
2.094060693352537417e+00 5.497376208107613138e+02
2.094160715357378688e+00 5.497201381825218505e+02
2.094260737362219515e+00 5.497028208402522296e+02
2.094360759367060787e+00 5.496856682033244397e+02
2.094460781371901614e+00 5.496686796858483604e+02
2.094560803376742442e+00 5.496518546967042766e+02
2.094660825381583713e+00 5.496351926395801684e+02
2.094760847386424985e+00 5.496186929130057024e+02
2.094860869391265812e+00 5.496023549103883852e+02
2.094960891396107083e+00 5.495861780200474414e+02
2.095060913400948355e+00 5.495701616252507620e+02
2.095160935405789182e+00 5.495543051042491243e+02
2.095260957410630009e+00 5.495386078303139357e+02
2.095360979415471281e+00 5.495230691717714535e+02
2.095461001420312108e+00 5.495076884920397333e+02
2.095561023425153380e+00 5.494924651496639854e+02
2.095661045429994651e+00 5.494773984983532955e+02
2.095761067434835478e+00 5.494624878870189377e+02
2.095861089439676306e+00 5.494477326598076843e+02
2.095961111444517577e+00 5.494331321561406867e+02
2.096061133449358849e+00 5.494186857107504238e+02
2.096161155454199676e+00 5.494043926537144671e+02
2.096261177459040947e+00 5.493902523104983402e+02
2.096361199463881775e+00 5.493762640019868968e+02
2.096461221468723046e+00 5.493624270445259299e+02
2.096561243473563874e+00 5.493487407499570736e+02
2.096661265478405145e+00 5.493352044256557747e+02
2.096761287483245972e+00 5.493218173745697186e+02
2.096861309488087244e+00 5.493085788952573694e+02
2.096961331492928515e+00 5.492954882819213935e+02
2.097061353497769343e+00 5.492825448244539075e+02
2.097161375502610614e+00 5.492697478084679688e+02
2.097261397507451441e+00 5.492570965153391853e+02
2.097361419512292713e+00 5.492445902222439145e+02
2.097461441517133540e+00 5.492322282021951878e+02
2.097561463521974812e+00 5.492200097240850027e+02
2.097661485526815639e+00 5.492079340527205886e+02
2.097761507531656910e+00 5.491960004488623781e+02
2.097861529536498182e+00 5.491842081692645934e+02
2.097961551541339009e+00 5.491725564667145818e+02
2.098061573546179837e+00 5.491610445900688546e+02
2.098161595551021108e+00 5.491496717842950375e+02
2.098261617555862379e+00 5.491384372905101827e+02
2.098361639560703207e+00 5.491273403460188547e+02
2.098461661565544478e+00 5.491163801843551937e+02
2.098561683570385306e+00 5.491055560353185001e+02
2.098661705575226133e+00 5.490948671250168900e+02
2.098761727580067404e+00 5.490843126759039023e+02
2.098861749584908676e+00 5.490738919068193127e+02
2.098961771589749503e+00 5.490636040330283549e+02
2.099061793594590775e+00 5.490534482662627624e+02
2.099161815599432046e+00 5.490434238147590804e+02
2.099261837604272873e+00 5.490335298832999342e+02
2.099361859609113701e+00 5.490237656732531377e+02
2.099461881613954972e+00 5.490141303826123931e+02
2.099561903618795800e+00 5.490046232060376497e+02
2.099661925623637071e+00 5.489952433348936438e+02
2.099761947628478342e+00 5.489859899572938957e+02
2.099861969633319170e+00 5.489768622581370892e+02
2.099961991638160441e+00 5.489678594191491356e+02
2.100062013643001269e+00 5.489589806189244428e+02
2.100162035647842096e+00 5.489502250329659319e+02
2.100262057652683367e+00 5.489415918337249423e+02
2.100362079657524639e+00 5.489330801906427268e+02
2.100462101662365466e+00 5.489246892701905836e+02
2.100562123667206738e+00 5.489164182359113511e+02
2.100662145672048009e+00 5.489082662484603361e+02
2.100762167676888836e+00 5.489002324656451037e+02
2.100862189681729664e+00 5.488923160424670868e+02
2.100962211686570935e+00 5.488845161311616039e+02
2.101062233691411762e+00 5.488768318812416283e+02
2.101162255696253034e+00 5.488692624395361008e+02
2.101262277701094305e+00 5.488618069502319941e+02
2.101362299705935133e+00 5.488544645549147845e+02
2.101462321710775960e+00 5.488472343926116537e+02
2.101562343715617232e+00 5.488401155998290051e+02
2.101662365720458503e+00 5.488331073105985070e+02
2.101762387725299330e+00 5.488262086565140407e+02
2.101862409730140602e+00 5.488194187667755841e+02
2.101962431734981429e+00 5.488127367682295699e+02
2.102062453739822701e+00 5.488061617854104952e+02
2.102162475744663528e+00 5.487996929405819628e+02
2.102262497749504799e+00 5.487933293537797681e+02
2.102362519754345627e+00 5.487870701428494158e+02
2.102462541759186898e+00 5.487809144234929590e+02
2.102562563764028170e+00 5.487748613093050380e+02
2.102662585768868997e+00 5.487689099118188096e+02
2.102762607773709824e+00 5.487630593405453965e+02
2.102862629778551096e+00 5.487573087030149281e+02
2.102962651783392367e+00 5.487516571048192873e+02
2.103062673788233194e+00 5.487461036496526958e+02
2.103162695793074466e+00 5.487406474393551434e+02
2.103262717797915293e+00 5.487352875739503588e+02
2.103362739802756565e+00 5.487300231516917393e+02
2.103462761807597392e+00 5.487248532691000946e+02
2.103562783812438663e+00 5.487197770210082126e+02
2.103662805817279491e+00 5.487147935005998534e+02
2.103762827822120762e+00 5.487099017994542010e+02
2.103862849826962034e+00 5.487051010075836075e+02
2.103962871831802861e+00 5.487003902134802047e+02
2.104062893836644133e+00 5.486957685041518289e+02
2.104162915841484960e+00 5.486912349651689738e+02
2.104262937846325787e+00 5.486867886807023069e+02
2.104362959851167059e+00 5.486824287335654162e+02
2.104462981856008330e+00 5.486781542052575560e+02
2.104563003860849157e+00 5.486739641760044606e+02
2.104663025865690429e+00 5.486698577247987032e+02
2.104763047870531700e+00 5.486658339294424422e+02
2.104863069875372084e+00 5.486618918665890305e+02
2.104963091880213355e+00 5.486580306117834880e+02
2.105063113885054626e+00 5.486542492395042245e+02
2.105163135889895454e+00 5.486505468232054454e+02
2.105263157894736725e+00 5.486469224353569416e+02
2.105363179899577997e+00 5.486433751474872906e+02
2.105463201904418824e+00 5.486399040302229650e+02
2.105563223909259651e+00 5.486365081533310786e+02
2.105663245914100923e+00 5.486331865857613366e+02
2.105763267918941750e+00 5.486299383956854854e+02
2.105863289923783022e+00 5.486267626505392627e+02
2.105963311928624293e+00 5.486236584170635524e+02
2.106063333933465120e+00 5.486206247613465621e+02
2.106163355938306392e+00 5.486176607488630452e+02
2.106263377943147219e+00 5.486147654445162516e+02
2.106363399947988491e+00 5.486119379126797639e+02
2.106463421952829318e+00 5.486091772172366063e+02
2.106563443957670589e+00 5.486064824216216493e+02
2.106663465962511417e+00 5.486038525888629920e+02
2.106763487967352688e+00 5.486012867816195921e+02
2.106863509972193960e+00 5.485987840622265139e+02
2.106963531977034787e+00 5.485963434927316484e+02
2.107063553981875614e+00 5.485939641349390286e+02
2.107163575986716886e+00 5.485916450504494151e+02
2.107263597991558157e+00 5.485893853006978134e+02
2.107363619996398985e+00 5.485871839469980387e+02
2.107463642001240256e+00 5.485850400505809148e+02
2.107563664006081083e+00 5.485829526726336098e+02
2.107663686010922355e+00 5.485809208743428371e+02
2.107763708015763182e+00 5.485789437169337361e+02
2.107863730020604454e+00 5.485770202617082987e+02
2.107963752025445281e+00 5.485751495700900477e+02
2.108063774030286552e+00 5.485733307036581436e+02
2.108163796035127824e+00 5.485715627241916081e+02
2.108263818039968651e+00 5.485698446937093422e+02
2.108363840044809479e+00 5.485681756745061648e+02
2.108463862049650750e+00 5.485665547291970370e+02
2.108563884054492021e+00 5.485649809207541239e+02
2.108663906059332849e+00 5.485634533125478356e+02
2.108763928064174120e+00 5.485619709683837755e+02
2.108863950069014948e+00 5.485605329525460547e+02
2.108963972073856219e+00 5.485591383298337860e+02
2.109063994078697046e+00 5.485577861656018968e+02
2.109164016083538318e+00 5.485564755257981915e+02
2.109264038088379145e+00 5.485552054770049608e+02
2.109364060093220417e+00 5.485539750864782036e+02
2.109464082098061688e+00 5.485527834221825287e+02
2.109564104102902515e+00 5.485516295528361752e+02
2.109664126107743787e+00 5.485505125479439812e+02
2.109764148112584614e+00 5.485494314778399030e+02
2.109864170117425441e+00 5.485483854137232811e+02
2.109964192122266713e+00 5.485473734276999949e+02
2.110064214127107984e+00 5.485463945928165685e+02
2.110164236131948812e+00 5.485454479831030312e+02
2.110264258136790083e+00 5.485445326736091829e+02
2.110364280141631355e+00 5.485436477404409743e+02
2.110464302146471738e+00 5.485427922608014342e+02
2.110564324151313009e+00 5.485419653130265942e+02
2.110664346156154281e+00 5.485411659766249386e+02
2.110764368160995108e+00 5.485403933323127603e+02
2.110864390165836380e+00 5.485396464620530423e+02
2.110964412170677651e+00 5.485389244490935425e+02
2.111064434175518478e+00 5.485382263780030598e+02
2.111164456180359306e+00 5.485375513347086098e+02
2.111264478185200577e+00 5.485368984065340783e+02
2.111364500190041404e+00 5.485362666822347819e+02
2.111464522194882676e+00 5.485356552520358946e+02
2.111564544199723947e+00 5.485350632076695092e+02
2.111664566204564775e+00 5.485344896424105627e+02
2.111764588209406046e+00 5.485339336511121928e+02
2.111864610214246873e+00 5.485333943302460966e+02
2.111964632219088145e+00 5.485328707779332262e+02
2.112064654223928972e+00 5.485323620939844886e+02
2.112164676228770244e+00 5.485318673799349654e+02
2.112264698233611071e+00 5.485313857390788144e+02
2.112364720238452342e+00 5.485309162765082647e+02
2.112464742243293614e+00 5.485304580991447665e+02
2.112564764248134441e+00 5.485300103157788953e+02
2.112664786252975269e+00 5.485295720371027528e+02
2.112764808257816540e+00 5.485291423757458915e+02
2.112864830262657811e+00 5.485287204463114676e+02
2.112964852267498639e+00 5.485283053654093237e+02
2.113064874272339910e+00 5.485278962516933916e+02
2.113164896277180738e+00 5.485274922258939796e+02
2.113264918282022009e+00 5.485270924108529016e+02
2.113364940286862836e+00 5.485266959315592885e+02
2.113464962291704108e+00 5.485263019151819890e+02
2.113564984296544935e+00 5.485259094911045850e+02
2.113665006301386207e+00 5.485255177909598387e+02
2.113765028306227478e+00 5.485251259486623212e+02
2.113865050311068305e+00 5.485247331004439957e+02
2.113965072315909133e+00 5.485243383848843450e+02
2.114065094320750404e+00 5.485239409429476609e+02
2.114165116325591676e+00 5.485235399180144213e+02
2.114265138330432503e+00 5.485231344559133504e+02
2.114365160335273774e+00 5.485227237049573432e+02
2.114465182340114602e+00 5.485223068159724562e+02
2.114565204344955873e+00 5.485218829423344005e+02
2.114665226349796701e+00 5.485214512399973046e+02
2.114765248354637972e+00 5.485210108675287302e+02
2.114865270359478799e+00 5.485205609861411631e+02
2.114965292364320071e+00 5.485201007597231637e+02
2.115065314369161342e+00 5.485196293548725635e+02
2.115165336374002170e+00 5.485191459409261370e+02
2.115265358378843441e+00 5.485186496899929125e+02
2.115365380383684268e+00 5.485181397769861178e+02
2.115465402388525096e+00 5.485176153796509197e+02
2.115565424393366367e+00 5.485170756785993262e+02
2.115665446398207639e+00 5.485165198573390626e+02
2.115765468403048466e+00 5.485159471023040396e+02
2.115865490407889737e+00 5.485153566028861860e+02
2.115965512412731009e+00 5.485147475514644384e+02
2.116065534417571392e+00 5.485141191434354369e+02
2.116165556422412664e+00 5.485134705772439929e+02
2.116265578427253935e+00 5.485128010544116250e+02
2.116365600432094762e+00 5.485121097795680498e+02
2.116465622436936034e+00 5.485113959604792626e+02
2.116565644441777305e+00 5.485106588080763004e+02
2.116665666446618133e+00 5.485098975364866192e+02
2.116765688451458960e+00 5.485091113630610380e+02
2.116865710456300231e+00 5.485082995084028425e+02
2.116965732461141059e+00 5.485074611963974576e+02
2.117065754465982330e+00 5.485065956542391632e+02
2.117165776470823602e+00 5.485057021124595167e+02
2.117265798475664429e+00 5.485047798049583889e+02
2.117365820480505700e+00 5.485038279690272702e+02
2.117465842485346528e+00 5.485028458453798521e+02
2.117565864490187799e+00 5.485018326781794258e+02
2.117665886495028627e+00 5.485007877150638933e+02
2.117765908499869898e+00 5.484997102071761219e+02
2.117865930504710725e+00 5.484985994091878183e+02
2.117965952509551997e+00 5.484974545793287461e+02
2.118065974514393268e+00 5.484962749794121919e+02
2.118165996519234096e+00 5.484950598748599759e+02
2.118266018524074923e+00 5.484938085347313290e+02
2.118366040528916194e+00 5.484925202317458570e+02
2.118466062533757466e+00 5.484911942423120763e+02
2.118566084538598293e+00 5.484898298465521975e+02
2.118666106543439565e+00 5.484884263283249766e+02
2.118766128548280392e+00 5.484869829752550459e+02
2.118866150553121663e+00 5.484854990787542874e+02
2.118966172557962491e+00 5.484839739340494589e+02
2.119066194562803762e+00 5.484824068402048169e+02
2.119166216567644589e+00 5.484807971001470150e+02
2.119266238572485861e+00 5.484791440206890911e+02
2.119366260577327132e+00 5.484774469125550240e+02
2.119466282582167960e+00 5.484757050904040625e+02
2.119566304587008787e+00 5.484739178728523257e+02
2.119666326591850058e+00 5.484720845824980415e+02
2.119766348596691330e+00 5.484702045459430337e+02
2.119866370601532157e+00 5.484682770938180738e+02
2.119966392606373429e+00 5.484663015608034584e+02
2.120066414611214256e+00 5.484642772856518604e+02
2.120166436616055083e+00 5.484622036112118622e+02
2.120266458620896355e+00 5.484600798844497831e+02
2.120366480625737626e+00 5.484579054564694616e+02
2.120466502630578454e+00 5.484556796825376068e+02
2.120566524635419725e+00 5.484534019221023300e+02
2.120666546640260997e+00 5.484510715388161088e+02
2.120766568645101824e+00 5.484486879005557967e+02
2.120866590649942651e+00 5.484462503794447912e+02
2.120966612654783923e+00 5.484437583518715655e+02
2.121066634659624750e+00 5.484412111985133151e+02
2.121166656664466021e+00 5.484386083043527833e+02
2.121266678669307293e+00 5.484359490587009986e+02
2.121366700674148120e+00 5.484332328552153513e+02
2.121466722678989392e+00 5.484304590919196016e+02
2.121566744683830219e+00 5.484276271712245716e+02
2.121666766688671046e+00 5.484247364999453112e+02
2.121766788693512318e+00 5.484217864893213346e+02
2.121866810698353589e+00 5.484187765550343556e+02
2.121966832703194417e+00 5.484157061172282965e+02
2.122066854708035688e+00 5.484125746005272504e+02
2.122166876712876959e+00 5.484093814340511699e+02
2.122266898717717787e+00 5.484061260514374680e+02
2.122366920722558614e+00 5.484028078908550015e+02
2.122466942727399886e+00 5.483994263950255572e+02
2.122566964732240713e+00 5.483959810112369269e+02
2.122666986737081984e+00 5.483924711913631427e+02
2.122767008741923256e+00 5.483888963918789159e+02
2.122867030746764083e+00 5.483852560738768034e+02
2.122967052751604911e+00 5.483815497030850565e+02
2.123067074756446182e+00 5.483777767498825142e+02
2.123167096761287453e+00 5.483739366893128135e+02
2.123267118766128281e+00 5.483700290011036032e+02
2.123367140770969552e+00 5.483660531696784801e+02
2.123467162775810380e+00 5.483620086841756347e+02
2.123567184780651651e+00 5.483578950384588779e+02
2.123667206785492478e+00 5.483537117311360589e+02
2.123767228790333750e+00 5.483494582655715703e+02
2.123867250795174577e+00 5.483451341499005594e+02
2.123967272800015849e+00 5.483407388970441616e+02
2.124067294804857120e+00 5.483362720247233710e+02
2.124167316809697947e+00 5.483317330554696127e+02
2.124267338814539219e+00 5.483271215166437287e+02
2.124367360819380046e+00 5.483224369404429126e+02
2.124467382824221318e+00 5.483176788639196957e+02
2.124567404829062145e+00 5.483128468289892226e+02
2.124667426833903416e+00 5.483079403824448264e+02
2.124767448838744244e+00 5.483029590759704206e+02
2.124867470843585515e+00 5.482979024661509584e+02
2.124967492848426787e+00 5.482927701144853927e+02
2.125067514853267614e+00 5.482875615873973629e+02
2.125167536858108441e+00 5.482822764562475868e+02
2.125267558862949713e+00 5.482769142973444332e+02
2.125367580867790984e+00 5.482714746919542677e+02
2.125467602872631812e+00 5.482659572263136170e+02
2.125567624877473083e+00 5.482603614916365586e+02
2.125667646882313910e+00 5.482546870841292730e+02
2.125767668887154738e+00 5.482489336049965232e+02
2.125867690891996009e+00 5.482431006604526829e+02
2.125967712896837281e+00 5.482371878617309449e+02
2.126067734901678108e+00 5.482311948250926434e+02
2.126167756906519379e+00 5.482251211718373725e+02
2.126267778911360651e+00 5.482189665283094655e+02
2.126367800916201478e+00 5.482127305259084551e+02
2.126467822921042305e+00 5.482064128010971444e+02
2.126567844925883577e+00 5.482000129954088834e+02
2.126667866930724404e+00 5.481935307554567771e+02
2.126767888935565676e+00 5.481869657329398251e+02
2.126867910940406947e+00 5.481803175846511067e+02
2.126967932945247775e+00 5.481735859724852844e+02
2.127067954950089046e+00 5.481667705634445156e+02
2.127167976954929873e+00 5.481598710296472063e+02
2.127267998959770701e+00 5.481528870483315359e+02
2.127368020964611972e+00 5.481458183018651198e+02
2.127468042969453244e+00 5.481386644777470565e+02
2.127568064974294071e+00 5.481314252686180453e+02
2.127668086979135342e+00 5.481241003722620917e+02
2.127768108983976614e+00 5.481166894916149204e+02
2.127868130988817441e+00 5.481091923347667034e+02
2.127968152993658268e+00 5.481016086149681996e+02
2.128068174998499540e+00 5.480939380506356429e+02
2.128168197003340367e+00 5.480861803653542665e+02
2.128268219008181639e+00 5.480783352878819414e+02
2.128368241013022910e+00 5.480704025521562244e+02
2.128468263017863737e+00 5.480623818972929939e+02
2.128568285022704565e+00 5.480542730675953180e+02
2.128668307027545836e+00 5.480460758125523171e+02
2.128768329032387108e+00 5.480377898868455304e+02
2.128868351037227935e+00 5.480294150503489163e+02
2.128968373042069206e+00 5.480209510681338543e+02
2.129068395046910034e+00 5.480123977104692585e+02
2.129168417051751305e+00 5.480037547528249888e+02
2.129268439056592133e+00 5.479950219758737830e+02
2.129368461061433404e+00 5.479861991654920530e+02
2.129468483066274231e+00 5.479772861127623855e+02
2.129568505071115503e+00 5.479682826139736562e+02
2.129668527075956774e+00 5.479591884706227347e+02
2.129768549080797602e+00 5.479500034894144846e+02
2.129868571085638873e+00 5.479407274822622185e+02
2.129968593090479700e+00 5.479313602662903122e+02
2.130068615095320972e+00 5.479219016638293169e+02
2.130168637100161799e+00 5.479123515024218705e+02
2.130268659105003071e+00 5.479027096148165583e+02
2.130368681109843898e+00 5.478929758389715516e+02
2.130468703114685169e+00 5.478831500180509693e+02
2.130568725119526441e+00 5.478732320004255598e+02
2.130668747124367268e+00 5.478632216396695185e+02
2.130768769129208096e+00 5.478531187945613965e+02
2.130868791134049367e+00 5.478429233290798948e+02
2.130968813138890638e+00 5.478326351124030680e+02
2.131068835143731466e+00 5.478222540189055962e+02
2.131168857148572737e+00 5.478117799281575344e+02
2.131268879153413565e+00 5.478012127249196510e+02
2.131368901158254392e+00 5.477905522991420639e+02
2.131468923163095663e+00 5.477797985459602614e+02
2.131568945167936935e+00 5.477689513656915778e+02
2.131668967172777762e+00 5.477580106638338293e+02
2.131768989177619034e+00 5.477469763510579241e+02
2.131869011182460305e+00 5.477358483432055891e+02
2.131969033187301132e+00 5.477246265612867546e+02
2.132069055192141960e+00 5.477133109314717103e+02
2.132169077196983231e+00 5.477019013850890587e+02
2.132269099201824059e+00 5.476903978586190078e+02
2.132369121206665330e+00 5.476788002936904149e+02
2.132469143211506601e+00 5.476671086370729427e+02
2.132569165216347429e+00 5.476553228406730796e+02
2.132669187221188700e+00 5.476434428615282286e+02
2.132769209226029528e+00 5.476314686617988627e+02
2.132869231230870355e+00 5.476194002087655690e+02
2.132969253235711626e+00 5.476072374748193852e+02
2.133069275240552898e+00 5.475949804374577070e+02
2.133169297245393725e+00 5.475826290792747386e+02
2.133269319250234997e+00 5.475701833879567175e+02
2.133369341255076268e+00 5.475576433562737293e+02
2.133469363259917095e+00 5.475450089820714084e+02
2.133569385264757923e+00 5.475322802682645715e+02
2.133669407269599194e+00 5.475194572228284642e+02
2.133769429274440022e+00 5.475065398587901200e+02
2.133869451279281293e+00 5.474935281942215397e+02
2.133969473284122564e+00 5.474804222522285500e+02
2.134069495288963392e+00 5.474672220609446640e+02
2.134169517293804219e+00 5.474539276535202816e+02
2.134269539298645491e+00 5.474405390681147310e+02
2.134369561303486762e+00 5.474270563478848999e+02
2.134469583308327589e+00 5.474134795409773915e+02
2.134569605313168861e+00 5.473998087005189745e+02
2.134669627318009688e+00 5.473860438846039642e+02
2.134769649322850960e+00 5.473721851562858092e+02
2.134869671327691787e+00 5.473582325835669735e+02
2.134969693332533058e+00 5.473441862393869997e+02
2.135069715337373886e+00 5.473300462016128449e+02
2.135169737342215157e+00 5.473158125530262623e+02
2.135269759347056429e+00 5.473014853813133413e+02
2.135369781351897256e+00 5.472870647790535941e+02
2.135469803356738527e+00 5.472725508437074495e+02
2.135569825361579355e+00 5.472579436776035209e+02
2.135669847366420626e+00 5.472432433879282598e+02
2.135769869371261453e+00 5.472284500867128827e+02
2.135869891376102725e+00 5.472135638908196142e+02
2.135969913380943552e+00 5.471985849219317970e+02
2.136069935385784824e+00 5.471835133065383161e+02
2.136169957390625651e+00 5.471683491759204117e+02
2.136269979395466923e+00 5.471530926661414469e+02
2.136370001400307750e+00 5.471377439180291731e+02
2.136470023405149021e+00 5.471223030771660660e+02
2.136570045409990293e+00 5.471067702938717048e+02
2.136670067414831120e+00 5.470911457231918575e+02
2.136770089419672392e+00 5.470754295248816561e+02
2.136870111424513219e+00 5.470596218633933177e+02
2.136970133429354046e+00 5.470437229078590917e+02
2.137070155434195318e+00 5.470277328320790957e+02
2.137170177439036589e+00 5.470116518145039208e+02
2.137270199443877416e+00 5.469954800382199664e+02
2.137370221448718688e+00 5.469792176909355703e+02
2.137470243453559959e+00 5.469628649649630461e+02
2.137570265458400343e+00 5.469464220572042450e+02
2.137670287463241614e+00 5.469298891691346398e+02
2.137770309468082885e+00 5.469132665067871812e+02
2.137870331472923713e+00 5.468965542807327438e+02
2.137970353477764984e+00 5.468797527060708035e+02
2.138070375482606256e+00 5.468628620024053362e+02
2.138170397487447083e+00 5.468458823938312889e+02
2.138270419492287910e+00 5.468288141089172996e+02
2.138370441497129182e+00 5.468116573806883025e+02
2.138470463501970009e+00 5.467944124466081348e+02
2.138570485506811281e+00 5.467770795485607778e+02
2.138670507511652552e+00 5.467596589328348955e+02
2.138770529516493379e+00 5.467421508501034850e+02
2.138870551521334651e+00 5.467245555554065959e+02
2.138970573526175478e+00 5.467068733081341634e+02
2.139070595531016750e+00 5.466891043720055450e+02
2.139170617535857577e+00 5.466712490150521262e+02
2.139270639540698848e+00 5.466533075095981076e+02
2.139370661545539676e+00 5.466352801322409505e+02
2.139470683550380947e+00 5.466171671638339831e+02
2.139570705555222219e+00 5.465989688894647998e+02
2.139670727560063046e+00 5.465806855984372987e+02
2.139770749564903873e+00 5.465623175842507635e+02
2.139870771569745145e+00 5.465438651445816731e+02
2.139970793574586416e+00 5.465253285812624426e+02
