2.000080019204609094e+00 5.135983816196467160e+02
2.000180043210370240e+00 5.136819561740304607e+02
2.000280067216131830e+00 5.137666585433183855e+02
2.000380091221892975e+00 5.138524551085014309e+02
2.000480115227654565e+00 5.139393118625258694e+02
2.000580139233416155e+00 5.140271944323810658e+02
2.000680163239177300e+00 5.141160681013772091e+02
2.000780187244938890e+00 5.142058978315926652e+02
2.000880211250700036e+00 5.142966482864812860e+02
2.000980235256461626e+00 5.143882838536233066e+02
2.001080259262222771e+00 5.144807686676040248e+02
2.001180283267984361e+00 5.145740666330046906e+02
2.001280307273745507e+00 5.146681414474940084e+02
2.001380331279507097e+00 5.147629566250001290e+02
2.001480355285268242e+00 5.148584755189521047e+02
2.001580379291029832e+00 5.149546613455742090e+02
2.001680403296790978e+00 5.150514772072161804e+02
2.001780427302552567e+00 5.151488861157067731e+02
2.001880451308313713e+00 5.152468510157131050e+02
2.001980475314075303e+00 5.153453348080929572e+02
2.002080499319836449e+00 5.154443003732213811e+02
2.002180523325598038e+00 5.155437105942788776e+02
2.002280547331359628e+00 5.156435283804878509e+02
2.002380571337120774e+00 5.157437166902734589e+02
2.002480595342882363e+00 5.158442385543453383e+02
2.002580619348643509e+00 5.159450570986782623e+02
2.002680643354405099e+00 5.160461355673739945e+02
2.002780667360166245e+00 5.161474373454005899e+02
2.002880691365927834e+00 5.162489259811786724e+02
2.002980715371688980e+00 5.163505652090141211e+02
2.003080739377450570e+00 5.164523189713551119e+02
2.003180763383211715e+00 5.165541514408571402e+02
2.003280787388973305e+00 5.166560270422504573e+02
2.003380811394734451e+00 5.167579104739854756e+02
2.003480835400496041e+00 5.168597667296462532e+02
2.003580859406257186e+00 5.169615611191240987e+02
2.003680883412018776e+00 5.170632592895212838e+02
2.003780907417779922e+00 5.171648272457923667e+02
2.003880931423541512e+00 5.172662313710900435e+02
2.003980955429302657e+00 5.173674384468180278e+02
2.004080979435064247e+00 5.174684156723619708e+02
2.004181003440825837e+00 5.175691306845039890e+02
2.004281027446586982e+00 5.176695515764898801e+02
2.004381051452348572e+00 5.177696469167498208e+02
2.004481075458110162e+00 5.178693857672528793e+02
2.004581099463871308e+00 5.179687377014882941e+02
2.004681123469632453e+00 5.180676728220551013e+02
2.004781147475394043e+00 5.181661617778561322e+02
2.004881171481155633e+00 5.182641757808812599e+02
2.004981195486916778e+00 5.183616866225665945e+02
2.005081219492677924e+00 5.184586666897246232e+02
2.005181243498439514e+00 5.185550889800317691e+02
2.005281267504201104e+00 5.186509271170583588e+02
2.005381291509962249e+00 5.187461553648407744e+02
2.005481315515723395e+00 5.188407486419827137e+02
2.005581339521484985e+00 5.189346825352689621e+02
2.005681363527246575e+00 5.190279333127915606e+02
2.005781387533007720e+00 5.191204779365803006e+02
2.005881411538768866e+00 5.192122940747203756e+02
2.005981435544530900e+00 5.193033601129567387e+02
2.006081459550292045e+00 5.193936551657777727e+02
2.006181483556053635e+00 5.194831590869637239e+02
2.006281507561814781e+00 5.195718524796011479e+02
2.006381531567576371e+00 5.196597167055560931e+02
2.006481555573337516e+00 5.197467338943886261e+02
2.006581579579099106e+00 5.198328869517195017e+02
2.006681603584860252e+00 5.199181595670319211e+02
2.006781627590621842e+00 5.200025362209061086e+02
2.006881651596382987e+00 5.200860021916832920e+02
2.006981675602144577e+00 5.201685435615532924e+02
2.007081699607905723e+00 5.202501472220624237e+02
2.007181723613667312e+00 5.203308008790370423e+02
2.007281747619428458e+00 5.204104930569202452e+02
2.007381771625190048e+00 5.204892131025193294e+02
2.007481795630951193e+00 5.205669511881616245e+02
2.007581819636712783e+00 5.206436983142519921e+02
2.007681843642473929e+00 5.207194463112382437e+02
2.007781867648235519e+00 5.207941878409801575e+02
2.007881891653997108e+00 5.208679163975109532e+02
2.007981915659758254e+00 5.209406263072130514e+02
2.008081939665519844e+00 5.210123127283825397e+02
2.008181963671280990e+00 5.210829716502037172e+02
2.008281987677042579e+00 5.211525998911174611e+02
2.008382011682803725e+00 5.212211950965994447e+02
2.008482035688565315e+00 5.212887557363378619e+02
2.008582059694326460e+00 5.213552811008185017e+02
2.008682083700088050e+00 5.214207712973164917e+02
2.008782107705849196e+00 5.214852272453050546e+02
2.008882131711610786e+00 5.215486506712659320e+02
2.008982155717371931e+00 5.216110441029310323e+02
2.009082179723133521e+00 5.216724108629334751e+02
2.009182203728894667e+00 5.217327550618912255e+02
2.009282227734656257e+00 5.217920815909162684e+02
2.009382251740417402e+00 5.218503961135580766e+02
2.009482275746178992e+00 5.219077050571929703e+02
2.009582299751940138e+00 5.219640156038494752e+02
2.009682323757701727e+00 5.220193356804924179e+02
2.009782347763463317e+00 5.220736739487640534e+02
2.009882371769224463e+00 5.221270397941859756e+02
2.009982395774986053e+00 5.221794433148386361e+02
2.010082419780747198e+00 5.222308953095142670e+02
2.010182443786508788e+00 5.222814072653625317e+02
2.010282467792269934e+00 5.223309913450295880e+02
2.010382491798031523e+00 5.223796603732969288e+02
2.010482515803792669e+00 5.224274278232433062e+02
2.010582539809554259e+00 5.224743078019168934e+02
2.010682563815315405e+00 5.225203150355462185e+02
2.010782587821076994e+00 5.225654648542933955e+02
2.010882611826838140e+00 5.226097731765529488e+02
2.010982635832599730e+00 5.226532564928193096e+02
2.011082659838360875e+00 5.226959318491220756e+02
2.011182683844122465e+00 5.227378168300491552e+02
2.011282707849883611e+00 5.227789295413624586e+02
2.011382731855645201e+00 5.228192885922234154e+02
2.011482755861406346e+00 5.228589130770332076e+02
2.011582779867167936e+00 5.228978225569092046e+02
2.011682803872929526e+00 5.229360370408005565e+02
2.011782827878691116e+00 5.229735769662609073e+02
2.011882851884452261e+00 5.230104631798963055e+02
2.011982875890213407e+00 5.230467169174834225e+02
2.012082899895974997e+00 5.230823597837957095e+02
2.012182923901736586e+00 5.231174137321315811e+02
2.012282947907497732e+00 5.231519010435686141e+02
2.012382971913258878e+00 5.231858443059543333e+02
2.012482995919020468e+00 5.232192663926496152e+02
2.012583019924782057e+00 5.232521904410341449e+02
2.012683043930543203e+00 5.232846398307995059e+02
2.012783067936304349e+00 5.233166381620308130e+02
2.012883091942065938e+00 5.233482092331009881e+02
2.012983115947827528e+00 5.233793770183922334e+02
2.013083139953588674e+00 5.234101656458547041e+02
2.013183163959349820e+00 5.234405993744234138e+02
2.013283187965111409e+00 5.234707025713053099e+02
2.013383211970872999e+00 5.235004996891544806e+02
2.013483235976634589e+00 5.235300152431477727e+02
2.013583259982395735e+00 5.235592737879798051e+02
2.013683283988157324e+00 5.235882998947937494e+02
2.013783307993918470e+00 5.236171181280597011e+02
2.013883331999680060e+00 5.236457530224192851e+02
2.013983356005441205e+00 5.236742290595132090e+02
2.014083380011202795e+00 5.237025706448092706e+02
2.014183404016963941e+00 5.237308020844376415e+02
2.014283428022725531e+00 5.237589475620643498e+02
2.014383452028486676e+00 5.237870311158052345e+02
2.014483476034248266e+00 5.238150766152067490e+02
2.014583500040009412e+00 5.238431077383028196e+02
2.014683524045771001e+00 5.238711479487657243e+02
2.014783548051532147e+00 5.238992204731699758e+02
2.014883572057293737e+00 5.239273482783834197e+02
2.014983596063054883e+00 5.239555540490979411e+02
2.015083620068816472e+00 5.239838601655218326e+02
2.015183644074577618e+00 5.240122886812428078e+02
2.015283668080339208e+00 5.240408613012884871e+02
2.015383692086100798e+00 5.240695993603833358e+02
2.015483716091861943e+00 5.240985238014354763e+02
2.015583740097623533e+00 5.241276551542534889e+02
2.015683764103384679e+00 5.241570135145202585e+02
2.015783788109146268e+00 5.241866185230321662e+02
2.015883812114907414e+00 5.242164893452204524e+02
2.015983836120669004e+00 5.242466446509691878e+02
2.016083860126430150e+00 5.242771025947472481e+02
2.016183884132191739e+00 5.243078807960662289e+02
2.016283908137952885e+00 5.243389963202760100e+02
2.016383932143714475e+00 5.243704656597190024e+02
2.016483956149475620e+00 5.244023047152539903e+02
2.016583980155237210e+00 5.244345287781579827e+02
2.016684004160998356e+00 5.244671525124291520e+02
2.016784028166759946e+00 5.245001899374947243e+02
2.016884052172521091e+00 5.245336544113484933e+02
2.016984076178282681e+00 5.245675586141143185e+02
2.017084100184044271e+00 5.246019145320676671e+02
2.017184124189805416e+00 5.246367334421076976e+02
2.017284148195567006e+00 5.246720258967109203e+02
2.017384172201328152e+00 5.247078017093614335e+02
2.017484196207089742e+00 5.247440699404820634e+02
2.017584220212850887e+00 5.247808388838698193e+02
2.017684244218612477e+00 5.248181160536462357e+02
2.017784268224373623e+00 5.248559081717449999e+02
2.017884292230135213e+00 5.248942211559266298e+02
2.017984316235896358e+00 5.249330601083502188e+02
2.018084340241657948e+00 5.249724293046987214e+02
2.018184364247419094e+00 5.250123321838718766e+02
2.018284388253180683e+00 5.250527713382582533e+02
2.018384412258941829e+00 5.250937485045882340e+02
2.018484436264703419e+00 5.251352645553814682e+02
2.018584460270464565e+00 5.251773194909947051e+02
2.018684484276226154e+00 5.252199124322806938e+02
2.018784508281987300e+00 5.252630416138547389e+02
2.018884532287748890e+00 5.253067043779947198e+02
2.018984556293510479e+00 5.253508971691579745e+02
2.019084580299272069e+00 5.253956155291393770e+02
2.019184604305033215e+00 5.254408540928671982e+02
2.019284628310794361e+00 5.254866065848457310e+02
2.019384652316555950e+00 5.255328658162419515e+02
2.019484676322317540e+00 5.255796236826363383e+02
2.019584700328078686e+00 5.256268711624194339e+02
2.019684724333839831e+00 5.256745983158609761e+02
2.019784748339601421e+00 5.257227942848353450e+02
2.019884772345363011e+00 5.257714472932204899e+02
2.019984796351124157e+00 5.258205446479620377e+02
2.020084820356885302e+00 5.258700727408109969e+02
2.020184844362646892e+00 5.259200170507356233e+02
2.020284868368408482e+00 5.259703621470023336e+02
2.020384892374169628e+00 5.260210916929347604e+02
2.020484916379930773e+00 5.260721884503482215e+02
2.020584940385692363e+00 5.261236342846559637e+02
2.020684964391453953e+00 5.261754101706477513e+02
2.020784988397215542e+00 5.262274961989453459e+02
2.020885012402976688e+00 5.262798715831246454e+02
2.020985036408738278e+00 5.263325146675084625e+02
2.021085060414499424e+00 5.263854029356235742e+02
2.021185084420261013e+00 5.264385130193238638e+02
2.021285108426022159e+00 5.264918207085717086e+02
2.021385132431783749e+00 5.265453009618753413e+02
2.021485156437544894e+00 5.265989279173804789e+02
2.021585180443306484e+00 5.266526749046051918e+02
2.021685204449067630e+00 5.267065144568218784e+02
2.021785228454829220e+00 5.267604183240728162e+02
2.021885252460590365e+00 5.268143574868203132e+02
2.021985276466351955e+00 5.268683021702155429e+02
2.022085300472113101e+00 5.269222218589936801e+02
2.022185324477874691e+00 5.269760853129713496e+02
2.022285348483635836e+00 5.270298605831554823e+02
2.022385372489397426e+00 5.270835150284406154e+02
2.022485396495158572e+00 5.271370153329003188e+02
2.022585420500920161e+00 5.271903275236493300e+02
2.022685444506681751e+00 5.272434169892811724e+02
2.022785468512442897e+00 5.272962484988648839e+02
2.022885492518204487e+00 5.273487862214858524e+02
2.022985516523965632e+00 5.274009937463346205e+02
2.023085540529727222e+00 5.274528341033192191e+02
2.023185564535488368e+00 5.275042697841950030e+02
2.023285588541249957e+00 5.275552627642066454e+02
2.023385612547011103e+00 5.276057745242185320e+02
2.023485636552772693e+00 5.276557660733308239e+02
2.023585660558533839e+00 5.277051979719681185e+02
2.023685684564295428e+00 5.277540303554212642e+02
2.023785708570056574e+00 5.278022229578367615e+02
2.023885732575818164e+00 5.278497351366377188e+02
2.023985756581579309e+00 5.278965258973613572e+02
2.024085780587340899e+00 5.279425539188979428e+02
2.024185804593102045e+00 5.279877775791229624e+02
2.024285828598863635e+00 5.280321549809028738e+02
2.024385852604624780e+00 5.280756439784574923e+02
2.024485876610386370e+00 5.281182022040710535e+02
2.024585900616147960e+00 5.281597870951312643e+02
2.024685924621909106e+00 5.282003559214788311e+02
2.024785948627670695e+00 5.282398658130609874e+02
2.024885972633431841e+00 5.282782737878611670e+02
2.024985996639193431e+00 5.283155367800950444e+02
2.025086020644954576e+00 5.283516116686561190e+02
2.025186044650716166e+00 5.283864553057943567e+02
2.025286068656477312e+00 5.284200245460068572e+02
2.025386092662238902e+00 5.284522762751266782e+02
2.025486116668000047e+00 5.284831674395940126e+02
2.025586140673761637e+00 5.285126550758885742e+02
2.025686164679522783e+00 5.285406963401070470e+02
2.025786188685284372e+00 5.285672485376675240e+02
2.025886212691045518e+00 5.285922691531251303e+02
2.025986236696807108e+00 5.286157158800758680e+02
2.026086260702568254e+00 5.286375466511375407e+02
2.026186284708329843e+00 5.286577196679802455e+02
2.026286308714090989e+00 5.286761934313965412e+02
2.026386332719853023e+00 5.286929267713898071e+02
2.026486356725614169e+00 5.287078788772599864e+02
2.026586380731375314e+00 5.287210093276698899e+02
2.026686404737136904e+00 5.287322781206760283e+02
2.026786428742898494e+00 5.287416457036974862e+02
2.026886452748659639e+00 5.287490730034161288e+02
2.026986476754420785e+00 5.287545214555764233e+02
2.027086500760182375e+00 5.287579530346758929e+02
2.027186524765943965e+00 5.287593302835223312e+02
2.027286548771705110e+00 5.287586163426392432e+02
2.027386572777466256e+00 5.287557749795059863e+02
2.027486596783227846e+00 5.287507706176041893e+02
2.027586620788989435e+00 5.287435683652633998e+02
2.027686644794750581e+00 5.287341340442789033e+02
2.027786668800511727e+00 5.287224342182820465e+02
2.027886692806273317e+00 5.287084362208572657e+02
2.027986716812034906e+00 5.286921081833716016e+02
2.028086740817796052e+00 5.286734190625082874e+02
2.028186764823557642e+00 5.286523386674834910e+02
2.028286788829319232e+00 5.286288376869282502e+02
2.028386812835080377e+00 5.286028877154180918e+02
2.028486836840841967e+00 5.285744612796331694e+02
2.028586860846603113e+00 5.285435318641308413e+02
2.028686884852364702e+00 5.285100739367119331e+02
2.028786908858125848e+00 5.284740629733676087e+02
2.028886932863887438e+00 5.284354754827825218e+02
2.028986956869648584e+00 5.283942890303910644e+02
2.029086980875410173e+00 5.283504822619511287e+02
2.029187004881171319e+00 5.283040349266369731e+02
2.029287028886932909e+00 5.282549278996229987e+02
2.029387052892694054e+00 5.282031432041519565e+02
2.029487076898455644e+00 5.281486640330608680e+02
2.029587100904216790e+00 5.280914747697619305e+02
2.029687124909978380e+00 5.280315610086539664e+02
2.029787148915739525e+00 5.279689095749530452e+02
2.029887172921501115e+00 5.279035085439301156e+02
2.029987196927262261e+00 5.278353472595356379e+02
2.030087220933023850e+00 5.277644163524030319e+02
2.030187244938785440e+00 5.276907077572175240e+02
2.030287268944546586e+00 5.276142147294298184e+02
2.030387292950308176e+00 5.275349318613125433e+02
2.030487316956069321e+00 5.274528550973378742e+02
2.030587340961830911e+00 5.273679817488698518e+02
2.030687364967592057e+00 5.272803105081565036e+02
2.030787388973353647e+00 5.271898414616127866e+02
2.030887412979114792e+00 5.270965761023803680e+02
2.030987436984876382e+00 5.270005173421592417e+02
2.031087460990637528e+00 5.269016695222912858e+02
2.031187484996399117e+00 5.268000384240979201e+02
2.031287509002160263e+00 5.266956312784536749e+02
2.031387533007921853e+00 5.265884567745885079e+02
2.031487557013682999e+00 5.264785250681106845e+02
2.031587581019444588e+00 5.263658477882499938e+02
2.031687605025205734e+00 5.262504380442946967e+02
2.031787629030967324e+00 5.261323104312359646e+02
2.031887653036728913e+00 5.260114810345978640e+02
2.031987677042490059e+00 5.258879674344573232e+02
2.032087701048251649e+00 5.257617887086382780e+02
2.032187725054012795e+00 5.256329654350817009e+02
2.032287749059774384e+00 5.255015196933846937e+02
2.032387773065535530e+00 5.253674750655013668e+02
2.032487797071297120e+00 5.252308566356090296e+02
2.032587821077058265e+00 5.250916909891212754e+02
2.032687845082819855e+00 5.249500062108659222e+02
2.032787869088581001e+00 5.248058318824043909e+02
2.032887893094342591e+00 5.246591990785047983e+02
2.032987917100103736e+00 5.245101403627611489e+02
2.033087941105865326e+00 5.243586897823570325e+02
2.033187965111626472e+00 5.242048828619749656e+02
2.033287989117388062e+00 5.240487565968520585e+02
2.033388013123149207e+00 5.238903494449800746e+02
2.033488037128910797e+00 5.237297013184515890e+02
2.033588061134671943e+00 5.235668535739520166e+02
2.033688085140433532e+00 5.234018490024063794e+02
2.033788109146195122e+00 5.232347318177683064e+02
2.033888133151956268e+00 5.230655476449759362e+02
2.033988157157717858e+00 5.228943435070511896e+02
2.034088181163479447e+00 5.227211678113742437e+02
2.034188205169240593e+00 5.225460703351118354e+02
2.034288229175001739e+00 5.223691022098257690e+02
2.034388253180763328e+00 5.221903159052494630e+02
2.034488277186524918e+00 5.220097652122532281e+02
2.034588301192286064e+00 5.218275052249894088e+02
2.034688325198047210e+00 5.216435923222376232e+02
2.034788349203808799e+00 5.214580841479523770e+02
2.034888373209570389e+00 5.212710395910132775e+02
2.034988397215331535e+00 5.210825187642002447e+02
2.035088421221092680e+00 5.208925829823911045e+02
2.035188445226854270e+00 5.207012947399925906e+02
2.035288469232615860e+00 5.205087176876218109e+02
2.035388493238377006e+00 5.203149166080349914e+02
2.035488517244138151e+00 5.201199573913299901e+02
2.035588541249900185e+00 5.199239070094147337e+02
2.035688565255661331e+00 5.197268334897731847e+02
2.035788589261422921e+00 5.195288058885222426e+02
2.035888613267184066e+00 5.193298942627860697e+02
2.035988637272945656e+00 5.191301696423913654e+02
2.036088661278706802e+00 5.189297040008993918e+02
2.036188685284468392e+00 5.187285702259913478e+02
2.036288709290229537e+00 5.185268420892152790e+02
2.036388733295991127e+00 5.183245942151127110e+02
2.036488757301752273e+00 5.181219020497416068e+02
2.036588781307513862e+00 5.179188418286023534e+02
2.036688805313275008e+00 5.177154905439922459e+02
2.036788829319036598e+00 5.175119259117959700e+02
2.036888853324797743e+00 5.173082263377380059e+02
2.036988877330559333e+00 5.171044708831009302e+02
2.037088901336320479e+00 5.169007392299344019e+02
2.037188925342082069e+00 5.166971116457752942e+02
2.037288949347843214e+00 5.164936689478869312e+02
2.037388973353604804e+00 5.162904924670397122e+02
2.037488997359366394e+00 5.160876640108574520e+02
2.037589021365127540e+00 5.158852658267355764e+02
2.037689045370889129e+00 5.156833805643601636e+02
2.037789069376650275e+00 5.154820912378436333e+02
2.037889093382411865e+00 5.152814811874916359e+02
2.037989117388173010e+00 5.150816340412313821e+02
2.038089141393934600e+00 5.148826336757084619e+02
2.038189165399695746e+00 5.146845641770827342e+02
2.038289189405457336e+00 5.144875098015361345e+02
2.038389213411218481e+00 5.142915549355197982e+02
2.038489237416980071e+00 5.140967840557535737e+02
2.038589261422741217e+00 5.139032816890024833e+02
2.038689285428502806e+00 5.137111323716558218e+02
2.038789309434263952e+00 5.135204206091200376e+02
2.038889333440025542e+00 5.133312308350541571e+02
2.038989357445786688e+00 5.131436473704690115e+02
2.039089381451548277e+00 5.129577543827057298e+02
2.039189405457309423e+00 5.127736358443261224e+02
2.039289429463071013e+00 5.125913754919229177e+02
2.039389453468832603e+00 5.124110567848849769e+02
2.039489477474593748e+00 5.122327628641321553e+02
2.039589501480355338e+00 5.120565765108401592e+02
2.039689525486116484e+00 5.118825801051870030e+02
2.039789549491878073e+00 5.117108555851332312e+02
2.039889573497639219e+00 5.115414844052620538e+02
2.039989597503400809e+00 5.113745474957045758e+02
2.040089621509161955e+00 5.112101252211650149e+02
2.040189645514923544e+00 5.110482973400787614e+02
2.040289669520684690e+00 5.108891429639147646e+02
2.040389693526446280e+00 5.107327405166525409e+02
2.040489717532207425e+00 5.105791676944495521e+02
2.040589741537969015e+00 5.104285014255275428e+02
2.040689765543730161e+00 5.102808178302954616e+02
2.040789789549491751e+00 5.101361921817327811e+02
2.040889813555252896e+00 5.099946988660528859e+02
2.040989837561014486e+00 5.098564113436731304e+02
2.041089861566775632e+00 5.097214021105075972e+02
2.041189885572537221e+00 5.095897426596086461e+02
2.041289909578298811e+00 5.094615034431768663e+02
2.041389933584060401e+00 5.093367538349587562e+02
2.041489957589821547e+00 5.092155620930575424e+02
2.041589981595582692e+00 5.090979953231755530e+02
2.041690005601344282e+00 5.089841194423080424e+02
2.041790029607105872e+00 5.088739991429109182e+02
2.041890053612867018e+00 5.087676978575620410e+02
2.041990077618628163e+00 5.086652777241365015e+02
2.042090101624389753e+00 5.085667995515159987e+02
2.042190125630151343e+00 5.084723227858486894e+02
2.042290149635912488e+00 5.083819054773859420e+02
2.042390173641673634e+00 5.082956042479074767e+02
2.042490197647435224e+00 5.082134742587585379e+02
2.042590221653196814e+00 5.081355691795182565e+02
2.042690245658957959e+00 5.080619411573103434e+02
2.042790269664719105e+00 5.079926407867843068e+02
2.042890293670480695e+00 5.079277170807790185e+02
2.042990317676242285e+00 5.078672174416840903e+02
2.043090341682003874e+00 5.078111876335193529e+02
2.043190365687765020e+00 5.077596717547511957e+02
2.043290389693526610e+00 5.077127122118574221e+02
2.043390413699287755e+00 5.076703496936543729e+02
2.043490437705049345e+00 5.076326231464122429e+02
2.043590461710810491e+00 5.075995697497641004e+02
2.043690485716572081e+00 5.075712248934234481e+02
2.043790509722333226e+00 5.075476221547312434e+02
2.043890533728094816e+00 5.075287932770428370e+02
2.043990557733855962e+00 5.075147681489644924e+02
2.044090581739617551e+00 5.075055747844576786e+02
2.044190605745378697e+00 5.075012393038233540e+02
2.044290629751140287e+00 5.075017859155726683e+02
2.044390653756901433e+00 5.075072368992067595e+02
2.044490677762663022e+00 5.075176125889022956e+02
2.044590701768424168e+00 5.075329313581288488e+02
2.044690725774185758e+00 5.075532096051925919e+02
2.044790749779946903e+00 5.075784617397323473e+02
2.044890773785708493e+00 5.076087001701650934e+02
2.044990797791470083e+00 5.076439352920911006e+02
2.045090821797231229e+00 5.076841754776779680e+02
2.045190845802992818e+00 5.077294270660136135e+02
2.045290869808753964e+00 5.077796943544514079e+02
2.045390893814515554e+00 5.078349795909451814e+02
2.045490917820276700e+00 5.078952829673829683e+02
2.045590941826038289e+00 5.079606026139245500e+02
2.045690965831799435e+00 5.080309345943525159e+02
2.045790989837561025e+00 5.081062729024297937e+02
2.045891013843322170e+00 5.081866094592822947e+02
2.045991037849083760e+00 5.082719341118022385e+02
2.046091061854844906e+00 5.083622346320723864e+02
2.046191085860606496e+00 5.084574967178207885e+02
2.046291109866367641e+00 5.085577039939043402e+02
2.046391133872129231e+00 5.086628380148247857e+02
2.046491157877890377e+00 5.087728782682712563e+02
2.046591181883651966e+00 5.088878021796980420e+02
2.046691205889413556e+00 5.090075851179349797e+02
2.046791229895174702e+00 5.091322004018241500e+02
2.046891253900936292e+00 5.092616193078911806e+02
2.046991277906697437e+00 5.093958110790378555e+02
2.047091301912459027e+00 5.095347429342670011e+02
2.047191325918220173e+00 5.096783800794216859e+02
2.047291349923981763e+00 5.098266857189457824e+02
2.047391373929742908e+00 5.099796210686622544e+02
2.047491397935504498e+00 5.101371453695539913e+02
2.047591421941265644e+00 5.102992159025545789e+02
2.047691445947027233e+00 5.104657880043348541e+02
2.047791469952788379e+00 5.106368150840810927e+02
2.047891493958549969e+00 5.108122486412599415e+02
2.047991517964311114e+00 5.109920382843613424e+02
2.048091541970072704e+00 5.111761317506116029e+02
2.048191565975833850e+00 5.113644749266438794e+02
2.048291589981595440e+00 5.115570118701289175e+02
2.048391613987356585e+00 5.117536848323397862e+02
2.048491637993118175e+00 5.119544342816607809e+02
2.048591661998879765e+00 5.121591989280052530e+02
2.048691686004641355e+00 5.123679157481583388e+02
2.048791710010402500e+00 5.125805200120098561e+02
2.048891734016163646e+00 5.127969453096808365e+02
2.048991758021925236e+00 5.130171235795214670e+02
2.049091782027686826e+00 5.132409851369772014e+02
2.049191806033447971e+00 5.134684587042977455e+02
2.049291830039209117e+00 5.136994714410832330e+02
2.049391854044970707e+00 5.139339489756536068e+02
2.049491878050732296e+00 5.141718154372210847e+02
2.049591902056493442e+00 5.144129934888538855e+02
2.049691926062254588e+00 5.146574043612135938e+02
2.049791950068016178e+00 5.149049678870553635e+02
2.049891974073777767e+00 5.151556025364639027e+02
2.049991998079538913e+00 5.154092254528188732e+02
2.050092022085300059e+00 5.156657524894682183e+02
2.050192046091061648e+00 5.159250982470883855e+02
2.050292070096823238e+00 5.161871761117162123e+02
2.050392094102584828e+00 5.164518982934395126e+02
2.050492118108345974e+00 5.167191758657128275e+02
2.050592142114107563e+00 5.169889188052960662e+02
2.050692166119868709e+00 5.172610360327823855e+02
2.050792190125630299e+00 5.175354354537060999e+02
2.050892214131391444e+00 5.178120240002015180e+02
2.050992238137153034e+00 5.180907076731972438e+02
2.051092262142914180e+00 5.183713915851252523e+02
2.051192286148675770e+00 5.186539800031201821e+02
2.051292310154436915e+00 5.189383763926899746e+02
2.051392334160198505e+00 5.192244834618338700e+02
2.051492358165959651e+00 5.195122032055904810e+02
2.051592382171721241e+00 5.198014369509864991e+02
2.051692406177482386e+00 5.200920854023698894e+02
2.051792430183243976e+00 5.203840486870980158e+02
2.051892454189005122e+00 5.206772264015712608e+02
2.051992478194766711e+00 5.209715176575671194e+02
2.052092502200527857e+00 5.212668211288736302e+02
2.052192526206289447e+00 5.215630350981842867e+02
2.052292550212051037e+00 5.218600575042374885e+02
2.052392574217812182e+00 5.221577859891726803e+02
2.052492598223573772e+00 5.224561179460808944e+02
2.052592622229334918e+00 5.227549505667285530e+02
2.052692646235096507e+00 5.230541808894259930e+02
2.052792670240857653e+00 5.233537058470146803e+02
2.052892694246619243e+00 5.236534223149571972e+02
2.052992718252380389e+00 5.239532271594974873e+02
2.053092742258141978e+00 5.242530172858682818e+02
2.053192766263903124e+00 5.245526896865262643e+02
2.053292790269664714e+00 5.248521414893812107e+02
2.053392814275425859e+00 5.251512700060061434e+02
2.053492838281187449e+00 5.254499727797912101e+02
2.053592862286948595e+00 5.257481476340265090e+02
2.053692886292710185e+00 5.260456927198848689e+02
2.053792910298471330e+00 5.263425065642812797e+02
2.053892934304232920e+00 5.266384881175803230e+02
2.053992958309994066e+00 5.269335368011395531e+02
2.054092982315755656e+00 5.272275525546410790e+02
2.054193006321517245e+00 5.275204358832176013e+02
2.054293030327278391e+00 5.278120879043200375e+02
2.054393054333039981e+00 5.281024103943241244e+02
2.054493078338801126e+00 5.283913058348341565e+02
2.054593102344562716e+00 5.286786774586782940e+02
2.054693126350323862e+00 5.289644292955545097e+02
2.054793150356085452e+00 5.292484662173162633e+02
2.054893174361846597e+00 5.295306939828678878e+02
2.054993198367608187e+00 5.298110192826480898e+02
2.055093222373369333e+00 5.300893497826812109e+02
2.055193246379130922e+00 5.303655941681668082e+02
2.055293270384892068e+00 5.306396621865955012e+02
2.055393294390653658e+00 5.309114646903558423e+02
2.055493318396414804e+00 5.311809136788224350e+02
2.055593342402176393e+00 5.314479223398967633e+02
2.055693366407937539e+00 5.317124050909773132e+02
2.055793390413699129e+00 5.319742776193462532e+02
2.055893414419460719e+00 5.322334569219442528e+02
2.055993438425222308e+00 5.324898613445124056e+02
2.056093462430983454e+00 5.327434106200890938e+02
2.056193486436744600e+00 5.329940259068317800e+02
2.056293510442506189e+00 5.332416298251516764e+02
2.056393534448267779e+00 5.334861464941378699e+02
2.056493558454028925e+00 5.337275015672538530e+02
2.056593582459790071e+00 5.339656222672859940e+02
2.056693606465551660e+00 5.342004374205316708e+02
2.056793630471313250e+00 5.344318774901967117e+02
2.056893654477074396e+00 5.346598746090012355e+02
2.056993678482835541e+00 5.348843626109651268e+02
2.057093702488597131e+00 5.351052770623592778e+02
2.057193726494358721e+00 5.353225552918089534e+02
2.057293750500119867e+00 5.355361364195322267e+02
2.057393774505881012e+00 5.357459613856963188e+02
2.057493798511642602e+00 5.359519729778819510e+02
2.057593822517404192e+00 5.361541158576378621e+02
2.057693846523165337e+00 5.363523365861071852e+02
2.057793870528926927e+00 5.365465836487283013e+02
2.057893894534688517e+00 5.367368074789742423e+02
2.057993918540449663e+00 5.369229604811397394e+02
2.058093942546211252e+00 5.371049970521517025e+02
2.058193966551972398e+00 5.372828736023934653e+02
2.058293990557733988e+00 5.374565485755375676e+02
2.058394014563495134e+00 5.376259824673693402e+02
2.058494038569256723e+00 5.377911378435964025e+02
2.058594062575017869e+00 5.379519793566336148e+02
2.058694086580779459e+00 5.381084737613563220e+02
2.058794110586540604e+00 5.382605899298062013e+02
2.058894134592302194e+00 5.384082988648550554e+02
2.058994158598063340e+00 5.385515737128083629e+02
2.059094182603824930e+00 5.386903897749473344e+02
2.059194206609586075e+00 5.388247245180011760e+02
2.059294230615347665e+00 5.389545575835460340e+02
2.059394254621108811e+00 5.390798707963256220e+02
2.059494278626870400e+00 5.392006481714871597e+02
2.059594302632631990e+00 5.393168759207316043e+02
2.059694326638393136e+00 5.394285424573732826e+02
2.059794350644154726e+00 5.395356384003067660e+02
2.059894374649915871e+00 5.396381565768800783e+02
2.059994398655677461e+00 5.397360920246686646e+02
2.060094422661438607e+00 5.398294419921581948e+02
2.060194446667200197e+00 5.399182059383247179e+02
2.060294470672961342e+00 5.400023855311214902e+02
2.060394494678722932e+00 5.400819846448657700e+02
2.060494518684484078e+00 5.401570093565370598e+02
2.060594542690245667e+00 5.402274679409782721e+02
2.060694566696006813e+00 5.402933708650068638e+02
2.060794590701768403e+00 5.403547307804415141e+02
2.060894614707529549e+00 5.404115625160455920e+02
2.060994638713291138e+00 5.404638830683893502e+02
2.061094662719052284e+00 5.405117115916414150e+02
2.061194686724813874e+00 5.405550693862892331e+02
2.061294710730575019e+00 5.405939798867984791e+02
2.061394734736336609e+00 5.406284686482173356e+02
2.061494758742098199e+00 5.406585633317296242e+02
2.061594782747859345e+00 5.406842936891673617e+02
2.061694806753620934e+00 5.407056915464927442e+02
2.061794830759382080e+00 5.407227907862533129e+02
2.061894854765143670e+00 5.407356273290214403e+02
2.061994878770904815e+00 5.407442391138326911e+02
2.062094902776666405e+00 5.407486660776236249e+02
2.062194926782427551e+00 5.407489501336905278e+02
2.062294950788189141e+00 5.407451351491718015e+02
2.062394974793950286e+00 5.407372669215717451e+02
2.062494998799711876e+00 5.407253931543350518e+02
2.062595022805473022e+00 5.407095634314839572e+02
2.062695046811234612e+00 5.406898291913375942e+02
2.062795070816995757e+00 5.406662436993160554e+02
2.062895094822757347e+00 5.406388620198563331e+02
2.062995118828518493e+00 5.406077409874457089e+02
2.063095142834280082e+00 5.405729391767915786e+02
2.063195166840041228e+00 5.405345168721395339e+02
2.063295190845803262e+00 5.404925360357672162e+02
2.063395214851564408e+00 5.404470602756505286e+02
2.063495238857325553e+00 5.403981548123412040e+02
2.063595262863087143e+00 5.403458864450544752e+02
2.063695286868848733e+00 5.402903235169992513e+02
2.063795310874609878e+00 5.402315358799579599e+02
2.063895334880371024e+00 5.401695948581398170e+02
2.063995358886132614e+00 5.401045732113284430e+02
2.064095382891894204e+00 5.400365450973357611e+02
2.064195406897655349e+00 5.399655860337902595e+02
2.064295430903416495e+00 5.398917728592736012e+02
2.064395454909178085e+00 5.398151836938284305e+02
2.064495478914939675e+00 5.397358978988581839e+02
2.064595502920700820e+00 5.396539960364376611e+02
2.064695526926461966e+00 5.395695598280570948e+02
2.064795550932223556e+00 5.394826721128247300e+02
2.064895574937985145e+00 5.393934168051393954e+02
2.064995598943746291e+00 5.393018788518688780e+02
2.065095622949507437e+00 5.392081441890453561e+02
2.065195646955269471e+00 5.391122996981056303e+02
2.065295670961030616e+00 5.390144331616958198e+02
2.065395694966792206e+00 5.389146332190704243e+02
2.065495718972553352e+00 5.388129893210968930e+02
2.065595742978314941e+00 5.387095916849024206e+02
2.065695766984076087e+00 5.386045312481763858e+02
2.065795790989837677e+00 5.384978996231582187e+02
2.065895814995598823e+00 5.383897890503285453e+02
2.065995839001360412e+00 5.382802923518388525e+02
2.066095863007121558e+00 5.381695028846863806e+02
2.066195887012883148e+00 5.380575144936766492e+02
2.066295911018644293e+00 5.379444214641845292e+02
2.066395935024405883e+00 5.378303184747485375e+02
2.066495959030167029e+00 5.377153005495119942e+02
2.066595983035928619e+00 5.375994630105451506e+02
2.066696007041689764e+00 5.374829014300682957e+02
2.066796031047451354e+00 5.373657115826007384e+02
2.066896055053212500e+00 5.372479893970624971e+02
2.066996079058974090e+00 5.371298309088489304e+02
2.067096103064735679e+00 5.370113322119112809e+02
2.067196127070496825e+00 5.368925894108538159e+02
2.067296151076258415e+00 5.367736985730891774e+02
2.067396175082019560e+00 5.366547556810626247e+02
2.067496199087781150e+00 5.365358565845781413e+02
2.067596223093542296e+00 5.364170969532473237e+02
2.067696247099303886e+00 5.362985722290812873e+02
2.067796271105065031e+00 5.361803775792643592e+02
2.067896295110826621e+00 5.360626078491135331e+02
2.067996319116587767e+00 5.359453575152624580e+02
2.068096343122349356e+00 5.358287206390917845e+02
2.068196367128110502e+00 5.357127908204222422e+02
2.068296391133872092e+00 5.355976611515044397e+02
2.068396415139633238e+00 5.354834241713168694e+02
2.068496439145394827e+00 5.353701718202069060e+02
2.068596463151155973e+00 5.352579953948928733e+02
2.068696487156917563e+00 5.351469855038469632e+02
2.068796511162678708e+00 5.350372320230846981e+02
2.068896535168440298e+00 5.349288240523876539e+02
2.068996559174201888e+00 5.348218498719700165e+02
2.069096583179963034e+00 5.347163968996253516e+02
2.069196607185724623e+00 5.346125516483599540e+02
2.069296631191485769e+00 5.345103996845501797e+02
2.069396655197247359e+00 5.344100255866284215e+02
2.069496679203008505e+00 5.343115129043333127e+02
2.069596703208770094e+00 5.342149441185316618e+02
2.069696727214531240e+00 5.341204006016434960e+02
2.069796751220292830e+00 5.340279625786818087e+02
2.069896775226053975e+00 5.339377090889285000e+02
2.069996799231815565e+00 5.338497179482696993e+02
2.070096823237576711e+00 5.337640657122029779e+02
2.070196847243338301e+00 5.336808276395391886e+02
2.070296871249099446e+00 5.336000776568138235e+02
2.070396895254861036e+00 5.335218883234281293e+02
2.070496919260622182e+00 5.334463307975354383e+02
2.070596943266383771e+00 5.333734748026913621e+02
2.070696967272145361e+00 5.333033885952779656e+02
2.070796991277906507e+00 5.332361389327302277e+02
2.070897015283668097e+00 5.331717910425622904e+02
2.070997039289429686e+00 5.331104085922315790e+02
2.071097063295190832e+00 5.330520536598281751e+02
2.071197087300951978e+00 5.329967867056309387e+02
2.071297111306713568e+00 5.329446665445204872e+02
2.071397135312475157e+00 5.328957503192796139e+02
2.071497159318236303e+00 5.328500934747821702e+02
2.071597183323997449e+00 5.328077497330930328e+02
2.071697207329759038e+00 5.327687710694756333e+02
2.071797231335520628e+00 5.327332076893380872e+02
2.071897255341281774e+00 5.327011080061091661e+02
2.071997279347042920e+00 5.326725186200719691e+02
2.072097303352804509e+00 5.326474842981474467e+02
2.072197327358566099e+00 5.326260479546532451e+02
2.072297351364327245e+00 5.326082506330338902e+02
2.072397375370088390e+00 5.325941314885787961e+02
2.072497399375849980e+00 5.325837277721310556e+02
2.072597423381611570e+00 5.325770748147956510e+02
2.072697447387373160e+00 5.325742060136544751e+02
2.072797471393134305e+00 5.325751528184900963e+02
2.072897495398895895e+00 5.325799447195315679e+02
2.072997519404657041e+00 5.325886092362181898e+02
2.073097543410418631e+00 5.326011719069908850e+02
2.073197567416179776e+00 5.326176562801151704e+02
2.073297591421941366e+00 5.326380839055357228e+02
2.073397615427702512e+00 5.326624743277691323e+02
2.073497639433464101e+00 5.326908450798315471e+02
2.073597663439225247e+00 5.327232116782129197e+02
2.073697687444986837e+00 5.327595876188822785e+02
2.073797711450747983e+00 5.327999843743450583e+02
2.073897735456509572e+00 5.328444113917350933e+02
2.073997759462270718e+00 5.328928760919493470e+02
2.074097783468032308e+00 5.329453838698226491e+02
2.074197807473793453e+00 5.330019380953415293e+02
2.074297831479555043e+00 5.330625401158905561e+02
2.074397855485316633e+00 5.331271892595340205e+02
2.074497879491077779e+00 5.331958828393289878e+02
2.074597903496839368e+00 5.332686161586600520e+02
2.074697927502600514e+00 5.333453825175981819e+02
2.074797951508362104e+00 5.334261732202766098e+02
2.074897975514123249e+00 5.335109775832738706e+02
2.074997999519884839e+00 5.335997829450078598e+02
2.075098023525645985e+00 5.336925746761221490e+02
2.075198047531407575e+00 5.337893361908681982e+02
2.075298071537168720e+00 5.338900489594705050e+02
2.075398095542930310e+00 5.339946925214652538e+02
2.075498119548691456e+00 5.341032445000098505e+02
2.075598143554453046e+00 5.342156806171471999e+02
2.075698167560214191e+00 5.343319747100232462e+02
2.075798191565975781e+00 5.344520987480351550e+02
2.075898215571736927e+00 5.345760228509188892e+02
2.075998239577498516e+00 5.347037153077440053e+02
2.076098263583259662e+00 5.348351425968181729e+02
2.076198287589021252e+00 5.349702694064857269e+02
2.076298311594782842e+00 5.351090586568083154e+02
2.076398335600543987e+00 5.352514715221104780e+02
2.076498359606305577e+00 5.353974674543832180e+02
2.076598383612066723e+00 5.355470042075303354e+02
2.076698407617828313e+00 5.357000378624393306e+02
2.076798431623589458e+00 5.358565228528653961e+02
2.076898455629351048e+00 5.360164119921166730e+02
2.076998479635112194e+00 5.361796565005188313e+02
2.077098503640873783e+00 5.363462060336470358e+02
2.077198527646634929e+00 5.365160087113094960e+02
2.077298551652396519e+00 5.366890111472644094e+02
2.077398575658157664e+00 5.368651584796577936e+02
2.077498599663919254e+00 5.370443944021534435e+02
2.077598623669680400e+00 5.372266611957558098e+02
2.077698647675441990e+00 5.374118997612896464e+02
2.077798671681203135e+00 5.376000496525302879e+02
2.077898695686964725e+00 5.377910491099607952e+02
2.077998719692725871e+00 5.379848350951376688e+02
2.078098743698487461e+00 5.381813433256513690e+02
2.078198767704249050e+00 5.383805083106470875e+02
2.078298791710010640e+00 5.385822633869104266e+02
2.078398815715771786e+00 5.387865407554726289e+02
2.078498839721532931e+00 5.389932715187343319e+02
2.078598863727294521e+00 5.392023857180754476e+02
2.078698887733056111e+00 5.394138123719383202e+02
2.078798911738817257e+00 5.396274795143567644e+02
2.078898935744578402e+00 5.398433142339176811e+02
2.078998959750339992e+00 5.400612427131248978e+02
2.079098983756101582e+00 5.402811902681517040e+02
2.079199007761862728e+00 5.405030813889562751e+02
2.079299031767623873e+00 5.407268397797396347e+02
2.079399055773385463e+00 5.409523883997236453e+02
2.079499079779147053e+00 5.411796495042281094e+02
2.079599103784908198e+00 5.414085446860227648e+02
2.079699127790669344e+00 5.416389949169338252e+02
2.079799151796430934e+00 5.418709205896841468e+02
2.079899175802192524e+00 5.421042415599413289e+02
2.079999199807954113e+00 5.423388771885487358e+02
2.080099223813715259e+00 5.425747463839300053e+02
2.080199247819476849e+00 5.428117676446250925e+02
2.080299271825237994e+00 5.430498591019540982e+02
2.080399295830999584e+00 5.432889385627704542e+02
2.080499319836760730e+00 5.435289235522938043e+02
2.080599343842522320e+00 5.437697313569900643e+02
2.080699367848283465e+00 5.440112790674835423e+02
2.080799391854045055e+00 5.442534836214699681e+02
2.080899415859806201e+00 5.444962618466203139e+02
2.080999439865567791e+00 5.447395305034386865e+02
2.081099463871328936e+00 5.449832063280628063e+02
2.081199487877090526e+00 5.452272060749796765e+02
2.081299511882851672e+00 5.454714465596343871e+02
2.081399535888613261e+00 5.457158447009130668e+02
2.081499559894374407e+00 5.459603175634709942e+02
2.081599583900135997e+00 5.462047823998958620e+02
2.081699607905897143e+00 5.464491566926690211e+02
2.081799631911658732e+00 5.466933581959146977e+02
2.081899655917420322e+00 5.469373049769156978e+02
2.081999679923181468e+00 5.471809154573622891e+02
2.082099703928943057e+00 5.474241084543302804e+02
2.082199727934704203e+00 5.476668032209508965e+02
2.082299751940465793e+00 5.479089194867671040e+02
2.082399775946226939e+00 5.481503774977398962e+02
2.082499799951988528e+00 5.483910980558990786e+02
2.082599823957749674e+00 5.486310025586088841e+02
2.082699847963511264e+00 5.488700130374317041e+02
2.082799871969272409e+00 5.491080521965707248e+02
2.082899895975033999e+00 5.493450434508692979e+02
2.082999919980795145e+00 5.495809109633577236e+02
2.083099943986556735e+00 5.498155796823103856e+02
2.083199967992317880e+00 5.500489753778136901e+02
2.083299991998079470e+00 5.502810246778186638e+02
2.083400016003840616e+00 5.505116551036544479e+02
2.083500040009602206e+00 5.507407951049974599e+02
2.083600064015363351e+00 5.509683740942704162e+02
2.083700088021124941e+00 5.511943224804541615e+02
2.083800112026886531e+00 5.514185717023036659e+02
2.083900136032647676e+00 5.516410542609420418e+02
2.084000160038409266e+00 5.518617037518237112e+02
2.084100184044170412e+00 5.520804548960495595e+02
2.084200208049932002e+00 5.522972435710157697e+02
2.084300232055693147e+00 5.525120068403890627e+02
2.084400256061454737e+00 5.527246829833854918e+02
2.084500280067215883e+00 5.529352115233449467e+02
2.084600304072977472e+00 5.531435332555867035e+02
2.084700328078738618e+00 5.533495902745310104e+02
2.084800352084500208e+00 5.535533260000752307e+02
2.084900376090261354e+00 5.537546852032155584e+02
2.085000400096022943e+00 5.539536140308949825e+02
2.085100424101784089e+00 5.541500600300756787e+02
2.085200448107545679e+00 5.543439721710166168e+02
2.085300472113306824e+00 5.545353008697513815e+02
2.085400496119068414e+00 5.547239980097540410e+02
2.085500520124830004e+00 5.549100169627829473e+02
2.085600544130591594e+00 5.550933126088964400e+02
2.085700568136352739e+00 5.552738413556299975e+02
2.085800592142113885e+00 5.554515611563210769e+02
2.085900616147875475e+00 5.556264315275886929e+02
2.086000640153637065e+00 5.557984135659453386e+02
2.086100664159398210e+00 5.559674699635402249e+02
2.086200688165159356e+00 5.561335650230322472e+02
2.086300712170920946e+00 5.562966646715797197e+02
2.086400736176682535e+00 5.564567364739471031e+02
2.086500760182443681e+00 5.566137496447175863e+02
2.086600784188204827e+00 5.567676750596168631e+02
2.086700808193966417e+00 5.569184852659350327e+02
2.086800832199728006e+00 5.570661544920478718e+02
2.086900856205489152e+00 5.572106586560361166e+02
2.087000880211250298e+00 5.573519753733942252e+02
2.087100904217011887e+00 5.574900839638364687e+02
2.087200928222773477e+00 5.576249654571886367e+02
2.087300952228534623e+00 5.577566025983720692e+02
2.087400976234296213e+00 5.578849798514762597e+02
2.087501000240057802e+00 5.580100834029228736e+02
2.087601024245818948e+00 5.581319011637153835e+02
2.087701048251580538e+00 5.582504227707877362e+02
2.087801072257341684e+00 5.583656395874369309e+02
2.087901096263103273e+00 5.584775447028592907e+02
2.088001120268864419e+00 5.585861329307783762e+02
2.088101144274626009e+00 5.586914008071777289e+02
2.088201168280387154e+00 5.587933465871338967e+02
2.088301192286148744e+00 5.588919702407628165e+02
2.088401216291909890e+00 5.589872734482767100e+02
2.088501240297671480e+00 5.590792595941563832e+02
2.088601264303432625e+00 5.591679337604521152e+02
2.088701288309194215e+00 5.592533027192092732e+02
2.088801312314955361e+00 5.593353749240311572e+02
2.088901336320716950e+00 5.594141605007860107e+02
2.089001360326478096e+00 5.594896712374579693e+02
2.089101384332239686e+00 5.595619205731632064e+02
2.089201408338001276e+00 5.596309235863250251e+02
2.089301432343762421e+00 5.596966969820243776e+02
2.089401456349524011e+00 5.597592590785345692e+02
2.089501480355285157e+00 5.598186297930486717e+02
2.089601504361046747e+00 5.598748306266052168e+02
2.089701528366807892e+00 5.599278846482288827e+02
2.089801552372569482e+00 5.599778164782956082e+02
2.089901576378330628e+00 5.600246522711256603e+02
2.090001600384092217e+00 5.600684196968302331e+02
2.090101624389853363e+00 5.601091479224027125e+02
2.090201648395614953e+00 5.601468675920948499e+02
2.090301672401376099e+00 5.601816108070602240e+02
2.090401696407137688e+00 5.602134111042961422e+02
2.090501720412898834e+00 5.602423034348997817e+02
2.090601744418660424e+00 5.602683241416343662e+02
2.090701768424421569e+00 5.602915109358378913e+02
2.090801792430183159e+00 5.603119028736773544e+02
2.090901816435944305e+00 5.603295403317682712e+02
2.091001840441705895e+00 5.603444649821697112e+02
2.091101864447467484e+00 5.603567197667749724e+02
2.091201888453228630e+00 5.603663488711111995e+02
2.091301912458990220e+00 5.603733976975604492e+02
2.091401936464751365e+00 5.603779128380247130e+02
2.091501960470512955e+00 5.603799420460424017e+02
2.091601984476274101e+00 5.603795342083832338e+02
2.091702008482035691e+00 5.603767393161286918e+02
2.091802032487796836e+00 5.603716084352597591e+02
2.091902056493558426e+00 5.603641936767686502e+02
2.092002080499319572e+00 5.603545481663106784e+02
2.092102104505081162e+00 5.603427260134158132e+02
2.092202128510842307e+00 5.603287822802724349e+02
2.092302152516603897e+00 5.603127729501104568e+02
2.092402176522365043e+00 5.602947548951929093e+02
2.092502200528126632e+00 5.602747858444374742e+02
2.092602224533887778e+00 5.602529243506886587e+02
2.092702248539649368e+00 5.602292297576550482e+02
2.092802272545410514e+00 5.602037621665346023e+02
2.092902296551172547e+00 5.601765824023417508e+02
2.093002320556933693e+00 5.601477519799591391e+02
2.093102344562694839e+00 5.601173330699330108e+02
2.093202368568456428e+00 5.600853884640272327e+02
2.093302392574218018e+00 5.600519815405593818e+02
2.093402416579979164e+00 5.600171762295371991e+02
2.093502440585740310e+00 5.599810369776129164e+02
2.093602464591501899e+00 5.599436287128745562e+02
2.093702488597263489e+00 5.599050168094981927e+02
2.093802512603024635e+00 5.598652670522743620e+02
2.093902536608785780e+00 5.598244456010294243e+02
2.094002560614547370e+00 5.597826189549691662e+02
2.094102584620308960e+00 5.597398539169464584e+02
2.094202608626070106e+00 5.596962175576945810e+02
2.094302632631831251e+00 5.596517771800249648e+02
2.094402656637592841e+00 5.596066002830245907e+02
2.094502680643354431e+00 5.595607545262607800e+02
2.094602704649115577e+00 5.595143076940164519e+02
2.094702728654876722e+00 5.594673276595819971e+02
2.094802752660638756e+00 5.594198823496076329e+02
2.094902776666399902e+00 5.593720397085517106e+02
2.095002800672161491e+00 5.593238676632295210e+02
2.095102824677922637e+00 5.592754340874901118e+02
2.095202848683684227e+00 5.592268067670383971e+02
2.095302872689445373e+00 5.591780533644185880e+02
2.095402896695206962e+00 5.591292413841769076e+02
2.095502920700968108e+00 5.590804381382238262e+02
2.095602944706729698e+00 5.590317107114146893e+02
2.095702968712490843e+00 5.589831259273628348e+02
2.095802992718252433e+00 5.589347503145058909e+02
2.095903016724013579e+00 5.588866500724416255e+02
2.096003040729775169e+00 5.588388910385481267e+02
2.096103064735536314e+00 5.587915386549123014e+02
2.096203088741297904e+00 5.587446579355728318e+02
2.096303112747059050e+00 5.586983134341076038e+02
2.096403136752820640e+00 5.586525692115658330e+02
2.096503160758581785e+00 5.586074888047791092e+02
2.096603184764343375e+00 5.585631351950478347e+02
2.096703208770104965e+00 5.585195707772364813e+02
2.096803232775866110e+00 5.584768573292815290e+02
2.096903256781627700e+00 5.584350559821294837e+02
2.097003280787388846e+00 5.583942271901237291e+02
2.097103304793150436e+00 5.583544307018504469e+02
2.097203328798911581e+00 5.583157255314567919e+02
2.097303352804673171e+00 5.582781699304607628e+02
2.097403376810434317e+00 5.582418213600647050e+02
2.097503400816195906e+00 5.582067364639747211e+02
2.097603424821957052e+00 5.581729710417595243e+02
2.097703448827718642e+00 5.581405800227440750e+02
2.097803472833479788e+00 5.581096174404561907e+02
2.097903496839241377e+00 5.580801364076371556e+02
2.098003520845002523e+00 5.580521890918350891e+02
2.098103544850764113e+00 5.580258266915757304e+02
2.098203568856525258e+00 5.580010994131405369e+02
2.098303592862286848e+00 5.579780564479486884e+02
2.098403616868047994e+00 5.579567459505614124e+02
2.098503640873809584e+00 5.579372150173113596e+02
2.098603664879571173e+00 5.579195096655729458e+02
2.098703688885332319e+00 5.579036748136802544e+02
2.098803712891093909e+00 5.578897542614987515e+02
2.098903736896855055e+00 5.578777906716628650e+02
2.099003760902616644e+00 5.578678255514819284e+02
2.099103784908377790e+00 5.578598992355322252e+02
2.099203808914139380e+00 5.578540508689283115e+02
2.099303832919900525e+00 5.578503183912923760e+02
2.099403856925662115e+00 5.578487385214187952e+02
2.099503880931423261e+00 5.578493467426486632e+02
2.099603904937184851e+00 5.578521772889504291e+02
2.099703928942945996e+00 5.578572631317182413e+02
2.099803952948707586e+00 5.578646359672924291e+02
2.099903976954468732e+00 5.578743262051990541e+02
2.100004000960230321e+00 5.578863629571244473e+02
2.100104024965991467e+00 5.579007740266163182e+02
2.100204048971753057e+00 5.579175858995221233e+02
2.100304072977514647e+00 5.579368237351656035e+02
2.100404096983275792e+00 5.579585113582570557e+02
2.100504120989037382e+00 5.579826712515532563e+02
2.100604144994798972e+00 5.580093245492553251e+02
2.100704169000560118e+00 5.580384910311477142e+02
2.100804193006321263e+00 5.580701891174865068e+02
2.100904217012082853e+00 5.581044358646279306e+02
2.101004241017844443e+00 5.581412469614019756e+02
2.101104265023605588e+00 5.581806367262308868e+02
2.101204289029366734e+00 5.582226181049859406e+02
2.101304313035128324e+00 5.582672026695872773e+02
2.101404337040889914e+00 5.583144006173399703e+02
2.101504361046651059e+00 5.583642207710136063e+02
2.101604385052412205e+00 5.584166705796409360e+02
2.101704409058173795e+00 5.584717561200643559e+02
2.101804433063935384e+00 5.585294820991949791e+02
2.101904457069696530e+00 5.585898518570039641e+02
2.102004481075457676e+00 5.586528673702265451e+02
2.102104505081219266e+00 5.587185292567853594e+02
2.102204529086980855e+00 5.587868367809181791e+02
2.102304553092742445e+00 5.588577878590130013e+02
2.102404577098503591e+00 5.589313790661384473e+02
2.102504601104265181e+00 5.590076056432694713e+02
2.102604625110026326e+00 5.590864615051925739e+02
2.102704649115787916e+00 5.591679392490962073e+02
2.102804673121549062e+00 5.592520301638295450e+02
2.102904697127310651e+00 5.593387242398214312e+02
2.103004721133071797e+00 5.594280101796628060e+02
2.103104745138833387e+00 5.595198754093294156e+02
2.103204769144594533e+00 5.596143060900503770e+02
2.103304793150356122e+00 5.597112871308017930e+02
2.103404817156117268e+00 5.598108022014238259e+02
2.103504841161878858e+00 5.599128337463491789e+02
2.103604865167640003e+00 5.600173629989340043e+02
2.103704889173401593e+00 5.601243699963806648e+02
2.103804913179162739e+00 5.602338335952409807e+02
2.103904937184924329e+00 5.603457314874892745e+02
2.104004961190685918e+00 5.604600402171624864e+02
2.104104985196447064e+00 5.605767351975356405e+02
2.104205009202208654e+00 5.606957907288492606e+02
2.104305033207969799e+00 5.608171800165524701e+02
2.104405057213731389e+00 5.609408751900629113e+02
2.104505081219492535e+00 5.610668473220293890e+02
2.104605105225254125e+00 5.611950664480815476e+02
2.104705129231015270e+00 5.613255015870543048e+02
2.104805153236776860e+00 5.614581207616831762e+02
2.104905177242538006e+00 5.615928910197395680e+02
2.105005201248299596e+00 5.617297784556119495e+02
2.105105225254060741e+00 5.618687482323050517e+02
2.105205249259822331e+00 5.620097646038527728e+02
2.105305273265583477e+00 5.621527909381262589e+02
2.105405297271345066e+00 5.622977897400210168e+02
2.105505321277106212e+00 5.624447226750179425e+02
2.105605345282867802e+00 5.625935505930930276e+02
2.105705369288628948e+00 5.627442335529698312e+02
2.105805393294390537e+00 5.628967308466933446e+02
2.105905417300152127e+00 5.630510010245172907e+02
2.106005441305913273e+00 5.632070019200833713e+02
2.106105465311674863e+00 5.633646906758858677e+02
2.106205489317436008e+00 5.635240237689934020e+02
2.106305513323197598e+00 5.636849570370295623e+02
2.106405537328958744e+00 5.638474457043824941e+02
2.106505561334720333e+00 5.640114444086369758e+02
2.106605585340481479e+00 5.641769072272097674e+02
2.106705609346243069e+00 5.643437877041741331e+02
2.106805633352004214e+00 5.645120388772577371e+02
2.106905657357765804e+00 5.646816133050008375e+02
2.107005681363526950e+00 5.648524630940519273e+02
2.107105705369288540e+00 5.650245399265969581e+02
2.107205729375049685e+00 5.651977950878947468e+02
2.107305753380811275e+00 5.653721794939109486e+02
2.107405777386572421e+00 5.655476437190329762e+02
2.107505801392334011e+00 5.657241380238478996e+02
2.107605825398095156e+00 5.659016123829715070e+02
2.107705849403856746e+00 5.660800165129111292e+02
2.107805873409618336e+00 5.662592998999473366e+02
2.107905897415379926e+00 5.664394118280182511e+02
2.108005921421141071e+00 5.666203014065919206e+02
2.108105945426902217e+00 5.668019175985132279e+02
2.108205969432663807e+00 5.669842092478047562e+02
2.108305993438425396e+00 5.671671251074164957e+02
2.108406017444186542e+00 5.673506138668948324e+02
2.108506041449947688e+00 5.675346241799721838e+02
2.108606065455709278e+00 5.677191046920506778e+02
2.108706089461470867e+00 5.679040040675671435e+02
2.108806113467232013e+00 5.680892710172331590e+02
2.108906137472993159e+00 5.682748543251236697e+02
2.109006161478754748e+00 5.684607028756074669e+02
2.109106185484516338e+00 5.686467656801067960e+02
2.109206209490277484e+00 5.688329919036623323e+02
2.109306233496038629e+00 5.690193308913040937e+02
2.109406257501800219e+00 5.692057321942020280e+02
2.109506281507561809e+00 5.693921455955878628e+02
2.109606305513323399e+00 5.695785211364383258e+02
2.109706329519084544e+00 5.697648091408998425e+02
2.109806353524846134e+00 5.699509602414480014e+02
2.109906377530607280e+00 5.701369254037601877e+02
2.110006401536368870e+00 5.703226559513057055e+02
2.110106425542130015e+00 5.705081035896192816e+02
2.110206449547891605e+00 5.706932204302643186e+02
2.110306473553652751e+00 5.708779590144641816e+02
2.110406497559414341e+00 5.710622723363919704e+02
2.110506521565175486e+00 5.712461138661100222e+02
2.110606545570937076e+00 5.714294375721453889e+02
2.110706569576698222e+00 5.716121979436888978e+02
2.110806593582459811e+00 5.717943500124121101e+02
2.110906617588220957e+00 5.719758493738889911e+02
2.111006641593982547e+00 5.721566522086105806e+02
2.111106665599743692e+00 5.723367153025864127e+02
2.111206689605505282e+00 5.725159960675202910e+02
2.111306713611266428e+00 5.726944525605528042e+02
2.111406737617028018e+00 5.728720435035597802e+02
2.111506761622789607e+00 5.730487283020029281e+02
2.111606785628550753e+00 5.732244670633152737e+02
2.111706809634312343e+00 5.733992206148237756e+02
2.111806833640073489e+00 5.735729505211903643e+02
2.111906857645835078e+00 5.737456191013794751e+02
2.112006881651596224e+00 5.739171894451203570e+02
2.112106905657357814e+00 5.740876254288870086e+02
2.112206929663118959e+00 5.742568917313648171e+02
2.112306953668880549e+00 5.744249538484083359e+02
2.112406977674641695e+00 5.745917781074872437e+02
2.112507001680403285e+00 5.747573316816050237e+02
2.112607025686164430e+00 5.749215826026913874e+02
2.112707049691926020e+00 5.750844997744675311e+02
2.112807073697687166e+00 5.752460529847652424e+02
2.112907097703448756e+00 5.754062129173141784e+02
2.113007121709209901e+00 5.755649511629779909e+02
2.113107145714971491e+00 5.757222402304412299e+02
2.113207169720732637e+00 5.758780535563474814e+02
2.113307193726494226e+00 5.760323655148786202e+02
2.113407217732255816e+00 5.761851514267756329e+02
2.113507241738016962e+00 5.763363875678013528e+02
2.113607265743778552e+00 5.764860511766373747e+02
2.113707289749539697e+00 5.766341204622177656e+02
2.113807313755301287e+00 5.767805746104955915e+02
2.113907337761062433e+00 5.769253937906433976e+02
2.114007361766824022e+00 5.770685591606855951e+02
2.114107385772585168e+00 5.772100528725586628e+02
2.114207409778346758e+00 5.773498580766092800e+02
2.114307433784107904e+00 5.774879589255172050e+02
2.114407457789869493e+00 5.776243405776534701e+02
2.114507481795630639e+00 5.777589891998713938e+02
2.114607505801392229e+00 5.778918919697305228e+02
2.114707529807153374e+00 5.780230370771530488e+02
2.114807553812914964e+00 5.781524137255236155e+02
2.114907577818676110e+00 5.782800121322221685e+02
2.115007601824437700e+00 5.784058235286004219e+02
2.115107625830199289e+00 5.785298401594016013e+02
2.115207649835960879e+00 5.786520552816290319e+02
2.115307673841722025e+00 5.787724631628620955e+02
2.115407697847483171e+00 5.788910590790276274e+02
2.115507721853244760e+00 5.790078393116280040e+02
2.115607745859006350e+00 5.791228011444305821e+02
2.115707769864767496e+00 5.792359428596275848e+02
2.115807793870528641e+00 5.793472637334571118e+02
2.115907817876290231e+00 5.794567640313111951e+02
2.116007841882051821e+00 5.795644450023157788e+02
2.116107865887812967e+00 5.796703088734038829e+02
2.116207889893574112e+00 5.797743588428741077e+02
2.116307913899335702e+00 5.798765990734550542e+02
2.116407937905097292e+00 5.799770346848692952e+02
2.116507961910858437e+00 5.800756717459078118e+02
2.116607985916619583e+00 5.801725172660275121e+02
2.116708009922381173e+00 5.802675791864669463e+02
2.116808033928142763e+00 5.803608663709002258e+02
2.116908057933903908e+00 5.804523885956264166e+02
2.117008081939665498e+00 5.805421565393089622e+02
2.117108105945427088e+00 5.806301817722678607e+02
2.117208129951188234e+00 5.807164767453384684e+02
2.117308153956949823e+00 5.808010547782987487e+02
2.117408177962710969e+00 5.808839300478800851e+02
2.117508201968472559e+00 5.809651175753640473e+02
2.117608225974233704e+00 5.810446332137805712e+02
2.117708249979995294e+00 5.811224936347092580e+02
2.117808273985756440e+00 5.811987163147025512e+02
2.117908297991518030e+00 5.812733195213288582e+02
2.118008321997279175e+00 5.813463222988572170e+02
2.118108346003040765e+00 5.814177444535816903e+02
2.118208370008801911e+00 5.814876065388061761e+02
2.118308394014563500e+00 5.815559298394904317e+02
2.118408418020324646e+00 5.816227363565767519e+02
2.118508442026086236e+00 5.816880487909965041e+02
2.118608466031847382e+00 5.817518905273799419e+02
2.118708490037608971e+00 5.818142856174679309e+02
2.118808514043370561e+00 5.818752587632441191e+02
2.118908538049131707e+00 5.819348352997978964e+02
2.119008562054893297e+00 5.819930411779218957e+02
2.119108586060654442e+00 5.820499029464644991e+02
2.119208610066416032e+00 5.821054477344442830e+02
2.119308634072177178e+00 5.821597032329348167e+02
2.119408658077938767e+00 5.822126976767369797e+02
2.119508682083699913e+00 5.822644598258461883e+02
2.119608706089461503e+00 5.823150189467248765e+02
2.119708730095222649e+00 5.823644047933960337e+02
2.119808754100984238e+00 5.824126475883672356e+02
2.119908778106745384e+00 5.824597780033936942e+02
2.120008802112506974e+00 5.825058271400970398e+02
2.120108826118268119e+00 5.825508265104483598e+02
2.120208850124029709e+00 5.825948080171274341e+02
2.120308874129790855e+00 5.826378039337704422e+02
2.120408898135552445e+00 5.826798468851175130e+02
2.120508922141313590e+00 5.827209698270712579e+02
2.120608946147075180e+00 5.827612060266790195e+02
2.120708970152836770e+00 5.828005890420489550e+02
2.120808994158597915e+00 5.828391527022135961e+02
2.120909018164359505e+00 5.828769310869494120e+02
2.121009042170120651e+00 5.829139585065679512e+02
2.121109066175882241e+00 5.829502694816854955e+02
2.121209090181643386e+00 5.829858987229864624e+02
2.121309114187404976e+00 5.830208811109888529e+02
2.121409138193166122e+00 5.830552516758284582e+02
2.121509162198927712e+00 5.830890455770630751e+02
2.121609186204688857e+00 5.831222980835191265e+02
2.121709210210450447e+00 5.831550445531854621e+02
2.121809234216211593e+00 5.831873204131636612e+02
2.121909258221973182e+00 5.832191611396933695e+02
2.122009282227734328e+00 5.832506022382560786e+02
2.122109306233495918e+00 5.832816792237708796e+02
2.122209330239257064e+00 5.833124276008904872e+02
2.122309354245018653e+00 5.833428828444175451e+02
2.122409378250779799e+00 5.833730803798332545e+02
2.122509402256541833e+00 5.834030555639715203e+02
2.122609426262302978e+00 5.834328436658252031e+02
2.122709450268064124e+00 5.834624798475160787e+02
2.122809474273825714e+00 5.834919991454195269e+02
2.122909498279587304e+00 5.835214364514696399e+02
2.123009522285348449e+00 5.835508264946414556e+02
2.123109546291109595e+00 5.835802038226287323e+02
2.123209570296871185e+00 5.836096027837204474e+02
2.123309594302632775e+00 5.836390575088893229e+02
2.123409618308393920e+00 5.836686018940990834e+02
2.123509642314155066e+00 5.836982695828385204e+02
2.123609666319916656e+00 5.837280939488932745e+02
2.123709690325678245e+00 5.837581080793596584e+02
2.123809714331439391e+00 5.837883447579167751e+02
2.123909738337200537e+00 5.838188364483520445e+02
2.124009762342962127e+00 5.838496152783612843e+02
2.124109786348723716e+00 5.838807130236219791e+02
2.124209810354484862e+00 5.839121610921497449e+02
2.124309834360246008e+00 5.839439905089482181e+02
2.124409858366008041e+00 5.839762319009516887e+02
2.124509882371769187e+00 5.840089154822779847e+02
2.124609906377530777e+00 5.840420710397868334e+02
2.124709930383291923e+00 5.840757279189568862e+02
2.124809954389053512e+00 5.841099150100892530e+02
2.124909978394814658e+00 5.841446607348345879e+02
2.125010002400576248e+00 5.841799930330595316e+02
2.125110026406337393e+00 5.842159393500503484e+02
2.125210050412098983e+00 5.842525266240639894e+02
2.125310074417860129e+00 5.842897812742264705e+02
2.125410098423621719e+00 5.843277291887899310e+02
2.125510122429382864e+00 5.843663957137474654e+02
2.125610146435144454e+00 5.844058056418084561e+02
2.125710170440905600e+00 5.844459832017497547e+02
2.125810194446667190e+00 5.844869520481295240e+02
2.125910218452428335e+00 5.845287352513809083e+02
2.126010242458189925e+00 5.845713552882849626e+02
2.126110266463951071e+00 5.846148340328211361e+02
2.126210290469712660e+00 5.846591927474063368e+02
2.126310314475474250e+00 5.847044520745166665e+02
2.126410338481235396e+00 5.847506320287022845e+02
2.126510362486996986e+00 5.847977519889921041e+02
2.126610386492758131e+00 5.848458306916891161e+02
2.126710410498519721e+00 5.848948862235661181e+02
2.126810434504280867e+00 5.849449360154530950e+02
2.126910458510042456e+00 5.849959968362213658e+02
2.127010482515803602e+00 5.850480847871713195e+02
2.127110506521565192e+00 5.851012152968139617e+02
2.127210530527326338e+00 5.851554031160551403e+02
2.127310554533087927e+00 5.852106623137751740e+02
2.127410578538849073e+00 5.852670062728141147e+02
2.127510602544610663e+00 5.853244476863505952e+02
2.127610626550371808e+00 5.853829985546826720e+02
2.127710650556133398e+00 5.854426701824061183e+02
2.127810674561894544e+00 5.855034731759890292e+02
2.127910698567656134e+00 5.855654174417428521e+02
2.128010722573417279e+00 5.856285121841885939e+02
2.128110746579178869e+00 5.856927659048145642e+02
2.128210770584940459e+00 5.857581864012258848e+02
2.128310794590701605e+00 5.858247807666821245e+02
2.128410818596463194e+00 5.858925553900244267e+02
2.128510842602224340e+00 5.859615159559808717e+02
2.128610866607985930e+00 5.860316674458606485e+02
2.128710890613747075e+00 5.861030141386205514e+02
2.128810914619508665e+00 5.861755596123105079e+02
2.128910938625269811e+00 5.862493067458894984e+02
2.129010962631031401e+00 5.863242577214102766e+02
2.129110986636792546e+00 5.864004140265691376e+02
2.129211010642554136e+00 5.864777764576173240e+02
2.129311034648315282e+00 5.865563451226269081e+02
2.129411058654076871e+00 5.866361194451113761e+02
2.129511082659838017e+00 5.867170981679947772e+02
2.129611106665599607e+00 5.867992793579213640e+02
2.129711130671360753e+00 5.868826604099045881e+02
2.129811154677122342e+00 5.869672380523147694e+02
2.129911178682883932e+00 5.870530083521858842e+02
2.130011202688645078e+00 5.871399667208555684e+02
2.130111226694406668e+00 5.872281079199136684e+02
2.130211250700168257e+00 5.873174260674697962e+02
2.130311274705929403e+00 5.874079146447239737e+02
2.130411298711690549e+00 5.874995665028377516e+02
2.130511322717452138e+00 5.875923738701003458e+02
2.130611346723213728e+00 5.876863283593834240e+02
2.130711370728974874e+00 5.877814209758744255e+02
2.130811394734736020e+00 5.878776421250914836e+02
2.130911418740497609e+00 5.879749816211608504e+02
2.131011442746259199e+00 5.880734286953593255e+02
2.131111466752020345e+00 5.881729720049135040e+02
2.131211490757781490e+00 5.882735996420432230e+02
2.131311514763543080e+00 5.883752991432518229e+02
2.131411538769304670e+00 5.884780574988462831e+02
2.131511562775065816e+00 5.885818611626852999e+02
2.131611586780826961e+00 5.886866960621501903e+02
2.131711610786588551e+00 5.887925476083263447e+02
2.131811634792350141e+00 5.888994007063869276e+02
2.131911658798111731e+00 5.890072397661792820e+02
2.132011682803872876e+00 5.891160487129994863e+02
2.132111706809634466e+00 5.892258109985459669e+02
2.132211730815395612e+00 5.893365096120536464e+02
2.132311754821157201e+00 5.894481270915903224e+02
2.132411778826918347e+00 5.895606455355132312e+02
2.132511802832679937e+00 5.896740466140797707e+02
2.132611826838441083e+00 5.897883115811971493e+02
2.132711850844202672e+00 5.899034212863112998e+02
2.132811874849963818e+00 5.900193561864200547e+02
2.132911898855725408e+00 5.901360963582094428e+02
2.133011922861486553e+00 5.902536215103000359e+02
2.133111946867248143e+00 5.903719109955967497e+02
2.133211970873009289e+00 5.904909438237330050e+02
2.133311994878770879e+00 5.906106986736073168e+02
2.133412018884532024e+00 5.907311539059930965e+02
2.133512042890293614e+00 5.908522875762267859e+02
2.133612066896055204e+00 5.909740774469548796e+02
2.133712090901816349e+00 5.910965010009399521e+02
2.133812114907577939e+00 5.912195354539109076e+02
2.133912138913339085e+00 5.913431577674598429e+02
2.134012162919100675e+00 5.914673446619634660e+02
2.134112186924861820e+00 5.915920726295345276e+02
2.134212210930623410e+00 5.917173179469872366e+02
2.134312234936384556e+00 5.918430566888126805e+02
2.134412258942146146e+00 5.919692647401543582e+02
2.134512282947907291e+00 5.920959178097797349e+02
2.134612306953668881e+00 5.922229914430345161e+02
2.134712330959430027e+00 5.923504610347773678e+02
2.134812354965191616e+00 5.924783018422856458e+02
2.134912378970952762e+00 5.926064889981254282e+02
2.135012402976714352e+00 5.927349975229769825e+02
2.135112426982475498e+00 5.928638023384107782e+02
2.135212450988237087e+00 5.929928782796022233e+02
2.135312474993998233e+00 5.931222001079873962e+02
2.135412498999759823e+00 5.932517425238418127e+02
2.135512523005521413e+00 5.933814801787838178e+02
2.135612547011282558e+00 5.935113876881908936e+02
2.135712571017044148e+00 5.936414396435241088e+02
2.135812595022805294e+00 5.937716106245559331e+02
2.135912619028566883e+00 5.939018752114906192e+02
2.136012643034328029e+00 5.940322079969753304e+02
2.136112667040089619e+00 5.941625835979928070e+02
2.136212691045850764e+00 5.942929766676315921e+02
2.136312715051612354e+00 5.944233619067260861e+02
2.136412739057373500e+00 5.945537140753613130e+02
2.136512763063135090e+00 5.946840080042388763e+02
2.136612787068896235e+00 5.948142186058936431e+02
2.136712811074657825e+00 5.949443208857605896e+02
2.136812835080418971e+00 5.950742899530846444e+02
2.136912859086180561e+00 5.952041010316661414e+02
2.137012883091941706e+00 5.953337294704438136e+02
2.137112907097703296e+00 5.954631507539004360e+02
2.137212931103464442e+00 5.955923405122954364e+02
2.137312955109226031e+00 5.957212745317141298e+02
2.137412979114987621e+00 5.958499287639333488e+02
2.137513003120749211e+00 5.959782793360964206e+02
2.137613027126510357e+00 5.961063025601918071e+02
2.137713051132271502e+00 5.962339749423395006e+02
2.137813075138033092e+00 5.963612731918695999e+02
2.137913099143794682e+00 5.964881742301979557e+02
2.138013123149555827e+00 5.966146551994967240e+02
2.138113147155316973e+00 5.967406934711473241e+02
2.138213171161078563e+00 5.968662666539792099e+02
2.138313195166840153e+00 5.969913526022952510e+02
2.138413219172601298e+00 5.971159294236703090e+02
2.138513243178362444e+00 5.972399754865306249e+02
2.138613267184124034e+00 5.973634694275031052e+02
2.138713291189885624e+00 5.974863901585399617e+02
2.138813315195646769e+00 5.976087168738122273e+02
2.138913339201407915e+00 5.977304290563675977e+02
2.139013363207169505e+00 5.978515064845576035e+02
2.139113387212931094e+00 5.979719292382277445e+02
2.139213411218692684e+00 5.980916777046693369e+02
2.139313435224453830e+00 5.982107325843350054e+02
2.139413459230215420e+00 5.983290748963094074e+02
2.139513483235976565e+00 5.984466859835458763e+02
2.139613507241738155e+00 5.985635475178556817e+02
2.139713531247499301e+00 5.986796415046567290e+02
2.139813555253260891e+00 5.987949502874826067e+02
2.139913579259022036e+00 5.989094565522419771e+02
2.140013603264783626e+00 5.990231433312416129e+02
2.140113627270544772e+00 5.991359940069606864e+02
2.140213651276306361e+00 5.992479923155858614e+02
2.140313675282067507e+00 5.993591223503017318e+02
2.140413699287829097e+00 5.994693685643375147e+02
2.140513723293590242e+00 5.995787157737729558e+02
2.140613747299351832e+00 5.996871491601083335e+02
2.140713771305112978e+00 5.997946542725853760e+02
2.140813795310874568e+00 5.999012170302752338e+02
2.140913819316635713e+00 6.000068237239277096e+02
2.141013843322397303e+00 6.001114610175842472e+02
2.141113867328158893e+00 6.002151159499551341e+02
2.141213891333920039e+00 6.003177759355637590e+02
2.141313915339681628e+00 6.004194287656608822e+02
2.141413939345442774e+00 6.005200626089075513e+02
2.141513963351204364e+00 6.006196660118358750e+02
2.141613987356965509e+00 6.007182278990728719e+02
2.141714011362727099e+00 6.008157375733584331e+02
2.141814035368488245e+00 6.009121847153281806e+02
2.141914059374249835e+00 6.010075593830869138e+02
2.142014083380010980e+00 6.011018520115653700e+02
2.142114107385772570e+00 6.011950534116647304e+02
2.142214131391533716e+00 6.012871547691908063e+02
2.142314155397295306e+00 6.013781476435838158e+02
2.142414179403056451e+00 6.014680239664476176e+02
2.142514203408818041e+00 6.015567760398738528e+02
2.142614227414579187e+00 6.016443965345741844e+02
2.142714251420340776e+00 6.017308784878215420e+02
2.142814275426101922e+00 6.018162153011958253e+02
2.142914299431863512e+00 6.019004007381543033e+02
2.143014323437625102e+00 6.019834289214088585e+02
2.143114347443386247e+00 6.020652943301372488e+02
2.143214371449147837e+00 6.021459917970134939e+02
2.143314395454908983e+00 6.022255165050723917e+02
2.143414419460670572e+00 6.023038639844064619e+02
2.143514443466431718e+00 6.023810301087030439e+02
2.143614467472193308e+00 6.024570110916264412e+02
2.143714491477954454e+00 6.025318034830451097e+02
2.143814515483716043e+00 6.026054041651118496e+02
2.143914539489477189e+00 6.026778103482012057e+02
2.144014563495238779e+00 6.027490195667080570e+02
2.144114587500999924e+00 6.028190296747110324e+02
2.144214611506761514e+00 6.028878388415079144e+02
2.144314635512522660e+00 6.029554455470250787e+02
2.144414659518284250e+00 6.030218485771079031e+02
2.144514683524045395e+00 6.030870470186946477e+02
2.144614707529806985e+00 6.031510402548819911e+02
2.144714731535568575e+00 6.032138279598823374e+02
2.144814755541330165e+00 6.032754100938846022e+02
2.144914779547091310e+00 6.033357868978148417e+02
2.145014803552852456e+00 6.033949588880088868e+02
2.145114827558614046e+00 6.034529268507990309e+02
2.145214851564375635e+00 6.035096918370211370e+02
2.145314875570136781e+00 6.035652551564421628e+02
2.145414899575897927e+00 6.036196183721194757e+02
2.145514923581659517e+00 6.036727832946983199e+02
2.145614947587421106e+00 6.037247519766409596e+02
2.145714971593182252e+00 6.037755267064053442e+02
2.145814995598943398e+00 6.038251100025732967e+02
2.145915019604704987e+00 6.038735046079302720e+02
2.146015043610466577e+00 6.039207134835054376e+02
2.146115067616227723e+00 6.039667398025796956e+02
2.146215091621988869e+00 6.040115869446559600e+02
2.146315115627750458e+00 6.040552584894105621e+02
2.146415139633512048e+00 6.040977582106197588e+02
2.146515163639273194e+00 6.041390900700715747e+02
2.146615187645034784e+00 6.041792582114657080e+02
2.146715211650796373e+00 6.042182669543091151e+02
2.146815235656557519e+00 6.042561207878065943e+02
2.146915259662319109e+00 6.042928243647567115e+02
2.147015283668080254e+00 6.043283824954555712e+02
2.147115307673841844e+00 6.043628001416136613e+02
2.147215331679602990e+00 6.043960824102857714e+02
2.147315355685364580e+00 6.044282345478277421e+02
2.147415379691125725e+00 6.044592619338737904e+02
2.147515403696887315e+00 6.044891700753501027e+02
2.147615427702648461e+00 6.045179646005167342e+02
2.147715451708410050e+00 6.045456512530539612e+02
2.147815475714171196e+00 6.045722358861860357e+02
2.147915499719932786e+00 6.045977244568588276e+02
2.148015523725693932e+00 6.046221230199633965e+02
2.148115547731455521e+00 6.046454377226173165e+02
2.148215571737216667e+00 6.046676747985035263e+02
2.148315595742978257e+00 6.046888405622722757e+02
2.148415619748739847e+00 6.047089414040135580e+02
2.148515643754500992e+00 6.047279837837928653e+02
2.148615667760262582e+00 6.047459742262674354e+02
2.148715691766023728e+00 6.047629193153750293e+02
2.148815715771785317e+00 6.047788256891068386e+02
2.148915739777546463e+00 6.047937000343609952e+02
2.149015763783308053e+00 6.048075490818848721e+02
2.149115787789069199e+00 6.048203796013102647e+02
2.149215811794830788e+00 6.048321983962752029e+02
2.149315835800591934e+00 6.048430122996479668e+02
2.149415859806353524e+00 6.048528281688469406e+02
2.149515883812114669e+00 6.048616528812625575e+02
2.149615907817876259e+00 6.048694933297822445e+02
2.149715931823637405e+00 6.048763564184239385e+02
2.149815955829398995e+00 6.048822490580776048e+02
2.149915979835160140e+00 6.048871781623560082e+02
2.150016003840921730e+00 6.048911506435603087e+02
2.150116027846682876e+00 6.048941734087627538e+02
2.150216051852444465e+00 6.048962533560024895e+02
2.150316075858206055e+00 6.048973973706030165e+02
2.150416099863967201e+00 6.048976123216095857e+02
2.150516123869728791e+00 6.048969050583484659e+02
2.150616147875489936e+00 6.048952824071116083e+02
2.150716171881251526e+00 6.048927511679610234e+02
2.150816195887012672e+00 6.048893181116688993e+02
2.150916219892774262e+00 6.048849899767736815e+02
2.151016243898535407e+00 6.048797734667743953e+02
2.151116267904296997e+00 6.048736752474462719e+02
2.151216291910058143e+00 6.048667019442935953e+02
2.151316315915819732e+00 6.048588601401256710e+02
2.151416339921580878e+00 6.048501563727714938e+02
2.151516363927342468e+00 6.048405971329192425e+02
2.151616387933103614e+00 6.048301888620925411e+02
2.151716411938865203e+00 6.048189379507565491e+02
2.151816435944626349e+00 6.048068507365554751e+02
2.151916459950387939e+00 6.047939335026849221e+02
2.152016483956149084e+00 6.047801924763941770e+02
2.152116507961911118e+00 6.047656338276191264e+02
2.152216531967672264e+00 6.047502636677503460e+02
2.152316555973433410e+00 6.047340880485288608e+02
2.152416579979194999e+00 6.047171129610721891e+02
2.152516603984956589e+00 6.046993443350319239e+02
2.152616627990717735e+00 6.046807880378787559e+02
2.152716651996478880e+00 6.046614498743173272e+02
2.152816676002240470e+00 6.046413355858229579e+02
2.152916700008002060e+00 6.046204508503105899e+02
2.153016724013763206e+00 6.045988012819244659e+02
2.153116748019524351e+00 6.045763924309509321e+02
2.153216772025285941e+00 6.045532297838557270e+02
2.153316796031047531e+00 6.045293187634387095e+02
2.153416820036808677e+00 6.045046647291098907e+02
2.153516844042569822e+00 6.044792729772791517e+02
2.153616868048331412e+00 6.044531487418662437e+02
2.153716892054093002e+00 6.044262971949178791e+02
2.153816916059854147e+00 6.043987234473435137e+02
2.153916940065615293e+00 6.043704325497528771e+02
2.154016964071377327e+00 6.043414294934073041e+02
2.154116988077138473e+00 6.043117192112723615e+02
2.154217012082900062e+00 6.042813065791748386e+02
2.154317036088661208e+00 6.042501964170591009e+02
2.154417060094422798e+00 6.042183934903418958e+02
2.154517084100183943e+00 6.041859025113640200e+02
2.154617108105945533e+00 6.041527281409307761e+02
2.154717132111706679e+00 6.041188749899492905e+02
2.154817156117468269e+00 6.040843476211464349e+02
2.154917180123229414e+00 6.040491505508747423e+02
2.155017204128991004e+00 6.040132882510023364e+02
2.155117228134752150e+00 6.039767651508768722e+02
2.155217252140513740e+00 6.039395856393704207e+02
2.155317276146274885e+00 6.039017540669946129e+02
2.155417300152036475e+00 6.038632747480845637e+02
2.155517324157797621e+00 6.038241519630554421e+02
2.155617348163559210e+00 6.037843899607159983e+02
2.155717372169320356e+00 6.037439929606464375e+02
2.155817396175081946e+00 6.037029651556325689e+02
2.155917420180843536e+00 6.036613107141571390e+02
2.156017444186604681e+00 6.036190337829339114e+02
2.156117468192366271e+00 6.035761384894994990e+02
2.156217492198127417e+00 6.035326289448431680e+02
2.156317516203889006e+00 6.034885092460780243e+02
2.156417540209650152e+00 6.034437834791501700e+02
2.156517564215411742e+00 6.033984557215815130e+02
2.156617588221172888e+00 6.033525300452453166e+02
2.156717612226934477e+00 6.033060105191659659e+02
2.156817636232695623e+00 6.032589012123427210e+02
2.156917660238457213e+00 6.032112061965955263e+02
2.157017684244218358e+00 6.031629295494253711e+02
2.157117708249979948e+00 6.031140753568890887e+02
2.157217732255741094e+00 6.030646477164833641e+02
2.157317756261502684e+00 6.030146507400370410e+02
2.157417780267263829e+00 6.029640885565994495e+02
2.157517804273025419e+00 6.029129653153390791e+02
2.157617828278786565e+00 6.028612851884288375e+02
2.157717852284548155e+00 6.028090523739261926e+02
2.157817876290309744e+00 6.027562710986464936e+02
2.157917900296070890e+00 6.027029456210143508e+02
2.158017924301832480e+00 6.026490802339058064e+02
2.158117948307593625e+00 6.025946792674628796e+02
2.158217972313355215e+00 6.025397470918854879e+02
2.158317996319116361e+00 6.024842881201983573e+02
2.158418020324877951e+00 6.024283068109841679e+02
2.158518044330639096e+00 6.023718076710825926e+02
2.158618068336400686e+00 6.023147952582530706e+02
2.158718092342161832e+00 6.022572741837986996e+02
2.158818116347923421e+00 6.021992491151397644e+02
2.158918140353684567e+00 6.021407247783530465e+02
2.159018164359446157e+00 6.020817059606463317e+02
2.159118188365207303e+00 6.020221975127934684e+02
2.159218212370968892e+00 6.019622043515062160e+02
2.159318236376730038e+00 6.019017314617497050e+02
2.159418260382491628e+00 6.018407838989974152e+02
2.159518284388253218e+00 6.017793667914233993e+02
2.159618308394014363e+00 6.017174853420242471e+02
2.159718332399775953e+00 6.016551448306768179e+02
2.159818356405537543e+00 6.015923506161176419e+02
2.159918380411298688e+00 6.015291081378569515e+02
2.160018404417059834e+00 6.014654229180061975e+02
2.160118428422821424e+00 6.014013005630364432e+02
2.160218452428583014e+00 6.013367467654475149e+02
2.160318476434344159e+00 6.012717673053584804e+02
2.160418500440105305e+00 6.012063680520110438e+02
2.160518524445866895e+00 6.011405549651838101e+02
2.160618548451628484e+00 6.010743340965219659e+02
2.160718572457389630e+00 6.010077115907686220e+02
2.160818596463150776e+00 6.009406936869097535e+02
2.160918620468912366e+00 6.008732867192179583e+02
2.161018644474673955e+00 6.008054971182050394e+02
2.161118668480435101e+00 6.007373314114729510e+02
2.161218692486196247e+00 6.006687962244665187e+02
2.161318716491957836e+00 6.005998982811233873e+02
2.161418740497719426e+00 6.005306444044272212e+02
2.161518764503481016e+00 6.004610415168483541e+02
2.161618788509242162e+00 6.003910966406876923e+02
2.161718812515003751e+00 6.003208168983122732e+02
2.161818836520764897e+00 6.002502095122831633e+02
2.161918860526526487e+00 6.001792818053768315e+02
2.162018884532287633e+00 6.001080412005005655e+02
2.162118908538049222e+00 6.000364952204940892e+02
2.162218932543810368e+00 5.999646514878266998e+02
2.162318956549571958e+00 5.998925177241832216e+02
2.162418980555333103e+00 5.998201017499361569e+02
2.162519004561094693e+00 5.997474114835154069e+02
2.162619028566855839e+00 5.996744549406573697e+02
2.162719052572617429e+00 5.996012402335520619e+02
2.162819076578378574e+00 5.995277755698740521e+02
2.162919100584140164e+00 5.994540692517043681e+02
2.163019124589901310e+00 5.993801296743442890e+02
2.163119148595662899e+00 5.993059653250138581e+02
2.163219172601424489e+00 5.992315847814455765e+02
2.163319196607185635e+00 5.991569967103685030e+02
2.163419220612947225e+00 5.990822098658769619e+02
2.163519244618708370e+00 5.990072330877019340e+02
2.163619268624469960e+00 5.989320752993673977e+02
2.163719292630231106e+00 5.988567455062409408e+02
2.163819316635992696e+00 5.987812527934828495e+02
2.163919340641753841e+00 5.987056063238874231e+02
2.164019364647515431e+00 5.986298153356212879e+02
2.164119388653276577e+00 5.985538891398607575e+02
2.164219412659038166e+00 5.984778371183284662e+02
2.164319436664799312e+00 5.984016687207272298e+02
2.164419460670560902e+00 5.983253934620818200e+02
2.164519484676322048e+00 5.982490209199777382e+02
2.164619508682083637e+00 5.981725607317126787e+02
2.164719532687844783e+00 5.980960225913457862e+02
2.164819556693606373e+00 5.980194162466632406e+02
2.164919580699367518e+00 5.979427514960518693e+02
2.165019604705129108e+00 5.978660381852848786e+02
2.165119628710890698e+00 5.977892862042210709e+02
2.165219652716651844e+00 5.977125054834231150e+02
2.165319676722413433e+00 5.976357059906937366e+02
2.165419700728174579e+00 5.975588977275331217e+02
2.165519724733936169e+00 5.974820907255168549e+02
2.165619748739697314e+00 5.974052950426065536e+02
2.165719772745458904e+00 5.973285207593797850e+02
2.165819796751220050e+00 5.972517779751997296e+02
2.165919820756981640e+00 5.971750768043095832e+02
2.166019844762742785e+00 5.970984273718701161e+02
2.166119868768504375e+00 5.970218398099318620e+02
2.166219892774265521e+00 5.969453242533487582e+02
2.166319916780027111e+00 5.968688908356390357e+02
2.166419940785788256e+00 5.967925496847894919e+02
2.166519964791549846e+00 5.967163109190114483e+02
2.166619988797310992e+00 5.966401846424499809e+02
2.166720012803072581e+00 5.965641809408483596e+02
2.166820036808833727e+00 5.964883098771713321e+02
2.166920060814595317e+00 5.964125814871911189e+02
2.167020084820356907e+00 5.963370057750385058e+02
2.167120108826118496e+00 5.962615927087223326e+02
2.167220132831879642e+00 5.961863522156183990e+02
2.167320156837640788e+00 5.961112941779362018e+02
2.167420180843402377e+00 5.960364284281627079e+02
2.167520204849163967e+00 5.959617647444856630e+02
2.167620228854925113e+00 5.958873128462046225e+02
2.167720252860686259e+00 5.958130823891252703e+02
2.167820276866447848e+00 5.957390829609519187e+02
2.167920300872209438e+00 5.956653240766661384e+02
2.168020324877970584e+00 5.955918151739113000e+02
2.168120348883731729e+00 5.955185656083717731e+02
2.168220372889493319e+00 5.954455846491622424e+02
2.168320396895254909e+00 5.953728814742221402e+02
2.168420420901016055e+00 5.953004651657233808e+02
2.168520444906777200e+00 5.952283447054896897e+02
2.168620468912538790e+00 5.951565289704394672e+02
2.168720492918300380e+00 5.950850267280465005e+02
2.168820516924061970e+00 5.950138466318275050e+02
2.168920540929823115e+00 5.949429972168575205e+02
2.169020564935584705e+00 5.948724868953177065e+02
2.169120588941345851e+00 5.948023239520788366e+02
2.169220612947107441e+00 5.947325165403232177e+02
2.169320636952868586e+00 5.946630726772061735e+02
2.169420660958630176e+00 5.945940002395684587e+02
2.169520684964391322e+00 5.945253069596923297e+02
2.169620708970152911e+00 5.944570004211102514e+02
2.169720732975914057e+00 5.943890880544701076e+02
2.169820756981675647e+00 5.943215771334602096e+02
2.169920780987436792e+00 5.942544747707902388e+02
2.170020804993198382e+00 5.941877879142427901e+02
2.170120828998959528e+00 5.941215233427886915e+02
2.170220853004721118e+00 5.940556876627765632e+02
2.170320877010482263e+00 5.939902873041920657e+02
2.170420901016243853e+00 5.939253285169952505e+02
2.170520925022004999e+00 5.938608173675419266e+02
2.170620949027766589e+00 5.937967597350814231e+02
2.170720973033528178e+00 5.937331613083414368e+02
2.170820997039289324e+00 5.936700275822040567e+02
2.170921021045050914e+00 5.936073638544694404e+02
2.171021045050812059e+00 5.935451752227127145e+02
2.171121069056573649e+00 5.934834665812422827e+02
2.171221093062334795e+00 5.934222426181470382e+02
2.171321117068096385e+00 5.933615078124564661e+02
2.171421141073857530e+00 5.933012664313934010e+02
2.171521165079619120e+00 5.932415225277412674e+02
2.171621189085380266e+00 5.931822799373142061e+02
2.171721213091141856e+00 5.931235422765379326e+02
2.171821237096903001e+00 5.930653129401470096e+02
2.171921261102664591e+00 5.930075950989923967e+02
2.172021285108425737e+00 5.929503916979690530e+02
2.172121309114187326e+00 5.928937054540562031e+02
2.172221333119948472e+00 5.928375388544865245e+02
2.172321357125710062e+00 5.927818941550302725e+02
2.172421381131471652e+00 5.927267733784060511e+02
2.172521405137232797e+00 5.926721783128164134e+02
2.172621429142994387e+00 5.926181105106102223e+02
2.172721453148755533e+00 5.925645712870734769e+02
2.172821477154517122e+00 5.925115617193509934e+02
2.172921501160278268e+00 5.924590826454943908e+02
2.173021525166039858e+00 5.924071346636486624e+02
2.173121549171801004e+00 5.923557181313659612e+02
2.173221573177562593e+00 5.923048331650567206e+02
2.173321597183323739e+00 5.922544796395761750e+02
2.173421621189085329e+00 5.922046571879423027e+02
2.173521645194846474e+00 5.921553652011962185e+02
2.173621669200608064e+00 5.921066028283967171e+02
2.173721693206369210e+00 5.920583689767490796e+02
2.173821717212130800e+00 5.920106623118804237e+02
2.173921741217891945e+00 5.919634812582439736e+02
2.174021765223653535e+00 5.919168239996691909e+02
2.174121789229414681e+00 5.918706884800477610e+02
2.174221813235176270e+00 5.918250724041564581e+02
2.174321837240937860e+00 5.917799732386243932e+02
2.174421861246699450e+00 5.917353882130319107e+02
2.174521885252460596e+00 5.916913143211559145e+02
2.174621909258221741e+00 5.916477483223475247e+02
2.174721933263983331e+00 5.916046867430469547e+02
2.174821957269744921e+00 5.915621258784415204e+02
2.174921981275506067e+00 5.915200617942547296e+02
2.175022005281267212e+00 5.914784903286731605e+02
2.175122029287028802e+00 5.914374070944115829e+02
2.175222053292790392e+00 5.913968074809051814e+02
2.175322077298551537e+00 5.913566866566441149e+02
2.175422101304312683e+00 5.913170395716316534e+02
2.175522125310074273e+00 5.912778609599811261e+02
2.175622149315835863e+00 5.912391453426370163e+02
2.175722173321597008e+00 5.912008870302277046e+02
2.175822197327358154e+00 5.911630801260449743e+02
2.175922221333119744e+00 5.911257185291474343e+02
2.176022245338881334e+00 5.910887959375902483e+02
2.176122269344642923e+00 5.910523058517776462e+02
2.176222293350404069e+00 5.910162415779318508e+02
2.176322317356165659e+00 5.909805962316843306e+02
2.176422341361926804e+00 5.909453627417849475e+02
2.176522365367688394e+00 5.909105338539221748e+02
2.176622389373449540e+00 5.908761021346582538e+02
2.176722413379211130e+00 5.908420599754761042e+02
2.176822437384972275e+00 5.908083995969296893e+02
2.176922461390733865e+00 5.907751130529072725e+02
2.177022485396495011e+00 5.907421922349928991e+02
2.177122509402256600e+00 5.907096288769303101e+02
2.177222533408017746e+00 5.906774145591862180e+02
2.177322557413779336e+00 5.906455407136088525e+02
2.177422581419540482e+00 5.906139986281814345e+02
2.177522605425302071e+00 5.905827794518622795e+02
2.177622629431063217e+00 5.905518741995172149e+02
2.177722653436824807e+00 5.905212737569323735e+02
2.177822677442585952e+00 5.904909688859146399e+02
2.177922701448347542e+00 5.904609502294624690e+02
2.178022725454109132e+00 5.904312083170235610e+02
2.178122749459870278e+00 5.904017335698144961e+02
2.178222773465631867e+00 5.903725163062160846e+02
2.178322797471393013e+00 5.903435467472365872e+02
2.178422821477154603e+00 5.903148150220295065e+02
2.178522845482915749e+00 5.902863111734849326e+02
2.178622869488677338e+00 5.902580251638612481e+02
2.178722893494438484e+00 5.902299468804841354e+02
2.178822917500200074e+00 5.902020661414865117e+02
2.178922941505961219e+00 5.901743727015979175e+02
2.179022965511722809e+00 5.901468562579772197e+02
2.179122989517483955e+00 5.901195064560813535e+02
2.179223013523245545e+00 5.900923128955736274e+02
2.179323037529006690e+00 5.900652651362622692e+02
2.179423061534768280e+00 5.900383527040661420e+02
2.179523085540529426e+00 5.900115650970074057e+02
2.179623109546291015e+00 5.899848917912246407e+02
2.179723133552052161e+00 5.899583222470018882e+02
2.179823157557813751e+00 5.899318459148141756e+02
2.179923181563575341e+00 5.899054522413811128e+02
2.180023205569336486e+00 5.898791306757279926e+02
2.180123229575098076e+00 5.898528706752481412e+02
2.180223253580859222e+00 5.898266617117651549e+02
2.180323277586620812e+00 5.898004932775924090e+02
2.180423301592381957e+00 5.897743548915767633e+02
2.180523325598143547e+00 5.897482361051399948e+02
2.180623349603904693e+00 5.897221265082970376e+02
2.180723373609666282e+00 5.896960157356561467e+02
2.180823397615427428e+00 5.896698934723966659e+02
2.180923421621189018e+00 5.896437494602195102e+02
2.181023445626950164e+00 5.896175735032659304e+02
2.181123469632711753e+00 5.895913554740012614e+02
2.181223493638472899e+00 5.895650853190625185e+02
2.181323517644234489e+00 5.895387530650625649e+02
2.181423541649995634e+00 5.895123488243496013e+02
2.181523565655757224e+00 5.894858628007175412e+02
2.181623589661518370e+00 5.894592852950622728e+02
2.181723613667280404e+00 5.894326067109852829e+02
2.181823637673041549e+00 5.894058175603348673e+02
2.181923661678802695e+00 5.893789084686839033e+02
2.182023685684564285e+00 5.893518701807460047e+02
2.182123709690325875e+00 5.893246935657136873e+02
2.182223733696087020e+00 5.892973696225309368e+02
2.182323757701848166e+00 5.892698894850859688e+02
2.182423781707609756e+00 5.892422444273262272e+02
2.182523805713371345e+00 5.892144258682844793e+02
2.182623829719132491e+00 5.891864253770295363e+02
2.182723853724893637e+00 5.891582346775171573e+02
2.182823877730655227e+00 5.891298456533561421e+02
2.182923901736416816e+00 5.891012503524756312e+02
2.183023925742177962e+00 5.890724409916948616e+02
2.183123949747939108e+00 5.890434099611953798e+02
2.183223973753700697e+00 5.890141498288832054e+02
2.183323997759462287e+00 5.889846533446511785e+02
2.183424021765223433e+00 5.889549134445272784e+02
2.183524045770985023e+00 5.889249232547139172e+02
2.183624069776746612e+00 5.888946760955140007e+02
2.183724093782507758e+00 5.888641654851361409e+02
2.183824117788269348e+00 5.888333851433851578e+02
2.183924141794030493e+00 5.888023289952286632e+02
2.184024165799792083e+00 5.887709911742431359e+02
2.184124189805553229e+00 5.887393660259286889e+02
2.184224213811314819e+00 5.887074481109032149e+02
2.184324237817075964e+00 5.886752322079601072e+02
2.184424261822837554e+00 5.886427133170001298e+02
2.184524285828598700e+00 5.886098866618237935e+02
2.184624309834360290e+00 5.885767476927961752e+02
2.184724333840121435e+00 5.885432920893653090e+02
2.184824357845883025e+00 5.885095157624517697e+02
2.184924381851644171e+00 5.884754148566911454e+02
2.185024405857405760e+00 5.884409857525381540e+02
2.185124429863166906e+00 5.884062250682300146e+02
2.185224453868928496e+00 5.883711296616010031e+02
2.185324477874689642e+00 5.883356966317567185e+02
2.185424501880451231e+00 5.882999233206006693e+02
2.185524525886212821e+00 5.882638073142122721e+02
2.185624549891973967e+00 5.882273464440812631e+02
2.185724573897735556e+00 5.881905387881889737e+02
2.185824597903496702e+00 5.881533826719436320e+02
2.185924621909258292e+00 5.881158766689659387e+02
2.186024645915019438e+00 5.880780196017212802e+02
2.186124669920781027e+00 5.880398105420056254e+02
2.186224693926542173e+00 5.880012488112771507e+02
2.186324717932303763e+00 5.879623339808413220e+02
2.186424741938064908e+00 5.879230658718788618e+02
2.186524765943826498e+00 5.878834445553276282e+02
2.186624789949587644e+00 5.878434703516123818e+02
2.186724813955349234e+00 5.878031438302216429e+02
2.186824837961110379e+00 5.877624658091385754e+02
2.186924861966871969e+00 5.877214373541170289e+02
2.187024885972633115e+00 5.876800597778108113e+02
2.187124909978394705e+00 5.876383346387555093e+02
2.187224933984156294e+00 5.875962637401985376e+02
2.187324957989917440e+00 5.875538491287828720e+02
2.187424981995679030e+00 5.875110930930867426e+02
2.187525006001440175e+00 5.874679981620153058e+02
2.187625030007201765e+00 5.874245671030480480e+02
2.187725054012962911e+00 5.873808029203429442e+02
2.187825078018724501e+00 5.873367088527003261e+02
2.187925102024485646e+00 5.872922883713824831e+02
2.188025126030247236e+00 5.872475451777975195e+02
2.188125150036008382e+00 5.872024832010431510e+02
2.188225174041769971e+00 5.871571065953141897e+02
2.188325198047531117e+00 5.871114197371773571e+02
2.188425222053292707e+00 5.870654272227122874e+02
2.188525246059053853e+00 5.870191338645190626e+02
2.188625270064815442e+00 5.869725446886031932e+02
2.188725294070576588e+00 5.869256649311257661e+02
2.188825318076338178e+00 5.868785000350349037e+02
2.188925342082099323e+00 5.868310556465711443e+02
2.189025366087860913e+00 5.867833376116531099e+02
2.189125390093622503e+00 5.867353519721477824e+02
2.189225414099383649e+00 5.866871049620197027e+02
2.189325438105145238e+00 5.866386030033725092e+02
2.189425462110906828e+00 5.865898527023748557e+02
2.189525486116667974e+00 5.865408608450820793e+02
2.189625510122429120e+00 5.864916343931515712e+02
2.189725534128190709e+00 5.864421804794542368e+02
2.189825558133952299e+00 5.863925064035872765e+02
2.189925582139713445e+00 5.863426196272894231e+02
2.190025606145474590e+00 5.862925277697629554e+02
2.190125630151236180e+00 5.862422386029040808e+02
2.190225654156997770e+00 5.861917600464460065e+02
2.190325678162758916e+00 5.861411001630162900e+02
2.190425702168520061e+00 5.860902671531129045e+02
2.190525726174281651e+00 5.860392693500025416e+02
2.190625750180043241e+00 5.859881152145427450e+02
2.190725774185804386e+00 5.859368133299327610e+02
2.190825798191565532e+00 5.858853723963950415e+02
2.190925822197327566e+00 5.858338012257927403e+02
2.191025846203088712e+00 5.857821087361843411e+02
2.191125870208850301e+00 5.857303039463215555e+02
2.191225894214611447e+00 5.856783959700893547e+02
2.191325918220373037e+00 5.856263940108996167e+02
2.191425942226134183e+00 5.855743073560323637e+02
2.191525966231895772e+00 5.855221453709341404e+02
2.191625990237656918e+00 5.854699174934804660e+02
2.191726014243418508e+00 5.854176332281921304e+02
2.191826038249179653e+00 5.853653021404289802e+02
2.191926062254941243e+00 5.853129338505457326e+02
2.192026086260702389e+00 5.852605380280258487e+02
2.192126110266463979e+00 5.852081243855953971e+02
2.192226134272225124e+00 5.851557026733111115e+02
2.192326158277986714e+00 5.851032826726428766e+02
2.192426182283747860e+00 5.850508741905395027e+02
2.192526206289509449e+00 5.849984870534877928e+02
2.192626230295270595e+00 5.849461311015716092e+02
2.192726254301032185e+00 5.848938161825262796e+02
2.192826278306793775e+00 5.848415521458014155e+02
2.192926302312554920e+00 5.847893488366303245e+02
2.193026326318316510e+00 5.847372160901065854e+02
2.193126350324077656e+00 5.846851637252850651e+02
2.193226374329839246e+00 5.846332015392906669e+02
2.193326398335600391e+00 5.845813393014598205e+02
2.193426422341361981e+00 5.845295867475006162e+02
2.193526446347123127e+00 5.844779535736885236e+02
2.193626470352884716e+00 5.844264494310908731e+02
2.193726494358645862e+00 5.843750839198305584e+02
2.193826518364407452e+00 5.843238665833914638e+02
2.193926542370168598e+00 5.842728069029662947e+02
2.194026566375930187e+00 5.842219142918548869e+02
2.194126590381691333e+00 5.841711980899069658e+02
2.194226614387452923e+00 5.841206675580294814e+02
2.194326638393214068e+00 5.840703318727429405e+02
2.194426662398975658e+00 5.840202001208039064e+02
2.194526686404736804e+00 5.839702812938924126e+02
2.194626710410498394e+00 5.839205842833646329e+02
2.194726734416259983e+00 5.838711178750786530e+02
2.194826758422021129e+00 5.838218907442926593e+02
2.194926782427782719e+00 5.837729114506437327e+02
2.195026806433543864e+00 5.837241884332071322e+02
2.195126830439305454e+00 5.836757300056304985e+02
2.195226854445066600e+00 5.836275443513702612e+02
2.195326878450828190e+00 5.835796395190022849e+02
2.195426902456589335e+00 5.835320234176344911e+02
2.195526926462350925e+00 5.834847038124087248e+02
2.195626950468112071e+00 5.834376883201045985e+02
2.195726974473873661e+00 5.833909844048412197e+02
2.195826998479634806e+00 5.833445993738808966e+02
2.195927022485396396e+00 5.832985403735438013e+02
2.196027046491157542e+00 5.832528143852199491e+02
2.196127070496919131e+00 5.832074282215062340e+02
2.196227094502680277e+00 5.831623885224391870e+02
2.196327118508441867e+00 5.831177017518567709e+02
2.196427142514203013e+00 5.830733741938693129e+02
2.196527166519964602e+00 5.830294119494510596e+02
2.196627190525726192e+00 5.829858209331528087e+02
2.196727214531487782e+00 5.829426068699374355e+02
2.196827238537248927e+00 5.828997752921394522e+02
2.196927262543010073e+00 5.828573315365518965e+02
2.197027286548771663e+00 5.828152807416394126e+02
2.197127310554533253e+00 5.827736278448863914e+02
2.197227334560294398e+00 5.827323775802639148e+02
2.197327358566055544e+00 5.826915344758438096e+02
2.197427382571817134e+00 5.826511028515362796e+02
2.197527406577578724e+00 5.826110868169677133e+02
2.197627430583339869e+00 5.825714902694898001e+02
2.197727454589101015e+00 5.825323168923315507e+02
2.197827478594862605e+00 5.824935701528837626e+02
2.197927502600624194e+00 5.824552533011257083e+02
2.198027526606385340e+00 5.824173693681916575e+02
2.198127550612146486e+00 5.823799211650750749e+02
2.198227574617908076e+00 5.823429112814753807e+02
2.198327598623669665e+00 5.823063420847864791e+02
2.198427622629431255e+00 5.822702157192278491e+02
2.198527646635192401e+00 5.822345341051125160e+02
2.198627670640953990e+00 5.821992989382638370e+02
2.198727694646715136e+00 5.821645116895736010e+02
2.198827718652476726e+00 5.821301736046966653e+02
2.198927742658237872e+00 5.820962857038944094e+02
2.199027766663999461e+00 5.820628487820183636e+02
2.199127790669760607e+00 5.820298634086342418e+02
2.199227814675522197e+00 5.819973299282894459e+02
2.199327838681283342e+00 5.819652484609210887e+02
2.199427862687044932e+00 5.819336189024030546e+02
2.199527886692806078e+00 5.819024409252352825e+02
2.199627910698567668e+00 5.818717139793724300e+02
2.199727934704328813e+00 5.818414372931882781e+02
2.199827958710090403e+00 5.818116098745790623e+02
2.199927982715851549e+00 5.817822305122053876e+02
2.200028006721613139e+00 5.817532977768660203e+02
2.200128030727374284e+00 5.817248100230090131e+02
2.200228054733135874e+00 5.816967653903736846e+02
2.200328078738897464e+00 5.816691618057657251e+02
2.200428102744658609e+00 5.816419969849622476e+02
2.200528126750420199e+00 5.816152684347462127e+02
2.200628150756181345e+00 5.815889734550665935e+02
2.200728174761942935e+00 5.815631091413252989e+02
2.200828198767704080e+00 5.815376723867875626e+02
2.200928222773465670e+00 5.815126598851160225e+02
2.201028246779226816e+00 5.814880681330211019e+02
2.201128270784988405e+00 5.814638934330330358e+02
2.201228294790749551e+00 5.814401318963884933e+02
2.201328318796511141e+00 5.814167794460322511e+02
2.201428342802272287e+00 5.813938318197288027e+02
2.201528366808033876e+00 5.813712845732852657e+02
2.201628390813795022e+00 5.813491330838791100e+02
2.201728414819556612e+00 5.813273725534954792e+02
2.201828438825317757e+00 5.813059980124604635e+02
2.201928462831079347e+00 5.812850043230794199e+02
2.202028486836840937e+00 5.812643861833694245e+02
2.202128510842602083e+00 5.812441381308872224e+02
2.202228534848363672e+00 5.812242545466489219e+02
2.202328558854124818e+00 5.812047296591399572e+02
2.202428582859886408e+00 5.811855575484079282e+02
2.202528606865647554e+00 5.811667321502436607e+02
2.202628630871409143e+00 5.811482472604379836e+02
2.202728654877170289e+00 5.811300965391185400e+02
2.202828678882931879e+00 5.811122735151602683e+02
2.202928702888693024e+00 5.810947715906696658e+02
2.203028726894454614e+00 5.810775840455303296e+02
2.203128750900215760e+00 5.810607040420246676e+02
2.203228774905977350e+00 5.810441246295054043e+02
2.203328798911738495e+00 5.810278387491342755e+02
2.203428822917500085e+00 5.810118392386747246e+02
2.203528846923261231e+00 5.809961188373317782e+02
2.203628870929022820e+00 5.809806701906486524e+02
2.203728894934783966e+00 5.809654858554411021e+02
2.203828918940545556e+00 5.809505583047790651e+02
2.203928942946307146e+00 5.809358799330058218e+02
2.204028966952068735e+00 5.809214430607897839e+02
2.204128990957829881e+00 5.809072399402123210e+02
2.204229014963591027e+00 5.808932627598812815e+02
2.204329038969352617e+00 5.808795036500691822e+02
2.204429062975114206e+00 5.808659546878741367e+02
2.204529086980875352e+00 5.808526079023997681e+02
2.204629110986636498e+00 5.808394552799461508e+02
2.204729134992398087e+00 5.808264887692142793e+02
2.204829158998159677e+00 5.808137002865174736e+02
2.204929183003920823e+00 5.808010817209983543e+02
2.205029207009681969e+00 5.807886249398413838e+02
2.205129231015443558e+00 5.807763217934885915e+02
2.205229255021205148e+00 5.807641641208449528e+02
2.205329279026966294e+00 5.807521437544739911e+02
2.205429303032727439e+00 5.807402525257804200e+02
2.205529327038489029e+00 5.807284822701792564e+02
2.205629351044250619e+00 5.807168248322384443e+02
2.205729375050012209e+00 5.807052720708003335e+02
2.205829399055773354e+00 5.806938158640797383e+02
2.205929423061534944e+00 5.806824481147257302e+02
2.206029447067296090e+00 5.806711607548527354e+02
2.206129471073057680e+00 5.806599457510344564e+02
2.206229495078818825e+00 5.806487951092565254e+02
2.206329519084580415e+00 5.806377008798251609e+02
2.206429543090341561e+00 5.806266551622316001e+02
2.206529567096103150e+00 5.806156501099610523e+02
2.206629591101864296e+00 5.806046779352544718e+02
2.206729615107625886e+00 5.805937309138105320e+02
2.206829639113387032e+00 5.805828013894285959e+02
2.206929663119148621e+00 5.805718817785880219e+02
2.207029687124909767e+00 5.805609645749680112e+02
2.207129711130671357e+00 5.805500423538904897e+02
2.207229735136432502e+00 5.805391077766975059e+02
2.207329759142194092e+00 5.805281535950530269e+02
2.207429783147955238e+00 5.805171726551692473e+02
2.207529807153716828e+00 5.805061579019502460e+02
2.207629831159478417e+00 5.804951023830569738e+02
2.207729855165239563e+00 5.804839992528856101e+02
2.207829879171001153e+00 5.804728417764596315e+02
2.207929903176762299e+00 5.804616233332292268e+02
2.208029927182523888e+00 5.804503374207856723e+02
2.208129951188285034e+00 5.804389776584700940e+02
2.208229975194046624e+00 5.804275377908974178e+02
2.208329999199807769e+00 5.804160116913739103e+02
2.208430023205569359e+00 5.804043933652138776e+02
2.208530047211330505e+00 5.803926769529566627e+02
2.208630071217092095e+00 5.803808567334757527e+02
2.208730095222853240e+00 5.803689271269832943e+02
2.208830119228614830e+00 5.803568826979208097e+02
2.208930143234375976e+00 5.803447181577469109e+02
2.209030167240137565e+00 5.803324283676041659e+02
2.209130191245898711e+00 5.803200083408784167e+02
2.209230215251660301e+00 5.803074532456400902e+02
2.209330239257421447e+00 5.802947584069677305e+02
2.209430263263183036e+00 5.802819193091556826e+02
2.209530287268944626e+00 5.802689315977986553e+02
2.209630311274705772e+00 5.802557910817610036e+02
2.209730335280467362e+00 5.802424937350165237e+02
2.209830359286228507e+00 5.802290356983721722e+02
2.209930383291990097e+00 5.802154132810641158e+02
2.210030407297751243e+00 5.802016229622317951e+02
2.210130431303512832e+00 5.801876613922605657e+02
2.210230455309273978e+00 5.801735253940073562e+02
2.210330479315035568e+00 5.801592119638914937e+02
2.210430503320796713e+00 5.801447182728595635e+02
2.210530527326558303e+00 5.801300416672293068e+02
2.210630551332319449e+00 5.801151796693945926e+02
2.210730575338081039e+00 5.801001299784111325e+02
2.210830599343842184e+00 5.800848904704484994e+02
2.210930623349603774e+00 5.800694591991143625e+02
2.211030647355364920e+00 5.800538343956548033e+02
2.211130671361126510e+00 5.800380144690172983e+02
2.211230695366887655e+00 5.800219980057936482e+02
2.211330719372649689e+00 5.800057837700308028e+02
2.211430743378410835e+00 5.799893707029146981e+02
2.211530767384171980e+00 5.799727579223272187e+02
2.211630791389933570e+00 5.799559447222767403e+02
2.211730815395695160e+00 5.799389305722007748e+02
2.211830839401456306e+00 5.799217151161461743e+02
2.211930863407217451e+00 5.799042981718237115e+02
2.212030887412979041e+00 5.798866797295372635e+02
2.212130911418740631e+00 5.798688599509924870e+02
2.212230935424501777e+00 5.798508391679828264e+02
2.212330959430262922e+00 5.798326178809554676e+02
2.212430983436024512e+00 5.798141967574572391e+02
2.212531007441786102e+00 5.797955766304640974e+02
2.212631031447547247e+00 5.797767584965914693e+02
2.212731055453308393e+00 5.797577435141917022e+02
2.212831079459069983e+00 5.797385330013368048e+02
2.212931103464831573e+00 5.797191284336893204e+02
2.213031127470592718e+00 5.796995314422625825e+02
2.213131151476354308e+00 5.796797438110727398e+02
2.213231175482115898e+00 5.796597674746834628e+02
2.213331199487877043e+00 5.796396045156457149e+02
2.213431223493638633e+00 5.796192571618373677e+02
2.213531247499399779e+00 5.795987277836962903e+02
2.213631271505161369e+00 5.795780188913581696e+02
2.213731295510922514e+00 5.795571331317003114e+02
2.213831319516684104e+00 5.795360732852858519e+02
2.213931343522445250e+00 5.795148422632191796e+02
2.214031367528206840e+00 5.794934431039085894e+02
2.214131391533967985e+00 5.794718789697471948e+02
2.214231415539729575e+00 5.794501531437018684e+02
2.214331439545490721e+00 5.794282690258273760e+02
2.214431463551252310e+00 5.794062301296942223e+02
2.214531487557013456e+00 5.793840400787436238e+02
2.214631511562775046e+00 5.793617026025666519e+02
2.214731535568536192e+00 5.793392215331118678e+02
2.214831559574297781e+00 5.793166008008240624e+02
2.214931583580058927e+00 5.792938444307169448e+02
2.215031607585820517e+00 5.792709565383850077e+02
2.215131631591582106e+00 5.792479413259504781e+02
2.215231655597343252e+00 5.792248030779576311e+02
2.215331679603104842e+00 5.792015461572109416e+02
2.215431703608865988e+00 5.791781750005613958e+02
2.215531727614627577e+00 5.791546941146464178e+02
2.215631751620388723e+00 5.791311080715842081e+02
2.215731775626150313e+00 5.791074215046241989e+02
2.215831799631911458e+00 5.790836391037628346e+02
2.215931823637673048e+00 5.790597656113209268e+02
2.216031847643434194e+00 5.790358058174870166e+02
2.216131871649195784e+00 5.790117645558383401e+02
2.216231895654956929e+00 5.789876466988266657e+02
2.216331919660718519e+00 5.789634571532500331e+02
2.216431943666479665e+00 5.789392008556992550e+02
2.216531967672241255e+00 5.789148827679930491e+02
2.216631991678002400e+00 5.788905078725938438e+02
2.216732015683763990e+00 5.788660811680236975e+02
2.216832039689525580e+00 5.788416076642641883e+02
2.216932063695286725e+00 5.788170923781588044e+02
2.217032087701048315e+00 5.787925403288174948e+02
2.217132111706809461e+00 5.787679565330190599e+02
2.217232135712571051e+00 5.787433460006260475e+02
2.217332159718332196e+00 5.787187137300069253e+02
2.217432183724093786e+00 5.786940647034728045e+02
2.217532207729854932e+00 5.786694038827325812e+02
2.217632231735616521e+00 5.786447362043646763e+02
2.217732255741377667e+00 5.786200665753166277e+02
2.217832279747139257e+00 5.785953998684267390e+02
2.217932303752900403e+00 5.785707409179806291e+02
2.218032327758661992e+00 5.785460945152967724e+02
2.218132351764423138e+00 5.785214654043488736e+02
2.218232375770184728e+00 5.784968582774304195e+02
2.218332399775945873e+00 5.784722777708579997e+02
2.218432423781707463e+00 5.784477284607237380e+02
2.218532447787468609e+00 5.784232148586931999e+02
2.218632471793230199e+00 5.783987414078551410e+02
2.218732495798991788e+00 5.783743124786311682e+02
2.218832519804752934e+00 5.783499323647339452e+02
2.218932543810514524e+00 5.783256052791941784e+02
2.219032567816276114e+00 5.783013353504443330e+02
2.219132591822037259e+00 5.782771266184746537e+02
2.219232615827798405e+00 5.782529830310531906e+02
2.219332639833559995e+00 5.782289084400182446e+02
2.219432663839321584e+00 5.782049065976478914e+02
2.219532687845082730e+00 5.781809811531038577e+02
2.219632711850843876e+00 5.781571356489539539e+02
2.219732735856605466e+00 5.781333735177795461e+02
2.219832759862367055e+00 5.781096980788648807e+02
2.219932783868128201e+00 5.780861125349750864e+02
2.220032807873889347e+00 5.780626199692205773e+02
2.220132831879650936e+00 5.780392233420158163e+02
2.220232855885412526e+00 5.780159254881293691e+02
2.220332879891173672e+00 5.779927291138320697e+02
2.220432903896934818e+00 5.779696367941393191e+02
2.220532927902696851e+00 5.779466509701576342e+02
2.220632951908457997e+00 5.779237739465289678e+02
2.220732975914219587e+00 5.779010078889824626e+02
2.220832999919980733e+00 5.778783548219859085e+02
2.220933023925742322e+00 5.778558166265115688e+02
2.221033047931503468e+00 5.778333950379056887e+02
2.221133071937265058e+00 5.778110916438694176e+02
2.221233095943026203e+00 5.777889078825509159e+02
2.221333119948787793e+00 5.777668450407547880e+02
2.221433143954548939e+00 5.777449042522598575e+02
2.221533167960310529e+00 5.777230864962583610e+02
2.221633191966071674e+00 5.777013925959070093e+02
2.221733215971833264e+00 5.776798232170026495e+02
2.221833239977594410e+00 5.776583788667696808e+02
2.221933263983355999e+00 5.776370598927730953e+02
2.222033287989117145e+00 5.776158664819514570e+02
2.222133311994878735e+00 5.775947986597702766e+02
2.222233336000639881e+00 5.775738562894960069e+02
2.222333360006401470e+00 5.775530390715988460e+02
2.222433384012163060e+00 5.775323465432743433e+02
2.222533408017924206e+00 5.775117780780888097e+02
2.222633432023685796e+00 5.774913328857531951e+02
2.222733456029446941e+00 5.774710100120166771e+02
2.222833480035208531e+00 5.774508083386878070e+02
2.222933504040969677e+00 5.774307265837805971e+02
2.223033528046731266e+00 5.774107633017836179e+02
2.223133552052492412e+00 5.773909168840561961e+02
2.223233576058254002e+00 5.773711855593467135e+02
2.223333600064015148e+00 5.773515673944374385e+02
2.223433624069776737e+00 5.773320602949127078e+02
2.223533648075537883e+00 5.773126620060498908e+02
2.223633672081299473e+00 5.772933701138340439e+02
2.223733696087060618e+00 5.772741820460948929e+02
2.223833720092822208e+00 5.772550950737664834e+02
2.223933744098583354e+00 5.772361063122666565e+02
2.224033768104344944e+00 5.772172127229971466e+02
2.224133792110106089e+00 5.771984111149629371e+02
2.224233816115867679e+00 5.771796981465095087e+02
2.224333840121629269e+00 5.771610703271785496e+02
2.224433864127390414e+00 5.771425240196781488e+02
2.224533888133152004e+00 5.771240554419680393e+02
2.224633912138913150e+00 5.771056606694581887e+02
2.224733936144674740e+00 5.770873356373202796e+02
2.224833960150435885e+00 5.770690761429085569e+02
2.224933984156197475e+00 5.770508778482909520e+02
2.225034008161958621e+00 5.770327362828834339e+02
2.225134032167720211e+00 5.770146468461969107e+02
2.225234056173481356e+00 5.769966048106797416e+02
2.225334080179242946e+00 5.769786053246712072e+02
2.225434104185004092e+00 5.769606434154433146e+02
2.225534128190765681e+00 5.769427139923534469e+02
2.225634152196526827e+00 5.769248118500822784e+02
2.225734176202288417e+00 5.769069316719719609e+02
2.225834200208049563e+00 5.768890680334519629e+02
2.225934224213811152e+00 5.768712154055564270e+02
2.226034248219572298e+00 5.768533681585264503e+02
2.226134272225333888e+00 5.768355205654997917e+02
2.226234296231095477e+00 5.768176668062787940e+02
2.226334320236857067e+00 5.767998009711810710e+02
2.226434344242618213e+00 5.767819170649643183e+02
2.226534368248379359e+00 5.767640090108283175e+02
2.226634392254140948e+00 5.767460706544862887e+02
2.226734416259902538e+00 5.767280957683069573e+02
2.226834440265663684e+00 5.767100780555193751e+02
2.226934464271424829e+00 5.766920111544870906e+02
2.227034488277186419e+00 5.766738886430337061e+02
2.227134512282948009e+00 5.766557040428360779e+02
2.227234536288709155e+00 5.766374508238645831e+02
2.227334560294470300e+00 5.766191224088776153e+02
2.227434584300231890e+00 5.766007121779648514e+02
2.227534608305993480e+00 5.765822134731351980e+02
2.227634632311754626e+00 5.765636196029468010e+02
2.227734656317515771e+00 5.765449238471769604e+02
2.227834680323277361e+00 5.765261194615274007e+02
2.227934704329038951e+00 5.765071996823636482e+02
2.228034728334800540e+00 5.764881577314807828e+02
2.228134752340561686e+00 5.764689868208996586e+02
2.228234776346323276e+00 5.764496801576826783e+02
2.228334800352084422e+00 5.764302309487705998e+02
2.228434824357846011e+00 5.764106324058387827e+02
2.228534848363607157e+00 5.763908777501579834e+02
2.228634872369368747e+00 5.763709602174759539e+02
2.228734896375129892e+00 5.763508730628976764e+02
2.228834920380891482e+00 5.763306095657708283e+02
2.228934944386652628e+00 5.763101630345723834e+02
2.229034968392414218e+00 5.762895268117891874e+02
2.229134992398175363e+00 5.762686942787933049e+02
2.229235016403936953e+00 5.762476588607069061e+02
2.229335040409698099e+00 5.762264140312526024e+02
2.229435064415459689e+00 5.762049533175862734e+02
2.229535088421220834e+00 5.761832703051104545e+02
2.229635112426982424e+00 5.761613586422647586e+02
2.229735136432743570e+00 5.761392120452874224e+02
2.229835160438505159e+00 5.761168243029468385e+02
2.229935184444266749e+00 5.760941892812400056e+02
2.230035208450027895e+00 5.760713009280541428e+02
2.230135232455789485e+00 5.760481532777854454e+02
2.230235256461550630e+00 5.760247404559196411e+02
2.230335280467312220e+00 5.760010566835602503e+02
2.230435304473073366e+00 5.759770962819104625e+02
2.230535328478834955e+00 5.759528536766996467e+02
2.230635352484596101e+00 5.759283234025568845e+02
2.230735376490357691e+00 5.759035001073211788e+02
2.230835400496118837e+00 5.758783785562932280e+02
2.230935424501880426e+00 5.758529536364187607e+02
2.231035448507641572e+00 5.758272203604053630e+02
2.231135472513403162e+00 5.758011738707676841e+02
2.231235496519164307e+00 5.757748094437979489e+02
2.231335520524925897e+00 5.757481224934606416e+02
2.231435544530687043e+00 5.757211085752052213e+02
2.231535568536448633e+00 5.756937633896995976e+02
2.231635592542210222e+00 5.756660827864743624e+02
2.231735616547971368e+00 5.756380627674827792e+02
2.231835640553732958e+00 5.756096994905692554e+02
2.231935664559494104e+00 5.755809892728408386e+02
2.232035688565255693e+00 5.755519285939506062e+02
2.232135712571016839e+00 5.755225140992756678e+02
2.232235736576778429e+00 5.754927426030011475e+02
2.232335760582539574e+00 5.754626110910963916e+02
2.232435784588301164e+00 5.754321167241897683e+02
2.232535808594062310e+00 5.754012568403350087e+02
2.232635832599823900e+00 5.753700289576672731e+02
2.232735856605585045e+00 5.753384307769529187e+02
2.232835880611346635e+00 5.753064601840189880e+02
2.232935904617107781e+00 5.752741152520735568e+02
2.233035928622869370e+00 5.752413942439055745e+02
2.233135952628630516e+00 5.752082956139699945e+02
2.233235976634392106e+00 5.751748180103484174e+02
2.233336000640153252e+00 5.751409602765902491e+02
2.233436024645914841e+00 5.751067214534302821e+02
2.233536048651676431e+00 5.750721007803809925e+02
2.233636072657438021e+00 5.750370976972009203e+02
2.233736096663199167e+00 5.750017118452298064e+02
2.233836120668960312e+00 5.749659430686032238e+02
2.233936144674721902e+00 5.749297914153302145e+02
2.234036168680483492e+00 5.748932571382455308e+02
2.234136192686244637e+00 5.748563406958252244e+02
2.234236216692005783e+00 5.748190427528752480e+02
2.234336240697767373e+00 5.747813641810823810e+02
2.234436264703528963e+00 5.747433060594310064e+02
2.234536288709290108e+00 5.747048696744897143e+02
2.234636312715051254e+00 5.746660565205581861e+02
2.234736336720812844e+00 5.746268682996789039e+02
2.234836360726574433e+00 5.745873069215158466e+02
2.234936384732335579e+00 5.745473745030944883e+02
2.235036408738096725e+00 5.745070733684060542e+02
2.235136432743858315e+00 5.744664060478745569e+02
2.235236456749619904e+00 5.744253752776907049e+02
2.235336480755381494e+00 5.743839839990025666e+02
2.235436504761142640e+00 5.743422353569792449e+02
2.235536528766904230e+00 5.743001326997298293e+02
2.235636552772665375e+00 5.742576795770927447e+02
2.235736576778426965e+00 5.742148797392873121e+02
2.235836600784188111e+00 5.741717371354320676e+02
2.235936624789949700e+00 5.741282559119269990e+02
2.236036648795710846e+00 5.740844404107061791e+02
2.236136672801472436e+00 5.740402951673523830e+02
2.236236696807233582e+00 5.739958249090879008e+02
2.236336720812995171e+00 5.739510345526265382e+02
2.236436744818756317e+00 5.739059292019013583e+02
2.236536768824517907e+00 5.738605141456631600e+02
2.236636792830279052e+00 5.738147948549498096e+02
2.236736816836040642e+00 5.737687769804317668e+02
2.236836840841801788e+00 5.737224663496328958e+02
2.236936864847563378e+00 5.736758689640261082e+02
2.237036888853324523e+00 5.736289909960107707e+02
2.237136912859086113e+00 5.735818387857684684e+02
2.237236936864847703e+00 5.735344188379981460e+02
2.237336960870608848e+00 5.734867378185429061e+02
2.237436984876370438e+00 5.734388025508912961e+02
2.237537008882131584e+00 5.733906200125757096e+02
2.237637032887893174e+00 5.733421973314538036e+02
2.237737056893654319e+00 5.732935417818865744e+02
2.237837080899415909e+00 5.732446607808047929e+02
2.237937104905177055e+00 5.731955618836761914e+02
2.238037128910938645e+00 5.731462527803680587e+02
2.238137152916699790e+00 5.730967412909113818e+02
2.238237176922461380e+00 5.730470353611684686e+02
2.238337200928222526e+00 5.729971430584054133e+02
2.238437224933984115e+00 5.729470725667731585e+02
2.238537248939745261e+00 5.728968321826977217e+02
2.238637272945506851e+00 5.728464303101882251e+02
2.238737296951267997e+00 5.727958754560556827e+02
2.238837320957029586e+00 5.727451762250548200e+02
2.238937344962790732e+00 5.726943413149456319e+02
2.239037368968552322e+00 5.726433795114802479e+02
2.239137392974313912e+00 5.725922996833182879e+02
2.239237416980075057e+00 5.725411107768727561e+02
2.239337440985836647e+00 5.724898218110878361e+02
2.239437464991597793e+00 5.724384418721577958e+02
2.239537488997359382e+00 5.723869801081820015e+02
2.239637513003120528e+00 5.723354457237633142e+02
2.239737537008882118e+00 5.722838479745577160e+02
2.239837561014643263e+00 5.722321961617683428e+02
2.239937585020404853e+00 5.721804996265958607e+02
2.240037609026165999e+00 5.721287677446431417e+02
