1.400036008642074004e+00 5.138148673018459931e+02
1.400136032647835371e+00 5.138182797836939244e+02
1.400236056653596739e+00 5.138217178008217161e+02
1.400336080659358107e+00 5.138251814261834625e+02
1.400436104665119474e+00 5.138286707320157802e+02
1.400536128670880842e+00 5.138321857898356484e+02
1.400636152676642210e+00 5.138357266704379072e+02
1.400736176682403578e+00 5.138392934438919610e+02
1.400836200688164945e+00 5.138428861795398461e+02
1.400936224693926313e+00 5.138465049459921374e+02
1.401036248699687681e+00 5.138501498111269257e+02
1.401136272705449493e+00 5.138538208420862929e+02
1.401236296711210638e+00 5.138575181052747212e+02
1.401336320716972228e+00 5.138612416663552267e+02
1.401436344722733374e+00 5.138649915902464045e+02
1.401536368728494963e+00 5.138687679411234512e+02
1.401636392734256109e+00 5.138725707824110032e+02
1.401736416740017699e+00 5.138764001767833633e+02
1.401836440745778845e+00 5.138802561861616596e+02
1.401936464751540434e+00 5.138841388717117979e+02
1.402036488757301580e+00 5.138880482938401428e+02
1.402136512763063170e+00 5.138919845121945400e+02
1.402236536768824315e+00 5.138959475856584049e+02
1.402336560774585905e+00 5.138999375723516323e+02
1.402436584780347051e+00 5.139039545296240021e+02
1.402536608786108641e+00 5.139079985140585904e+02
1.402636632791869786e+00 5.139120695814655164e+02
1.402736656797631376e+00 5.139161677868803508e+02
1.402836680803392522e+00 5.139202931845620697e+02
1.402936704809154111e+00 5.139244458279928267e+02
1.403036728814915701e+00 5.139286257698726104e+02
1.403136752820677069e+00 5.139328330621187888e+02
1.403236776826438437e+00 5.139370677558654279e+02
1.403336800832199804e+00 5.139413299014579479e+02
1.403436824837961172e+00 5.139456195484536920e+02
1.403536848843722540e+00 5.139499367456194250e+02
1.403636872849483908e+00 5.139542815409286050e+02
1.403736896855245275e+00 5.139586539815603601e+02
1.403836920861006643e+00 5.139630541138960780e+02
1.403936944866768011e+00 5.139674819835200879e+02
1.404036968872529378e+00 5.139719376352143172e+02
1.404136992878290746e+00 5.139764211129593150e+02
1.404237016884052114e+00 5.139809324599327738e+02
1.404337040889813482e+00 5.139854717185039590e+02
1.404437064895574849e+00 5.139900389302355279e+02
1.404537088901336217e+00 5.139946341358808013e+02
1.404637112907097585e+00 5.139992573753817169e+02
1.404737136912858952e+00 5.140039086878673515e+02
1.404837160918620542e+00 5.140085881116523296e+02
1.404937184924381910e+00 5.140132956842344356e+02
1.405037208930143278e+00 5.140180314422946140e+02
1.405137232935904645e+00 5.140227954216938997e+02
1.405237256941666013e+00 5.140275876574714857e+02
1.405337280947427381e+00 5.140324081838464281e+02
1.405437304953188749e+00 5.140372570342116205e+02
1.405537328958950116e+00 5.140421342411349315e+02
1.405637352964711484e+00 5.140470398363584081e+02
1.405737376970472852e+00 5.140519738507946386e+02
1.405837400976234219e+00 5.140569363145266379e+02
1.405937424981995587e+00 5.140619272568069391e+02
1.406037448987756955e+00 5.140669467060552051e+02
1.406137472993518323e+00 5.140719946898574335e+02
1.406237496999279690e+00 5.140770712349642508e+02
1.406337521005041058e+00 5.140821763672911402e+02
1.406437545010802426e+00 5.140873101119143485e+02
1.406537569016563793e+00 5.140924724930727052e+02
1.406637593022325161e+00 5.140976635341652354e+02
1.406737617028086751e+00 5.141028832577492267e+02
1.406837641033848119e+00 5.141081316855395471e+02
1.406937665039609486e+00 5.141134088384086454e+02
1.407037689045370854e+00 5.141187147363847316e+02
1.407137713051132222e+00 5.141240493986505271e+02
1.407237737056893589e+00 5.141294128435405355e+02
1.407337761062654957e+00 5.141348050885451357e+02
1.407437785068416325e+00 5.141402261503039881e+02
1.407537809074177693e+00 5.141456760446089902e+02
1.407637833079939060e+00 5.141511547864001841e+02
1.407737857085700428e+00 5.141566623897690533e+02
1.407837881091461796e+00 5.141621988679526112e+02
1.407937905097223164e+00 5.141677642333370386e+02
1.408037929102984531e+00 5.141733584974547284e+02
1.408137953108745899e+00 5.141789816709839442e+02
1.408237977114507267e+00 5.141846337637465467e+02
1.408338001120268634e+00 5.141903147847110631e+02
1.408438025126030002e+00 5.141960247419883672e+02
1.408538049131791592e+00 5.142017636428323613e+02
1.408638073137553182e+00 5.142075314936399764e+02
1.408738097143314327e+00 5.142133282999496942e+02
1.408838121149075917e+00 5.142191540664402964e+02
1.408938145154837063e+00 5.142250087969332526e+02
1.409038169160598652e+00 5.142308924943888542e+02
1.409138193166359798e+00 5.142368051609070108e+02
1.409238217172121388e+00 5.142427467977283868e+02
1.409338241177882534e+00 5.142487174052305363e+02
1.409438265183644123e+00 5.142547169829313134e+02
1.409538289189405269e+00 5.142607455294854617e+02
1.409638313195166859e+00 5.142668030426858650e+02
1.409738337200928004e+00 5.142728895194629786e+02
1.409838361206689594e+00 5.142790049558846022e+02
1.409938385212450740e+00 5.142851493471545155e+02
1.410038409218212330e+00 5.142913226876148656e+02
1.410138433223973475e+00 5.142975249707426428e+02
1.410238457229735065e+00 5.143037561891520681e+02
1.410338481235496211e+00 5.143100163345930014e+02
1.410438505241258023e+00 5.143163053979523056e+02
1.410538529247019390e+00 5.143226233692519145e+02
1.410638553252780758e+00 5.143289702376499690e+02
1.410738577258542126e+00 5.143353459914412724e+02
1.410838601264303493e+00 5.143417506180547889e+02
1.410938625270064861e+00 5.143481841040569407e+02
1.411038649275826229e+00 5.143546464351496752e+02
1.411138673281587597e+00 5.143611375961712611e+02
1.411238697287348964e+00 5.143676575710953784e+02
1.411338721293110332e+00 5.143742063430328244e+02
1.411438745298871700e+00 5.143807838942303761e+02
1.411538769304633067e+00 5.143873902060719274e+02
1.411638793310394435e+00 5.143940252590780347e+02
1.411738817316155803e+00 5.144006890329062571e+02
1.411838841321917171e+00 5.144073815063521806e+02
1.411938865327678538e+00 5.144141026573481668e+02
1.412038889333439906e+00 5.144208524629657404e+02
1.412138913339201274e+00 5.144276308994144529e+02
1.412238937344962864e+00 5.144344379420424502e+02
1.412338961350724231e+00 5.144412735653370419e+02
1.412438985356485599e+00 5.144481377429261784e+02
1.412539009362246967e+00 5.144550304475766325e+02
1.412639033368008334e+00 5.144619516511972961e+02
1.412739057373769702e+00 5.144689013248370202e+02
1.412839081379531070e+00 5.144758794386871159e+02
1.412939105385292438e+00 5.144828859620815820e+02
1.413039129391053805e+00 5.144899208634964225e+02
1.413139153396815173e+00 5.144969841105526029e+02
1.413239177402576541e+00 5.145040756700136626e+02
1.413339201408337908e+00 5.145111955077898074e+02
1.413439225414099276e+00 5.145183435889358634e+02
1.413539249419860644e+00 5.145255198776535508e+02
1.413639273425622012e+00 5.145327243372928478e+02
1.413739297431383379e+00 5.145399569303496037e+02
1.413839321437144747e+00 5.145472176184701993e+02
1.413939345442906115e+00 5.145545063624507520e+02
1.414039369448667482e+00 5.145618231222371151e+02
1.414139393454429072e+00 5.145691678569285159e+02
1.414239417460190440e+00 5.145765405247739182e+02
1.414339441465951808e+00 5.145839410831783880e+02
1.414439465471713175e+00 5.145913694887001384e+02
1.414539489477474543e+00 5.145988256970534849e+02
1.414639513483235911e+00 5.146063096631093003e+02
1.414739537488997279e+00 5.146138213408954698e+02
1.414839561494758646e+00 5.146213606836001873e+02
1.414939585500520014e+00 5.146289276435699094e+02
1.415039609506281382e+00 5.146365221723126524e+02
1.415139633512042749e+00 5.146441442205001522e+02
1.415239657517804117e+00 5.146517937379649084e+02
1.415339681523565485e+00 5.146594706737071192e+02
1.415439705529326853e+00 5.146671749758911574e+02
1.415539729535088220e+00 5.146749065918493216e+02
1.415639753540849588e+00 5.146826654680820639e+02
1.415739777546610956e+00 5.146904515502602635e+02
1.415839801552372323e+00 5.146982647832267048e+02
1.415939825558134135e+00 5.147061051109972141e+02
1.416039849563895281e+00 5.147139724767595226e+02
1.416139873569656871e+00 5.147218668228795195e+02
1.416239897575418016e+00 5.147297880908993193e+02
1.416339921581179606e+00 5.147377362215397625e+02
1.416439945586940752e+00 5.147457111547022350e+02
1.416539969592702342e+00 5.147537128294694639e+02
1.416639993598463487e+00 5.147617411841082458e+02
1.416740017604225077e+00 5.147697961560695603e+02
1.416840041609986223e+00 5.147778776819916402e+02
1.416940065615747812e+00 5.147859856977013351e+02
1.417040089621508958e+00 5.147941201382143390e+02
1.417140113627270548e+00 5.148022809377390558e+02
1.417240137633031694e+00 5.148104680296778497e+02
1.417340161638793283e+00 5.148186813466268177e+02
1.417440185644554429e+00 5.148269208203807921e+02
1.417540209650316019e+00 5.148351863819323171e+02
1.417640233656077164e+00 5.148434779614755143e+02
1.417740257661838754e+00 5.148517954884066512e+02
1.417840281667600344e+00 5.148601388913269830e+02
1.417940305673361712e+00 5.148685080980435487e+02
1.418040329679123079e+00 5.148769030355723544e+02
1.418140353684884447e+00 5.148853236301401921e+02
1.418240377690645815e+00 5.148937698071849809e+02
1.418340401696407183e+00 5.149022414913607690e+02
1.418440425702168550e+00 5.149107386065367109e+02
1.418540449707929918e+00 5.149192610758010460e+02
1.418640473713691286e+00 5.149278088214631453e+02
1.418740497719452653e+00 5.149363817650544206e+02
1.418840521725214021e+00 5.149449798273319630e+02
1.418940545730975389e+00 5.149536029282792242e+02
1.419040569736736757e+00 5.149622509871101101e+02
1.419140593742498124e+00 5.149709239222689803e+02
1.419240617748259492e+00 5.149796216514350817e+02
1.419340641754020860e+00 5.149883440915227766e+02
1.419440665759782227e+00 5.149970911586858620e+02
1.419540689765543595e+00 5.150058627683181385e+02
1.419640713771305185e+00 5.150146588350571619e+02
1.419740737777066553e+00 5.150234792727845843e+02
1.419840761782827920e+00 5.150323239946314970e+02
1.419940785788589288e+00 5.150411929129792270e+02
1.420040809794350656e+00 5.150500859394605868e+02
1.420140833800112024e+00 5.150590029849646498e+02
1.420240857805873391e+00 5.150679439596383418e+02
1.420340881811634759e+00 5.150769087728878048e+02
1.420440905817396127e+00 5.150858973333826043e+02
1.420540929823157494e+00 5.150949095490582295e+02
1.420640953828918862e+00 5.151039453271166622e+02
1.420740977834680230e+00 5.151130045740317200e+02
1.420841001840441598e+00 5.151220871955498524e+02
1.420941025846202965e+00 5.151311930966933232e+02
1.421041049851964333e+00 5.151403221817627127e+02
1.421141073857725701e+00 5.151494743543408958e+02
1.421241097863487068e+00 5.151586495172924742e+02
1.421341121869248436e+00 5.151678475727715067e+02
1.421441145875009804e+00 5.151770684222198042e+02
1.421541169880771394e+00 5.151863119663710222e+02
1.421641193886532761e+00 5.151955781052552084e+02
1.421741217892294129e+00 5.152048667381995983e+02
1.421841241898055497e+00 5.152141777638322537e+02
1.421941265903816864e+00 5.152235110800857001e+02
1.422041289909578232e+00 5.152328665841965858e+02
1.422141313915339600e+00 5.152422441727139812e+02
1.422241337921100968e+00 5.152516437414981283e+02
1.422341361926862335e+00 5.152610651857238508e+02
1.422441385932623703e+00 5.152705083998861255e+02
1.422541409938385071e+00 5.152799732777993995e+02
1.422641433944146439e+00 5.152894597126039571e+02
1.422741457949907806e+00 5.152989675967671701e+02
1.422841481955669174e+00 5.153084968220862265e+02
1.422941505961430542e+00 5.153180472796931326e+02
1.423041529967191909e+00 5.153276188600561909e+02
1.423141553972953277e+00 5.153372114529834107e+02
1.423241577978714645e+00 5.153468249476262599e+02
1.423341601984476235e+00 5.153564592324819387e+02
1.423441625990237824e+00 5.153661141953979268e+02
1.423541649995998970e+00 5.153757897235727796e+02
1.423641674001760560e+00 5.153854857035629493e+02
1.423741698007521705e+00 5.153952020212826710e+02
1.423841722013283295e+00 5.154049385620086241e+02
1.423941746019044441e+00 5.154146952103845933e+02
1.424041770024806031e+00 5.154244718504219236e+02
1.424141794030567176e+00 5.154342683655052042e+02
1.424241818036328766e+00 5.154440846383944290e+02
1.424341842042089912e+00 5.154539205512287481e+02
1.424441866047851502e+00 5.154637759855296508e+02
1.424541890053612647e+00 5.154736508222052862e+02
1.424641914059374237e+00 5.154835449415525090e+02
1.424741938065135383e+00 5.154934582232609728e+02
1.424841962070896972e+00 5.155033905464177906e+02
1.424941986076658118e+00 5.155133417895084449e+02
1.425042010082419708e+00 5.155233118304224718e+02
1.425142034088180854e+00 5.155333005464558482e+02
1.425242058093942665e+00 5.155433078143156536e+02
1.425342082099704033e+00 5.155533335101222292e+02
1.425442106105465401e+00 5.155633775094133853e+02
1.425542130111226768e+00 5.155734396871490617e+02
1.425642154116988136e+00 5.155835199177130335e+02
1.425742178122749504e+00 5.155936180749175719e+02
1.425842202128510872e+00 5.156037340320073099e+02
1.425942226134272239e+00 5.156138676616621979e+02
1.426042250140033607e+00 5.156240188360025059e+02
1.426142274145794975e+00 5.156341874265907563e+02
1.426242298151556342e+00 5.156443733044363853e+02
1.426342322157317710e+00 5.156545763399993803e+02
1.426442346163079078e+00 5.156647964031946003e+02
1.426542370168840446e+00 5.156750333633946184e+02
1.426642394174601813e+00 5.156852870894338139e+02
1.426742418180363181e+00 5.156955574496130339e+02
1.426842442186124549e+00 5.157058443117016395e+02
1.426942466191885917e+00 5.157161475429423945e+02
1.427042490197647506e+00 5.157264670100564672e+02
1.427142514203408874e+00 5.157368025792446815e+02
1.427242538209170242e+00 5.157471541161936557e+02
1.427342562214931609e+00 5.157575214860790993e+02
1.427442586220692977e+00 5.157679045535686555e+02
1.427542610226454345e+00 5.157783031828274716e+02
1.427642634232215713e+00 5.157887172375210412e+02
1.427742658237977080e+00 5.157991465808200928e+02
1.427842682243738448e+00 5.158095910754025226e+02
1.427942706249499816e+00 5.158200505834599880e+02
1.428042730255261183e+00 5.158305249667012049e+02
1.428142754261022551e+00 5.158410140863545621e+02
1.428242778266783919e+00 5.158515178031731239e+02
1.428342802272545287e+00 5.158620359774392909e+02
1.428442826278306654e+00 5.158725684689671880e+02
1.428542850284068022e+00 5.158831151371094847e+02
1.428642874289829390e+00 5.158936758407591014e+02
1.428742898295590757e+00 5.159042504383527330e+02
1.428842922301352125e+00 5.159148387878780113e+02
1.428942946307113715e+00 5.159254407468752106e+02
1.429042970312875083e+00 5.159360561724419085e+02
1.429142994318636450e+00 5.159466849212370789e+02
1.429243018324397818e+00 5.159573268494865488e+02
1.429343042330159186e+00 5.159679818129852720e+02
1.429443066335920554e+00 5.159786496671022178e+02
1.429543090341681921e+00 5.159893302667857142e+02
1.429643114347443289e+00 5.160000234665649259e+02
1.429743138353204657e+00 5.160107291205580395e+02
1.429843162358966024e+00 5.160214470824720365e+02
1.429943186364727392e+00 5.160321772056115606e+02
1.430043210370488760e+00 5.160429193428794861e+02
1.430143234376250128e+00 5.160536733467823751e+02
1.430243258382011495e+00 5.160644390694355934e+02
1.430343282387772863e+00 5.160752163625670619e+02
1.430443306393534231e+00 5.160860050775213494e+02
1.430543330399295598e+00 5.160968050652631973e+02
1.430643354405056966e+00 5.161076161763844539e+02
1.430743378410818778e+00 5.161184382611058936e+02
1.430843402416579924e+00 5.161292711692821058e+02
1.430943426422341513e+00 5.161401147504067239e+02
1.431043450428102659e+00 5.161509688536173144e+02
1.431143474433864249e+00 5.161618333276959447e+02
1.431243498439625395e+00 5.161727080210797567e+02
1.431343522445386984e+00 5.161835927818585787e+02
1.431443546451148130e+00 5.161944874577864084e+02
1.431543570456909720e+00 5.162053918962790249e+02
1.431643594462670865e+00 5.162163059444231976e+02
1.431743618468432455e+00 5.162272294489800970e+02
1.431843642474193601e+00 5.162381622563869996e+02
1.431943666479955191e+00 5.162491042127658147e+02
1.432043690485716336e+00 5.162600551639254718e+02
1.432143714491477926e+00 5.162710149553663541e+02
1.432243738497239072e+00 5.162819834322846191e+02
1.432343762503000661e+00 5.162929604395778824e+02
1.432443786508761807e+00 5.163039458218482878e+02
1.432543810514523397e+00 5.163149394234081910e+02
1.432643834520284987e+00 5.163259410882842531e+02
1.432743858526046354e+00 5.163369506602213050e+02
1.432843882531807722e+00 5.163479679826881465e+02
1.432943906537569090e+00 5.163589928988818656e+02
1.433043930543330458e+00 5.163700252517298850e+02
1.433143954549091825e+00 5.163810648838991710e+02
1.433243978554853193e+00 5.163921116377968019e+02
1.433344002560614561e+00 5.164031653555761068e+02
1.433444026566375928e+00 5.164142258791414406e+02
1.433544050572137296e+00 5.164252930501523906e+02
1.433644074577898664e+00 5.164363667100280963e+02
1.433744098583660032e+00 5.164474466999525930e+02
1.433844122589421399e+00 5.164585328608792452e+02
1.433944146595182767e+00 5.164696250335338163e+02
1.434044170600944135e+00 5.164807230584215176e+02
1.434144194606705502e+00 5.164918267758304182e+02
1.434244218612466870e+00 5.165029360258365614e+02
1.434344242618228238e+00 5.165140506483065792e+02
1.434444266623989828e+00 5.165251704829053097e+02
1.434544290629751195e+00 5.165362953690987524e+02
1.434644314635512563e+00 5.165474251461590711e+02
1.434744338641273931e+00 5.165585596531687997e+02
1.434844362647035299e+00 5.165696987290267543e+02
1.434944386652796666e+00 5.165808422124507615e+02
1.435044410658558034e+00 5.165919899419844796e+02
1.435144434664319402e+00 5.166031417560002410e+02
1.435244458670080769e+00 5.166142974927048499e+02
1.435344482675842137e+00 5.166254569901434479e+02
1.435444506681603505e+00 5.166366200862049709e+02
1.435544530687364873e+00 5.166477866186268102e+02
1.435644554693126240e+00 5.166589564249984505e+02
1.435744578698887608e+00 5.166701293427672681e+02
1.435844602704648976e+00 5.166813052092436465e+02
1.435944626710410343e+00 5.166924838616031366e+02
1.436044650716171711e+00 5.167036651368943012e+02
1.436144674721933079e+00 5.167148488720417845e+02
1.436244698727694447e+00 5.167260349038501772e+02
1.436344722733456036e+00 5.167372230690114066e+02
1.436444746739217404e+00 5.167484132041067824e+02
1.436544770744978772e+00 5.167596051456125679e+02
1.436644794750740139e+00 5.167707987299061188e+02
1.436744818756501507e+00 5.167819937932674748e+02
1.436844842762262875e+00 5.167931901718874315e+02
1.436944866768024243e+00 5.168043877018700414e+02
1.437044890773785610e+00 5.168155862192386394e+02
1.437144914779546978e+00 5.168267855599390259e+02
1.437244938785308346e+00 5.168379855598464019e+02
1.437344962791069714e+00 5.168491860547673014e+02
1.437444986796831081e+00 5.168603868804473223e+02
1.437545010802592449e+00 5.168715878725727180e+02
1.437645034808353817e+00 5.168827888667782418e+02
1.437745058814115184e+00 5.168939896986488520e+02
1.437845082819876552e+00 5.169051902037281252e+02
1.437945106825637920e+00 5.169163902175183694e+02
1.438045130831399288e+00 5.169275895754885823e+02
1.438145154837160877e+00 5.169387881130793403e+02
1.438245178842922467e+00 5.169499856657054124e+02
1.438345202848683613e+00 5.169611820687614454e+02
1.438445226854445202e+00 5.169723771576277613e+02
1.438545250860206348e+00 5.169835707676721768e+02
1.438645274865967938e+00 5.169947627342602345e+02
1.438745298871729084e+00 5.170059528927519068e+02
1.438845322877490673e+00 5.170171410785137596e+02
1.438945346883251819e+00 5.170283271269195211e+02
1.439045370889013409e+00 5.170395108733559937e+02
1.439145394894774554e+00 5.170506921532273736e+02
1.439245418900536144e+00 5.170618708019609358e+02
1.439345442906297290e+00 5.170730466550098754e+02
1.439445466912058880e+00 5.170842195478601298e+02
1.439545490917820025e+00 5.170953893160336747e+02
1.439645514923581615e+00 5.171065557950932998e+02
1.439745538929342761e+00 5.171177188206479514e+02
1.439845562935104351e+00 5.171288782283562568e+02
1.439945586940865496e+00 5.171400338539335735e+02
1.440045610946627308e+00 5.171511855331532388e+02
1.440145634952388676e+00 5.171623331018545286e+02
1.440245658958150043e+00 5.171734763959449310e+02
1.440345682963911411e+00 5.171846152514056030e+02
1.440445706969672779e+00 5.171957495042970550e+02
1.440545730975434147e+00 5.172068789907619930e+02
1.440645754981195514e+00 5.172180035470313442e+02
1.440745778986956882e+00 5.172291230094288039e+02
1.440845802992718250e+00 5.172402372143737921e+02
1.440945826998479617e+00 5.172513459983889561e+02
1.441045851004240985e+00 5.172624491981016490e+02
1.441145875010002353e+00 5.172735466502513191e+02
1.441245899015763721e+00 5.172846381916924656e+02
1.441345923021525088e+00 5.172957236593999824e+02
1.441445947027286456e+00 5.173068028904724542e+02
1.441545971033047824e+00 5.173178757221396609e+02
1.441645995038809192e+00 5.173289419917633722e+02
1.441746019044570559e+00 5.173400015368448521e+02
1.441846043050332149e+00 5.173510541950282686e+02
1.441946067056093517e+00 5.173620998041054690e+02
1.442046091061854884e+00 5.173731382020203000e+02
1.442146115067616252e+00 5.173841692268741781e+02
1.442246139073377620e+00 5.173951927169284772e+02
1.442346163079138988e+00 5.174062085106110089e+02
1.442446187084900355e+00 5.174172164465210244e+02
1.442546211090661723e+00 5.174282163634309200e+02
1.442646235096423091e+00 5.174392081002940813e+02
1.442746259102184458e+00 5.174501914962468163e+02
1.442846283107945826e+00 5.174611663906143804e+02
1.442946307113707194e+00 5.174721326229148417e+02
1.443046331119468562e+00 5.174830900328640837e+02
1.443146355125229929e+00 5.174940384603792154e+02
1.443246379130991297e+00 5.175049777455843696e+02
1.443346403136752665e+00 5.175159077288149092e+02
1.443446427142514032e+00 5.175268282506200421e+02
1.443546451148275400e+00 5.175377391517699834e+02
1.443646475154036768e+00 5.175486402732595934e+02
1.443746499159798358e+00 5.175595314563108786e+02
1.443846523165559725e+00 5.175704125423796995e+02
1.443946547171321093e+00 5.175812833731602041e+02
1.444046571177082461e+00 5.175921437905867606e+02
1.444146595182843829e+00 5.176029936368406652e+02
1.444246619188605196e+00 5.176138327543550304e+02
1.444346643194366564e+00 5.176246609858162628e+02
1.444446667200127932e+00 5.176354781741707711e+02
1.444546691205889299e+00 5.176462841626296267e+02
1.444646715211650667e+00 5.176570787946701557e+02
1.444746739217412035e+00 5.176678619140436695e+02
1.444846763223173403e+00 5.176786333647769425e+02
1.444946787228934770e+00 5.176893929911788064e+02
1.445046811234696138e+00 5.177001406378432193e+02
1.445146835240457506e+00 5.177108761496526768e+02
1.445246859246218873e+00 5.177215993717853735e+02
1.445346883251980241e+00 5.177323101497162270e+02
1.445446907257741609e+00 5.177430083292225618e+02
1.445546931263503421e+00 5.177536937563889978e+02
1.445646955269264566e+00 5.177643662776104065e+02
1.445746979275026156e+00 5.177750257395974813e+02
1.445847003280787302e+00 5.177856719893795798e+02
1.445947027286548892e+00 5.177963048743096124e+02
1.446047051292310037e+00 5.178069242420677938e+02
1.446147075298071627e+00 5.178175299406674412e+02
1.446247099303832773e+00 5.178281218184561112e+02
1.446347123309594362e+00 5.178386997241223071e+02
1.446447147315355508e+00 5.178492635066988896e+02
1.446547171321117098e+00 5.178598130155669423e+02
1.446647195326878244e+00 5.178703481004595233e+02
1.446747219332639833e+00 5.178808686114665534e+02
1.446847243338400979e+00 5.178913743990391367e+02
1.446947267344162569e+00 5.179018653139917205e+02
1.447047291349923714e+00 5.179123412075094848e+02
1.447147315355685304e+00 5.179228019311475464e+02
1.447247339361446450e+00 5.179332473368402816e+02
1.447347363367208040e+00 5.179436772769014397e+02
1.447447387372969629e+00 5.179540916040298271e+02
1.447547411378730997e+00 5.179644901713137415e+02
1.447647435384492365e+00 5.179748728322331317e+02
1.447747459390253733e+00 5.179852394406652820e+02
1.447847483396015100e+00 5.179955898508875407e+02
1.447947507401776468e+00 5.180059239175814128e+02
1.448047531407537836e+00 5.180162414958384716e+02
1.448147555413299203e+00 5.180265424411607000e+02
1.448247579419060571e+00 5.180368266094673118e+02
1.448347603424821939e+00 5.180470938570974795e+02
1.448447627430583307e+00 5.180573440408137458e+02
1.448547651436344674e+00 5.180675770178062294e+02
1.448647675442106042e+00 5.180777926456976274e+02
1.448747699447867410e+00 5.180879907825451482e+02
1.448847723453628777e+00 5.180981712868444902e+02
1.448947747459390145e+00 5.181083340175352987e+02
1.449047771465151513e+00 5.181184788340035539e+02
1.449147795470912881e+00 5.181286055960853218e+02
1.449247819476674470e+00 5.181387141640705067e+02
1.449347843482435838e+00 5.181488043987069432e+02
1.449447867488197206e+00 5.181588761612047165e+02
1.449547891493958574e+00 5.181689293132368448e+02
1.449647915499719941e+00 5.181789637169479192e+02
1.449747939505481309e+00 5.181889792349526260e+02
1.449847963511242677e+00 5.181989757303422266e+02
1.449947987517004044e+00 5.182089530666881956e+02
1.450048011522765412e+00 5.182189111080444945e+02
1.450148035528526780e+00 5.182288497189517784e+02
1.450248059534288148e+00 5.182387687644419429e+02
1.450348083540049515e+00 5.182486681100400574e+02
1.450448107545810883e+00 5.182585476217676614e+02
1.450548131551572251e+00 5.182684071661477674e+02
1.450648155557333618e+00 5.182782466102078160e+02
1.450748179563094986e+00 5.182880658214835421e+02
1.450848203568856354e+00 5.182978646680204520e+02
1.450948227574617722e+00 5.183076430183796219e+02
1.451048251580379089e+00 5.183174007416400855e+02
1.451148275586140679e+00 5.183271377074016755e+02
1.451248299591902047e+00 5.183368537857895717e+02
1.451348323597663414e+00 5.183465488474568019e+02
1.451448347603424782e+00 5.183562227635879935e+02
1.451548371609186150e+00 5.183658754059016474e+02
1.451648395614947518e+00 5.183755066466554808e+02
1.451748419620708885e+00 5.183851163586477924e+02
1.451848443626470253e+00 5.183947044152217813e+02
1.451948467632231621e+00 5.184042706902677082e+02
1.452048491637992989e+00 5.184138150582275557e+02
1.452148515643754356e+00 5.184233373940980982e+02
1.452248539649515724e+00 5.184328375734315841e+02
1.452348563655277092e+00 5.184423154723421021e+02
1.452448587661038459e+00 5.184517709675072865e+02
1.452548611666799827e+00 5.184612039361716143e+02
1.452648635672561195e+00 5.184706142561485649e+02
1.452748659678322563e+00 5.184800018058256228e+02
1.452848683684083930e+00 5.184893664641655278e+02
1.452948707689845520e+00 5.184987081107108224e+02
1.453048731695607110e+00 5.185080266255858987e+02
1.453148755701368255e+00 5.185173218894984757e+02
1.453248779707129845e+00 5.185265937837465344e+02
1.453348803712890991e+00 5.185358421902186592e+02
1.453448827718652581e+00 5.185450669913966522e+02
1.453548851724413726e+00 5.185542680703593987e+02
1.453648875730175316e+00 5.185634453107850277e+02
1.453748899735936462e+00 5.185725985969552312e+02
1.453848923741698052e+00 5.185817278137567428e+02
1.453948947747459197e+00 5.185908328466841795e+02
1.454048971753220787e+00 5.185999135818437935e+02
1.454148995758981933e+00 5.186089699059550640e+02
1.454249019764743522e+00 5.186180017063551304e+02
1.454349043770504668e+00 5.186270088709995889e+02
1.454449067776266258e+00 5.186359912884654477e+02
1.454549091782027403e+00 5.186449488479569254e+02
1.454649115787788993e+00 5.186538814393038592e+02
1.454749139793550139e+00 5.186627889529664799e+02
1.454849163799311951e+00 5.186716712800387086e+02
1.454949187805073318e+00 5.186805283122484980e+02
1.455049211810834686e+00 5.186893599419623797e+02
1.455149235816596054e+00 5.186981660621885339e+02
1.455249259822357422e+00 5.187069465665766757e+02
1.455349283828118789e+00 5.187157013494224884e+02
1.455449307833880157e+00 5.187244303056711487e+02
1.455549331839641525e+00 5.187331333309169850e+02
1.455649355845402892e+00 5.187418103214084795e+02
1.455749379851164260e+00 5.187504611740478140e+02
1.455849403856925628e+00 5.187590857863978044e+02
1.455949427862686996e+00 5.187676840566799683e+02
1.456049451868448363e+00 5.187762558837792994e+02
1.456149475874209731e+00 5.187848011672448365e+02
1.456249499879971099e+00 5.187933198072938694e+02
1.456349523885732467e+00 5.188018117048137583e+02
1.456449547891493834e+00 5.188102767613627293e+02
1.456549571897255202e+00 5.188187148791751042e+02
1.456649595903016792e+00 5.188271259611587993e+02
1.456749619908778159e+00 5.188355099109035109e+02
1.456849643914539527e+00 5.188438666326786688e+02
1.456949667920300895e+00 5.188521960314358239e+02
1.457049691926062263e+00 5.188604980128128545e+02
1.457149715931823630e+00 5.188687724831352170e+02
1.457249739937584998e+00 5.188770193494169689e+02
1.457349763943346366e+00 5.188852385193641794e+02
1.457449787949107733e+00 5.188934299013765212e+02
1.457549811954869101e+00 5.189015934045488621e+02
1.457649835960630469e+00 5.189097289386739931e+02
1.457749859966391837e+00 5.189178364142449027e+02
1.457849883972153204e+00 5.189259157424545492e+02
1.457949907977914572e+00 5.189339668352013177e+02
1.458049931983675940e+00 5.189419896050875423e+02
1.458149955989437307e+00 5.189499839654230300e+02
1.458249979995198675e+00 5.189579498302274487e+02
1.458350004000960043e+00 5.189658871142313501e+02
1.458450028006721411e+00 5.189737957328777611e+02
1.458550052012483000e+00 5.189816756023233211e+02
1.458650076018244368e+00 5.189895266394440796e+02
1.458750100024005736e+00 5.189973487618301533e+02
1.458850124029767104e+00 5.190051418877952756e+02
1.458950148035528471e+00 5.190129059363719080e+02
1.459050172041289839e+00 5.190206408273176066e+02
1.459150196047051207e+00 5.190283464811133172e+02
1.459250220052812574e+00 5.190360228189681493e+02
1.459350244058573942e+00 5.190436697628178990e+02
1.459450268064335310e+00 5.190512872353280045e+02
1.459550292070096678e+00 5.190588751598963881e+02
1.459650316075858045e+00 5.190664334606527746e+02
1.459750340081619413e+00 5.190739620624610779e+02
1.459850364087380781e+00 5.190814608909216759e+02
1.459950388093142148e+00 5.190889298723715228e+02
1.460050412098903516e+00 5.190963689338858558e+02
1.460150436104664884e+00 5.191037780032806950e+02
1.460250460110426252e+00 5.191111570091136400e+02
1.460350484116188063e+00 5.191185058806845518e+02
1.460450508121949209e+00 5.191258245480368032e+02
1.460550532127710799e+00 5.191331129419609169e+02
1.460650556133471945e+00 5.191403709939920645e+02
1.460750580139233534e+00 5.191475986364147275e+02
1.460850604144994680e+00 5.191547958022624698e+02
1.460950628150756270e+00 5.191619624253194161e+02
1.461050652156517415e+00 5.191690984401197966e+02
1.461150676162279005e+00 5.191762037819523812e+02
1.461250700168040151e+00 5.191832783868594561e+02
1.461350724173801741e+00 5.191903221916378470e+02
1.461450748179562886e+00 5.191973351338396014e+02
1.461550772185324476e+00 5.192043171517765359e+02
1.461650796191085622e+00 5.192112681845163706e+02
1.461750820196847211e+00 5.192181881718864815e+02
1.461850844202608357e+00 5.192250770544752640e+02
1.461950868208369947e+00 5.192319347736317923e+02
1.462050892214131093e+00 5.192387612714660463e+02
1.462150916219892682e+00 5.192455564908541419e+02
1.462250940225654272e+00 5.192523203754325323e+02
1.462350964231415640e+00 5.192590528696049432e+02
1.462450988237177008e+00 5.192657539185391897e+02
1.462551012242938375e+00 5.192724234681702455e+02
1.462651036248699743e+00 5.192790614652008117e+02
1.462751060254461111e+00 5.192856678570999520e+02
1.462851084260222478e+00 5.192922425921075273e+02
1.462951108265983846e+00 5.192987856192310119e+02
1.463051132271745214e+00 5.193052968882493587e+02
1.463151156277506582e+00 5.193117763497114083e+02
1.463251180283267949e+00 5.193182239549372525e+02
1.463351204289029317e+00 5.193246396560206222e+02
1.463451228294790685e+00 5.193310234058258175e+02
1.463551252300552052e+00 5.193373751579922555e+02
1.463651276306313420e+00 5.193436948669318554e+02
1.463751300312074788e+00 5.193499824878310847e+02
1.463851324317836156e+00 5.193562379766516415e+02
1.463951348323597523e+00 5.193624612901293176e+02
1.464051372329359113e+00 5.193686523857769544e+02
1.464151396335120481e+00 5.193748112218831920e+02
1.464251420340881849e+00 5.193809377575122426e+02
1.464351444346643216e+00 5.193870319525061632e+02
1.464451468352404584e+00 5.193930937674832649e+02
1.464551492358165952e+00 5.193991231638403860e+02
1.464651516363927319e+00 5.194051201037523242e+02
1.464751540369688687e+00 5.194110845501700169e+02
1.464851564375450055e+00 5.194170164668253165e+02
1.464951588381211423e+00 5.194229158182266701e+02
1.465051612386972790e+00 5.194287825696626442e+02
1.465151636392734158e+00 5.194346166871987407e+02
1.465251660398495526e+00 5.194404181376822862e+02
1.465351684404256893e+00 5.194461868887373157e+02
1.465451708410018261e+00 5.194519229087684380e+02
1.465551732415779629e+00 5.194576261669599262e+02
1.465651756421540997e+00 5.194632966332735577e+02
1.465751780427302364e+00 5.194689342784527071e+02
1.465851804433063954e+00 5.194745390740183666e+02
1.465951828438825322e+00 5.194801109922726710e+02
1.466051852444586689e+00 5.194856500062952591e+02
1.466151876450348057e+00 5.194911560899466849e+02
1.466251900456109425e+00 5.194966292178655749e+02
1.466351924461870793e+00 5.195020693654697652e+02
1.466451948467632160e+00 5.195074765089559605e+02
1.466551972473393528e+00 5.195128506252998477e+02
1.466651996479154896e+00 5.195181916922555274e+02
1.466752020484916263e+00 5.195234996883551730e+02
1.466852044490677631e+00 5.195287745929086896e+02
1.466952068496438999e+00 5.195340163860045095e+02
1.467052092502200367e+00 5.195392250485078875e+02
1.467152116507961734e+00 5.195444005620615826e+02
1.467252140513723102e+00 5.195495429090858579e+02
1.467352164519484470e+00 5.195546520727755251e+02
1.467452188525245838e+00 5.195597280371022180e+02
1.467552212531007205e+00 5.195647707868138241e+02
1.467652236536768573e+00 5.195697803074332342e+02
1.467752260542530163e+00 5.195747565852575462e+02
1.467852284548291752e+00 5.195796996073586342e+02
1.467952308554052898e+00 5.195846093615808741e+02
1.468052332559814488e+00 5.195894858365438722e+02
1.468152356565575634e+00 5.195943290216374635e+02
1.468252380571337223e+00 5.195991389070259174e+02
1.468352404577098369e+00 5.196039154836422540e+02
1.468452428582859959e+00 5.196086587431923363e+02
1.468552452588621104e+00 5.196133686781516872e+02
1.468652476594382694e+00 5.196180452817650348e+02
1.468752500600143840e+00 5.196226885480452893e+02
1.468852524605905430e+00 5.196272984717742247e+02
1.468952548611666575e+00 5.196318750485007740e+02
1.469052572617428165e+00 5.196364182745398921e+02
1.469152596623189311e+00 5.196409281469723282e+02
1.469252620628950901e+00 5.196454046636438306e+02
1.469352644634712046e+00 5.196498478231641229e+02
1.469452668640473636e+00 5.196542576249057674e+02
1.469552692646235226e+00 5.196586340690040515e+02
1.469652716651996593e+00 5.196629771563556233e+02
1.469752740657757961e+00 5.196672868886171273e+02
1.469852764663519329e+00 5.196715632682046362e+02
1.469952788669280697e+00 5.196758062982922866e+02
1.470052812675042064e+00 5.196800159828131882e+02
1.470152836680803432e+00 5.196841923264551042e+02
1.470252860686564800e+00 5.196883353346621561e+02
1.470352884692326167e+00 5.196924450136324367e+02
1.470452908698087535e+00 5.196965213703173276e+02
1.470552932703848903e+00 5.197005644124197943e+02
1.470652956709610271e+00 5.197045741483942720e+02
1.470752980715371638e+00 5.197085505874449609e+02
1.470853004721133006e+00 5.197124937395236657e+02
1.470953028726894374e+00 5.197164036153311599e+02
1.471053052732655742e+00 5.197202802263129797e+02
1.471153076738417109e+00 5.197241235846596510e+02
1.471253100744178477e+00 5.197279337033061211e+02
1.471353124749939845e+00 5.197317105959282344e+02
1.471453148755701434e+00 5.197354542769442105e+02
1.471553172761462802e+00 5.197391647615106649e+02
1.471653196767224170e+00 5.197428420655237460e+02
1.471753220772985538e+00 5.197464862056147012e+02
1.471853244778746905e+00 5.197500971991521510e+02
1.471953268784508273e+00 5.197536750642365178e+02
1.472053292790269641e+00 5.197572198197027546e+02
1.472153316796031008e+00 5.197607314851157980e+02
1.472253340801792376e+00 5.197642100807704537e+02
1.472353364807553744e+00 5.197676556276890096e+02
1.472453388813315112e+00 5.197710681476212358e+02
1.472553412819076479e+00 5.197744476630410873e+02
1.472653436824837847e+00 5.197777941971462496e+02
1.472753460830599215e+00 5.197811077738556378e+02
1.472853484836360582e+00 5.197843884178087137e+02
1.472953508842121950e+00 5.197876361543636676e+02
1.473053532847883318e+00 5.197908510095943484e+02
1.473153556853644686e+00 5.197940330102904909e+02
1.473253580859406275e+00 5.197971821839556696e+02
1.473353604865167643e+00 5.198002985588042293e+02
1.473453628870929011e+00 5.198033821637610572e+02
1.473553652876690379e+00 5.198064330284578318e+02
1.473653676882451746e+00 5.198094511832354101e+02
1.473753700888213114e+00 5.198124366591357557e+02
1.473853724893974482e+00 5.198153894879055770e+02
1.473953748899735849e+00 5.198183097019923480e+02
1.474053772905497217e+00 5.198211973345412389e+02
1.474153796911258585e+00 5.198240524193957981e+02
1.474253820917019953e+00 5.198268749910943143e+02
1.474353844922781320e+00 5.198296650848681111e+02
1.474453868928542688e+00 5.198324227366389323e+02
1.474553892934304056e+00 5.198351479830195103e+02
1.474653916940065423e+00 5.198378408613087913e+02
1.474753940945826791e+00 5.198405014094914804e+02
1.474853964951588159e+00 5.198431296662347449e+02
1.474953988957349527e+00 5.198457256708866225e+02
1.475054012963110894e+00 5.198482894634767035e+02
1.475154036968872706e+00 5.198508210847079454e+02
1.475254060974633852e+00 5.198533205759613338e+02
1.475354084980395442e+00 5.198557879792884933e+02
1.475454108986156587e+00 5.198582233374130510e+02
1.475554132991918177e+00 5.198606266937262035e+02
1.475654156997679323e+00 5.198629980922861478e+02
1.475754181003440912e+00 5.198653375778137615e+02
1.475854205009202058e+00 5.198676451956928304e+02
1.475954229014963648e+00 5.198699209919668647e+02
1.476054253020724794e+00 5.198721650133363710e+02
1.476154277026486383e+00 5.198743773071558962e+02
1.476254301032247529e+00 5.198765579214343688e+02
1.476354325038009119e+00 5.198787069048297553e+02
1.476454349043770264e+00 5.198808243066492878e+02
1.476554373049531854e+00 5.198829101768446890e+02
1.476654397055293000e+00 5.198849645660121723e+02
1.476754421061054590e+00 5.198869875253876671e+02
1.476854445066815735e+00 5.198889791068468185e+02
1.476954469072577547e+00 5.198909393629002125e+02
1.477054493078338915e+00 5.198928683466937173e+02
1.477154517084100283e+00 5.198947661120021166e+02
1.477254541089861650e+00 5.198966327132317247e+02
1.477354565095623018e+00 5.198984682054128825e+02
1.477454589101384386e+00 5.199002726442001858e+02
1.477554613107145753e+00 5.199020460858707793e+02
1.477654637112907121e+00 5.199037885873175355e+02
1.477754661118668489e+00 5.199055002060524657e+02
1.477854685124429857e+00 5.199071810001997846e+02
1.477954709130191224e+00 5.199088310284943191e+02
1.478054733135952592e+00 5.199104503502794614e+02
1.478154757141713960e+00 5.199120390255052371e+02
1.478254781147475327e+00 5.199135971147226201e+02
1.478354805153236695e+00 5.199151246790854657e+02
1.478454829158998063e+00 5.199166217803433483e+02
1.478554853164759431e+00 5.199180884808417886e+02
1.478654877170520798e+00 5.199195248435181611e+02
1.478754901176282166e+00 5.199209309318994201e+02
1.478854925182043756e+00 5.199223068101002809e+02
1.478954949187805124e+00 5.199236525428183313e+02
1.479054973193566491e+00 5.199249681953330082e+02
1.479154997199327859e+00 5.199262538335024146e+02
1.479255021205089227e+00 5.199275095237593405e+02
1.479355045210850594e+00 5.199287353331117174e+02
1.479455069216611962e+00 5.199299313291353428e+02
1.479555093222373330e+00 5.199310975799739936e+02
1.479655117228134698e+00 5.199322341543359016e+02
1.479755141233896065e+00 5.199333411214909120e+02
1.479855165239657433e+00 5.199344185512674130e+02
1.479955189245418801e+00 5.199354665140488123e+02
1.480055213251180168e+00 5.199364850807729681e+02
1.480155237256941536e+00 5.199374743229259366e+02
1.480255261262702904e+00 5.199384343125407213e+02
1.480355285268464272e+00 5.199393651221959090e+02
1.480455309274225639e+00 5.199402668250086208e+02
1.480555333279987007e+00 5.199411394946364453e+02
1.480655357285748597e+00 5.199419832052702759e+02
1.480755381291509964e+00 5.199427980316336289e+02
1.480855405297271332e+00 5.199435840489790053e+02
1.480955429303032700e+00 5.199443413330842532e+02
1.481055453308794068e+00 5.199450699602508621e+02
1.481155477314555435e+00 5.199457700072987336e+02
1.481255501320316803e+00 5.199464415515668634e+02
1.481355525326078171e+00 5.199470846709052694e+02
1.481455549331839538e+00 5.199476994436757877e+02
1.481555573337600906e+00 5.199482859487477526e+02
1.481655597343362274e+00 5.199488442654943583e+02
1.481755621349123642e+00 5.199493744737901579e+02
1.481855645354885009e+00 5.199498766540067436e+02
1.481955669360646377e+00 5.199503508870118367e+02
1.482055693366407745e+00 5.199507972541646268e+02
1.482155717372169113e+00 5.199512158373112243e+02
1.482255741377930480e+00 5.199516067187851149e+02
1.482355765383691848e+00 5.199519699813997704e+02
1.482455789389453216e+00 5.199523057084491029e+02
1.482555813395214805e+00 5.199526139837013261e+02
1.482655837400976395e+00 5.199528948913973636e+02
1.482755861406737541e+00 5.199531485162476656e+02
1.482855885412499131e+00 5.199533749434283436e+02
1.482955909418260276e+00 5.199535742585770777e+02
1.483055933424021866e+00 5.199537465477914111e+02
1.483155957429783012e+00 5.199538918976249988e+02
1.483255981435544602e+00 5.199540103950840830e+02
1.483356005441305747e+00 5.199541021276236279e+02
1.483456029447067337e+00 5.199541671831450458e+02
1.483556053452828483e+00 5.199542056499917635e+02
1.483656077458590072e+00 5.199542176169472896e+02
1.483756101464351218e+00 5.199542031732305531e+02
1.483856125470112808e+00 5.199541624084928344e+02
1.483956149475873953e+00 5.199540954128151498e+02
1.484056173481635543e+00 5.199540022767031360e+02
1.484156197487396689e+00 5.199538830910856859e+02
1.484256221493158279e+00 5.199537379473110832e+02
1.484356245498919868e+00 5.199535669371421136e+02
1.484456269504681236e+00 5.199533701527534504e+02
1.484556293510442604e+00 5.199531476867298352e+02
1.484656317516203972e+00 5.199528996320591432e+02
1.484756341521965339e+00 5.199526260821340884e+02
1.484856365527726707e+00 5.199523271307422192e+02
1.484956389533488075e+00 5.199520028720686469e+02
1.485056413539249442e+00 5.199516534006877464e+02
1.485156437545010810e+00 5.199512788115634976e+02
1.485256461550772178e+00 5.199508792000440280e+02
1.485356485556533546e+00 5.199504546618561562e+02
1.485456509562294913e+00 5.199500052931074379e+02
1.485556533568056281e+00 5.199495311902763888e+02
1.485656557573817649e+00 5.199490324502139629e+02
1.485756581579579017e+00 5.199485091701370720e+02
1.485856605585340384e+00 5.199479614476252891e+02
1.485956629591101752e+00 5.199473893806183469e+02
1.486056653596863120e+00 5.199467930674139780e+02
1.486156677602624487e+00 5.199461726066590472e+02
1.486256701608386077e+00 5.199455280973519393e+02
1.486356725614147445e+00 5.199448596388360784e+02
1.486456749619908813e+00 5.199441673307962901e+02
1.486556773625670180e+00 5.199434512732565281e+02
1.486656797631431548e+00 5.199427115665746442e+02
1.486756821637192916e+00 5.199419483114401146e+02
1.486856845642954283e+00 5.199411616088704022e+02
1.486956869648715651e+00 5.199403515602054995e+02
1.487056893654477019e+00 5.199395182671069051e+02
1.487156917660238387e+00 5.199386618315531905e+02
1.487256941665999754e+00 5.199377823558347700e+02
1.487356965671761122e+00 5.199368799425519683e+02
1.487456989677522490e+00 5.199359546946117234e+02
1.487557013683283857e+00 5.199350067152221300e+02
1.487657037689045225e+00 5.199340361078902788e+02
1.487757061694806593e+00 5.199330429764186192e+02
1.487857085700567961e+00 5.199320274249002978e+02
1.487957109706329328e+00 5.199309895577154066e+02
1.488057133712090918e+00 5.199299294795298465e+02
1.488157157717852286e+00 5.199288472952881648e+02
1.488257181723613654e+00 5.199277431102121909e+02
1.488357205729375021e+00 5.199266170297969438e+02
1.488457229735136389e+00 5.199254691598057434e+02
1.488557253740897757e+00 5.199242996062688462e+02
1.488657277746659124e+00 5.199231084754776475e+02
1.488757301752420492e+00 5.199218958739817253e+02
1.488857325758181860e+00 5.199206619085854300e+02
1.488957349763943228e+00 5.199194066863433363e+02
1.489057373769704595e+00 5.199181303145587663e+02
1.489157397775465963e+00 5.199168329007767397e+02
1.489257421781227331e+00 5.199155145527834065e+02
1.489357445786988698e+00 5.199141753786004756e+02
1.489457469792750066e+00 5.199128154864815770e+02
1.489557493798511434e+00 5.199114349849085102e+02
1.489657517804272802e+00 5.199100339825906758e+02
1.489757541810034169e+00 5.199086125884559806e+02
1.489857565815795537e+00 5.199071709116511784e+02
1.489957589821557349e+00 5.199057090615360721e+02
1.490057613827318495e+00 5.199042271476814676e+02
1.490157637833080084e+00 5.199027252798637164e+02
1.490257661838841230e+00 5.199012035680625559e+02
1.490357685844602820e+00 5.198996621224567889e+02
1.490457709850363965e+00 5.198981010534195093e+02
1.490557733856125555e+00 5.198965204715159416e+02
1.490657757861886701e+00 5.198949204874988936e+02
1.490757781867648291e+00 5.198933012123055732e+02
1.490857805873409436e+00 5.198916627570539504e+02
1.490957829879171026e+00 5.198900052330369590e+02
1.491057853884932172e+00 5.198883287517231793e+02
1.491157877890693761e+00 5.198866334247471741e+02
1.491257901896454907e+00 5.198849193639113082e+02
1.491357925902216497e+00 5.198831866811788132e+02
1.491457949907977643e+00 5.198814354886716274e+02
1.491557973913739232e+00 5.198796658986649390e+02
1.491657997919500378e+00 5.198778780235852537e+02
1.491758021925262190e+00 5.198760719760057327e+02
1.491858045931023558e+00 5.198742478686423283e+02
1.491958069936784925e+00 5.198724058143513957e+02
1.492058093942546293e+00 5.198705459261248052e+02
1.492158117948307661e+00 5.198686683170849392e+02
1.492258141954069028e+00 5.198667731004840107e+02
1.492358165959830396e+00 5.198648603896987197e+02
1.492458189965591764e+00 5.198629302982257059e+02
1.492558213971353132e+00 5.198609829396796158e+02
1.492658237977114499e+00 5.198590184277882145e+02
1.492758261982875867e+00 5.198570368763887473e+02
1.492858285988637235e+00 5.198550383994250979e+02
1.492958309994398602e+00 5.198530231109433544e+02
1.493058334000159970e+00 5.198509911250880577e+02
1.493158358005921338e+00 5.198489425560971995e+02
1.493258382011682706e+00 5.198468775183030175e+02
1.493358406017444073e+00 5.198447961261236969e+02
1.493458430023205441e+00 5.198426984940600732e+02
1.493558454028966809e+00 5.198405847366957460e+02
1.493658478034728398e+00 5.198384549686886658e+02
1.493758502040489766e+00 5.198363093047712482e+02
1.493858526046251134e+00 5.198341478597429841e+02
1.493958550052012502e+00 5.198319707484708943e+02
1.494058574057773869e+00 5.198297780858827082e+02
1.494158598063535237e+00 5.198275699869639084e+02
1.494258622069296605e+00 5.198253465667567070e+02
1.494358646075057973e+00 5.198231079403508375e+02
1.494458670080819340e+00 5.198208542228852593e+02
1.494558694086580708e+00 5.198185855295419060e+02
1.494658718092342076e+00 5.198163019755432970e+02
1.494758742098103443e+00 5.198140036761470810e+02
1.494858766103864811e+00 5.198116907466439898e+02
1.494958790109626179e+00 5.198093633023535176e+02
1.495058814115387547e+00 5.198070214586205111e+02
1.495158838121148914e+00 5.198046653308126679e+02
1.495258862126910282e+00 5.198022950343140565e+02
1.495358886132671650e+00 5.197999106845231836e+02
1.495458910138433239e+00 5.197975123968518574e+02
1.495558934144194607e+00 5.197951002867166608e+02
1.495658958149955975e+00 5.197926744695388379e+02
1.495758982155717343e+00 5.197902350607394055e+02
1.495859006161478710e+00 5.197877821757360834e+02
1.495959030167240078e+00 5.197853159299398840e+02
1.496059054173001446e+00 5.197828364387506781e+02
1.496159078178762813e+00 5.197803438175544670e+02
1.496259102184524181e+00 5.197778381817190620e+02
1.496359126190285549e+00 5.197753196465912424e+02
1.496459150196046917e+00 5.197727883274933447e+02
1.496559174201808284e+00 5.197702443397183742e+02
1.496659198207569652e+00 5.197676877985285273e+02
1.496759222213331020e+00 5.197651188191490519e+02
1.496859246219092388e+00 5.197625375167685888e+02
1.496959270224853755e+00 5.197599440065303043e+02
1.497059294230615123e+00 5.197573384035334811e+02
1.497159318236376491e+00 5.197547208228276077e+02
1.497259342242137858e+00 5.197520913794089665e+02
1.497359366247899448e+00 5.197494501882169970e+02
1.497459390253661038e+00 5.197467973641319077e+02
1.497559414259422184e+00 5.197441330219699012e+02
1.497659438265183773e+00 5.197414572764812419e+02
1.497759462270944919e+00 5.197387702423442306e+02
1.497859486276706509e+00 5.197360720341653177e+02
1.497959510282467654e+00 5.197333627664726237e+02
1.498059534288229244e+00 5.197306425537140058e+02
1.498159558293990390e+00 5.197279115102534206e+02
1.498259582299751980e+00 5.197251697503664900e+02
1.498359606305513125e+00 5.197224173882398190e+02
1.498459630311274715e+00 5.197196545379639474e+02
1.498559654317035861e+00 5.197168813135334631e+02
1.498659678322797451e+00 5.197140978288398401e+02
1.498759702328558596e+00 5.197113041976724617e+02
1.498859726334320186e+00 5.197085005337117991e+02
1.498959750340081332e+00 5.197056869505269106e+02
1.499059774345842921e+00 5.197028635615739631e+02
1.499159798351604511e+00 5.197000304801900938e+02
1.499259822357365879e+00 5.196971878195917043e+02
1.499359846363127247e+00 5.196943356928710500e+02
1.499459870368888614e+00 5.196914742129929436e+02
1.499559894374649982e+00 5.196886034927908895e+02
1.499659918380411350e+00 5.196857236449641277e+02
1.499759942386172717e+00 5.196828347820752469e+02
1.499859966391934085e+00 5.196799370165448408e+02
1.499959990397695453e+00 5.196770304606505988e+02
1.500060014403456821e+00 5.407852322714527418e+02
1.500160038409218188e+00 5.408877300393527321e+02
1.500260062414979556e+00 5.409902990920789989e+02
1.500360086420740924e+00 5.410929379126794174e+02
1.500460110426502292e+00 5.411956449819989530e+02
1.500560134432263659e+00 5.412984187787195651e+02
1.500660158438025027e+00 5.414012577793960190e+02
1.500760182443786395e+00 5.415041604584929473e+02
1.500860206449547762e+00 5.416071252884238447e+02
1.500960230455309130e+00 5.417101507395880162e+02
1.501060254461070720e+00 5.418132352804070706e+02
1.501160278466832088e+00 5.419163773773640287e+02
1.501260302472593455e+00 5.420195754950412947e+02
1.501360326478354823e+00 5.421228280961560131e+02
1.501460350484116191e+00 5.422261336416006543e+02
1.501560374489877558e+00 5.423294905904798497e+02
1.501660398495638926e+00 5.424328974001484767e+02
1.501760422501400294e+00 5.425363525262483790e+02
1.501860446507161662e+00 5.426398544227482716e+02
1.501960470512923029e+00 5.427434015419813704e+02
1.502060494518684397e+00 5.428469923346824544e+02
1.502160518524445765e+00 5.429506252500265191e+02
1.502260542530207132e+00 5.430542987356684534e+02
1.502360566535968500e+00 5.431580112377791920e+02
1.502460590541729868e+00 5.432617612010849371e+02
1.502560614547491236e+00 5.433655470689060394e+02
1.502660638553252603e+00 5.434693672831938329e+02
1.502760662559013971e+00 5.435732202845707661e+02
1.502860686564775561e+00 5.436771045123681461e+02
1.502960710570536929e+00 5.437810184046644508e+02
1.503060734576298296e+00 5.438849603983239831e+02
1.503160758582059664e+00 5.439889289290358647e+02
1.503260782587821032e+00 5.440929224313509849e+02
1.503360806593582399e+00 5.441969393387237233e+02
1.503460830599343767e+00 5.443009780835477613e+02
1.503560854605105135e+00 5.444050370971956454e+02
1.503660878610866503e+00 5.445091148100578948e+02
1.503760902616627870e+00 5.446132096515818830e+02
1.503860926622389238e+00 5.447173200503093540e+02
1.503960950628150606e+00 5.448214444339173497e+02
1.504060974633911973e+00 5.449255812292545897e+02
1.504160998639673341e+00 5.450297288623819441e+02
1.504261022645434709e+00 5.451338857586106315e+02
1.504361046651196077e+00 5.452380503425422376e+02
1.504461070656957444e+00 5.453422210381047535e+02
1.504561094662718812e+00 5.454463962685957767e+02
1.504661118668480180e+00 5.455505744567174133e+02
1.504761142674241992e+00 5.456547540246172048e+02
1.504861166680003137e+00 5.457589333939279186e+02
1.504961190685764727e+00 5.458631109858039281e+02
1.505061214691525873e+00 5.459672852209621396e+02
1.505161238697287462e+00 5.460714545197213283e+02
1.505261262703048608e+00 5.461756173020396545e+02
1.505361286708810198e+00 5.462797719875535449e+02
1.505461310714571344e+00 5.463839169956197566e+02
1.505561334720332933e+00 5.464880507453505061e+02
1.505661358726094079e+00 5.465921716556545107e+02
1.505761382731855669e+00 5.466962781452762101e+02
1.505861406737616814e+00 5.468003686328338517e+02
1.505961430743378404e+00 5.469044415368593945e+02
1.506061454749139550e+00 5.470084952758372765e+02
1.506161478754901140e+00 5.471125282682426132e+02
1.506261502760662285e+00 5.472165389325814431e+02
1.506361526766423875e+00 5.473205256874302904e+02
1.506461550772185021e+00 5.474244869514728862e+02
1.506561574777946833e+00 5.475284211435409816e+02
1.506661598783708200e+00 5.476323266826533427e+02
1.506761622789469568e+00 5.477362019880532671e+02
1.506861646795230936e+00 5.478400454792506480e+02
1.506961670800992303e+00 5.479438555760573308e+02
1.507061694806753671e+00 5.480476306986279269e+02
1.507161718812515039e+00 5.481513692674999447e+02
1.507261742818276407e+00 5.482550697036302836e+02
1.507361766824037774e+00 5.483587304284355923e+02
1.507461790829799142e+00 5.484623498638312640e+02
1.507561814835560510e+00 5.485659264322699755e+02
1.507661838841321877e+00 5.486694585567795457e+02
1.507761862847083245e+00 5.487729446610060222e+02
1.507861886852844613e+00 5.488763831692455142e+02
1.507961910858605981e+00 5.489797725064902352e+02
1.508061934864367348e+00 5.490831110984615862e+02
1.508161958870128716e+00 5.491863973716530154e+02
1.508261982875890084e+00 5.492896297533671941e+02
1.508362006881651451e+00 5.493928066717541014e+02
1.508462030887413041e+00 5.494959265558497918e+02
1.508562054893174409e+00 5.495989878356174358e+02
1.508662078898935777e+00 5.497019889419819947e+02
1.508762102904697144e+00 5.498049283068735349e+02
1.508862126910458512e+00 5.499078043632608797e+02
1.508962150916219880e+00 5.500106155451950372e+02
1.509062174921981248e+00 5.501133602878428519e+02
1.509162198927742615e+00 5.502160370275300920e+02
1.509262222933503983e+00 5.503186442017764648e+02
1.509362246939265351e+00 5.504211802493351797e+02
1.509462270945026718e+00 5.505236436102334210e+02
1.509562294950788086e+00 5.506260327258062262e+02
1.509662318956549454e+00 5.507283460387385503e+02
1.509762342962310822e+00 5.508305819931024416e+02
1.509862366968072189e+00 5.509327390343950128e+02
1.509962390973833557e+00 5.510348156095762988e+02
1.510062414979594925e+00 5.511368101671077966e+02
1.510162438985356292e+00 5.512387211569900956e+02
1.510262462991117882e+00 5.513405470308034637e+02
1.510362486996879250e+00 5.514422862417401348e+02
1.510462511002640618e+00 5.515439372446488733e+02
1.510562535008401985e+00 5.516454984960688535e+02
1.510662559014163353e+00 5.517469684542671757e+02
1.510762583019924721e+00 5.518483455792799077e+02
1.510862607025686088e+00 5.519496283329458493e+02
1.510962631031447456e+00 5.520508151789473459e+02
1.511062655037208824e+00 5.521519045828467824e+02
1.511162679042970192e+00 5.522528950121225080e+02
1.511262703048731559e+00 5.523537849362091947e+02
1.511362727054492927e+00 5.524545728265331945e+02
1.511462751060254295e+00 5.525552571565519884e+02
1.511562775066015663e+00 5.526558364017885197e+02
1.511662799071777030e+00 5.527563090398707573e+02
1.511762823077538398e+00 5.528566735505672796e+02
1.511862847083299766e+00 5.529569284158269511e+02
1.511962871089061133e+00 5.530570721198128012e+02
1.512062895094822501e+00 5.531571031489414736e+02
1.512162919100584091e+00 5.532570199919190372e+02
1.512262943106345681e+00 5.533568211397766845e+02
1.512362967112106826e+00 5.534565050859108624e+02
1.512462991117868416e+00 5.535560703261166964e+02
1.512563015123629562e+00 5.536555153586252800e+02
1.512663039129391152e+00 5.537548386841424417e+02
1.512763063135152297e+00 5.538540388058827375e+02
1.512863087140913887e+00 5.539531142296060580e+02
1.512963111146675033e+00 5.540520634636554860e+02
1.513063135152436622e+00 5.541508850189923123e+02
1.513163159158197768e+00 5.542495774092323018e+02
1.513263183163959358e+00 5.543481391506821865e+02
1.513363207169720503e+00 5.544465687623763870e+02
1.513463231175482093e+00 5.545448647661110044e+02
1.513563255181243239e+00 5.546430256864806552e+02
1.513663279187004829e+00 5.547410500509151916e+02
1.513763303192765974e+00 5.548389363897140356e+02
1.513863327198527564e+00 5.549366832360825583e+02
1.513963351204289154e+00 5.550342891261660725e+02
1.514063375210050522e+00 5.551317525990883723e+02
1.514163399215811889e+00 5.552290721969832248e+02
1.514263423221573257e+00 5.553262464650331367e+02
1.514363447227334625e+00 5.554232739515015282e+02
1.514463471233095992e+00 5.555201532077701359e+02
1.514563495238857360e+00 5.556168827883723225e+02
1.514663519244618728e+00 5.557134612510292300e+02
1.514763543250380096e+00 5.558098871566826347e+02
1.514863567256141463e+00 5.559061590695323503e+02
1.514963591261902831e+00 5.560022755570685149e+02
1.515063615267664199e+00 5.560982351901074026e+02
1.515163639273425567e+00 5.561940365428239375e+02
1.515263663279186934e+00 5.562896781927893244e+02
1.515363687284948302e+00 5.563851587210017442e+02
1.515463711290709670e+00 5.564804767119221651e+02
1.515563735296471037e+00 5.565756307535086762e+02
1.515663759302232405e+00 5.566706194372487744e+02
1.515763783307993773e+00 5.567654413581943800e+02
1.515863807313755363e+00 5.568600951149956018e+02
1.515963831319516730e+00 5.569545793099341608e+02
1.516063855325278098e+00 5.570488925489546546e+02
1.516163879331039466e+00 5.571430334417021868e+02
1.516263903336800833e+00 5.572370006015507897e+02
1.516363927342562201e+00 5.573307926456402583e+02
1.516463951348323569e+00 5.574244081949084375e+02
1.516563975354084937e+00 5.575178458741219174e+02
1.516663999359846304e+00 5.576111043119112765e+02
1.516764023365607672e+00 5.577041821408015494e+02
1.516864047371369040e+00 5.577970779972481523e+02
1.516964071377130407e+00 5.578897905216649633e+02
1.517064095382891775e+00 5.579823183584601338e+02
1.517164119388653143e+00 5.580746601560663294e+02
1.517264143394414511e+00 5.581668145669740397e+02
1.517364167400175878e+00 5.582587802477617061e+02
1.517464191405937246e+00 5.583505558591306226e+02
1.517564215411698614e+00 5.584421400659327901e+02
1.517664239417460204e+00 5.585335315372053628e+02
1.517764263423221571e+00 5.586247289462016852e+02
1.517864287428982939e+00 5.587157309704208501e+02
1.517964311434744307e+00 5.588065362916411232e+02
1.518064335440505674e+00 5.588971435959505243e+02
1.518164359446267042e+00 5.589875515737761589e+02
1.518264383452028410e+00 5.590777589199167323e+02
1.518364407457789778e+00 5.591677643335729044e+02
1.518464431463551145e+00 5.592575665183774163e+02
1.518564455469312513e+00 5.593471641824261269e+02
1.518664479475073881e+00 5.594365560383072307e+02
1.518764503480835248e+00 5.595257408031328623e+02
1.518864527486596616e+00 5.596147171985686555e+02
1.518964551492357984e+00 5.597034839508626192e+02
1.519064575498119352e+00 5.597920397908761743e+02
1.519164599503880719e+00 5.598803834541131437e+02
1.519264623509642087e+00 5.599685136807499930e+02
1.519364647515403455e+00 5.600564292156625470e+02
1.519464671521164822e+00 5.601441288084607777e+02
1.519564695526926634e+00 5.602316112135112007e+02
1.519664719532687780e+00 5.603188751899713225e+02
1.519764743538449370e+00 5.604059195018137416e+02
1.519864767544210515e+00 5.604927429178591183e+02
1.519964791549972105e+00 5.605793442118011853e+02
1.520064815555733251e+00 5.606657221622380121e+02
1.520164839561494841e+00 5.607518755526984933e+02
1.520264863567255986e+00 5.608378031716705436e+02
1.520364887573017576e+00 5.609235038126292920e+02
1.520464911578778722e+00 5.610089762740651622e+02
1.520564935584540311e+00 5.610942193595111576e+02
1.520664959590301457e+00 5.611792318775696913e+02
1.520764983596063047e+00 5.612640126419420312e+02
1.520865007601824193e+00 5.613485604714528563e+02
1.520965031607585782e+00 5.614328741900802697e+02
1.521065055613346928e+00 5.615169526269784228e+02
1.521165079619108518e+00 5.616007946165088924e+02
1.521265103624869663e+00 5.616843989982651237e+02
1.521365127630631475e+00 5.617677646170976686e+02
1.521465151636392843e+00 5.618508903231434033e+02
1.521565175642154211e+00 5.619337749718484929e+02
1.521665199647915578e+00 5.620164174239972681e+02
1.521765223653676946e+00 5.620988165457351897e+02
1.521865247659438314e+00 5.621809712085978390e+02
1.521965271665199682e+00 5.622628802895329727e+02
1.522065295670961049e+00 5.623445426709281492e+02
1.522165319676722417e+00 5.624259572406350571e+02
1.522265343682483785e+00 5.625071228919954365e+02
1.522365367688245152e+00 5.625880385238639292e+02
1.522465391694006520e+00 5.626687030406355916e+02
1.522565415699767888e+00 5.627491153522676086e+02
1.522665439705529256e+00 5.628292743743060100e+02
1.522765463711290623e+00 5.629091790279087490e+02
1.522865487717051991e+00 5.629888282398694628e+02
1.522965511722813359e+00 5.630682209426419149e+02
1.523065535728574726e+00 5.631473560743647795e+02
1.523165559734336094e+00 5.632262325788824455e+02
1.523265583740097684e+00 5.633048494057704829e+02
1.523365607745859052e+00 5.633832055103596304e+02
1.523465631751620419e+00 5.634612998537559179e+02
1.523565655757381787e+00 5.635391314028667011e+02
1.523665679763143155e+00 5.636166991304214662e+02
1.523765703768904523e+00 5.636940020149950215e+02
1.523865727774665890e+00 5.637710390410297805e+02
1.523965751780427258e+00 5.638478091988581582e+02
1.524065775786188626e+00 5.639243114847245124e+02
1.524165799791949993e+00 5.640005449008060623e+02
1.524265823797711361e+00 5.640765084552372173e+02
1.524365847803472729e+00 5.641522011621284491e+02
1.524465871809234097e+00 5.642276220415884609e+02
1.524565895814995464e+00 5.643027701197462420e+02
1.524665919820756832e+00 5.643776444287709637e+02
1.524765943826518200e+00 5.644522440068936930e+02
1.524865967832279567e+00 5.645265678984268334e+02
1.524965991838040935e+00 5.646006151537862934e+02
1.525066015843802525e+00 5.646743848295101316e+02
1.525166039849563893e+00 5.647478759882806116e+02
1.525266063855325260e+00 5.648210876989415965e+02
1.525366087861086628e+00 5.648940190365215130e+02
1.525466111866847996e+00 5.649666690822496093e+02
1.525566135872609363e+00 5.650390369235782373e+02
1.525666159878370731e+00 5.651111216541999056e+02
1.525766183884132099e+00 5.651829223740683119e+02
1.525866207889893467e+00 5.652544381894151684e+02
1.525966231895654834e+00 5.653256682127713475e+02
1.526066255901416202e+00 5.653966115629830256e+02
1.526166279907177570e+00 5.654672673652315780e+02
1.526266303912938938e+00 5.655376347510502910e+02
1.526366327918700305e+00 5.656077128583445983e+02
1.526466351924461673e+00 5.656775008314079969e+02
1.526566375930223041e+00 5.657469978209398960e+02
1.526666399935984408e+00 5.658162029840649438e+02
1.526766423941745776e+00 5.658851154843464428e+02
1.526866447947507144e+00 5.659537344918066992e+02
1.526966471953268734e+00 5.660220591829437353e+02
1.527066495959030323e+00 5.660900887407462960e+02
1.527166519964791469e+00 5.661578223547110156e+02
1.527266543970553059e+00 5.662252592208599253e+02
1.527366567976314204e+00 5.662923985417547783e+02
1.527466591982075794e+00 5.663592395265139885e+02
1.527566615987836940e+00 5.664257813908286607e+02
1.527666639993598530e+00 5.664920233569778247e+02
1.527766663999359675e+00 5.665579646538428733e+02
1.527866688005121265e+00 5.666236045169242743e+02
1.527966712010882411e+00 5.666889421883558953e+02
1.528066736016644001e+00 5.667539769169202373e+02
1.528166760022405146e+00 5.668187079580619638e+02
1.528266784028166736e+00 5.668831345739040444e+02
1.528366808033927882e+00 5.669472560332599187e+02
1.528466832039689471e+00 5.670110716116492995e+02
1.528566856045450617e+00 5.670745805913118147e+02
1.528666880051212207e+00 5.671377822612198543e+02
1.528766904056973797e+00 5.672006759170935766e+02
1.528866928062735164e+00 5.672632608614104583e+02
1.528966952068496532e+00 5.673255364034242803e+02
1.529066976074257900e+00 5.673875018591727439e+02
1.529167000080019267e+00 5.674491565514936156e+02
1.529267024085780635e+00 5.675104998100348439e+02
1.529367048091542003e+00 5.675715309712692260e+02
1.529467072097303371e+00 5.676322493785044117e+02
1.529567096103064738e+00 5.676926543818959772e+02
1.529667120108826106e+00 5.677527453384594764e+02
1.529767144114587474e+00 5.678125216120806726e+02
1.529867168120348841e+00 5.678719825735283848e+02
1.529967192126110209e+00 5.679311276004652882e+02
1.530067216131871577e+00 5.679899560774574638e+02
1.530167240137632945e+00 5.680484673959875863e+02
1.530267264143394312e+00 5.681066609544636776e+02
1.530367288149155680e+00 5.681645361582305895e+02
1.530467312154917048e+00 5.682220924195783027e+02
1.530567336160678416e+00 5.682793291577561376e+02
1.530667360166440005e+00 5.683362457989763925e+02
1.530767384172201373e+00 5.683928417764301457e+02
1.530867408177962741e+00 5.684491165302928266e+02
1.530967432183724108e+00 5.685050695077338787e+02
1.531067456189485476e+00 5.685607001629268780e+02
1.531167480195246844e+00 5.686160079570574908e+02
1.531267504201008212e+00 5.686709923583337059e+02
1.531367528206769579e+00 5.687256528419925417e+02
1.531467552212530947e+00 5.687799888903062993e+02
1.531567576218292315e+00 5.688339999925974553e+02
1.531667600224053682e+00 5.688876856452393440e+02
1.531767624229815050e+00 5.689410453516669577e+02
1.531867648235576418e+00 5.689940786223841087e+02
1.531967672241337786e+00 5.690467849749700235e+02
1.532067696247099153e+00 5.690991639340891197e+02
1.532167720252860521e+00 5.691512150314932796e+02
1.532267744258621889e+00 5.692029378060319686e+02
1.532367768264383256e+00 5.692543318036574647e+02
1.532467792270144846e+00 5.693053965774319067e+02
1.532567816275906214e+00 5.693561316875311604e+02
1.532667840281667582e+00 5.694065367012545948e+02
1.532767864287428949e+00 5.694566111930264469e+02
1.532867888293190317e+00 5.695063547444040069e+02
1.532967912298951685e+00 5.695557669440825066e+02
1.533067936304713053e+00 5.696048473878994400e+02
1.533167960310474420e+00 5.696535956788396788e+02
1.533267984316235788e+00 5.697020114270407021e+02
1.533368008321997156e+00 5.697500942497960068e+02
1.533468032327758523e+00 5.697978437715614746e+02
1.533568056333519891e+00 5.698452596239560535e+02
1.533668080339281259e+00 5.698923414457694889e+02
1.533768104345042627e+00 5.699390888829618689e+02
1.533868128350803994e+00 5.699855015886723777e+02
1.533968152356565362e+00 5.700315792232166814e+02
1.534068176362326730e+00 5.700773214540947720e+02
1.534168200368088097e+00 5.701227279559910812e+02
1.534268224373849465e+00 5.701677984107782322e+02
1.534368248379611277e+00 5.702125325075193132e+02
1.534468272385372423e+00 5.702569299424708333e+02
1.534568296391134012e+00 5.703009904190838597e+02
1.534668320396895158e+00 5.703447136480050403e+02
1.534768344402656748e+00 5.703880993470816065e+02
1.534868368408417894e+00 5.704311472413594402e+02
1.534968392414179483e+00 5.704738570630859158e+02
1.535068416419940629e+00 5.705162285517119471e+02
1.535168440425702219e+00 5.705582614538897133e+02
1.535268464431463364e+00 5.705999555234768650e+02
1.535368488437224954e+00 5.706413105215350470e+02
1.535468512442986100e+00 5.706823262163321715e+02
1.535568536448747690e+00 5.707230023833382120e+02
1.535668560454508835e+00 5.707633388052310011e+02
1.535768584460270425e+00 5.708033352718913420e+02
1.535868608466031571e+00 5.708429915804047141e+02
1.535968632471793160e+00 5.708823075350597946e+02
1.536068656477554306e+00 5.709212829473478905e+02
1.536168680483316118e+00 5.709599176359629382e+02
1.536268704489077486e+00 5.709982114267976385e+02
1.536368728494838853e+00 5.710361641529432291e+02
1.536468752500600221e+00 5.710737756546908486e+02
1.536568776506361589e+00 5.711110457795243747e+02
1.536668800512122957e+00 5.711479743821217880e+02
1.536768824517884324e+00 5.711845613243524440e+02
1.536868848523645692e+00 5.712208064752736618e+02
1.536968872529407060e+00 5.712567097111304975e+02
1.537068896535168427e+00 5.712922709153477854e+02
1.537168920540929795e+00 5.713274899785345724e+02
1.537268944546691163e+00 5.713623667984745680e+02
1.537368968552452531e+00 5.713969012801244389e+02
1.537468992558213898e+00 5.714310933356127862e+02
1.537569016563975266e+00 5.714649428842336647e+02
1.537669040569736634e+00 5.714984498524423771e+02
1.537769064575498001e+00 5.715316141738535407e+02
1.537869088581259369e+00 5.715644357892343805e+02
1.537969112587020737e+00 5.715969146465022277e+02
1.538069136592782327e+00 5.716290507007179258e+02
1.538169160598543694e+00 5.716608439140823066e+02
1.538269184604305062e+00 5.716922942559297098e+02
1.538369208610066430e+00 5.717234017027237769e+02
1.538469232615827798e+00 5.717541662380521075e+02
1.538569256621589165e+00 5.717845878526194383e+02
1.538669280627350533e+00 5.718146665442420726e+02
1.538769304633111901e+00 5.718444023178421958e+02
1.538869328638873268e+00 5.718737951854416224e+02
1.538969352644634636e+00 5.719028451661555437e+02
1.539069376650396004e+00 5.719315522861840009e+02
1.539169400656157372e+00 5.719599165788077926e+02
1.539269424661918739e+00 5.719879380843797207e+02
1.539369448667680107e+00 5.720156168503174285e+02
1.539469472673441475e+00 5.720429529310970338e+02
1.539569496679202842e+00 5.720699463882438067e+02
1.539669520684964210e+00 5.720965972903271677e+02
1.539769544690725578e+00 5.721229057129481816e+02
1.539869568696487168e+00 5.721488717387362612e+02
1.539969592702248535e+00 5.721744954573383666e+02
1.540069616708009903e+00 5.721997769654107060e+02
1.540169640713771271e+00 5.722247163666094139e+02
1.540269664719532638e+00 5.722493137715829334e+02
1.540369688725294006e+00 5.722735692979630358e+02
1.540469712731055374e+00 5.722974830703536782e+02
1.540569736736816742e+00 5.723210552203230463e+02
1.540669760742578109e+00 5.723442858863944593e+02
1.540769784748339477e+00 5.723671752140345461e+02
1.540869808754100845e+00 5.723897233556449464e+02
1.540969832759862213e+00 5.724119304705517379e+02
1.541069856765623580e+00 5.724337967249941812e+02
1.541169880771384948e+00 5.724553222921156248e+02
1.541269904777146316e+00 5.724765073519519092e+02
1.541369928782907683e+00 5.724973520914204528e+02
1.541469952788669051e+00 5.725178567043091107e+02
1.541569976794430419e+00 5.725380213912658292e+02
1.541670000800191787e+00 5.725578463597853442e+02
1.541770024805953376e+00 5.725773318241999732e+02
1.541870048811714966e+00 5.725964780056654035e+02
1.541970072817476112e+00 5.726152851321501203e+02
1.542070096823237701e+00 5.726337534384242645e+02
1.542170120828998847e+00 5.726518831660436035e+02
1.542270144834760437e+00 5.726696745633416867e+02
1.542370168840521583e+00 5.726871278854135880e+02
1.542470192846283172e+00 5.727042433941044237e+02
1.542570216852044318e+00 5.727210213579970741e+02
1.542670240857805908e+00 5.727374620523975182e+02
1.542770264863567053e+00 5.727535657593216456e+02
1.542870288869328643e+00 5.727693327674837747e+02
1.542970312875089789e+00 5.727847633722799401e+02
1.543070336880851379e+00 5.727998578757750465e+02
1.543170360886612524e+00 5.728146165866905903e+02
1.543270384892374114e+00 5.728290398203885161e+02
1.543370408898135260e+00 5.728431278988556414e+02
1.543470432903896850e+00 5.728568811506929706e+02
1.543570456909658439e+00 5.728702999110978453e+02
1.543670480915419807e+00 5.728833845218489387e+02
1.543770504921181175e+00 5.728961353312934079e+02
1.543870528926942542e+00 5.729085526943298419e+02
1.543970552932703910e+00 5.729206369723930266e+02
1.544070576938465278e+00 5.729323885334395072e+02
1.544170600944226646e+00 5.729438077519303079e+02
1.544270624949988013e+00 5.729548950088153561e+02
1.544370648955749381e+00 5.729656506915191585e+02
1.544470672961510749e+00 5.729760751939220427e+02
1.544570696967272116e+00 5.729861689163452638e+02
1.544670720973033484e+00 5.729959322655345204e+02
1.544770744978794852e+00 5.730053656546417642e+02
1.544870768984556220e+00 5.730144695032108757e+02
1.544970792990317587e+00 5.730232442371574280e+02
1.545070816996078955e+00 5.730316902887539072e+02
1.545170841001840323e+00 5.730398080966126599e+02
1.545270865007601691e+00 5.730475981056655428e+02
1.545370889013363058e+00 5.730550607671484613e+02
1.545470913019124648e+00 5.730621965385846579e+02
1.545570937024886016e+00 5.730690058837622018e+02
1.545670961030647383e+00 5.730754892727220522e+02
1.545770985036408751e+00 5.730816471817344109e+02
1.545871009042170119e+00 5.730874800932821245e+02
1.545971033047931487e+00 5.730929884960439722e+02
1.546071057053692854e+00 5.730981728848730654e+02
1.546171081059454222e+00 5.731030337607797946e+02
1.546271105065215590e+00 5.731075716309102290e+02
1.546371129070976957e+00 5.731117870085312234e+02
1.546471153076738325e+00 5.731156804130073397e+02
1.546571177082499693e+00 5.731192523697822025e+02
1.546671201088261061e+00 5.731225034103603093e+02
1.546771225094022428e+00 5.731254340722840652e+02
1.546871249099783796e+00 5.731280448991184358e+02
1.546971273105545164e+00 5.731303364404261629e+02
1.547071297111306531e+00 5.731323092517509394e+02
1.547171321117067899e+00 5.731339638945951265e+02
1.547271345122829489e+00 5.731353009363988349e+02
1.547371369128590857e+00 5.731363209505220766e+02
1.547471393134352224e+00 5.731370245162202082e+02
1.547571417140113592e+00 5.731374122186253999e+02
1.547671441145874960e+00 5.731374846487256036e+02
1.547771465151636328e+00 5.731372424033412472e+02
1.547871489157397695e+00 5.731366860851061347e+02
1.547971513163159063e+00 5.731358163024441410e+02
1.548071537168920431e+00 5.731346336695496575e+02
1.548171561174681798e+00 5.731331388063625809e+02
1.548271585180443166e+00 5.731313323385503509e+02
1.548371609186204534e+00 5.731292148974810061e+02
1.548471633191965902e+00 5.731267871202065862e+02
1.548571657197727269e+00 5.731240496494361878e+02
1.548671681203488637e+00 5.731210031335151598e+02
1.548771705209250005e+00 5.731176482264042988e+02
1.548871729215011372e+00 5.731139855876535876e+02
1.548971753220772740e+00 5.731100158823799120e+02
1.549071777226534108e+00 5.731057397812487579e+02
1.549171801232295920e+00 5.731011579604443114e+02
1.549271825238057065e+00 5.730962711016508138e+02
1.549371849243818655e+00 5.730910798920269826e+02
1.549471873249579801e+00 5.730855850241844109e+02
1.549571897255341391e+00 5.730797871961608507e+02
1.549671921261102536e+00 5.730736871113996358e+02
1.549771945266864126e+00 5.730672854787243296e+02
1.549871969272625272e+00 5.730605830123143960e+02
1.549971993278386861e+00 5.730535804316814392e+02
1.550072017284148007e+00 5.730462784616449881e+02
1.550172041289909597e+00 5.730386778323086219e+02
1.550272065295670743e+00 5.730307792790333679e+02
1.550372089301432332e+00 5.730225835424167826e+02
1.550472113307193478e+00 5.730140913682635073e+02
1.550572137312955068e+00 5.730053035075650314e+02
1.550672161318716213e+00 5.729962207164711572e+02
1.550772185324477803e+00 5.729868437562662393e+02
1.550872209330238949e+00 5.729771733933453106e+02
1.550972233336000761e+00 5.729672103991858876e+02
1.551072257341762128e+00 5.729569555503251195e+02
1.551172281347523496e+00 5.729464096283325034e+02
1.551272305353284864e+00 5.729355734197851007e+02
1.551372329359046232e+00 5.729244477162411613e+02
1.551472353364807599e+00 5.729130333142154541e+02
1.551572377370568967e+00 5.729013310151514133e+02
1.551672401376330335e+00 5.728893416253963551e+02
1.551772425382091702e+00 5.728770659561747607e+02
1.551872449387853070e+00 5.728645048235628110e+02
1.551972473393614438e+00 5.728516590484593962e+02
1.552072497399375806e+00 5.728385294565630375e+02
1.552172521405137173e+00 5.728251168783433513e+02
1.552272545410898541e+00 5.728114221490137652e+02
1.552372569416659909e+00 5.727974461085062785e+02
1.552472593422421276e+00 5.727831896014423592e+02
1.552572617428182644e+00 5.727686534771083871e+02
1.552672641433944012e+00 5.727538385894273461e+02
1.552772665439705380e+00 5.727387457969307434e+02
1.552872689445466969e+00 5.727233759627323479e+02
1.552972713451228337e+00 5.727077299545001097e+02
1.553072737456989705e+00 5.726918086444293294e+02
1.553172761462751073e+00 5.726756129092152605e+02
1.553272785468512440e+00 5.726591436300228679e+02
1.553372809474273808e+00 5.726424016924624993e+02
1.553472833480035176e+00 5.726253879865597582e+02
1.553572857485796543e+00 5.726081034067277642e+02
1.553672881491557911e+00 5.725905488517398680e+02
1.553772905497319279e+00 5.725727252247013439e+02
1.553872929503080647e+00 5.725546334330186937e+02
1.553972953508842014e+00 5.725362743883761141e+02
1.554072977514603382e+00 5.725176490067015038e+02
1.554173001520364750e+00 5.724987582081430446e+02
1.554273025526126117e+00 5.724796029170358906e+02
1.554373049531887485e+00 5.724601840618777260e+02
1.554473073537648853e+00 5.724405025752970460e+02
1.554573097543410221e+00 5.724205593940250765e+02
1.554673121549171810e+00 5.724003554588673524e+02
1.554773145554933178e+00 5.723798917146741587e+02
1.554873169560694546e+00 5.723591691103110861e+02
1.554973193566455913e+00 5.723381885986311772e+02
1.555073217572217281e+00 5.723169511364443451e+02
1.555173241577978649e+00 5.722954576844882695e+02
1.555273265583740017e+00 5.722737092073994063e+02
1.555373289589501384e+00 5.722517066736841116e+02
1.555473313595262752e+00 5.722294510556860132e+02
1.555573337601024120e+00 5.722069433295607723e+02
1.555673361606785488e+00 5.721841844752423185e+02
1.555773385612546855e+00 5.721611754764168154e+02
1.555873409618308223e+00 5.721379173204896915e+02
1.555973433624069591e+00 5.721144109985573323e+02
1.556073457629830958e+00 5.720906575053762708e+02
1.556173481635592326e+00 5.720666578393341979e+02
1.556273505641353694e+00 5.720424130024184706e+02
1.556373529647115062e+00 5.720179240001870085e+02
1.556473553652876429e+00 5.719931918417385077e+02
1.556573577658638019e+00 5.719682175396793582e+02
1.556673601664399609e+00 5.719430021100972681e+02
1.556773625670160754e+00 5.719175465725274989e+02
1.556873649675922344e+00 5.718918519499237618e+02
1.556973673681683490e+00 5.718659192686278629e+02
1.557073697687445080e+00 5.718397495583392356e+02
1.557173721693206225e+00 5.718133438520821983e+02
1.557273745698967815e+00 5.717867031861792384e+02
1.557373769704728961e+00 5.717598286002152008e+02
1.557473793710490551e+00 5.717327211370104578e+02
1.557573817716251696e+00 5.717053818425891905e+02
1.557673841722013286e+00 5.716778117661461920e+02
1.557773865727774432e+00 5.716500119600201515e+02
1.557873889733536021e+00 5.716219834796569330e+02
1.557973913739297167e+00 5.715937273835839960e+02
1.558073937745058757e+00 5.715652447333759483e+02
1.558173961750819903e+00 5.715365365936237367e+02
1.558273985756581492e+00 5.715076040319052026e+02
1.558374009762343082e+00 5.714784481187513165e+02
1.558474033768104450e+00 5.714490699276171881e+02
1.558574057773865817e+00 5.714194705348479602e+02
1.558674081779627185e+00 5.713896510196516374e+02
1.558774105785388553e+00 5.713596124640624794e+02
1.558874129791149921e+00 5.713293559529133745e+02
1.558974153796911288e+00 5.712988825738027572e+02
1.559074177802672656e+00 5.712681934170628892e+02
1.559174201808434024e+00 5.712372895757298465e+02
1.559274225814195391e+00 5.712061721455096404e+02
1.559374249819956759e+00 5.711748422247471808e+02
1.559474273825718127e+00 5.711433009143963773e+02
1.559574297831479495e+00 5.711115493179854639e+02
1.559674321837240862e+00 5.710795885415888051e+02
1.559774345843002230e+00 5.710474196937909710e+02
1.559874369848763598e+00 5.710150438856586561e+02
1.559974393854524966e+00 5.709824622307052095e+02
1.560074417860286333e+00 5.709496758448624405e+02
1.560174441866047701e+00 5.709166858464457164e+02
1.560274465871809291e+00 5.708834933561250864e+02
1.560374489877570658e+00 5.708500994968887881e+02
1.560474513883332026e+00 5.708165053940153939e+02
1.560574537889093394e+00 5.707827121750409560e+02
1.560674561894854762e+00 5.707487209697251274e+02
1.560774585900616129e+00 5.707145329100205799e+02
1.560874609906377497e+00 5.706801491300409452e+02
1.560974633912138865e+00 5.706455707660281860e+02
1.561074657917900232e+00 5.706107989563201954e+02
1.561174681923661600e+00 5.705758348413201020e+02
1.561274705929422968e+00 5.705406795634621631e+02
1.561374729935184336e+00 5.705053342671817518e+02
1.561474753940945703e+00 5.704698000988813646e+02
1.561574777946707071e+00 5.704340782068987892e+02
1.561674801952468439e+00 5.703981697414747032e+02
1.561774825958229806e+00 5.703620758547222067e+02
1.561874849963991174e+00 5.703257977005922612e+02
1.561974873969752542e+00 5.702893364348443583e+02
1.562074897975514132e+00 5.702526932150088896e+02
1.562174921981275499e+00 5.702158692003613396e+02
1.562274945987036867e+00 5.701788655518860196e+02
1.562374969992798235e+00 5.701416834322446903e+02
1.562474993998559603e+00 5.701043240057454113e+02
1.562575018004320970e+00 5.700667884383071851e+02
1.562675042010082338e+00 5.700290778974323302e+02
1.562775066015843706e+00 5.699911935521695341e+02
1.562875090021605073e+00 5.699531365730846346e+02
1.562975114027366441e+00 5.699149081322273105e+02
1.563075138033127809e+00 5.698765094030992486e+02
1.563175162038889177e+00 5.698379415606202656e+02
1.563275186044650544e+00 5.697992057810980668e+02
1.563375210050411912e+00 5.697603032421952776e+02
1.563475234056173280e+00 5.697212351228960188e+02
1.563575258061934647e+00 5.696820026034758939e+02
1.563675282067696015e+00 5.696426068654678829e+02
1.563775306073457383e+00 5.696030490916303961e+02
1.563875330079218751e+00 5.695633304659164651e+02
1.563975354084980562e+00 5.695234521734390682e+02
1.564075378090741708e+00 5.694834154004396396e+02
1.564175402096503298e+00 5.694432213342594196e+02
1.564275426102264444e+00 5.694028711633006878e+02
1.564375450108026033e+00 5.693623660770009565e+02
1.564475474113787179e+00 5.693217072657961353e+02
1.564575498119548769e+00 5.692808959210919966e+02
1.564675522125309914e+00 5.692399332352283636e+02
1.564775546131071504e+00 5.691988204014508028e+02
1.564875570136832650e+00 5.691575586138748122e+02
1.564975594142594240e+00 5.691161490674568313e+02
1.565075618148355385e+00 5.690745929579612721e+02
1.565175642154116975e+00 5.690328914819268675e+02
1.565275666159878121e+00 5.689910458366368857e+02
1.565375690165639710e+00 5.689490572200858196e+02
1.565475714171400856e+00 5.689069268309480094e+02
1.565575738177162446e+00 5.688646558685453556e+02
1.565675762182923592e+00 5.688222455328148044e+02
1.565775786188685403e+00 5.687796970242790167e+02
1.565875810194446771e+00 5.687370115440105565e+02
1.565975834200208139e+00 5.686941902936036968e+02
1.566075858205969507e+00 5.686512344751405408e+02
1.566175882211730874e+00 5.686081452911597580e+02
1.566275906217492242e+00 5.685649239446244110e+02
1.566375930223253610e+00 5.685215716388913734e+02
1.566475954229014977e+00 5.684780895776790430e+02
1.566575978234776345e+00 5.684344789650360781e+02
1.566676002240537713e+00 5.683907410053078593e+02
1.566776026246299081e+00 5.683468769031070451e+02
1.566876050252060448e+00 5.683028878632824217e+02
1.566976074257821816e+00 5.682587750908847966e+02
1.567076098263583184e+00 5.682145397911388045e+02
1.567176122269344551e+00 5.681701831694085740e+02
1.567276146275105919e+00 5.681257064311683962e+02
1.567376170280867287e+00 5.680811107819702102e+02
1.567476194286628655e+00 5.680363974274118846e+02
1.567576218292390022e+00 5.679915675731094780e+02
1.567676242298151612e+00 5.679466224246594948e+02
1.567776266303912980e+00 5.679015631876148973e+02
1.567876290309674348e+00 5.678563910674499766e+02
1.567976314315435715e+00 5.678111072695276107e+02
1.568076338321197083e+00 5.677657129990737985e+02
1.568176362326958451e+00 5.677202094611418488e+02
1.568276386332719818e+00 5.676745978605831624e+02
1.568376410338481186e+00 5.676288794020172190e+02
1.568476434344242554e+00 5.675830552897984944e+02
1.568576458350003922e+00 5.675371267279882659e+02
1.568676482355765289e+00 5.674910949203218706e+02
1.568776506361526657e+00 5.674449610701796018e+02
1.568876530367288025e+00 5.673987263805547627e+02
1.568976554373049392e+00 5.673523920540237668e+02
1.569076578378810760e+00 5.673059592927166932e+02
1.569176602384572128e+00 5.672594292982837487e+02
1.569276626390333496e+00 5.672128032718686654e+02
1.569376650396094863e+00 5.671660824140757313e+02
1.569476674401856453e+00 5.671192679249412549e+02
1.569576698407617821e+00 5.670723610039011646e+02
1.569676722413379188e+00 5.670253628497630416e+02
1.569776746419140556e+00 5.669782746606757655e+02
1.569876770424901924e+00 5.669310976340984780e+02
1.569976794430663292e+00 5.668838329667701146e+02
1.570076818436424659e+00 5.668364818546830293e+02
1.570176842442186027e+00 5.667890454930479791e+02
1.570276866447947395e+00 5.667415250762692267e+02
1.570376890453708763e+00 5.666939217979115710e+02
1.570476914459470130e+00 5.666462368506710163e+02
1.570576938465231498e+00 5.665984714263493061e+02
1.570676962470992866e+00 5.665506267158168612e+02
1.570776986476754233e+00 5.665027039089920891e+02
1.570877010482515601e+00 5.664547041948042079e+02
1.570977034488276969e+00 5.664066287611695998e+02
1.571077058494038337e+00 5.663584787949594102e+02
1.571177082499799704e+00 5.663102554819722627e+02
1.571277106505561072e+00 5.662619600069043599e+02
1.571377130511322662e+00 5.662135935533195834e+02
1.571477154517084251e+00 5.661651573036228910e+02
1.571577178522845397e+00 5.661166524390309860e+02
1.571677202528606987e+00 5.660680801395402568e+02
1.571777226534368133e+00 5.660194415839030171e+02
1.571877250540129722e+00 5.659707379495956729e+02
1.571977274545890868e+00 5.659219704127910973e+02
1.572077298551652458e+00 5.658731401483308900e+02
1.572177322557413603e+00 5.658242483296960472e+02
1.572277346563175193e+00 5.657752961289797895e+02
1.572377370568936339e+00 5.657262847168573217e+02
1.572477394574697929e+00 5.656772152625602530e+02
1.572577418580459074e+00 5.656280889338474935e+02
1.572677442586220664e+00 5.655789068969767186e+02
1.572777466591981810e+00 5.655296703166773113e+02
1.572877490597743400e+00 5.654803803561230779e+02
1.572977514603504545e+00 5.654310381769028027e+02
1.573077538609266135e+00 5.653816449389951231e+02
1.573177562615027725e+00 5.653322018007385168e+02
1.573277586620789092e+00 5.652827099188065176e+02
1.573377610626550460e+00 5.652331704481774750e+02
1.573477634632311828e+00 5.651835845421095428e+02
1.573577658638073196e+00 5.651339533521143039e+02
1.573677682643834563e+00 5.650842780279263025e+02
1.573777706649595931e+00 5.650345597174783734e+02
1.573877730655357299e+00 5.649847995668762906e+02
1.573977754661118666e+00 5.649349987203692081e+02
1.574077778666880034e+00 5.648851583203230575e+02
1.574177802672641402e+00 5.648352795071973560e+02
1.574277826678402770e+00 5.647853634195150789e+02
1.574377850684164137e+00 5.647354111938369670e+02
1.574477874689925505e+00 5.646854239647376517e+02
1.574577898695686873e+00 5.646354028647767791e+02
1.574677922701448241e+00 5.645853490244743398e+02
1.574777946707209608e+00 5.645352635722840660e+02
1.574877970712970976e+00 5.644851476345675110e+02
1.574977994718732344e+00 5.644350023355693793e+02
1.575078018724493933e+00 5.643848287973901279e+02
1.575178042730255301e+00 5.643346281399622058e+02
1.575278066736016669e+00 5.642844014810237923e+02
1.575378090741778037e+00 5.642341499360918533e+02
1.575478114747539404e+00 5.641838746184407682e+02
1.575578138753300772e+00 5.641335766390726576e+02
1.575678162759062140e+00 5.640832571066961236e+02
1.575778186764823507e+00 5.640329171276982834e+02
1.575878210770584875e+00 5.639825578061228271e+02
1.575978234776346243e+00 5.639321802436421649e+02
1.576078258782107611e+00 5.638817855395360539e+02
1.576178282787868978e+00 5.638313747906648814e+02
1.576278306793630346e+00 5.637809490914452226e+02
1.576378330799391714e+00 5.637305095338272167e+02
1.576478354805153081e+00 5.636800572072688738e+02
1.576578378810914449e+00 5.636295931987127688e+02
1.576678402816675817e+00 5.635791185925609170e+02
1.576778426822437185e+00 5.635286344706538557e+02
1.576878450828198774e+00 5.634781419122426769e+02
1.576978474833960142e+00 5.634276419939691323e+02
1.577078498839721510e+00 5.633771357898400538e+02
1.577178522845482878e+00 5.633266243712043888e+02
1.577278546851244245e+00 5.632761088067304627e+02
1.577378570857005613e+00 5.632255901623826730e+02
1.577478594862766981e+00 5.631750695013968198e+02
1.577578618868528348e+00 5.631245478842602097e+02
1.577678642874289716e+00 5.630740263686866456e+02
1.577778666880051084e+00 5.630235060095935751e+02
1.577878690885812452e+00 5.629729878590816270e+02
1.577978714891573819e+00 5.629224729664083497e+02
1.578078738897335187e+00 5.628719623779718404e+02
1.578178762903096555e+00 5.628214571372810724e+02
1.578278786908857922e+00 5.627709582849406615e+02
1.578378810914619290e+00 5.627204668586235812e+02
1.578478834920380658e+00 5.626699838930534270e+02
1.578578858926142026e+00 5.626195104199799744e+02
1.578678882931903393e+00 5.625690474681588285e+02
1.578778906937665205e+00 5.625185960633288005e+02
1.578878930943426351e+00 5.624681572281926947e+02
1.578978954949187941e+00 5.624177319823926382e+02
1.579078978954949086e+00 5.623673213424925734e+02
1.579179002960710676e+00 5.623169263219548384e+02
1.579279026966471822e+00 5.622665479311206127e+02
1.579379050972233411e+00 5.622161871771884307e+02
1.579479074977994557e+00 5.621658450641937179e+02
1.579579098983756147e+00 5.621155225929884409e+02
1.579679122989517293e+00 5.620652207612204165e+02
1.579779146995278882e+00 5.620149405633131892e+02
1.579879171001040028e+00 5.619646829904465903e+02
1.579979195006801618e+00 5.619144490305358204e+02
1.580079219012562763e+00 5.618642396682118942e+02
1.580179243018324353e+00 5.618140558848014052e+02
1.580279267024085499e+00 5.617638986583090173e+02
1.580379291029847089e+00 5.617137689633946138e+02
1.580479315035608234e+00 5.616636677713570407e+02
1.580579339041370046e+00 5.616135960501127329e+02
1.580679363047131414e+00 5.615635547641778658e+02
1.580779387052892782e+00 5.615135448746499378e+02
1.580879411058654149e+00 5.614635673391860564e+02
1.580979435064415517e+00 5.614136231119879312e+02
1.581079459070176885e+00 5.613637131437808421e+02
1.581179483075938252e+00 5.613138383817966997e+02
1.581279507081699620e+00 5.612639997697532408e+02
1.581379531087460988e+00 5.612141982478406135e+02
1.581479555093222356e+00 5.611644347526967067e+02
1.581579579098983723e+00 5.611147102173961230e+02
1.581679603104745091e+00 5.610650255714282366e+02
1.581779627110506459e+00 5.610153817406792314e+02
1.581879651116267826e+00 5.609657796474183442e+02
1.581979675122029194e+00 5.609162202102758101e+02
1.582079699127790562e+00 5.608667043442297881e+02
1.582179723133551930e+00 5.608172329605853292e+02
1.582279747139313297e+00 5.607678069669615297e+02
1.582379771145074887e+00 5.607184272672719771e+02
1.582479795150836255e+00 5.606690947617082657e+02
1.582579819156597623e+00 5.606198103467241936e+02
1.582679843162358990e+00 5.605705749150203019e+02
1.582779867168120358e+00 5.605213893555244340e+02
1.582879891173881726e+00 5.604722545533792299e+02
1.582979915179643093e+00 5.604231713899241640e+02
1.583079939185404461e+00 5.603741407426803107e+02
1.583179963191165829e+00 5.603251634853326095e+02
1.583279987196927197e+00 5.602762404877184963e+02
1.583380011202688564e+00 5.602273726158088039e+02
1.583480035208449932e+00 5.601785607316941196e+02
1.583580059214211300e+00 5.601298056935686418e+02
1.583680083219972667e+00 5.600811083557161965e+02
1.583780107225734035e+00 5.600324695684943208e+02
1.583880131231495403e+00 5.599838901783207348e+02
1.583980155237256771e+00 5.599353710276585616e+02
1.584080179243018138e+00 5.598869129550000707e+02
1.584180203248779506e+00 5.598385167948547405e+02
1.584280227254541096e+00 5.597901833777332286e+02
1.584380251260302463e+00 5.597419135301354345e+02
1.584480275266063831e+00 5.596937080745343565e+02
1.584580299271825199e+00 5.596455678293631308e+02
1.584680323277586567e+00 5.595974936090028677e+02
1.584780347283347934e+00 5.595494862237657117e+02
1.584880371289109302e+00 5.595015464798872245e+02
1.584980395294870670e+00 5.594536751795063765e+02
1.585080419300632038e+00 5.594058731206569064e+02
1.585180443306393405e+00 5.593581410972548156e+02
1.585280467312154773e+00 5.593104798990823383e+02
1.585380491317916141e+00 5.592628903117785057e+02
1.585480515323677508e+00 5.592153731168240256e+02
1.585580539329438876e+00 5.591679290915312777e+02
1.585680563335200244e+00 5.591205590090318083e+02
1.585780587340961612e+00 5.590732636382617784e+02
1.585880611346722979e+00 5.590260437439529824e+02
1.585980635352484347e+00 5.589789000866210245e+02
1.586080659358246159e+00 5.589318334225508806e+02
1.586180683364007304e+00 5.588848445037880310e+02
1.586280707369768894e+00 5.588379340781275459e+02
1.586380731375530040e+00 5.587911028891003298e+02
1.586480755381291630e+00 5.587443516759644808e+02
1.586580779387052775e+00 5.586976811736927857e+02
1.586680803392814365e+00 5.586510921129633971e+02
1.586780827398575511e+00 5.586045852201475554e+02
1.586880851404337101e+00 5.585581612173020858e+02
1.586980875410098246e+00 5.585118208221547320e+02
1.587080899415859836e+00 5.584655647480982452e+02
1.587180923421620982e+00 5.584193937041777644e+02
1.587280947427382571e+00 5.583733083950816081e+02
1.587380971433143717e+00 5.583273095211321788e+02
1.587480995438905307e+00 5.582813977782758457e+02
1.587581019444666453e+00 5.582355738580729394e+02
1.587681043450428042e+00 5.581898384476900219e+02
1.587781067456189188e+00 5.581441922298886311e+02
1.587881091461950778e+00 5.580986358830191421e+02
1.587981115467712367e+00 5.580531700810088296e+02
1.588081139473473735e+00 5.580077954933552746e+02
1.588181163479235103e+00 5.579625127851167008e+02
1.588281187484996471e+00 5.579173226169041300e+02
1.588381211490757838e+00 5.578722256448734242e+02
1.588481235496519206e+00 5.578272225207158499e+02
1.588581259502280574e+00 5.577823138916519383e+02
1.588681283508041941e+00 5.577375004004226184e+02
1.588781307513803309e+00 5.576927826852803491e+02
1.588881331519564677e+00 5.576481613799844581e+02
1.588981355525326045e+00 5.576036371137910237e+02
1.589081379531087412e+00 5.575592105114468495e+02
1.589181403536848780e+00 5.575148821931832117e+02
1.589281427542610148e+00 5.574706527747068776e+02
1.589381451548371516e+00 5.574265228671947625e+02
1.589481475554132883e+00 5.573824930772868811e+02
1.589581499559894251e+00 5.573385640070796399e+02
1.589681523565655619e+00 5.572947362541198117e+02
1.589781547571417208e+00 5.572510104113983971e+02
1.589881571577178576e+00 5.572073870673432339e+02
1.589981595582939944e+00 5.571638668058158146e+02
1.590081619588701312e+00 5.571204502061012818e+02
1.590181643594462679e+00 5.570771378429074048e+02
1.590281667600224047e+00 5.570339302863570765e+02
1.590381691605985415e+00 5.569908281019803553e+02
1.590481715611746782e+00 5.569478318507150334e+02
1.590581739617508150e+00 5.569049420888954955e+02
1.590681763623269518e+00 5.568621593682519233e+02
1.590781787629030886e+00 5.568194842359029053e+02
1.590881811634792253e+00 5.567769172343537321e+02
1.590981835640553621e+00 5.567344589014894609e+02
1.591081859646314989e+00 5.566921097705707098e+02
1.591181883652076356e+00 5.566498703702301327e+02
1.591281907657837724e+00 5.566077412244687821e+02
1.591381931663599092e+00 5.565657228526517883e+02
1.591481955669360460e+00 5.565238157695034715e+02
1.591581979675121827e+00 5.564820204851057497e+02
1.591682003680883417e+00 5.564403375048927956e+02
1.591782027686644785e+00 5.563987673296491039e+02
1.591882051692406153e+00 5.563573104555053987e+02
1.591982075698167520e+00 5.563159673739349955e+02
1.592082099703928888e+00 5.562747385717530051e+02
1.592182123709690256e+00 5.562336245311128096e+02
1.592282147715451623e+00 5.561926257294993547e+02
1.592382171721212991e+00 5.561517426397351755e+02
1.592482195726974359e+00 5.561109757299692546e+02
1.592582219732735727e+00 5.560703254636798647e+02
1.592682243738497094e+00 5.560297922996712714e+02
1.592782267744258462e+00 5.559893766920723692e+02
1.592882291750019830e+00 5.559490790903333846e+02
1.592982315755781197e+00 5.559088999392248525e+02
1.593082339761542565e+00 5.558688396788378441e+02
1.593182363767303933e+00 5.558288987445804423e+02
1.593282387773065301e+00 5.557890775671764914e+02
1.593382411778826668e+00 5.557493765726660513e+02
1.593482435784588258e+00 5.557097961824039203e+02
1.593582459790349848e+00 5.556703368130574745e+02
1.593682483796110994e+00 5.556309988766081460e+02
1.593782507801872583e+00 5.555917827803494902e+02
1.593882531807633729e+00 5.555526889268867308e+02
1.593982555813395319e+00 5.555137177141378970e+02
1.594082579819156464e+00 5.554748695353315497e+02
1.594182603824918054e+00 5.554361447790090551e+02
1.594282627830679200e+00 5.553975438290225384e+02
1.594382651836440790e+00 5.553590670645372711e+02
1.594482675842201935e+00 5.553207148600312166e+02
1.594582699847963525e+00 5.552824875852949162e+02
1.594682723853724671e+00 5.552443856054333082e+02
1.594782747859486260e+00 5.552064092808650457e+02
1.594882771865247406e+00 5.551685589673260210e+02
1.594982795871008996e+00 5.551308350158683425e+02
1.595082819876770142e+00 5.550932377728623806e+02
1.595182843882531731e+00 5.550557675799973367e+02
1.595282867888292877e+00 5.550184247742843127e+02
1.595382891894054689e+00 5.549812096880571062e+02
1.595482915899816057e+00 5.549441226489732344e+02
1.595582939905577424e+00 5.549071639800166622e+02
1.595682963911338792e+00 5.548703339995004171e+02
1.595782987917100160e+00 5.548336330210676124e+02
1.595883011922861527e+00 5.547970613536953124e+02
1.595983035928622895e+00 5.547606193016949874e+02
1.596083059934384263e+00 5.547243071647166062e+02
1.596183083940145631e+00 5.546881252377501141e+02
1.596283107945906998e+00 5.546520738111305491e+02
1.596383131951668366e+00 5.546161531705374728e+02
1.596483155957429734e+00 5.545803635970030427e+02
1.596583179963191101e+00 5.545447053669091702e+02
1.596683203968952469e+00 5.545091787519961599e+02
1.596783227974713837e+00 5.544737840193628244e+02
1.596883251980475205e+00 5.544385214314736459e+02
1.596983275986236572e+00 5.544033912461565023e+02
1.597083299991997940e+00 5.543683937166148326e+02
1.597183323997759530e+00 5.543335290914238840e+02
1.597283348003520898e+00 5.542987976145387847e+02
1.597383372009282265e+00 5.542641995253004552e+02
1.597483396015043633e+00 5.542297350584344713e+02
1.597583420020805001e+00 5.541954044440607277e+02
1.597683444026566368e+00 5.541612079076961663e+02
1.597783468032327736e+00 5.541271456702598925e+02
1.597883492038089104e+00 5.540932179480760169e+02
1.597983516043850472e+00 5.540594249528835462e+02
1.598083540049611839e+00 5.540257668918357012e+02
1.598183564055373207e+00 5.539922439675093528e+02
1.598283588061134575e+00 5.539588563779083188e+02
1.598383612066895942e+00 5.539256043164709808e+02
1.598483636072657310e+00 5.538924879720732406e+02
1.598583660078418678e+00 5.538595075290357954e+02
1.598683684084180046e+00 5.538266631671305049e+02
1.598783708089941413e+00 5.537939550615855069e+02
1.598883732095702781e+00 5.537613833830914700e+02
1.598983756101464149e+00 5.537289482978078468e+02
1.599083780107225738e+00 5.536966499673701492e+02
1.599183804112987106e+00 5.536644885488944965e+02
1.599283828118748474e+00 5.536324641949870511e+02
1.599383852124509842e+00 5.536005770537474291e+02
1.599483876130271209e+00 5.535688272687787048e+02
1.599583900136032577e+00 5.535372149791920720e+02
1.599683924141793945e+00 5.535057403196151427e+02
1.599783948147555313e+00 5.534744034201988825e+02
1.599883972153316680e+00 5.534432044066247727e+02
1.599983996159078048e+00 5.534121434001124271e+02
1.600084020164839416e+00 5.533812205174269820e+02
1.600184044170600783e+00 5.533504358708868267e+02
1.600284068176362151e+00 5.533197895683722436e+02
1.600384092182123519e+00 5.532892817133313201e+02
1.600484116187884887e+00 5.532589124047892710e+02
1.600584140193646254e+00 5.532286817373568510e+02
1.600684164199407622e+00 5.531985898012393363e+02
1.600784188205168990e+00 5.531686366822414129e+02
1.600884212210930801e+00 5.531388224617793412e+02
1.600984236216691947e+00 5.531091472168874361e+02
1.601084260222453537e+00 5.530796110202287537e+02
1.601184284228214683e+00 5.530502139401011163e+02
1.601284308233976272e+00 5.530209560404484819e+02
1.601384332239737418e+00 5.529918373808678780e+02
1.601484356245499008e+00 5.529628580166223628e+02
1.601584380251260153e+00 5.529340179986429575e+02
1.601684404257021743e+00 5.529053173735468363e+02
1.601784428262782889e+00 5.528767561836395998e+02
1.601884452268544479e+00 5.528483344669303960e+02
1.601984476274305624e+00 5.528200522571361262e+02
1.602084500280067214e+00 5.527919095836959968e+02
1.602184524285828360e+00 5.527639064717777728e+02
1.602284548291589950e+00 5.527360429422913057e+02
1.602384572297351095e+00 5.527083190118946732e+02
1.602484596303112685e+00 5.526807346930081621e+02
1.602584620308873831e+00 5.526532899938206356e+02
1.602684644314635420e+00 5.526259849183041979e+02
1.602784668320397010e+00 5.525988194662212436e+02
1.602884692326158378e+00 5.525717936331370765e+02
1.602984716331919746e+00 5.525449074104286638e+02
1.603084740337681113e+00 5.525181607852978232e+02
1.603184764343442481e+00 5.524915537407799775e+02
1.603284788349203849e+00 5.524650862557570008e+02
1.603384812354965216e+00 5.524387583049668820e+02
1.603484836360726584e+00 5.524125698590148659e+02
1.603584860366487952e+00 5.523865208843863002e+02
1.603684884372249320e+00 5.523606113434559575e+02
1.603784908378010687e+00 5.523348411945019052e+02
1.603884932383772055e+00 5.523092103917131226e+02
1.603984956389533423e+00 5.522837188852081454e+02
1.604084980395294791e+00 5.522583666210369984e+02
1.604185004401056158e+00 5.522331535412023413e+02
1.604285028406817526e+00 5.522080795836669722e+02
1.604385052412578894e+00 5.521831446823650822e+02
1.604485076418340261e+00 5.521583487672168076e+02
1.604585100424101851e+00 5.521336917641395985e+02
1.604685124429863219e+00 5.521091735950586781e+02
1.604785148435624587e+00 5.520847941779234134e+02
1.604885172441385954e+00 5.520605534267160692e+02
1.604985196447147322e+00 5.520364512514660191e+02
1.605085220452908690e+00 5.520124875582620234e+02
1.605185244458670057e+00 5.519886622492658717e+02
1.605285268464431425e+00 5.519649752227236377e+02
1.605385292470192793e+00 5.519414263729802315e+02
1.605485316475954161e+00 5.519180155904914500e+02
1.605585340481715528e+00 5.518947427618364827e+02
1.605685364487476896e+00 5.518716077697338278e+02
1.605785388493238264e+00 5.518486104930503870e+02
1.605885412498999631e+00 5.518257508068198831e+02
1.605985436504760999e+00 5.518030285822497945e+02
1.606085460510522367e+00 5.517804436867418190e+02
1.606185484516283735e+00 5.517579959839006278e+02
1.606285508522045102e+00 5.517356853335501228e+02
1.606385532527806470e+00 5.517135115917453732e+02
1.606485556533568060e+00 5.516914746107877363e+02
1.606585580539329428e+00 5.516695742392378179e+02
1.606685604545090795e+00 5.516478103219313880e+02
1.606785628550852163e+00 5.516261826999900677e+02
1.606885652556613531e+00 5.516046912108399738e+02
1.606985676562374898e+00 5.515833356882213820e+02
1.607085700568136266e+00 5.515621159622056666e+02
1.607185724573897634e+00 5.515410318592100793e+02
1.607285748579659002e+00 5.515200832020099142e+02
1.607385772585420369e+00 5.514992698097554467e+02
1.607485796591181737e+00 5.514785914979850077e+02
1.607585820596943105e+00 5.514580480786403314e+02
1.607685844602704472e+00 5.514376393600801975e+02
1.607785868608465840e+00 5.514173651470985078e+02
1.607885892614227208e+00 5.513972252409339490e+02
1.607985916619988576e+00 5.513772194392901156e+02
1.608085940625749943e+00 5.513573475363474472e+02
1.608185964631511311e+00 5.513376093227780075e+02
1.608285988637272901e+00 5.513180045857643563e+02
1.608386012643034491e+00 5.512985331090092131e+02
1.608486036648795636e+00 5.512791946727559207e+02
1.608586060654557226e+00 5.512599890538012914e+02
1.608686084660318372e+00 5.512409160255108418e+02
1.608786108666079961e+00 5.512219753578356176e+02
1.608886132671841107e+00 5.512031668173254957e+02
1.608986156677602697e+00 5.511844901671481693e+02
1.609086180683363843e+00 5.511659451671021088e+02
1.609186204689125432e+00 5.511475315736325911e+02
1.609286228694886578e+00 5.511292491398490938e+02
1.609386252700648168e+00 5.511110976155403023e+02
1.609486276706409313e+00 5.510930767471887748e+02
1.609586300712170903e+00 5.510751862779889052e+02
1.609686324717932049e+00 5.510574259478620434e+02
1.609786348723693639e+00 5.510397954934726386e+02
1.609886372729454784e+00 5.510222946482440420e+02
1.609986396735216374e+00 5.510049231423763558e+02
1.610086420740977520e+00 5.509876807028604162e+02
1.610186444746739332e+00 5.509705670534950741e+02
1.610286468752500699e+00 5.509535819149054987e+02
1.610386492758262067e+00 5.509367250045553419e+02
1.610486516764023435e+00 5.509199960367676567e+02
1.610586540769784802e+00 5.509033947227392218e+02
1.610686564775546170e+00 5.508869207705571398e+02
1.610786588781307538e+00 5.508705738852160039e+02
1.610886612787068906e+00 5.508543537686341551e+02
1.610986636792830273e+00 5.508382601196713040e+02
1.611086660798591641e+00 5.508222926341443326e+02
1.611186684804353009e+00 5.508064510048444617e+02
1.611286708810114376e+00 5.507907349215549857e+02
1.611386732815875744e+00 5.507751440710669613e+02
1.611486756821637112e+00 5.507596781371967154e+02
1.611586780827398480e+00 5.507443368008030120e+02
1.611686804833159847e+00 5.507291197398044460e+02
1.611786828838921215e+00 5.507140266291950184e+02
1.611886852844682583e+00 5.506990571410647135e+02
1.611986876850444173e+00 5.506842109446122322e+02
1.612086900856205540e+00 5.506694877061653415e+02
1.612186924861966908e+00 5.506548870891980414e+02
1.612286948867728276e+00 5.506404087543457990e+02
1.612386972873489643e+00 5.506260523594262395e+02
1.612486996879251011e+00 5.506118175594529021e+02
1.612587020885012379e+00 5.505977040066554764e+02
1.612687044890773747e+00 5.505837113504966283e+02
1.612787068896535114e+00 5.505698392376883703e+02
1.612887092902296482e+00 5.505560873122110479e+02
1.612987116908057850e+00 5.505424552153308468e+02
1.613087140913819217e+00 5.505289425856160506e+02
1.613187164919580585e+00 5.505155490589565943e+02
1.613287188925341953e+00 5.505022742685811181e+02
1.613387212931103321e+00 5.504891178450733378e+02
1.613487236936864688e+00 5.504760794163926221e+02
1.613587260942626056e+00 5.504631586078885448e+02
1.613687284948387424e+00 5.504503550423219167e+02
1.613787308954148791e+00 5.504376683398807018e+02
1.613887332959910381e+00 5.504250981181983207e+02
1.613987356965671749e+00 5.504126439923717271e+02
1.614087380971433117e+00 5.504003055749792566e+02
1.614187404977194484e+00 5.503880824760991572e+02
1.614287428982955852e+00 5.503759743033272116e+02
1.614387452988717220e+00 5.503639806617939030e+02
1.614487476994478587e+00 5.503521011541847656e+02
1.614587501000239955e+00 5.503403353807566418e+02
1.614687525006001323e+00 5.503286829393557582e+02
1.614787549011762691e+00 5.503171434254370524e+02
1.614887573017524058e+00 5.503057164320821357e+02
1.614987597023285426e+00 5.502944015500161186e+02
1.615087621029046794e+00 5.502831983676278469e+02
1.615187645034808162e+00 5.502721064709869552e+02
1.615287669040569529e+00 5.502611254438611468e+02
1.615387693046330897e+00 5.502502548677384766e+02
1.615487717052092265e+00 5.502394943218405388e+02
1.615587741057853632e+00 5.502288433831430439e+02
1.615687765063615444e+00 5.502183016263971922e+02
1.615787789069376590e+00 5.502078686241416108e+02
1.615887813075138180e+00 5.501975439467266824e+02
1.615987837080899325e+00 5.501873271623298933e+02
1.616087861086660915e+00 5.501772178369751600e+02
1.616187885092422061e+00 5.501672155345501096e+02
1.616287909098183651e+00 5.501573198168268846e+02
1.616387933103944796e+00 5.501475302434785135e+02
1.616487957109706386e+00 5.501378463720981244e+02
1.616587981115467532e+00 5.501282677582175893e+02
1.616688005121229121e+00 5.501187939553261685e+02
1.616788029126990267e+00 5.501094245148881328e+02
1.616888053132751857e+00 5.501001589863619756e+02
1.616988077138513002e+00 5.500909969172197407e+02
1.617088101144274592e+00 5.500819378529631649e+02
1.617188125150035738e+00 5.500729813371455066e+02
1.617288149155797328e+00 5.500641269113871203e+02
1.617388173161558473e+00 5.500553741153958072e+02
1.617488197167320063e+00 5.500467224869852316e+02
1.617588221173081653e+00 5.500381715620920886e+02
1.617688245178843021e+00 5.500297208747969080e+02
1.617788269184604388e+00 5.500213699573408803e+02
1.617888293190365756e+00 5.500131183401460930e+02
1.617988317196127124e+00 5.500049655518314466e+02
1.618088341201888491e+00 5.499969111192345963e+02
1.618188365207649859e+00 5.499889545674279816e+02
1.618288389213411227e+00 5.499810954197388355e+02
1.618388413219172595e+00 5.499733331977670332e+02
1.618488437224933962e+00 5.499656674214041914e+02
1.618588461230695330e+00 5.499580976088527677e+02
1.618688485236456698e+00 5.499506232766428866e+02
1.618788509242218066e+00 5.499432439396522341e+02
1.618888533247979433e+00 5.499359591111267491e+02
1.618988557253740801e+00 5.499287683026936975e+02
1.619088581259502169e+00 5.499216710243856596e+02
1.619188605265263536e+00 5.499146667846571290e+02
1.619288629271024904e+00 5.499077550904017926e+02
1.619388653276786494e+00 5.499009354469733353e+02
1.619488677282547862e+00 5.498942073582035164e+02
1.619588701288309229e+00 5.498875703264193362e+02
1.619688725294070597e+00 5.498810238524630449e+02
1.619788749299831965e+00 5.498745674357104463e+02
1.619888773305593332e+00 5.498682005740887462e+02
1.619988797311354700e+00 5.498619227640965619e+02
1.620088821317116068e+00 5.498557335008199516e+02
1.620188845322877436e+00 5.498496322779548109e+02
1.620288869328638803e+00 5.498436185878210836e+02
1.620388893334400171e+00 5.498376919213836800e+02
1.620488917340161539e+00 5.498318517682719175e+02
1.620588941345922906e+00 5.498260976167948684e+02
1.620688965351684274e+00 5.498204289539631873e+02
1.620788989357445642e+00 5.498148452655048004e+02
1.620889013363207010e+00 5.498093460358853690e+02
1.620989037368968377e+00 5.498039307483261382e+02
1.621089061374729745e+00 5.497985988848207626e+02
1.621189085380491113e+00 5.497933499261567931e+02
1.621289109386252703e+00 5.497881833519312522e+02
1.621389133392014070e+00 5.497830986405706426e+02
1.621489157397775438e+00 5.497780952693484551e+02
1.621589181403536806e+00 5.497731727144034721e+02
1.621689205409298173e+00 5.497683304507596631e+02
1.621789229415059541e+00 5.497635679523421004e+02
1.621889253420820909e+00 5.497588846919957177e+02
1.621989277426582277e+00 5.497542801415060012e+02
1.622089301432343644e+00 5.497497537716151328e+02
1.622189325438105012e+00 5.497453050520380202e+02
1.622289349443866380e+00 5.497409334514866259e+02
1.622389373449627747e+00 5.497366384376812221e+02
1.622489397455389115e+00 5.497324194773736963e+02
1.622589421461150483e+00 5.497282760363628995e+02
1.622689445466911851e+00 5.497242075795145411e+02
1.622789469472673218e+00 5.497202135707766502e+02
1.622889493478434586e+00 5.497162934732008353e+02
1.622989517484195954e+00 5.497124467489576318e+02
1.623089541489957544e+00 5.497086728593563976e+02
1.623189565495719133e+00 5.497049712648614559e+02
1.623289589501480279e+00 5.497013414251121048e+02
1.623389613507241869e+00 5.496977827989383059e+02
1.623489637513003014e+00 5.496942948443811474e+02
1.623589661518764604e+00 5.496908770187078517e+02
1.623689685524525750e+00 5.496875287784316697e+02
1.623789709530287340e+00 5.496842495793289345e+02
1.623889733536048485e+00 5.496810388764570234e+02
1.623989757541810075e+00 5.496778961241717525e+02
1.624089781547571221e+00 5.496748207761448839e+02
1.624189805553332810e+00 5.496718122853829982e+02
1.624289829559093956e+00 5.496688701042432967e+02
1.624389853564855546e+00 5.496659936844529284e+02
1.624489877570616692e+00 5.496631824771257016e+02
1.624589901576378281e+00 5.496604359327797056e+02
1.624689925582139427e+00 5.496577535013542501e+02
1.624789949587901017e+00 5.496551346322285099e+02
1.624889973593662162e+00 5.496525787742381226e+02
1.624989997599423974e+00 5.496500853756931519e+02
1.625090021605185342e+00 5.496476538843940034e+02
1.625190045610946710e+00 5.496452837476514333e+02
1.625290069616708077e+00 5.496429744123004184e+02
1.625390093622469445e+00 5.496407253247199378e+02
1.625490117628230813e+00 5.496385359308507077e+02
1.625590141633992181e+00 5.496364056762082555e+02
1.625690165639753548e+00 5.496343340059048614e+02
1.625790189645514916e+00 5.496323203646642241e+02
1.625890213651276284e+00 5.496303641968379452e+02
1.625990237657037651e+00 5.496284649464245149e+02
1.626090261662799019e+00 5.496266220570842052e+02
1.626190285668560387e+00 5.496248349721581690e+02
1.626290309674321755e+00 5.496231031346828786e+02
1.626390333680083122e+00 5.496214259874083155e+02
1.626490357685844490e+00 5.496198029728154779e+02
1.626590381691605858e+00 5.496182335331307058e+02
1.626690405697367225e+00 5.496167171103458031e+02
1.626790429703128815e+00 5.496152531462322486e+02
1.626890453708890183e+00 5.496138410823565437e+02
1.626990477714651551e+00 5.496124803601001076e+02
1.627090501720412918e+00 5.496111704206741706e+02
1.627190525726174286e+00 5.496099107051365991e+02
1.627290549731935654e+00 5.496087006544064479e+02
1.627390573737697022e+00 5.496075397092841968e+02
1.627490597743458389e+00 5.496064273104632321e+02
1.627590621749219757e+00 5.496053628985511068e+02
1.627690645754981125e+00 5.496043459140819323e+02
1.627790669760742492e+00 5.496033757975333174e+02
1.627890693766503860e+00 5.496024519893444449e+02
1.627990717772265228e+00 5.496015739299300549e+02
1.628090741778026596e+00 5.496007410596980662e+02
1.628190765783787963e+00 5.495999528190634464e+02
1.628290789789549331e+00 5.495992086484666288e+02
1.628390813795310699e+00 5.495985079883872686e+02
1.628490837801072066e+00 5.495978502793607277e+02
1.628590861806833434e+00 5.495972349619950137e+02
1.628690885812595024e+00 5.495966614769852185e+02
1.628790909818356392e+00 5.495961292651292069e+02
1.628890933824117759e+00 5.495956377673433053e+02
1.628990957829879127e+00 5.495951864246789000e+02
1.629090981835640495e+00 5.495947746783365346e+02
1.629191005841401862e+00 5.495944019696814848e+02
1.629291029847163230e+00 5.495940677402605843e+02
1.629391053852924598e+00 5.495937714318152985e+02
1.629491077858685966e+00 5.495935124863000283e+02
1.629591101864447333e+00 5.495932903458937062e+02
1.629691125870208701e+00 5.495931044530173040e+02
1.629791149875970069e+00 5.495929542503498624e+02
1.629891173881731437e+00 5.495928391808394053e+02
1.629991197887492804e+00 5.495927586877238582e+02
1.630091221893254172e+00 5.495927122145401427e+02
1.630191245899015540e+00 5.495926992051428215e+02
1.630291269904776907e+00 5.495927191037171724e+02
1.630391293910538275e+00 5.495927713547961275e+02
1.630491317916300087e+00 5.495928554032711872e+02
1.630591341922061233e+00 5.495929706944110649e+02
1.630691365927822822e+00 5.495931166738729416e+02
1.630791389933583968e+00 5.495932927877204293e+02
1.630891413939345558e+00 5.495934984824340290e+02
1.630991437945106703e+00 5.495937332049288671e+02
1.631091461950868293e+00 5.495939964025673135e+02
1.631191485956629439e+00 5.495942875231741027e+02
1.631291509962391029e+00 5.495946060150497487e+02
1.631391533968152174e+00 5.495949513269853242e+02
1.631491557973913764e+00 5.495953229082763301e+02
1.631591581979674910e+00 5.495957202087361111e+02
1.631691605985436500e+00 5.495961426787115442e+02
1.631791629991197645e+00 5.495965897690958855e+02
1.631891653996959235e+00 5.495970609313401383e+02
1.631991678002720381e+00 5.495975556174732901e+02
1.632091702008481970e+00 5.495980732801074282e+02
1.632191726014243116e+00 5.495986133724592264e+02
1.632291750020004706e+00 5.495991753483589264e+02
1.632391774025766296e+00 5.495997586622651170e+02
1.632491798031527663e+00 5.496003627692782629e+02
1.632591822037289031e+00 5.496009871251548020e+02
1.632691846043050399e+00 5.496016311863184001e+02
1.632791870048811766e+00 5.496022944098747303e+02
1.632891894054573134e+00 5.496029762536253429e+02
1.632991918060334502e+00 5.496036761760788067e+02
1.633091942066095870e+00 5.496043936364651472e+02
1.633191966071857237e+00 5.496051280947485793e+02
1.633291990077618605e+00 5.496058790116398995e+02
1.633392014083379973e+00 5.496066458486103556e+02
1.633492038089141341e+00 5.496074280679036974e+02
1.633592062094902708e+00 5.496082251325482275e+02
1.633692086100664076e+00 5.496090365063713534e+02
1.633792110106425444e+00 5.496098616540093644e+02
1.633892134112186811e+00 5.496107000409240300e+02
1.633992158117948179e+00 5.496115511334101029e+02
1.634092182123709547e+00 5.496124143986119179e+02
1.634192206129471137e+00 5.496132893045332821e+02
1.634292230135232504e+00 5.496141753200497533e+02
1.634392254140993872e+00 5.496150719149230781e+02
1.634492278146755240e+00 5.496159785598100598e+02
1.634592302152516607e+00 5.496168947262771098e+02
1.634692326158277975e+00 5.496178198868105937e+02
1.634792350164039343e+00 5.496187535148295638e+02
1.634892374169800711e+00 5.496196950846966729e+02
1.634992398175562078e+00 5.496206440717324995e+02
1.635092422181323446e+00 5.496215999522232778e+02
1.635192446187084814e+00 5.496225622034351090e+02
1.635292470192846181e+00 5.496235303036254436e+02
1.635392494198607549e+00 5.496245037320530855e+02
1.635492518204368917e+00 5.496254819689913802e+02
1.635592542210130285e+00 5.496264644957374230e+02
1.635692566215891652e+00 5.496274507946257017e+02
1.635792590221653020e+00 5.496284403490365094e+02
1.635892614227414388e+00 5.496294326434099276e+02
1.635992638233175756e+00 5.496304271632556038e+02
1.636092662238937345e+00 5.496314233951613915e+02
1.636192686244698713e+00 5.496324208268090388e+02
1.636292710250460081e+00 5.496334189469802141e+02
1.636392734256221448e+00 5.496344172455702619e+02
1.636492758261982816e+00 5.496354152135986624e+02
1.636592782267744184e+00 5.496364123432167617e+02
1.636692806273505552e+00 5.496374081277219830e+02
1.636792830279266919e+00 5.496384020615665804e+02
1.636892854285028287e+00 5.496393936403676435e+02
1.636992878290789655e+00 5.496403823609171013e+02
1.637092902296551022e+00 5.496413677211940012e+02
1.637192926302312390e+00 5.496423492203729211e+02
1.637292950308073758e+00 5.496433263588330647e+02
1.637392974313835126e+00 5.496442986381713354e+02
1.637492998319596493e+00 5.496452655612089302e+02
1.637593022325357861e+00 5.496462266320040726e+02
1.637693046331119229e+00 5.496471813558589474e+02
1.637793070336880596e+00 5.496481292393322065e+02
1.637893094342642186e+00 5.496490697902457896e+02
1.637993118348403776e+00 5.496500025176968620e+02
1.638093142354164922e+00 5.496509269320671365e+02
1.638193166359926511e+00 5.496518425450286713e+02
1.638293190365687657e+00 5.496527488695586499e+02
1.638393214371449247e+00 5.496536454199438140e+02
1.638493238377210393e+00 5.496545317117936520e+02
1.638593262382971982e+00 5.496554072620457418e+02
1.638693286388733128e+00 5.496562715889772335e+02
1.638793310394494718e+00 5.496571242122133754e+02
1.638893334400255863e+00 5.496579646527359273e+02
1.638993358406017453e+00 5.496587924328915733e+02
1.639093382411778599e+00 5.496596070764015849e+02
1.639193406417540189e+00 5.496604081083700066e+02
1.639293430423301334e+00 5.496611950552918415e+02
1.639393454429062924e+00 5.496619674450626007e+02
1.639493478434824070e+00 5.496627248069851248e+02
1.639593502440585659e+00 5.496634666717789059e+02
1.639693526446346805e+00 5.496641925715898651e+02
1.639793550452108617e+00 5.496649020399937626e+02
1.639893574457869985e+00 5.496655946120101817e+02
1.639993598463631352e+00 5.496662698241061662e+02
