1.600052011442517408e+00 5.137840012330391346e+02
1.600152033447358235e+00 5.137814333353401253e+02
1.600252055452199285e+00 5.137786562071976277e+02
1.600352077457040334e+00 5.137756703486990091e+02
1.600452099461881605e+00 5.137724762684508732e+02
1.600552121466722655e+00 5.137690744835662144e+02
1.600652143471563704e+00 5.137654655196469093e+02
1.600752165476404754e+00 5.137616499107717800e+02
1.600852187481245581e+00 5.137576281994784040e+02
1.600952209486086630e+00 5.137534009367489034e+02
1.601052231490927902e+00 5.137489686819950521e+02
1.601152253495768951e+00 5.137443320030412224e+02
1.601252275500610001e+00 5.137394914761076734e+02
1.601352297505451272e+00 5.137344476857936115e+02
1.601452319510292321e+00 5.137292012250635480e+02
1.601552341515133149e+00 5.137237526952247890e+02
1.601652363519974198e+00 5.137181027059151575e+02
1.601752385524815248e+00 5.137122518750816198e+02
1.601852407529656297e+00 5.137062008289649384e+02
1.601952429534497568e+00 5.136999502020793216e+02
1.602052451539338618e+00 5.136935006371963937e+02
1.602152473544179667e+00 5.136868527853233672e+02
1.602252495549020495e+00 5.136800073056876954e+02
1.602352517553861766e+00 5.136729648657135385e+02
1.602452539558702815e+00 5.136657261410075535e+02
1.602552561563543865e+00 5.136582918153328592e+02
1.602652583568384914e+00 5.136506625805950534e+02
1.602752605573225964e+00 5.136428391368177699e+02
1.602852627578067235e+00 5.136348221921247159e+02
1.602952649582908062e+00 5.136266124627162526e+02
1.603052671587749112e+00 5.136182106728505232e+02
1.603152693592590161e+00 5.136096175548216252e+02
1.603252715597431433e+00 5.136008338489380094e+02
1.603352737602272482e+00 5.135918603034999705e+02
1.603452759607113531e+00 5.135826976747777053e+02
1.603552781611954581e+00 5.135733467269907351e+02
1.603652803616795408e+00 5.135638082322820992e+02
1.603752825621636457e+00 5.135540829706990280e+02
1.603852847626477729e+00 5.135441717301665676e+02
1.603952869631318778e+00 5.135340753064680257e+02
1.604052891636159828e+00 5.135237945032167772e+02
1.604152913641001099e+00 5.135133301318362555e+02
1.604252935645842149e+00 5.135026830115343728e+02
1.604352957650682976e+00 5.134918539692785089e+02
1.604452979655524025e+00 5.134808438397726604e+02
1.604553001660365075e+00 5.134696534654317475e+02
1.604653023665206124e+00 5.134582836963542150e+02
1.604753045670047396e+00 5.134467353903017965e+02
1.604853067674888445e+00 5.134350094126699560e+02
1.604953089679729494e+00 5.134231066364628759e+02
1.605053111684570322e+00 5.134110279422682197e+02
1.605153133689411593e+00 5.133987742182296188e+02
1.605253155694252643e+00 5.133863463600212071e+02
1.605353177699093692e+00 5.133737452708220417e+02
1.605453199703934741e+00 5.133609718612856341e+02
1.605553221708775791e+00 5.133480270495150535e+02
1.605653243713617062e+00 5.133349117610363237e+02
1.605753265718457889e+00 5.133216269287677278e+02
1.605853287723298939e+00 5.133081734929952518e+02
1.605953309728139988e+00 5.132945524013404111e+02
1.606053331732981260e+00 5.132807646087372859e+02
1.606153353737822309e+00 5.132668110773983017e+02
1.606253375742663358e+00 5.132526927767883080e+02
1.606353397747504408e+00 5.132384106835961575e+02
1.606453419752345235e+00 5.132239657817023044e+02
1.606553441757186285e+00 5.132093590621519752e+02
1.606653463762027556e+00 5.131945915231252684e+02
1.606753485766868605e+00 5.131796641699044130e+02
1.606853507771709655e+00 5.131645780148476206e+02
1.606953529776550926e+00 5.131493340773541831e+02
1.607053551781391976e+00 5.131339333838382117e+02
1.607153573786232803e+00 5.131183769676941893e+02
1.607253595791073852e+00 5.131026658692670708e+02
1.607353617795914902e+00 5.130868011358214744e+02
1.607453639800755951e+00 5.130707838215100765e+02
1.607553661805597223e+00 5.130546149873404147e+02
1.607653683810438272e+00 5.130382957011433973e+02
1.607753705815279321e+00 5.130218270375431757e+02
1.607853727820120149e+00 5.130052100779209923e+02
1.607953749824961420e+00 5.129884459103869858e+02
1.608053771829802470e+00 5.129715356297426752e+02
1.608153793834643519e+00 5.129544803374502635e+02
1.608253815839484568e+00 5.129372811415996694e+02
1.608353837844325618e+00 5.129199391568745341e+02
1.608453859849166889e+00 5.129024555045173202e+02
1.608553881854007717e+00 5.128848313122982745e+02
1.608653903858848766e+00 5.128670677144767751e+02
1.608753925863689815e+00 5.128491658517725682e+02
1.608853947868531087e+00 5.128311268713257505e+02
1.608953969873372136e+00 5.128129519266663010e+02
1.609053991878213186e+00 5.127946421776763373e+02
1.609154013883054235e+00 5.127761987905563501e+02
1.609254035887895062e+00 5.127576229377887103e+02
1.609354057892736112e+00 5.127389157981049266e+02
1.609454079897577383e+00 5.127200785564455146e+02
1.609554101902418433e+00 5.127011124039271408e+02
1.609654123907259482e+00 5.126820185378053338e+02
1.609754145912100753e+00 5.126627981614399232e+02
1.609854167916941803e+00 5.126434524842543397e+02
1.609954189921782630e+00 5.126239827217042375e+02
1.610054211926623680e+00 5.126043900952362264e+02
1.610154233931464729e+00 5.125846758322525147e+02
1.610254255936305778e+00 5.125648411660747570e+02
1.610354277941147050e+00 5.125448873359028994e+02
1.610454299945988099e+00 5.125248155867824380e+02
1.610554321950829149e+00 5.125046271695622409e+02
1.610654343955669976e+00 5.124843233408588503e+02
1.610754365960511247e+00 5.124639053630180570e+02
1.610854387965352297e+00 5.124433745040749955e+02
1.610954409970193346e+00 5.124227320377174237e+02
1.611054431975034396e+00 5.124019792432454778e+02
1.611154453979875445e+00 5.123811174055334732e+02
1.611254475984716716e+00 5.123601478149921604e+02
1.611354497989557544e+00 5.123390717675251835e+02
1.611454519994398593e+00 5.123178905644938368e+02
1.611554541999239643e+00 5.122966055126769334e+02
1.611654564004080914e+00 5.122752179242276043e+02
1.611754586008921963e+00 5.122537291166364639e+02
1.611854608013763013e+00 5.122321404126921607e+02
1.611954630018604062e+00 5.122104531404374939e+02
1.612054652023444890e+00 5.121886686331304190e+02
1.612154674028285939e+00 5.121667882292067588e+02
1.612254696033127210e+00 5.121448132722330229e+02
1.612354718037968260e+00 5.121227451108711648e+02
1.612454740042809309e+00 5.121005850988341308e+02
1.612554762047650581e+00 5.120783345948450460e+02
1.612654784052491408e+00 5.120559949625979925e+02
1.612754806057332457e+00 5.120335675707121936e+02
1.612854828062173507e+00 5.120110537926937013e+02
1.612954850067014556e+00 5.119884550068929343e+02
1.613054872071855605e+00 5.119657725964608517e+02
1.613154894076696877e+00 5.119430079493080825e+02
1.613254916081537926e+00 5.119201624580630323e+02
1.613354938086378754e+00 5.118972375200271472e+02
1.613454960091219803e+00 5.118742345371346687e+02
1.613554982096061075e+00 5.118511549159087508e+02
1.613655004100902124e+00 5.118280000674176904e+02
1.613755026105743173e+00 5.118047714072328631e+02
1.613855048110584223e+00 5.117814703553852951e+02
1.613955070115425272e+00 5.117580983363217229e+02
1.614055092120266099e+00 5.117346567788617335e+02
1.614155114125107371e+00 5.117111471161533132e+02
1.614255136129948420e+00 5.116875707856292479e+02
1.614355158134789470e+00 5.116639292289632976e+02
1.614455180139630741e+00 5.116402238920264267e+02
1.614555202144471791e+00 5.116164562248427501e+02
1.614655224149312840e+00 5.115926276815426945e+02
1.614755246154153667e+00 5.115687397203219575e+02
1.614855268158994717e+00 5.115447938033944979e+02
1.614955290163835766e+00 5.115207913969493916e+02
1.615055312168677037e+00 5.114967339711044474e+02
1.615155334173518087e+00 5.114726229998616986e+02
1.615255356178359136e+00 5.114484599610627811e+02
1.615355378183200408e+00 5.114242463363445381e+02
1.615455400188041235e+00 5.113999836110894535e+02
1.615555422192882284e+00 5.113756732743857469e+02
1.615655444197723334e+00 5.113513168189786597e+02
1.615755466202564383e+00 5.113269157412238997e+02
1.615855488207405433e+00 5.113024715410446674e+02
1.615955510212246704e+00 5.112779857218837378e+02
1.616055532217087753e+00 5.112534597906570184e+02
1.616155554221928581e+00 5.112288952577086434e+02
1.616255576226769630e+00 5.112042936367646462e+02
1.616355598231610902e+00 5.111796564448857225e+02
1.616455620236451951e+00 5.111549852024203346e+02
1.616555642241293000e+00 5.111302814329606576e+02
1.616655664246134050e+00 5.111055466632924436e+02
1.616755686250975099e+00 5.110807824233505698e+02
1.616855708255815927e+00 5.110559902461715751e+02
1.616955730260657198e+00 5.110311716678458538e+02
1.617055752265498247e+00 5.110063282274720109e+02
1.617155774270339297e+00 5.109814614671079198e+02
1.617255796275180568e+00 5.109565729317252476e+02
1.617355818280021618e+00 5.109316641691608538e+02
1.617455840284862667e+00 5.109067367300694968e+02
1.617555862289703494e+00 5.108817921678768812e+02
1.617655884294544544e+00 5.108568320387304880e+02
1.617755906299385593e+00 5.108318579014544980e+02
1.617855928304226865e+00 5.108068713174990307e+02
1.617955950309067914e+00 5.107818738508942715e+02
1.618055972313908963e+00 5.107568670682011316e+02
1.618155994318750235e+00 5.107318525384647501e+02
1.618256016323591062e+00 5.107068318331650971e+02
1.618356038328432112e+00 5.106818065261678612e+02
1.618456060333273161e+00 5.106567781936798269e+02
1.618556082338114210e+00 5.106317484141961813e+02
1.618656104342955260e+00 5.106067187684540158e+02
1.618756126347796531e+00 5.105816908393842937e+02
1.618856148352637581e+00 5.105566662120634192e+02
1.618956170357478408e+00 5.105316464736620219e+02
1.619056192362319457e+00 5.105066332133995388e+02
1.619156214367160729e+00 5.104816280224939646e+02
1.619256236372001778e+00 5.104566324941116591e+02
1.619356258376842828e+00 5.104316482233211332e+02
1.619456280381683877e+00 5.104066768070432545e+02
1.619556302386524926e+00 5.103817198439994058e+02
1.619656324391365754e+00 5.103567789346673749e+02
1.619756346396207025e+00 5.103318556812273528e+02
1.619856368401048075e+00 5.103069516875165164e+02
1.619956390405889124e+00 5.102820685589771301e+02
1.620056412410730395e+00 5.102572079026092524e+02
1.620156434415571445e+00 5.102323713269193490e+02
1.620256456420412494e+00 5.102075604418735679e+02
1.620356478425253322e+00 5.101827768588449317e+02
1.620456500430094371e+00 5.101580221905671806e+02
1.620556522434935420e+00 5.101332980510827042e+02
1.620656544439776692e+00 5.101086060556949064e+02
1.620756566444617741e+00 5.100839478209164781e+02
1.620856588449458791e+00 5.100593249644224443e+02
1.620956610454300062e+00 5.100347391049976409e+02
1.621056632459140889e+00 5.100101918624897053e+02
1.621156654463981939e+00 5.099856848577567803e+02
1.621256676468822988e+00 5.099612197126190836e+02
1.621356698473664038e+00 5.099367980498100792e+02
1.621456720478505087e+00 5.099124214929241816e+02
1.621556742483346358e+00 5.098880916663688367e+02
1.621656764488187408e+00 5.098638101953141017e+02
1.621756786493028235e+00 5.098395787056424524e+02
1.621856808497869284e+00 5.098153988238975671e+02
1.621956830502710556e+00 5.097912721772388522e+02
1.622056852507551605e+00 5.097672003933868723e+02
1.622156874512392655e+00 5.097431851005734984e+02
1.622256896517233704e+00 5.097192279274958082e+02
1.622356918522074753e+00 5.096953305032615162e+02
1.622456940526915581e+00 5.096714944573419643e+02
1.622556962531756852e+00 5.096477214195207353e+02
1.622656984536597902e+00 5.096240130198445968e+02
1.622757006541438951e+00 5.096003708885715469e+02
1.622857028546280223e+00 5.095767966561231219e+02
1.622957050551121272e+00 5.095532919530318736e+02
1.623057072555962321e+00 5.095298584098941319e+02
1.623157094560803149e+00 5.095064976573161744e+02
1.623257116565644198e+00 5.094832113258688651e+02
1.623357138570485247e+00 5.094600010460323460e+02
1.623457160575326519e+00 5.094368684481507898e+02
1.623557182580167568e+00 5.094138151623785689e+02
1.623657204585008618e+00 5.093908428186324500e+02
1.623757226589849889e+00 5.093679530465408334e+02
1.623857248594690716e+00 5.093451474753933894e+02
1.623957270599531766e+00 5.093224277340913773e+02
1.624057292604372815e+00 5.092997954510977934e+02
1.624157314609213865e+00 5.092772522543862124e+02
1.624257336614054914e+00 5.092547997713927543e+02
1.624357358618896185e+00 5.092324396289639026e+02
1.624457380623737235e+00 5.092101734533081867e+02
1.624557402628578062e+00 5.091880028699463878e+02
1.624657424633419112e+00 5.091659295036590720e+02
1.624757446638260383e+00 5.091439549784395808e+02
1.624857468643101432e+00 5.091220809174436681e+02
1.624957490647942482e+00 5.091003089429375450e+02
1.625057512652783531e+00 5.090786406762501315e+02
1.625157534657624581e+00 5.090570777377237732e+02
1.625257556662465408e+00 5.090356217466617750e+02
1.625357578667306679e+00 5.090142743212803680e+02
1.625457600672147729e+00 5.089930370786607341e+02
1.625557622676988778e+00 5.089719116346948908e+02
1.625657644681830050e+00 5.089508996040405009e+02
1.625757666686671099e+00 5.089300026000692014e+02
1.625857688691512148e+00 5.089092222348162409e+02
1.625957710696352976e+00 5.088885601189332419e+02
1.626057732701194025e+00 5.088680178616370995e+02
1.626157754706035075e+00 5.088475970706613225e+02
1.626257776710876346e+00 5.088272993522056140e+02
1.626357798715717395e+00 5.088071263108874973e+02
1.626457820720558445e+00 5.087870795496936580e+02
1.626557842725399716e+00 5.087671606699282165e+02
1.626657864730240544e+00 5.087473712711675375e+02
1.626757886735081593e+00 5.087277129512071951e+02
1.626857908739922642e+00 5.087081873060145654e+02
1.626957930744763692e+00 5.086887959296799977e+02
1.627057952749604741e+00 5.086695404143679866e+02
1.627157974754446013e+00 5.086504223502678315e+02
1.627257996759287062e+00 5.086314433255442964e+02
1.627358018764127889e+00 5.086126049262908282e+02
1.627458040768968939e+00 5.085939087364781130e+02
1.627558062773810210e+00 5.085753563379076923e+02
1.627658084778651260e+00 5.085569493101625085e+02
1.627758106783492309e+00 5.085386892305579067e+02
1.627858128788333358e+00 5.085205776740948522e+02
1.627958150793174408e+00 5.085026162134097945e+02
1.628058172798015235e+00 5.084848064187271461e+02
1.628158194802856507e+00 5.084671498578117053e+02
1.628258216807697556e+00 5.084496480959186329e+02
1.628358238812538605e+00 5.084323026957480920e+02
1.628458260817379877e+00 5.084151152173951687e+02
1.628558282822220926e+00 5.083980872183032034e+02
1.628658304827061976e+00 5.083812202532144511e+02
1.628758326831902803e+00 5.083645158741241517e+02
1.628858348836743852e+00 5.083479756302323267e+02
1.628958370841584902e+00 5.083316010678965426e+02
1.629058392846426173e+00 5.083153937305822865e+02
1.629158414851267223e+00 5.082993551588186847e+02
1.629258436856108272e+00 5.082834868901503000e+02
1.629358458860949543e+00 5.082677904590875642e+02
1.629458480865790371e+00 5.082522673970640881e+02
1.629558502870631420e+00 5.082369192323856737e+02
1.629658524875472470e+00 5.082217474901851801e+02
1.629758546880313519e+00 5.082067536923764237e+02
1.629858568885154568e+00 5.081919393576055199e+02
1.629958590889995840e+00 5.081773060012061478e+02
1.630058612894836667e+00 5.081628551351521992e+02
1.630158634899677716e+00 5.081485882680119062e+02
1.630258656904518766e+00 5.081345069049001495e+02
1.630358678909360037e+00 5.081206125474344617e+02
1.630458700914201087e+00 5.081069066936870513e+02
1.630558722919042136e+00 5.080933908381408628e+02
1.630658744923883186e+00 5.080800664716410324e+02
1.630758766928724013e+00 5.080669350813520850e+02
1.630858788933565062e+00 5.080539981507101288e+02
1.630958810938406334e+00 5.080412571593782332e+02
1.631058832943247383e+00 5.080287135832014656e+02
1.631158854948088432e+00 5.080163688941606210e+02
1.631258876952929704e+00 5.080042245603284528e+02
1.631358898957770753e+00 5.079922820458237993e+02
1.631458920962611581e+00 5.079805428107654848e+02
1.631558942967452630e+00 5.079690083112299703e+02
1.631658964972293679e+00 5.079576799992062774e+02
1.631758986977134729e+00 5.079465593225498310e+02
1.631859008981976000e+00 5.079356477249386899e+02
1.631959030986817050e+00 5.079249466458310280e+02
1.632059052991658099e+00 5.079144575204182956e+02
1.632159074996498926e+00 5.079041817795834959e+02
1.632259097001340198e+00 5.078941208498564492e+02
1.632359119006181247e+00 5.078842761533692283e+02
1.632459141011022297e+00 5.078746491078145482e+02
1.632559163015863346e+00 5.078652411264008606e+02
1.632659185020704395e+00 5.078560536178088114e+02
1.632759207025545667e+00 5.078470879861497451e+02
1.632859229030386494e+00 5.078383456309201165e+02
1.632959251035227544e+00 5.078298279469620411e+02
1.633059273040068593e+00 5.078215363244170248e+02
1.633159295044909864e+00 5.078134721486858894e+02
1.633259317049750914e+00 5.078056368003855710e+02
1.633359339054591963e+00 5.077980316553053513e+02
1.633459361059433013e+00 5.077906580843683741e+02
1.633559383064273840e+00 5.077835174535852047e+02
1.633659405069114889e+00 5.077766111240150053e+02
1.633759427073956161e+00 5.077699404517235848e+02
1.633859449078797210e+00 5.077635067877409938e+02
1.633959471083638260e+00 5.077573114780192896e+02
1.634059493088479531e+00 5.077513558633941670e+02
1.634159515093320580e+00 5.077456412795412461e+02
1.634259537098161408e+00 5.077401690569365655e+02
1.634359559103002457e+00 5.077349405208152007e+02
1.634459581107843507e+00 5.077299569911314165e+02
1.634559603112684556e+00 5.077252197825172857e+02
1.634659625117525827e+00 5.077207302042435231e+02
1.634759647122366877e+00 5.077164895601777630e+02
1.634859669127207926e+00 5.077124991487465309e+02
1.634959691132048754e+00 5.077087602628949980e+02
1.635059713136890025e+00 5.077052741900463388e+02
1.635159735141731074e+00 5.077020422120639296e+02
1.635259757146572124e+00 5.076990656052101940e+02
1.635359779151413173e+00 5.076963456401100530e+02
1.635459801156254223e+00 5.076938835817096560e+02
1.635559823161095494e+00 5.076916806892388081e+02
1.635659845165936321e+00 5.076897382161726000e+02
1.635759867170777371e+00 5.076880574101923003e+02
1.635859889175618420e+00 5.076866395131481227e+02
1.635959911180459692e+00 5.076854857610205158e+02
1.636059933185300741e+00 5.076845973838828741e+02
1.636159955190141790e+00 5.076839756058635658e+02
1.636259977194982840e+00 5.076836216451078485e+02
1.636359999199823667e+00 5.076835367137424555e+02
1.636460021204664717e+00 5.076837220178365442e+02
1.636560043209505988e+00 5.076841787573658848e+02
1.636660065214347037e+00 5.076849081261760830e+02
1.636760087219188087e+00 5.076859113119462563e+02
1.636860109224029358e+00 5.076871894961514045e+02
1.636960131228870408e+00 5.076887438540280186e+02
1.637060153233711235e+00 5.076905755545370198e+02
1.637160175238552284e+00 5.076926857603289704e+02
1.637260197243393334e+00 5.076950756277070127e+02
1.637360219248234383e+00 5.076977463065933875e+02
1.637460241253075655e+00 5.077006989404928277e+02
1.637560263257916704e+00 5.077039346664581103e+02
1.637660285262757753e+00 5.077074546150554397e+02
1.637760307267598581e+00 5.077112599103299999e+02
1.637860329272439852e+00 5.077153516697702571e+02
1.637960351277280902e+00 5.077197310042758431e+02
1.638060373282121951e+00 5.077243990181237336e+02
1.638160395286963000e+00 5.077293568089304472e+02
1.638260417291804050e+00 5.077346054676240783e+02
1.638360439296645321e+00 5.077401460784072924e+02
1.638460461301486148e+00 5.077459797187256072e+02
1.638560483306327198e+00 5.077521074592334571e+02
1.638660505311168247e+00 5.077585303637623042e+02
1.638760527316009519e+00 5.077652494892892605e+02
1.638860549320850568e+00 5.077722658859005946e+02
1.638960571325691618e+00 5.077795805967663796e+02
1.639060593330532667e+00 5.077871946581011571e+02
1.639160615335373494e+00 5.077951090991376759e+02
1.639260637340214544e+00 5.078033249420943207e+02
1.639360659345055815e+00 5.078118432021410626e+02
1.639460681349896864e+00 5.078206648873725726e+02
1.639560703354737914e+00 5.078297909987749108e+02
1.639660725359579185e+00 5.078392225301944336e+02
1.639760747364420235e+00 5.078489604683100538e+02
1.639860769369261062e+00 5.078590057926001577e+02
1.639960791374102111e+00 5.078693594753149796e+02
1.640060813378943161e+00 5.078800224814451099e+02
1.640160835383784210e+00 5.078909957686942107e+02
1.640260857388625482e+00 5.079022802874471836e+02
1.640360879393466531e+00 5.079138769807439076e+02
1.640460901398307580e+00 5.079257867842459291e+02
1.640560923403148408e+00 5.079380106262137815e+02
1.640660945407989679e+00 5.079505494274745843e+02
1.640760967412830729e+00 5.079634041013952697e+02
1.640860989417671778e+00 5.079765755538536496e+02
1.640961011422512827e+00 5.079900646832124380e+02
1.641061033427353877e+00 5.080038723802908862e+02
1.641161055432195148e+00 5.080179995283373273e+02
1.641261077437035976e+00 5.080324470030024031e+02
1.641361099441877025e+00 5.080472156723117223e+02
1.641461121446718074e+00 5.080623063966422706e+02
1.641561143451559346e+00 5.080777200286909192e+02
1.641661165456400395e+00 5.080934574134529385e+02
1.641761187461241445e+00 5.081095193881947125e+02
1.641861209466082494e+00 5.081259067824276485e+02
1.641961231470923321e+00 5.081426204178825969e+02
1.642061253475764371e+00 5.081596611084859205e+02
1.642161275480605642e+00 5.081770296603345969e+02
1.642261297485446692e+00 5.081947268716695021e+02
1.642361319490287741e+00 5.082127535328541512e+02
1.642461341495129012e+00 5.082311104263482662e+02
1.642561363499970062e+00 5.082497983266839015e+02
1.642661385504810889e+00 5.082688180004440710e+02
1.642761407509651939e+00 5.082881702062348950e+02
1.642861429514492988e+00 5.083078556946688877e+02
1.642961451519334037e+00 5.083278752083353424e+02
1.643061473524175309e+00 5.083482294817817433e+02
1.643161495529016358e+00 5.083689192414894364e+02
1.643261517533857408e+00 5.083899452058539055e+02
1.643361539538698235e+00 5.084113080851591349e+02
1.643461561543539506e+00 5.084330085815586244e+02
1.643561583548380556e+00 5.084550473890532203e+02
1.643661605553221605e+00 5.084774251934693439e+02
1.643761627558062655e+00 5.085001426724385283e+02
1.643861649562903704e+00 5.085232004953770115e+02
1.643961671567744975e+00 5.085465993234645907e+02
1.644061693572585803e+00 5.085703398096242154e+02
1.644161715577426852e+00 5.085944225985031721e+02
1.644261737582267902e+00 5.086188483264519391e+02
1.644361759587109173e+00 5.086436176215063938e+02
1.644461781591950222e+00 5.086687311033659853e+02
1.644561803596791272e+00 5.086941893833778749e+02
1.644661825601632321e+00 5.087199930645157337e+02
1.644761847606473149e+00 5.087461427413629167e+02
1.644861869611314198e+00 5.087726390000924539e+02
1.644961891616155469e+00 5.087994824184510207e+02
1.645061913620996519e+00 5.088266735657404638e+02
1.645161935625837568e+00 5.088542130028001793e+02
1.645261957630678840e+00 5.088821012819897760e+02
1.645361979635519889e+00 5.089103389471723631e+02
1.645462001640360716e+00 5.089389265336976678e+02
1.645562023645201766e+00 5.089678645683866876e+02
1.645662045650042815e+00 5.089971535695136140e+02
1.645762067654883865e+00 5.090267940467909966e+02
1.645862089659725136e+00 5.090567865013551341e+02
1.645962111664566185e+00 5.090871314257472591e+02
1.646062133669407235e+00 5.091178293039042728e+02
1.646162155674248062e+00 5.091488806111364624e+02
1.646262177679089334e+00 5.091802858141191450e+02
1.646362199683930383e+00 5.092120453708749324e+02
1.646462221688771432e+00 5.092441597307607140e+02
1.646562243693612482e+00 5.092766293344536166e+02
1.646662265698453531e+00 5.093094546139377599e+02
1.646762287703294803e+00 5.093426359924898748e+02
1.646862309708135630e+00 5.093761738846679350e+02
1.646962331712976679e+00 5.094100686962966051e+02
1.647062353717817729e+00 5.094443208244559855e+02
1.647162375722659000e+00 5.094789306574685384e+02
1.647262397727500050e+00 5.095138985748879463e+02
1.647362419732341099e+00 5.095492249474854702e+02
1.647462441737182148e+00 5.095849101372415930e+02
1.647562463742022976e+00 5.096209544973321499e+02
1.647662485746864025e+00 5.096573583721179830e+02
1.647762507751705296e+00 5.096941220971344819e+02
1.647862529756546346e+00 5.097312459990818638e+02
1.647962551761387395e+00 5.097687303958134635e+02
1.648062573766228667e+00 5.098065755963270931e+02
1.648162595771069494e+00 5.098447819007551516e+02
1.648262617775910543e+00 5.098833496003544496e+02
1.648362639780751593e+00 5.099222789774980242e+02
1.648462661785592642e+00 5.099615703056661573e+02
1.648562683790433692e+00 5.100012238494369967e+02
1.648662705795274963e+00 5.100412398644795076e+02
1.648762727800116012e+00 5.100816185975447752e+02
1.648862749804956840e+00 5.101223602864580471e+02
1.648962771809797889e+00 5.101634651601107748e+02
1.649062793814639161e+00 5.102049334384551003e+02
1.649162815819480210e+00 5.102467653324945900e+02
1.649262837824321259e+00 5.102889610442788921e+02
1.649362859829162309e+00 5.103315207668983930e+02
1.649462881834003358e+00 5.103744446844746676e+02
1.649562903838844186e+00 5.104177329721583760e+02
1.649662925843685457e+00 5.104613857961197709e+02
1.649762947848526506e+00 5.105054033135478448e+02
1.649862969853367556e+00 5.105497856726400983e+02
1.649962991858208827e+00 5.105945330126024828e+02
1.650063013863049877e+00 5.106396454636415569e+02
1.650163035867890926e+00 5.106851231469608479e+02
1.650263057872731753e+00 5.107309661747581231e+02
1.650363079877572803e+00 5.107771746502202745e+02
1.650463101882413852e+00 5.108237486675192827e+02
1.650563123887255124e+00 5.108706883118118753e+02
1.650663145892096173e+00 5.109179936592317972e+02
1.650763167896937222e+00 5.109656647768924245e+02
1.650863189901778494e+00 5.110137017228793184e+02
1.650963211906619321e+00 5.110621045462527832e+02
1.651063233911460371e+00 5.111108732870416702e+02
1.651163255916301420e+00 5.111600079762441737e+02
1.651263277921142469e+00 5.112095086358260687e+02
1.651363299925983519e+00 5.112593752787192329e+02
1.651463321930824790e+00 5.113096079088206238e+02
1.651563343935665840e+00 5.113602065209929606e+02
1.651663365940506667e+00 5.114111711010618819e+02
1.651763387945347716e+00 5.114625016258193568e+02
1.651863409950188988e+00 5.115141980630200464e+02
1.651963431955030037e+00 5.115662603713846579e+02
1.652063453959871087e+00 5.116186885006001148e+02
1.652163475964712136e+00 5.116714823913193868e+02
1.652263497969553185e+00 5.117246419751635358e+02
1.652363519974394013e+00 5.117781671747241035e+02
1.652463541979235284e+00 5.118320579035625997e+02
1.652563563984076334e+00 5.118863140662151068e+02
1.652663585988917383e+00 5.119409355581934733e+02
1.652763607993758654e+00 5.119959222659877014e+02
1.652863629998599704e+00 5.120512740670687890e+02
1.652963652003440753e+00 5.121069908298924247e+02
1.653063674008281581e+00 5.121630724139013182e+02
1.653163696013122630e+00 5.122195186695306575e+02
1.653263718017963679e+00 5.122763294382104959e+02
1.653363740022804951e+00 5.123335045523697318e+02
1.653463762027646000e+00 5.123910438354415646e+02
1.653563784032487050e+00 5.124489471018679296e+02
1.653663806037328321e+00 5.125072141571044995e+02
1.653763828042169148e+00 5.125658447976250045e+02
1.653863850047010198e+00 5.126248388109278267e+02
1.653963872051851247e+00 5.126841959755411153e+02
1.654063894056692297e+00 5.127439160610292674e+02
1.654163916061533346e+00 5.128039988279983845e+02
1.654263938066374617e+00 5.128644440281045718e+02
1.654363960071215667e+00 5.129252514040571214e+02
1.654463982076056494e+00 5.129864206896304495e+02
1.654564004080897544e+00 5.130479516096676207e+02
1.654664026085738815e+00 5.131098438800889880e+02
1.654764048090579864e+00 5.131720972079008334e+02
1.654864070095420914e+00 5.132347112912016200e+02
1.654964092100261963e+00 5.132976858191930205e+02
1.655064114105103013e+00 5.133610204721861692e+02
1.655164136109943840e+00 5.134247149216107573e+02
1.655264158114785111e+00 5.134887688300251511e+02
1.655364180119626161e+00 5.135531818511259416e+02
1.655464202124467210e+00 5.136179536297563573e+02
1.655564224129308482e+00 5.136830838019162684e+02
1.655664246134149531e+00 5.137485719947738971e+02
1.655764268138990580e+00 5.138144178266732069e+02
1.655864290143831408e+00 5.138806209071484545e+02
1.655964312148672457e+00 5.139471808369318069e+02
1.656064334153513506e+00 5.140140972079651647e+02
1.656164356158354778e+00 5.140813696034136910e+02
1.656264378163195827e+00 5.141489975976741107e+02
1.656364400168036877e+00 5.142169807563902850e+02
1.656464422172878148e+00 5.142853186364607154e+02
1.656564444177718975e+00 5.143540107860567332e+02
1.656664466182560025e+00 5.144230567446295481e+02
1.656764488187401074e+00 5.144924560429270741e+02
1.656864510192242124e+00 5.145622082030047295e+02
1.656964532197083173e+00 5.146323127382403300e+02
1.657064554201924444e+00 5.147027691533475036e+02
1.657164576206765494e+00 5.147735769443883100e+02
1.657264598211606321e+00 5.148447355987893843e+02
1.657364620216447371e+00 5.149162445953545557e+02
1.657464642221288642e+00 5.149881034042793999e+02
1.657564664226129691e+00 5.150603114871692014e+02
1.657664686230970741e+00 5.151328682970494128e+02
1.657764708235811790e+00 5.152057732783848678e+02
1.657864730240652840e+00 5.152790258670922867e+02
1.657964752245493667e+00 5.153526254905603992e+02
1.658064774250334938e+00 5.154265715676610853e+02
1.658164796255175988e+00 5.155008635087685889e+02
1.658264818260017037e+00 5.155755007157761156e+02
1.658364840264858309e+00 5.156504825821104987e+02
1.658464862269699358e+00 5.157258084927537993e+02
1.658564884274540407e+00 5.158014778242530838e+02
1.658664906279381235e+00 5.158774899447474809e+02
1.658764928284222284e+00 5.159538442139769359e+02
1.658864950289063334e+00 5.160305399833065394e+02
1.658964972293904605e+00 5.161075765957410795e+02
1.659064994298745654e+00 5.161849533859460735e+02
1.659165016303586704e+00 5.162626696802648212e+02
1.659265038308427975e+00 5.163407247967371632e+02
1.659365060313268803e+00 5.164191180451197170e+02
1.659465082318109852e+00 5.164978487269062271e+02
1.659565104322950901e+00 5.165769161353433674e+02
1.659665126327791951e+00 5.166563195554551839e+02
1.659765148332633000e+00 5.167360582640606026e+02
1.659865170337474272e+00 5.168161315297941201e+02
1.659965192342315321e+00 5.168965386131264950e+02
1.660065214347156148e+00 5.169772787663848703e+02
1.660165236351997198e+00 5.170583512337764205e+02
1.660265258356838469e+00 5.171397552514064273e+02
1.660365280361679519e+00 5.172214900473007901e+02
1.660465302366520568e+00 5.173035548414284222e+02
1.660565324371361617e+00 5.173859488457234193e+02
1.660665346376202667e+00 5.174686712641043869e+02
1.660765368381043494e+00 5.175517212925013837e+02
1.660865390385884766e+00 5.176350981188751348e+02
1.660965412390725815e+00 5.177188009232390868e+02
1.661065434395566864e+00 5.178028288776865793e+02
1.661165456400408136e+00 5.178871811464108532e+02
1.661265478405249185e+00 5.179718568857276750e+02
1.661365500410090235e+00 5.180568552441029624e+02
1.661465522414931062e+00 5.181421753621735888e+02
1.661565544419772111e+00 5.182278163727710307e+02
1.661665566424613161e+00 5.183137774009480836e+02
1.661765588429454432e+00 5.184000575640022817e+02
1.661865610434295482e+00 5.184866559714995446e+02
1.661965632439136531e+00 5.185735717253023722e+02
1.662065654443977802e+00 5.186608039195904212e+02
1.662165676448818630e+00 5.187483516408898367e+02
1.662265698453659679e+00 5.188362139680973542e+02
1.662365720458500729e+00 5.189243899725046276e+02
1.662465742463341778e+00 5.190128787178283574e+02
1.662565764468182827e+00 5.191016792602314354e+02
1.662665786473024099e+00 5.191907906483531860e+02
1.662765808477865148e+00 5.192802119233342637e+02
1.662865830482705976e+00 5.193699421188440510e+02
1.662965852487547025e+00 5.194599802611073756e+02
1.663065874492388296e+00 5.195503253689316807e+02
1.663165896497229346e+00 5.196409764537354476e+02
1.663265918502070395e+00 5.197319325195749116e+02
1.663365940506911445e+00 5.198231925631710055e+02
1.663465962511752494e+00 5.199147555739399422e+02
1.663565984516593321e+00 5.200066205340197030e+02
1.663666006521434593e+00 5.200987864182982321e+02
1.663766028526275642e+00 5.201912521944429955e+02
1.663866050531116692e+00 5.202840168229292885e+02
1.663966072535957963e+00 5.203770792570694539e+02
1.664066094540799012e+00 5.204704384430418713e+02
1.664166116545640062e+00 5.205640933199216533e+02
1.664266138550480889e+00 5.206580428197065658e+02
1.664366160555321938e+00 5.207522858673522705e+02
1.664466182560162988e+00 5.208468213807973370e+02
1.664566204565004259e+00 5.209416482709968932e+02
1.664666226569845309e+00 5.210367654419500241e+02
1.664766248574686358e+00 5.211321717907330822e+02
1.664866270579527630e+00 5.212278662075279954e+02
1.664966292584368457e+00 5.213238475756555772e+02
1.665066314589209506e+00 5.214201147716036076e+02
1.665166336594050556e+00 5.215166666650616207e+02
1.665266358598891605e+00 5.216135021189490999e+02
1.665366380603732654e+00 5.217106199894492420e+02
1.665466402608573926e+00 5.218080191260396532e+02
1.665566424613414753e+00 5.219056983715249771e+02
1.665666446618255803e+00 5.220036565620677038e+02
1.665766468623096852e+00 5.221018925272232991e+02
1.665866490627938123e+00 5.222004050899690810e+02
1.665966512632779173e+00 5.222991930667392353e+02
1.666066534637620222e+00 5.223982552674588078e+02
1.666166556642461272e+00 5.224975904955715578e+02
1.666266578647302099e+00 5.225971975480796345e+02
1.666366600652143148e+00 5.226970752155722266e+02
1.666466622656984420e+00 5.227972222822621688e+02
1.666566644661825469e+00 5.228976375260159557e+02
1.666666666666666519e+00 5.229983197183919401e+02
1.666766688671507790e+00 5.230992676246703468e+02
1.666866710676348839e+00 5.232004800038906751e+02
1.666966732681189667e+00 5.233019556088827358e+02
1.667066754686030716e+00 5.234036931863054178e+02
1.667166776690871766e+00 5.235056914766768159e+02
1.667266798695712815e+00 5.236079492144117467e+02
1.667366820700554086e+00 5.237104651278560823e+02
1.667466842705395136e+00 5.238132379393218798e+02
1.667566864710236185e+00 5.239162663651216008e+02
1.667666886715077013e+00 5.240195491156056278e+02
1.667766908719918284e+00 5.241230848951963708e+02
1.667866930724759333e+00 5.242268724024233961e+02
1.667966952729600383e+00 5.243309103299618528e+02
1.668066974734441432e+00 5.244351973646645320e+02
1.668166996739282482e+00 5.245397321876015440e+02
1.668267018744123753e+00 5.246445134740949925e+02
1.668367040748964580e+00 5.247495398937566051e+02
1.668467062753805630e+00 5.248548101105218393e+02
1.668567084758646679e+00 5.249603227826889906e+02
1.668667106763487951e+00 5.250660765629552316e+02
1.668767128768329000e+00 5.251720700984534460e+02
1.668867150773170049e+00 5.252783020307897459e+02
1.668967172778011099e+00 5.253847709960808743e+02
1.669067194782851926e+00 5.254914756249903576e+02
1.669167216787692976e+00 5.255984145427679550e+02
1.669267238792534247e+00 5.257055863692854700e+02
1.669367260797375296e+00 5.258129897190758584e+02
1.669467282802216346e+00 5.259206232013709723e+02
1.669567304807057617e+00 5.260284854201390772e+02
1.669667326811898667e+00 5.261365749741228228e+02
1.669767348816739494e+00 5.262448904568796024e+02
1.669867370821580543e+00 5.263534304568174775e+02
1.669967392826421593e+00 5.264621935572344000e+02
1.670067414831262642e+00 5.265711783363576615e+02
1.670167436836103914e+00 5.266803833673828876e+02
1.670267458840944963e+00 5.267898072185115552e+02
1.670367480845786012e+00 5.268994484529910096e+02
1.670467502850626840e+00 5.270093056291539142e+02
1.670567524855468111e+00 5.271193773004566765e+02
1.670667546860309161e+00 5.272296620155196933e+02
1.670767568865150210e+00 5.273401583181657770e+02
1.670867590869991259e+00 5.274508647474610825e+02
1.670967612874832309e+00 5.275617798377536474e+02
1.671067634879673580e+00 5.276729021187145463e+02
1.671167656884514408e+00 5.277842301153760900e+02
1.671267678889355457e+00 5.278957623481744577e+02
1.671367700894196506e+00 5.280074973329856221e+02
1.671467722899037778e+00 5.281194335811710516e+02
1.671567744903878827e+00 5.282315695996143177e+02
1.671667766908719877e+00 5.283439038907612257e+02
1.671767788913560926e+00 5.284564349526638125e+02
1.671867810918401753e+00 5.285691612790172940e+02
1.671967832923242803e+00 5.286820813592033801e+02
1.672067854928084074e+00 5.287951936783300653e+02
1.672167876932925124e+00 5.289084967172723282e+02
1.672267898937766173e+00 5.290219889527138548e+02
1.672367920942607444e+00 5.291356688571883069e+02
1.672467942947448494e+00 5.292495348991191122e+02
1.672567964952289321e+00 5.293635855428633477e+02
1.672667986957130370e+00 5.294778192487500519e+02
1.672768008961971420e+00 5.295922344731244493e+02
1.672868030966812469e+00 5.297068296683879680e+02
1.672968052971653741e+00 5.298216032830413269e+02
1.673068074976494790e+00 5.299365537617229620e+02
1.673168096981335840e+00 5.300516795452559791e+02
1.673268118986176667e+00 5.301669790706854428e+02
1.673368140991017938e+00 5.302824507713232833e+02
1.673468162995858988e+00 5.303980930767885411e+02
1.673568185000700037e+00 5.305139044130509092e+02
1.673668207005541086e+00 5.306298832024714329e+02
1.673768229010382136e+00 5.307460278638478712e+02
1.673868251015223407e+00 5.308623368124522131e+02
1.673968273020064235e+00 5.309788084600777438e+02
1.674068295024905284e+00 5.310954412150786084e+02
1.674168317029746333e+00 5.312122334824136942e+02
1.674268339034587605e+00 5.313291836636900598e+02
1.674368361039428654e+00 5.314462901572018154e+02
1.674468383044269704e+00 5.315635513579783265e+02
1.674568405049110753e+00 5.316809656578243448e+02
1.674668427053951580e+00 5.317985314453608225e+02
1.674768449058792630e+00 5.319162471060718644e+02
1.674868471063633901e+00 5.320341110223448595e+02
1.674968493068474951e+00 5.321521215735144779e+02
1.675068515073316000e+00 5.322702771359081453e+02
1.675168537078157271e+00 5.323885760828827642e+02
1.675268559082998321e+00 5.325070167848761002e+02
1.675368581087839148e+00 5.326255976094439575e+02
1.675468603092680198e+00 5.327443169213061083e+02
1.675568625097521247e+00 5.328631730823894941e+02
1.675668647102362296e+00 5.329821644518716539e+02
1.675768669107203568e+00 5.331012893862225610e+02
1.675868691112044617e+00 5.332205462392507798e+02
1.675968713116885667e+00 5.333399333621455298e+02
1.676068735121726494e+00 5.334594491035209103e+02
1.676168757126567765e+00 5.335790918094588733e+02
1.676268779131408815e+00 5.336988598235523114e+02
1.676368801136249864e+00 5.338187514869508732e+02
1.676468823141090914e+00 5.339387651384034825e+02
1.676568845145931963e+00 5.340588991143013118e+02
1.676668867150773234e+00 5.341791517487237115e+02
1.676768889155614062e+00 5.342995213734794788e+02
1.676868911160455111e+00 5.344200063181534688e+02
1.676968933165296161e+00 5.345406049101485451e+02
1.677068955170137432e+00 5.346613154747301451e+02
1.677168977174978481e+00 5.347821363350699357e+02
1.677268999179819531e+00 5.349030658122908335e+02
1.677369021184660580e+00 5.350241022255104326e+02
1.677469043189501408e+00 5.351452438918847747e+02
1.677569065194342457e+00 5.352664891266522318e+02
1.677669087199183728e+00 5.353878362431779578e+02
1.677769109204024778e+00 5.355092835529989088e+02
1.677869131208865827e+00 5.356308293658667026e+02
1.677969153213707099e+00 5.357524719897912746e+02
1.678069175218548148e+00 5.358742097310879444e+02
1.678169197223388975e+00 5.359960408944173196e+02
1.678269219228230025e+00 5.361179637828327031e+02
1.678369241233071074e+00 5.362399766978232947e+02
1.678469263237912124e+00 5.363620779393593239e+02
1.678569285242753395e+00 5.364842658059336600e+02
1.678669307247594444e+00 5.366065385946089918e+02
1.678769329252435494e+00 5.367288946010601194e+02
1.678869351257276321e+00 5.368513321196185188e+02
1.678969373262117593e+00 5.369738494433183860e+02
1.679069395266958642e+00 5.370964448639372222e+02
1.679169417271799691e+00 5.372191166720439242e+02
1.679269439276640741e+00 5.373418631570405068e+02
1.679369461281481790e+00 5.374646826072071235e+02
1.679469483286323062e+00 5.375875733097465172e+02
1.679569505291163889e+00 5.377105335508275630e+02
1.679669527296004938e+00 5.378335616156307424e+02
1.679769549300845988e+00 5.379566557883902078e+02
1.679869571305687259e+00 5.380798143524398256e+02
1.679969593310528309e+00 5.382030355902571728e+02
1.680069615315369358e+00 5.383263177835066244e+02
1.680169637320210407e+00 5.384496592130842600e+02
1.680269659325051235e+00 5.385730581591629971e+02
1.680369681329892284e+00 5.386965129012336320e+02
1.680469703334733556e+00 5.388200217181517928e+02
1.680569725339574605e+00 5.389435828881822772e+02
1.680669747344415654e+00 5.390671946890399795e+02
1.680769769349256926e+00 5.391908553979375256e+02
1.680869791354097975e+00 5.393145632916257455e+02
1.680969813358938802e+00 5.394383166464423311e+02
1.681069835363779852e+00 5.395621137383503765e+02
1.681169857368620901e+00 5.396859528429864667e+02
1.681269879373461951e+00 5.398098322357020606e+02
1.681369901378303222e+00 5.399337501916094197e+02
1.681469923383144272e+00 5.400577049856243548e+02
1.681569945387985321e+00 5.401816948925085171e+02
1.681669967392826148e+00 5.403057181869168062e+02
1.681769989397667420e+00 5.404297731434373873e+02
1.681870011402508469e+00 5.405538580366381893e+02
1.681970033407349518e+00 5.406779711411093103e+02
1.682070055412190568e+00 5.408021107315059908e+02
1.682170077417031617e+00 5.409262750825935200e+02
1.682270099421872889e+00 5.410504624692895277e+02
1.682370121426713716e+00 5.411746711667091176e+02
1.682470143431554765e+00 5.412988994502070454e+02
1.682570165436395815e+00 5.414231455954216017e+02
1.682670187441237086e+00 5.415474078783172445e+02
1.682770209446078136e+00 5.416716845752288236e+02
1.682870231450919185e+00 5.417959739629046680e+02
1.682970253455760012e+00 5.419202743185495592e+02
1.683070275460601062e+00 5.420445839198678186e+02
1.683170297465442111e+00 5.421689010451067361e+02
1.683270319470283383e+00 5.422932239730988613e+02
1.683370341475124432e+00 5.424175509833073647e+02
1.683470363479965481e+00 5.425418803558641230e+02
1.683570385484806753e+00 5.426662103716184902e+02
1.683670407489647580e+00 5.427905393121765201e+02
1.683770429494488630e+00 5.429148654599434849e+02
1.683870451499329679e+00 5.430391870981688953e+02
1.683970473504170728e+00 5.431635025109869730e+02
1.684070495509011778e+00 5.432878099834604200e+02
1.684170517513853049e+00 5.434121078016227102e+02
1.684270539518694099e+00 5.435363942525193579e+02
1.684370561523534926e+00 5.436606676242530511e+02
1.684470583528375975e+00 5.437849262060225328e+02
1.684570605533217247e+00 5.439091682881673933e+02
1.684670627538058296e+00 5.440333921622094522e+02
1.684770649542899346e+00 5.441575961208933450e+02
1.684870671547740395e+00 5.442817784582318836e+02
1.684970693552581444e+00 5.444059374695436873e+02
1.685070715557422272e+00 5.445300714515002483e+02
1.685170737562263543e+00 5.446541787021614027e+02
1.685270759567104593e+00 5.447782575210230789e+02
1.685370781571945642e+00 5.449023062090547000e+02
1.685470803576786913e+00 5.450263230687424993e+02
1.685570825581627963e+00 5.451503064041318112e+02
1.685670847586469012e+00 5.452742545208653837e+02
1.685770869591309840e+00 5.453981657262279441e+02
1.685870891596150889e+00 5.455220383291855342e+02
1.685970913600991938e+00 5.456458706404271197e+02
1.686070935605833210e+00 5.457696609724060863e+02
1.686170957610674259e+00 5.458934076393795749e+02
1.686270979615515309e+00 5.460171089574512280e+02
1.686371001620356580e+00 5.461407632446112075e+02
1.686471023625197407e+00 5.462643688207757577e+02
1.686571045630038457e+00 5.463879240078302928e+02
1.686671067634879506e+00 5.465114271296657762e+02
1.686771089639720556e+00 5.466348765122245368e+02
1.686871111644561605e+00 5.467582704835352843e+02
1.686971133649402876e+00 5.468816073737555143e+02
1.687071155654243926e+00 5.470048855152135729e+02
1.687171177659084753e+00 5.471281032424444675e+02
1.687271199663925803e+00 5.472512588922332952e+02
1.687371221668767074e+00 5.473743508036527601e+02
1.687471243673608123e+00 5.474973773181035313e+02
1.687571265678449173e+00 5.476203367793544885e+02
1.687671287683290222e+00 5.477432275335809209e+02
1.687771309688131272e+00 5.478660479294040897e+02
1.687871331692972099e+00 5.479887963179319286e+02
1.687971353697813370e+00 5.481114710527961051e+02
1.688071375702654420e+00 5.482340704901922663e+02
1.688171397707495469e+00 5.483565929889182371e+02
1.688271419712336741e+00 5.484790369104125602e+02
1.688371441717177790e+00 5.486014006187951964e+02
1.688471463722018839e+00 5.487236824809024256e+02
1.688571485726859667e+00 5.488458808663293667e+02
1.688671507731700716e+00 5.489679941474653333e+02
1.688771529736541765e+00 5.490900206995324879e+02
1.688871551741383037e+00 5.492119589006248361e+02
1.688971573746224086e+00 5.493338071317450613e+02
1.689071595751065136e+00 5.494555637768439738e+02
1.689171617755906407e+00 5.495772272228557540e+02
1.689271639760747235e+00 5.496987958597381976e+02
1.689371661765588284e+00 5.498202680805079581e+02
1.689471683770429333e+00 5.499416422812790870e+02
1.689571705775270383e+00 5.500629168612992999e+02
1.689671727780111432e+00 5.501840902229884023e+02
1.689771749784952704e+00 5.503051607719738740e+02
1.689871771789793753e+00 5.504261269171280446e+02
1.689971793794634580e+00 5.505469870706056099e+02
1.690071815799475630e+00 5.506677396478780793e+02
1.690171837804316901e+00 5.507883830677736796e+02
1.690271859809157950e+00 5.509089157525091878e+02
1.690371881813999000e+00 5.510293361277292661e+02
1.690471903818840049e+00 5.511496426225418190e+02
1.690571925823681099e+00 5.512698336695528951e+02
1.690671947828521926e+00 5.513899077049035213e+02
1.690771969833363197e+00 5.515098631683049462e+02
1.690871991838204247e+00 5.516296985030728592e+02
1.690972013843045296e+00 5.517494121561643396e+02
1.691072035847886568e+00 5.518690025782134398e+02
1.691172057852727617e+00 5.519884682235630180e+02
1.691272079857568666e+00 5.521078075503035052e+02
1.691372101862409494e+00 5.522270190203049651e+02
1.691472123867250543e+00 5.523461010992525644e+02
1.691572145872091593e+00 5.524650522566814743e+02
1.691672167876932864e+00 5.525838709660096129e+02
1.691772189881773913e+00 5.527025557045744790e+02
1.691872211886614963e+00 5.528211049536636210e+02
1.691972233891456234e+00 5.529395171985510160e+02
1.692072255896297062e+00 5.530577909285310625e+02
1.692172277901138111e+00 5.531759246369492757e+02
1.692272299905979160e+00 5.532939168212375307e+02
1.692372321910820210e+00 5.534117659829496461e+02
1.692472343915661259e+00 5.535294706277885552e+02
1.692572365920502531e+00 5.536470292656450738e+02
1.692672387925343580e+00 5.537644404106275715e+02
1.692772409930184407e+00 5.538817025810942596e+02
1.692872431935025457e+00 5.539988142996890019e+02
1.692972453939866728e+00 5.541157740933683726e+02
1.693072475944707778e+00 5.542325804934379221e+02
1.693172497949548827e+00 5.543492320355826450e+02
1.693272519954389876e+00 5.544657272598992677e+02
1.693372541959230926e+00 5.545820647109262609e+02
1.693472563964071753e+00 5.546982429376780601e+02
1.693572585968913025e+00 5.548142604936748512e+02
1.693672607973754074e+00 5.549301159369728111e+02
1.693772629978595123e+00 5.550458078301953719e+02
1.693872651983436395e+00 5.551613347405661898e+02
1.693972673988277444e+00 5.552766952399388174e+02
1.694072695993118494e+00 5.553918879048247845e+02
1.694172717997959321e+00 5.555069113164263399e+02
1.694272740002800370e+00 5.556217640606671466e+02
1.694372762007641420e+00 5.557364447282188848e+02
1.694472784012482691e+00 5.558509519145355853e+02
1.694572806017323741e+00 5.559652842198798908e+02
1.694672828022164790e+00 5.560794402493537518e+02
1.694772850027006061e+00 5.561934186129271893e+02
1.694872872031846889e+00 5.563072179254681942e+02
1.694972894036687938e+00 5.564208368067716037e+02
1.695072916041528988e+00 5.565342738815859320e+02
1.695172938046370037e+00 5.566475277796457704e+02
1.695272960051211086e+00 5.567605971356956616e+02
1.695372982056052358e+00 5.568734805895227282e+02
1.695473004060893407e+00 5.569861767859807742e+02
1.695573026065734235e+00 5.570986843750209800e+02
1.695673048070575284e+00 5.572110020117187332e+02
1.695773070075416555e+00 5.573231283563006855e+02
1.695873092080257605e+00 5.574350620741723787e+02
1.695973114085098654e+00 5.575468018359458711e+02
1.696073136089939704e+00 5.576583463174664530e+02
1.696173158094780753e+00 5.577696941998383409e+02
1.696273180099621580e+00 5.578808441694534395e+02
1.696373202104462852e+00 5.579917949180158985e+02
1.696473224109303901e+00 5.581025451425692836e+02
1.696573246114144951e+00 5.582130935455228382e+02
1.696673268118986222e+00 5.583234388346759260e+02
1.696773290123827271e+00 5.584335797232456571e+02
1.696873312128668321e+00 5.585435149298916713e+02
1.696973334133509148e+00 5.586532431787395581e+02
1.697073356138350197e+00 5.587627631994108697e+02
1.697173378143191247e+00 5.588720737270418795e+02
1.697273400148032518e+00 5.589811735023126857e+02
1.697373422152873568e+00 5.590900612714706313e+02
1.697473444157714617e+00 5.591987357863545185e+02
1.697573466162555889e+00 5.593071958044179155e+02
1.697673488167396716e+00 5.594154400887555312e+02
1.697773510172237765e+00 5.595234674081241337e+02
1.697873532177078815e+00 5.596312765369685849e+02
1.697973554181919864e+00 5.597388662554435541e+02
1.698073576186760913e+00 5.598462353494389845e+02
1.698173598191602185e+00 5.599533826105989647e+02
1.698273620196443234e+00 5.600603068363498096e+02
1.698373642201284062e+00 5.601670068299192735e+02
1.698473664206125111e+00 5.602734814003597421e+02
1.698573686210966383e+00 5.603797293625697193e+02
1.698673708215807432e+00 5.604857495373190659e+02
1.698773730220648481e+00 5.605915407512670754e+02
1.698873752225489531e+00 5.606971018369858939e+02
1.698973774230330580e+00 5.608024316329823478e+02
1.699073796235171407e+00 5.609075289837178389e+02
1.699173818240012679e+00 5.610123927396316503e+02
1.699273840244853728e+00 5.611170217571598187e+02
1.699373862249694778e+00 5.612214148987561657e+02
1.699473884254536049e+00 5.613255710329135582e+02
1.699573906259377098e+00 5.614294890341832343e+02
1.699673928264218148e+00 5.615331677831978823e+02
1.699773950269058975e+00 5.616366061666853966e+02
1.699873972273900025e+00 5.617398030774952531e+02
1.699973994278741074e+00 5.618427574146136294e+02
1.700074016283582345e+00 5.619454680831851192e+02
1.700174038288423395e+00 5.620479339945301263e+02
1.700274060293264444e+00 5.621501540661649869e+02
1.700374082298105272e+00 5.622521272218199329e+02
1.700474104302946543e+00 5.623538523914575080e+02
1.700574126307787592e+00 5.624553285112929188e+02
1.700674148312628642e+00 5.625565545238079039e+02
1.700774170317469691e+00 5.626575293777725619e+02
1.700874192322310741e+00 5.627582520282619498e+02
1.700974214327152012e+00 5.628587214366730223e+02
1.701074236331992839e+00 5.629589365707407751e+02
1.701174258336833889e+00 5.630588964045583680e+02
1.701274280341674938e+00 5.631585999185921310e+02
1.701374302346516210e+00 5.632580460996974807e+02
1.701474324351357259e+00 5.633572339411366556e+02
1.701574346356198308e+00 5.634561624425950868e+02
1.701674368361039358e+00 5.635548306101961771e+02
1.701774390365880185e+00 5.636532374565183545e+02
1.701874412370721235e+00 5.637513820006109881e+02
1.701974434375562506e+00 5.638492632680084853e+02
1.702074456380403555e+00 5.639468802907458667e+02
1.702174478385244605e+00 5.640442321073745688e+02
1.702274500390085876e+00 5.641413177629771099e+02
1.702374522394926926e+00 5.642381363091801632e+02
1.702474544399767753e+00 5.643346868041719517e+02
1.702574566404608802e+00 5.644309683127136168e+02
1.702674588409449852e+00 5.645269799061545655e+02
1.702774610414290901e+00 5.646227206624456585e+02
1.702874632419132173e+00 5.647181896661534211e+02
1.702974654423973222e+00 5.648133860084724347e+02
1.703074676428814271e+00 5.649083087872410260e+02
1.703174698433655099e+00 5.650029571069503618e+02
1.703274720438496370e+00 5.650973300787597964e+02
1.703374742443337420e+00 5.651914268205090366e+02
1.703474764448178469e+00 5.652852464567300785e+02
1.703574786453019518e+00 5.653787881186597133e+02
1.703674808457860568e+00 5.654720509442512366e+02
1.703774830462701839e+00 5.655650340781853629e+02
1.703874852467542667e+00 5.656577366718835265e+02
1.703974874472383716e+00 5.657501578835174314e+02
1.704074896477224765e+00 5.658422968780209885e+02
1.704174918482066037e+00 5.659341528271022526e+02
1.704274940486907086e+00 5.660257249092500160e+02
1.704374962491748136e+00 5.661170123097502938e+02
1.704474984496589185e+00 5.662080142206910978e+02
1.704575006501430012e+00 5.662987298409763071e+02
1.704675028506271062e+00 5.663891583763329436e+02
1.704775050511112333e+00 5.664792990393218588e+02
1.704875072515953383e+00 5.665691510493479655e+02
1.704975094520794432e+00 5.666587136326681957e+02
1.705075116525635703e+00 5.667479860224002550e+02
1.705175138530476753e+00 5.668369674585323992e+02
1.705275160535317580e+00 5.669256571879321882e+02
1.705375182540158630e+00 5.670140544643525118e+02
1.705475204544999679e+00 5.671021585484440948e+02
1.705575226549840728e+00 5.671899687077595900e+02
1.705675248554682000e+00 5.672774842167618772e+02
1.705775270559523049e+00 5.673647043568331583e+02
1.705875292564364099e+00 5.674516284162816646e+02
1.705975314569204926e+00 5.675382556903480236e+02
1.706075336574046197e+00 5.676245854812132166e+02
1.706175358578887247e+00 5.677106170980041497e+02
1.706275380583728296e+00 5.677963498568005889e+02
1.706375402588569345e+00 5.678817830806432312e+02
1.706475424593410395e+00 5.679669160995363200e+02
1.706575446598251666e+00 5.680517482504558302e+02
1.706675468603092494e+00 5.681362788773553802e+02
1.706775490607933543e+00 5.682205073311699834e+02
1.706875512612774592e+00 5.683044329698226420e+02
1.706975534617615864e+00 5.683880551582294629e+02
1.707075556622456913e+00 5.684713732683032958e+02
1.707175578627297963e+00 5.685543866789598724e+02
1.707275600632139012e+00 5.686370947761197385e+02
1.707375622636979839e+00 5.687194969527165540e+02
1.707475644641820889e+00 5.688015926086970921e+02
1.707575666646662160e+00 5.688833811510269243e+02
1.707675688651503210e+00 5.689648619936936029e+02
1.707775710656344259e+00 5.690460345577112093e+02
1.707875732661185531e+00 5.691268982711204671e+02
1.707975754666026580e+00 5.692074525689961320e+02
1.708075776670867407e+00 5.692876968934450588e+02
1.708175798675708457e+00 5.693676306936126821e+02
1.708275820680549506e+00 5.694472534256829022e+02
1.708375842685390555e+00 5.695265645528819505e+02
1.708475864690231827e+00 5.696055635454786170e+02
1.708575886695072876e+00 5.696842498807867514e+02
1.708675908699913926e+00 5.697626230431674230e+02
1.708775930704754753e+00 5.698406825240293756e+02
1.708875952709596024e+00 5.699184278218311874e+02
1.708975974714437074e+00 5.699958584420805892e+02
1.709075996719278123e+00 5.700729738973371923e+02
1.709176018724119173e+00 5.701497737072101017e+02
1.709276040728960222e+00 5.702262573983617813e+02
1.709376062733801493e+00 5.703024245045064617e+02
1.709476084738642321e+00 5.703782745664083222e+02
1.709576106743483370e+00 5.704538071318849006e+02
1.709676128748324420e+00 5.705290217558037966e+02
1.709776150753165691e+00 5.706039180000826718e+02
1.709876172758006740e+00 5.706784954336887949e+02
1.709976194762847790e+00 5.707527536326377913e+02
1.710076216767688839e+00 5.708266921799909142e+02
1.710176238772529667e+00 5.709003106658575462e+02
1.710276260777370716e+00 5.709736086873882641e+02
1.710376282782211987e+00 5.710465858487764308e+02
1.710476304787053037e+00 5.711192417612560348e+02
1.710576326791894086e+00 5.711915760430971432e+02
1.710676348796735358e+00 5.712635883196061286e+02
1.710776370801576407e+00 5.713352782231204401e+02
1.710876392806417234e+00 5.714066453930078069e+02
1.710976414811258284e+00 5.714776894756630554e+02
1.711076436816099333e+00 5.715484101245025386e+02
1.711176458820940383e+00 5.716188069999636809e+02
1.711276480825781654e+00 5.716888797694986124e+02
1.711376502830622703e+00 5.717586281075729175e+02
1.711476524835463753e+00 5.718280516956592692e+02
1.711576546840304580e+00 5.718971502222350409e+02
1.711676568845145852e+00 5.719659233827766229e+02
1.711776590849986901e+00 5.720343708797545332e+02
1.711876612854827950e+00 5.721024924226310304e+02
1.711976634859669000e+00 5.721702877278517008e+02
1.712076656864510049e+00 5.722377565188426161e+02
1.712176678869351321e+00 5.723048985260033987e+02
1.712276700874192148e+00 5.723717134867039249e+02
1.712376722879033197e+00 5.724382011452761390e+02
1.712476744883874247e+00 5.725043612530085966e+02
1.712576766888715518e+00 5.725701935681413488e+02
1.712676788893556568e+00 5.726356978558586661e+02
1.712776810898397617e+00 5.727008738882833541e+02
1.712876832903238666e+00 5.727657214444684541e+02
1.712976854908079494e+00 5.728302403103928100e+02
1.713076876912920543e+00 5.728944302789507219e+02
1.713176898917761815e+00 5.729582911499481952e+02
1.713276920922602864e+00 5.730218227300917988e+02
1.713376942927443913e+00 5.730850248329850274e+02
1.713476964932285185e+00 5.731478972791169326e+02
1.713576986937126234e+00 5.732104398958554157e+02
1.713677008941967062e+00 5.732726525174402923e+02
1.713777030946808111e+00 5.733345349849729473e+02
1.713877052951649160e+00 5.733960871464087177e+02
1.713977074956490210e+00 5.734573088565476837e+02
1.714077096961331481e+00 5.735181999770264838e+02
1.714177118966172531e+00 5.735787603763084235e+02
1.714277140971013580e+00 5.736389899296736985e+02
1.714377162975854407e+00 5.736988885192124599e+02
1.714477184980695679e+00 5.737584560338123083e+02
1.714577206985536728e+00 5.738176923691495404e+02
1.714677228990377778e+00 5.738765974276791439e+02
1.714777250995218827e+00 5.739351711186246803e+02
1.714877273000059876e+00 5.739934133579674835e+02
1.714977295004901148e+00 5.740513240684372249e+02
1.715077317009741975e+00 5.741089031794994071e+02
1.715177339014583024e+00 5.741661506273464965e+02
1.715277361019424074e+00 5.742230663548854181e+02
1.715377383024265345e+00 5.742796503117260727e+02
1.715477405029106395e+00 5.743359024541717872e+02
1.715577427033947444e+00 5.743918227452048768e+02
1.715677449038788493e+00 5.744474111544784591e+02
1.715777471043629321e+00 5.745026676583011067e+02
1.715877493048470370e+00 5.745575922396266151e+02
1.715977515053311642e+00 5.746121848880416110e+02
1.716077537058152691e+00 5.746664455997525920e+02
1.716177559062993740e+00 5.747203743775738758e+02
1.716277581067835012e+00 5.747739712309133893e+02
1.716377603072676061e+00 5.748272361757619819e+02
1.716477625077516889e+00 5.748801692346794425e+02
1.716577647082357938e+00 5.749327704367792649e+02
1.716677669087198987e+00 5.749850398177183024e+02
1.716777691092040037e+00 5.750369774196819890e+02
1.716877713096881308e+00 5.750885832913688773e+02
1.716977735101722358e+00 5.751398574879793841e+02
1.717077757106563407e+00 5.751908000712001012e+02
1.717177779111404234e+00 5.752414111091890163e+02
1.717277801116245506e+00 5.752916906765640306e+02
1.717377823121086555e+00 5.753416388543838593e+02
1.717477845125927605e+00 5.753912557301381412e+02
1.717577867130768654e+00 5.754405413977287935e+02
1.717677889135609703e+00 5.754894959574565974e+02
1.717777911140450531e+00 5.755381195160049401e+02
1.717877933145291802e+00 5.755864121864269691e+02
1.717977955150132852e+00 5.756343740881270605e+02
1.718077977154973901e+00 5.756820053468469496e+02
1.718177999159815172e+00 5.757293060946493597e+02
1.718278021164656222e+00 5.757762764699012905e+02
1.718378043169497271e+00 5.758229166172598070e+02
1.718478065174338099e+00 5.758692266876538497e+02
1.718578087179179148e+00 5.759152068382690004e+02
1.718678109184020197e+00 5.759608572325288378e+02
1.718778131188861469e+00 5.760061780400828866e+02
1.718878153193702518e+00 5.760511694367836526e+02
1.718978175198543568e+00 5.760958316046738901e+02
1.719078197203384839e+00 5.761401647319680706e+02
1.719178219208225666e+00 5.761841690130355573e+02
1.719278241213066716e+00 5.762278446483810512e+02
1.719378263217907765e+00 5.762711918446300388e+02
1.719478285222748815e+00 5.763142108145095790e+02
1.719578307227589864e+00 5.763569017768293179e+02
1.719678329232431135e+00 5.763992649564654585e+02
1.719778351237272185e+00 5.764413005843413202e+02
1.719878373242113012e+00 5.764830088974098317e+02
1.719978395246954062e+00 5.765243901386339758e+02
1.720078417251795333e+00 5.765654445569687141e+02
1.720178439256636382e+00 5.766061724073427968e+02
1.720278461261477432e+00 5.766465739506393220e+02
1.720378483266318481e+00 5.766866494536768641e+02
1.720478505271159531e+00 5.767263991891894648e+02
1.720578527276000358e+00 5.767658234358092386e+02
1.720678549280841629e+00 5.768049224780460236e+02
1.720778571285682679e+00 5.768436966062658939e+02
1.720878593290523728e+00 5.768821461166751305e+02
1.720978615295365000e+00 5.769202713112978245e+02
1.721078637300206049e+00 5.769580724979566639e+02
1.721178659305047098e+00 5.769955499902526981e+02
1.721278681309887926e+00 5.770327041075457828e+02
1.721378703314728975e+00 5.770695351749327529e+02
1.721478725319570025e+00 5.771060435232292321e+02
1.721578747324411296e+00 5.771422294889468958e+02
1.721678769329252345e+00 5.771780934142744854e+02
1.721778791334093395e+00 5.772136356470548435e+02
1.721878813338934666e+00 5.772488565407659280e+02
1.721978835343775494e+00 5.772837564544990983e+02
1.722078857348616543e+00 5.773183357529389923e+02
1.722178879353457592e+00 5.773525948063388569e+02
1.722278901358298642e+00 5.773865339905026985e+02
1.722378923363139691e+00 5.774201536867630011e+02
1.722478945367980963e+00 5.774534542819565104e+02
1.722578967372822012e+00 5.774864361684062715e+02
1.722678989377662839e+00 5.775190997438969589e+02
1.722779011382503889e+00 5.775514454116535035e+02
1.722879033387345160e+00 5.775834735803194917e+02
1.722979055392186210e+00 5.776151846639347696e+02
1.723079077397027259e+00 5.776465790819130461e+02
1.723179099401868308e+00 5.776776572590183605e+02
1.723279121406709358e+00 5.777084196253434811e+02
1.723379143411550185e+00 5.777388666162893287e+02
1.723479165416391456e+00 5.777689986725370090e+02
1.723579187421232506e+00 5.777988162400293959e+02
1.723679209426073555e+00 5.778283197699465745e+02
1.723779231430914827e+00 5.778575097186826497e+02
1.723879253435755876e+00 5.778863865478228945e+02
1.723979275440596926e+00 5.779149507241197625e+02
1.724079297445437753e+00 5.779432027194691273e+02
1.724179319450278802e+00 5.779711430108891363e+02
1.724279341455119852e+00 5.779987720804940636e+02
1.724379363459961123e+00 5.780260904154711170e+02
1.724479385464802172e+00 5.780530985080575874e+02
1.724579407469643222e+00 5.780797968555150419e+02
1.724679429474484493e+00 5.781061859601081778e+02
1.724779451479325321e+00 5.781322663290771970e+02
1.724879473484166370e+00 5.781580384746173422e+02
1.724979495489007419e+00 5.781835029138507025e+02
1.725079517493848469e+00 5.782086601688056362e+02
1.725179539498689518e+00 5.782335107663882354e+02
1.725279561503530790e+00 5.782580552383618624e+02
1.725379583508371839e+00 5.782822941213186141e+02
1.725479605513212666e+00 5.783062279566584039e+02
1.725579627518053716e+00 5.783298572905605397e+02
1.725679649522894987e+00 5.783531826739609869e+02
1.725779671527736037e+00 5.783762046625261064e+02
1.725879693532577086e+00 5.783989238166293489e+02
1.725979715537418135e+00 5.784213407013228334e+02
1.726079737542259185e+00 5.784434558863160873e+02
1.726179759547100012e+00 5.784652699459473979e+02
1.726279781551941284e+00 5.784867834591600513e+02
1.726379803556782333e+00 5.785079970094756163e+02
1.726479825561623382e+00 5.785289111849702977e+02
1.726579847566464654e+00 5.785495265782460592e+02
1.726679869571305703e+00 5.785698437864091375e+02
1.726779891576146753e+00 5.785898634110390049e+02
1.726879913580987580e+00 5.786095860581691568e+02
1.726979935585828629e+00 5.786290123382526644e+02
1.727079957590669679e+00 5.786481428661437576e+02
1.727179979595510950e+00 5.786669782610684933e+02
1.727280001600352000e+00 5.786855191465963344e+02
1.727380023605193049e+00 5.787037661506182076e+02
1.727480045610034320e+00 5.787217199053181957e+02
1.727580067614875148e+00 5.787393810471455708e+02
1.727680089619716197e+00 5.787567502167908060e+02
1.727780111624557247e+00 5.787738280591563580e+02
1.727880133629398296e+00 5.787906152233347257e+02
1.727980155634239345e+00 5.788071123625753671e+02
1.728080177639080617e+00 5.788233201342632128e+02
1.728180199643921666e+00 5.788392391998885387e+02
1.728280221648762494e+00 5.788548702250222959e+02
1.728380243653603543e+00 5.788702138792888263e+02
1.728480265658444814e+00 5.788852708363365309e+02
1.728580287663285864e+00 5.789000417738136548e+02
1.728680309668126913e+00 5.789145273733402064e+02
1.728780331672967963e+00 5.789287283204795358e+02
1.728880353677809012e+00 5.789426453047141194e+02
1.728980375682649839e+00 5.789562790194146373e+02
1.729080397687491111e+00 5.789696301618150756e+02
1.729180419692332160e+00 5.789826994329845320e+02
1.729280441697173210e+00 5.789954875377998178e+02
1.729380463702014481e+00 5.790079951849185136e+02
1.729480485706855530e+00 5.790202230867499793e+02
1.729580507711696580e+00 5.790321719594285241e+02
1.729680529716537407e+00 5.790438425227874859e+02
1.729780551721378457e+00 5.790552355003285356e+02
1.729880573726219506e+00 5.790663516191953022e+02
1.729980595731060777e+00 5.790771916101468832e+02
1.730080617735901827e+00 5.790877562075272635e+02
1.730180639740742876e+00 5.790980461492403037e+02
1.730280661745584148e+00 5.791080621767193861e+02
1.730380683750424975e+00 5.791178050349012665e+02
1.730480705755266024e+00 5.791272754721970841e+02
1.730580727760107074e+00 5.791364742404643948e+02
1.730680749764948123e+00 5.791454020949799997e+02
1.730780771769789173e+00 5.791540597944101592e+02
1.730880793774630444e+00 5.791624481007843315e+02
1.730980815779471493e+00 5.791705677794653866e+02
1.731080837784312321e+00 5.791784195991224351e+02
1.731180859789153370e+00 5.791860043317025202e+02
1.731280881793994642e+00 5.791933227524019685e+02
1.731380903798835691e+00 5.792003756396370591e+02
1.731480925803676740e+00 5.792071637750184436e+02
1.731580947808517790e+00 5.792136879433201102e+02
1.731680969813358839e+00 5.792199489324517572e+02
1.731780991818199666e+00 5.792259475334323042e+02
1.731881013823040938e+00 5.792316845403572643e+02
1.731981035827881987e+00 5.792371607503746418e+02
1.732081057832723037e+00 5.792423769636536690e+02
1.732181079837564308e+00 5.792473339833570662e+02
1.732281101842405358e+00 5.792520326156130750e+02
1.732381123847246407e+00 5.792564736694858993e+02
1.732481145852087234e+00 5.792606579569480800e+02
1.732581167856928284e+00 5.792645862928510496e+02
1.732681189861769333e+00 5.792682594948964834e+02
1.732781211866610604e+00 5.792716783836091281e+02
1.732881233871451654e+00 5.792748437823058794e+02
1.732981255876292703e+00 5.792777565170686103e+02
1.733081277881133975e+00 5.792804174167158635e+02
1.733181299885974802e+00 5.792828273127720422e+02
1.733281321890815851e+00 5.792849870394413756e+02
1.733381343895656901e+00 5.792868974335765415e+02
1.733481365900497950e+00 5.792885593346525184e+02
1.733581387905339000e+00 5.792899735847361171e+02
1.733681409910180271e+00 5.792911410284571048e+02
1.733781431915021320e+00 5.792920625129813743e+02
1.733881453919862148e+00 5.792927388879788850e+02
1.733981475924703197e+00 5.792931710055987651e+02
1.734081497929544469e+00 5.792933597204373655e+02
1.734181519934385518e+00 5.792933058895098384e+02
1.734281541939226567e+00 5.792930103722250124e+02
1.734381563944067617e+00 5.792924740303512863e+02
1.734481585948908666e+00 5.792916977279905950e+02
1.734581607953749494e+00 5.792906823315504425e+02
1.734681629958590765e+00 5.792894287097135475e+02
1.734781651963431814e+00 5.792879377334087394e+02
1.734881673968272864e+00 5.792862102757836738e+02
1.734981695973114135e+00 5.792842472121750461e+02
1.735081717977955185e+00 5.792820494200805115e+02
1.735181739982796012e+00 5.792796177791285572e+02
1.735281761987637061e+00 5.792769531710515594e+02
1.735381783992478111e+00 5.792740564796565650e+02
1.735481805997319160e+00 5.792709285907942558e+02
1.735581828002160432e+00 5.792675703923325727e+02
1.735681850007001481e+00 5.792639827741289764e+02
1.735781872011842530e+00 5.792601666279988422e+02
1.735881894016683358e+00 5.792561228476882889e+02
1.735981916021524629e+00 5.792518523288451888e+02
1.736081938026365679e+00 5.792473559689909735e+02
1.736181960031206728e+00 5.792426346674913020e+02
1.736281982036047777e+00 5.792376893255280947e+02
1.736382004040888827e+00 5.792325208460696331e+02
1.736482026045730098e+00 5.792271301338433886e+02
1.736582048050570926e+00 5.792215180953069193e+02
1.736682070055411975e+00 5.792156856386183108e+02
1.736782092060253024e+00 5.792096336736099147e+02
1.736882114065094296e+00 5.792033631117574259e+02
1.736982136069935345e+00 5.791968748661524842e+02
1.737082158074776395e+00 5.791901698514741383e+02
1.737182180079617444e+00 5.791832489839599702e+02
1.737282202084458271e+00 5.791761131813785823e+02
1.737382224089299321e+00 5.791687633629994707e+02
1.737482246094140592e+00 5.791612004495667634e+02
1.737582268098981642e+00 5.791534253632692071e+02
1.737682290103822691e+00 5.791454390277125412e+02
1.737782312108663962e+00 5.791372423678913037e+02
1.737882334113505012e+00 5.791288363101596133e+02
1.737982356118345839e+00 5.791202217822041121e+02
1.738082378123186889e+00 5.791113997130150892e+02
1.738182400128027938e+00 5.791023710328591960e+02
1.738282422132868987e+00 5.790931366732488641e+02
1.738382444137710259e+00 5.790836975669170670e+02
1.738482466142551308e+00 5.790740546477887847e+02
1.738582488147392358e+00 5.790642088509498535e+02
1.738682510152233185e+00 5.790541611126236603e+02
1.738782532157074456e+00 5.790439123701394237e+02
1.738882554161915506e+00 5.790334635619063874e+02
1.738982576166756555e+00 5.790228156273846025e+02
1.739082598171597605e+00 5.790119695070583248e+02
1.739182620176438654e+00 5.790009261424075930e+02
1.739282642181279925e+00 5.789896864758788979e+02
1.739382664186120753e+00 5.789782514508613076e+02
1.739482686190961802e+00 5.789666220116550903e+02
1.739582708195802851e+00 5.789547991034455663e+02
1.739682730200644123e+00 5.789427836722752545e+02
1.739782752205485172e+00 5.789305766650165879e+02
1.739882774210326222e+00 5.789181790293449694e+02
1.739982796215167271e+00 5.789055917137096685e+02
1.740082818220008098e+00 5.788928156673074454e+02
1.740182840224849148e+00 5.788798518400557214e+02
1.740282862229690419e+00 5.788667011825641566e+02
1.740382884234531469e+00 5.788533646461085027e+02
1.740482906239372518e+00 5.788398431826021806e+02
1.740582928244213790e+00 5.788261377445702465e+02
1.740682950249054839e+00 5.788122492851214247e+02
1.740782972253895666e+00 5.787981787579213915e+02
1.740882994258736716e+00 5.787839271171661721e+02
1.740983016263577765e+00 5.787694953175554247e+02
1.741083038268418814e+00 5.787548843142635633e+02
1.741183060273260086e+00 5.787400950629150884e+02
1.741283082278101135e+00 5.787251285195579840e+02
1.741383104282942185e+00 5.787099856406346134e+02
1.741483126287783012e+00 5.786946673829577321e+02
1.741583148292624283e+00 5.786791747036826337e+02
1.741683170297465333e+00 5.786635085602803201e+02
1.741783192302306382e+00 5.786476699105116950e+02
1.741883214307147432e+00 5.786316597124015289e+02
1.741983236311988481e+00 5.786154789242100378e+02
1.742083258316829752e+00 5.785991285044104870e+02
1.742183280321670580e+00 5.785826094116583818e+02
1.742283302326511629e+00 5.785659226047685024e+02
1.742383324331352679e+00 5.785490690426885294e+02
1.742483346336193950e+00 5.785320496844717582e+02
1.742583368341034999e+00 5.785148654892510649e+02
1.742683390345876049e+00 5.784975174162152598e+02
1.742783412350717098e+00 5.784800064245797557e+02
1.742883434355557926e+00 5.784623334735657636e+02
1.742983456360398975e+00 5.784444995223693695e+02
1.743083478365240246e+00 5.784265055301389111e+02
1.743183500370081296e+00 5.784083524559493981e+02
1.743283522374922345e+00 5.783900412587747724e+02
1.743383544379763617e+00 5.783715728974669901e+02
1.743483566384604666e+00 5.783529483307261216e+02
1.743583588389445493e+00 5.783341685170769324e+02
1.743683610394286543e+00 5.783152344148444399e+02
1.743783632399127592e+00 5.782961469821281071e+02
1.743883654403968642e+00 5.782769071767763762e+02
1.743983676408809913e+00 5.782575159563632496e+02
1.744083698413650962e+00 5.782379742781608911e+02
1.744183720418492012e+00 5.782182830991185938e+02
1.744283742423332839e+00 5.781984433758331079e+02
1.744383764428174111e+00 5.781784560645303372e+02
1.744483786433015160e+00 5.781583221210336205e+02
1.744583808437856209e+00 5.781380425007453141e+02
1.744683830442697259e+00 5.781176181586197345e+02
1.744783852447538308e+00 5.780970500491387156e+02
1.744883874452379580e+00 5.780763391262878486e+02
1.744983896457220407e+00 5.780554863435330617e+02
1.745083918462061456e+00 5.780344926537954962e+02
1.745183940466902506e+00 5.780133590094278588e+02
1.745283962471743777e+00 5.779920863621914577e+02
1.745383984476584827e+00 5.779706756632297129e+02
1.745484006481425876e+00 5.779491278630489433e+02
1.745584028486266925e+00 5.779274439114906272e+02
1.745684050491107753e+00 5.779056247577093473e+02
1.745784072495948802e+00 5.778836713501500526e+02
1.745884094500790074e+00 5.778615846365237303e+02
1.745984116505631123e+00 5.778393655637855773e+02
1.746084138510472172e+00 5.778170150781096481e+02
1.746184160515313444e+00 5.777945341248669138e+02
1.746284182520154493e+00 5.777719236486027512e+02
1.746384204524995321e+00 5.777491845930136378e+02
1.746484226529836370e+00 5.777263179009235046e+02
1.746584248534677419e+00 5.777033245142634996e+02
1.746684270539518469e+00 5.776802053740458405e+02
1.746784292544359740e+00 5.776569614203443734e+02
1.746884314549200790e+00 5.776335935922703584e+02
1.746984336554041839e+00 5.776101028279500724e+02
1.747084358558882666e+00 5.775864900645051421e+02
1.747184380563723938e+00 5.775627562380267364e+02
1.747284402568564987e+00 5.775389022835555579e+02
1.747384424573406037e+00 5.775149291350601288e+02
1.747484446578247086e+00 5.774908377254131437e+02
1.747584468583088135e+00 5.774666289863727116e+02
1.747684490587929407e+00 5.774423038485574580e+02
1.747784512592770234e+00 5.774178632414273125e+02
1.747884534597611284e+00 5.773933080932604298e+02
1.747984556602452333e+00 5.773686393311334086e+02
1.748084578607293604e+00 5.773438578808987813e+02
1.748184600612134654e+00 5.773189646671637547e+02
1.748284622616975703e+00 5.772939606132699737e+02
1.748384644621816753e+00 5.772688466412738535e+02
1.748484666626657580e+00 5.772436236719208864e+02
1.748584688631498629e+00 5.772182926246314310e+02
1.748684710636339901e+00 5.771928544174749049e+02
1.748784732641180950e+00 5.771673099671512546e+02
1.748884754646021999e+00 5.771416601889700360e+02
1.748984776650863271e+00 5.771159059968324527e+02
1.749084798655704320e+00 5.770900483032066859e+02
1.749184820660545148e+00 5.770640880191107271e+02
1.749284842665386197e+00 5.770380260540925974e+02
1.749384864670227246e+00 5.770118633162085189e+02
1.749484886675068296e+00 5.769856007120048389e+02
1.749584908679909567e+00 5.769592391464984757e+02
1.749684930684750617e+00 5.769327795231540676e+02
1.749784952689591666e+00 5.769062227438694208e+02
1.749884974694432493e+00 5.768795697089526584e+02
1.749984996699273765e+00 5.768528213171036896e+02
1.750085018704114814e+00 5.768259784653953375e+02
1.750185040708955864e+00 5.767990420492550356e+02
1.750285062713796913e+00 5.767720129624431138e+02
1.750385084718637962e+00 5.767448920970382460e+02
1.750485106723479234e+00 5.767176803434151680e+02
1.750585128728320061e+00 5.766903785902277377e+02
1.750685150733161111e+00 5.766629877243890405e+02
1.750785172738002160e+00 5.766355086310542220e+02
1.750885194742843431e+00 5.766079421936030940e+02
1.750985216747684481e+00 5.765802892936192166e+02
1.751085238752525530e+00 5.765525508108742088e+02
1.751185260757366580e+00 5.765247276233085358e+02
1.751285282762207407e+00 5.764968206070151382e+02
1.751385304767048456e+00 5.764688306362189678e+02
1.751485326771889728e+00 5.764407585832625500e+02
1.751585348776730777e+00 5.764126053185858609e+02
1.751685370781571827e+00 5.763843717107113207e+02
1.751785392786413098e+00 5.763560586262238985e+02
1.751885414791254147e+00 5.763276669297572425e+02
1.751985436796094975e+00 5.762991974839723071e+02
1.752085458800936024e+00 5.762706511495455288e+02
1.752185480805777074e+00 5.762420287851469993e+02
1.752285502810618123e+00 5.762133312474273907e+02
1.752385524815459394e+00 5.761845593910009029e+02
1.752485546820300444e+00 5.761557140684254819e+02
1.752585568825141271e+00 5.761267961301913374e+02
1.752685590829982321e+00 5.760978064247018438e+02
1.752785612834823592e+00 5.760687457982572823e+02
1.752885634839664641e+00 5.760396150950405172e+02
1.752985656844505691e+00 5.760104151570984641e+02
1.753085678849346740e+00 5.759811468243306081e+02
1.753185700854187790e+00 5.759518109344686536e+02
1.753285722859028617e+00 5.759224083230629958e+02
1.753385744863869888e+00 5.758929398234686232e+02
1.753485766868710938e+00 5.758634062668282922e+02
1.753585788873551987e+00 5.758338084820576341e+02
1.753685810878393259e+00 5.758041472958295799e+02
1.753785832883234308e+00 5.757744235325601494e+02
1.753885854888075357e+00 5.757446380143941269e+02
1.753985876892916185e+00 5.757147915611890312e+02
1.754085898897757234e+00 5.756848849905024963e+02
1.754185920902598284e+00 5.756549191175739679e+02
1.754285942907439555e+00 5.756248947553156086e+02
1.754385964912280604e+00 5.755948127142934254e+02
1.754485986917121654e+00 5.755646738027166975e+02
1.754586008921962925e+00 5.755344788264217186e+02
1.754686030926803753e+00 5.755042285888591778e+02
1.754786052931644802e+00 5.754739238910784707e+02
1.754886074936485851e+00 5.754435655317176952e+02
1.754986096941326901e+00 5.754131543069865984e+02
1.755086118946167950e+00 5.753826910106544119e+02
1.755186140951009222e+00 5.753521764340371192e+02
1.755286162955850271e+00 5.753216113659859730e+02
1.755386184960691098e+00 5.752909965928689644e+02
1.755486206965532148e+00 5.752603328985638882e+02
1.755586228970373419e+00 5.752296210644428811e+02
1.755686250975214469e+00 5.751988618693593480e+02
1.755786272980055518e+00 5.751680560896367069e+02
1.755886294984896567e+00 5.751372044990549739e+02
1.755986316989737617e+00 5.751063078688398491e+02
1.756086338994578444e+00 5.750753669676493018e+02
1.756186360999419716e+00 5.750443825615608375e+02
1.756286383004260765e+00 5.750133554140624028e+02
1.756386405009101814e+00 5.749822862860369241e+02
1.756486427013943086e+00 5.749511759357545770e+02
1.756586449018784135e+00 5.749200251188575521e+02
1.756686471023625185e+00 5.748888345883511874e+02
1.756786493028466012e+00 5.748576050945914631e+02
1.756886515033307061e+00 5.748263373852740870e+02
1.756986537038148111e+00 5.747950322054239223e+02
1.757086559042989382e+00 5.747636902973835049e+02
1.757186581047830432e+00 5.747323124008004243e+02
1.757286603052671481e+00 5.747008992526220936e+02
1.757386625057512752e+00 5.746694515870785835e+02
1.757486647062353580e+00 5.746379701356765963e+02
1.757586669067194629e+00 5.746064556271877564e+02
1.757686691072035678e+00 5.745749087876379235e+02
1.757786713076876728e+00 5.745433303402986667e+02
1.757886735081717777e+00 5.745117210056744170e+02
1.757986757086559049e+00 5.744800815014951922e+02
1.758086779091400098e+00 5.744484125427085246e+02
1.758186801096240925e+00 5.744167148414636586e+02
1.758286823101081975e+00 5.743849891071080265e+02
1.758386845105923246e+00 5.743532360461761073e+02
1.758486867110764296e+00 5.743214563623785125e+02
1.758586889115605345e+00 5.742896507565967568e+02
1.758686911120446394e+00 5.742578199268688195e+02
1.758786933125287444e+00 5.742259645683848248e+02
1.758886955130128271e+00 5.741940853734773782e+02
1.758986977134969543e+00 5.741621830316107662e+02
1.759086999139810592e+00 5.741302582293759542e+02
1.759187021144651641e+00 5.740983116504780810e+02
1.759287043149492913e+00 5.740663439757327069e+02
1.759387065154333962e+00 5.740343558830534221e+02
1.759487087159175012e+00 5.740023480474476401e+02
1.759587109164015839e+00 5.739703211410061385e+02
1.759687131168856888e+00 5.739382758328960108e+02
1.759787153173697938e+00 5.739062127893525940e+02
1.759887175178539209e+00 5.738741326736744668e+02
1.759987197183380259e+00 5.738420361462113988e+02
1.760087219188221308e+00 5.738099238643617355e+02
1.760187241193062579e+00 5.737777964825630761e+02
1.760287263197903407e+00 5.737456546522846565e+02
1.760387285202744456e+00 5.737134990220217787e+02
1.760487307207585506e+00 5.736813302372875114e+02
1.760587329212426555e+00 5.736491489406091659e+02
1.760687351217267604e+00 5.736169557715170413e+02
1.760787373222108876e+00 5.735847513665421502e+02
1.760887395226949925e+00 5.735525363592082613e+02
1.760987417231790753e+00 5.735203113800237134e+02
1.761087439236631802e+00 5.734880770564800514e+02
1.761187461241473073e+00 5.734558340130427041e+02
1.761287483246314123e+00 5.734235828711443901e+02
1.761387505251155172e+00 5.733913242491820483e+02
1.761487527255996222e+00 5.733590587625114949e+02
1.761587549260837271e+00 5.733267870234365091e+02
1.761687571265678098e+00 5.732945096412109933e+02
1.761787593270519370e+00 5.732622272220296509e+02
1.761887615275360419e+00 5.732299403690226427e+02
1.761987637280201469e+00 5.731976496822510398e+02
1.762087659285042740e+00 5.731653557587044361e+02
1.762187681289883789e+00 5.731330591922915119e+02
1.762287703294724839e+00 5.731007605738395796e+02
1.762387725299565666e+00 5.730684604910876487e+02
1.762487747304406716e+00 5.730361595286839247e+02
1.762587769309247765e+00 5.730038582681792150e+02
1.762687791314089036e+00 5.729715572880242007e+02
1.762787813318930086e+00 5.729392571635644344e+02
1.762887835323771135e+00 5.729069584670390896e+02
1.762987857328612407e+00 5.728746617675734569e+02
1.763087879333453234e+00 5.728423676311770123e+02
1.763187901338294283e+00 5.728100766207403467e+02
1.763287923343135333e+00 5.727777892960305053e+02
1.763387945347976382e+00 5.727455062136889410e+02
1.763487967352817432e+00 5.727132279272261712e+02
1.763587989357658703e+00 5.726809549870210958e+02
1.763688011362499752e+00 5.726486879403162220e+02
1.763788033367340580e+00 5.726164273312158457e+02
1.763888055372181629e+00 5.725841737006826406e+02
1.763988077377022901e+00 5.725519275865352711e+02
1.764088099381863950e+00 5.725196895234450949e+02
1.764188121386704999e+00 5.724874600429349130e+02
1.764288143391546049e+00 5.724552396733756723e+02
1.764388165396387098e+00 5.724230289399848743e+02
1.764488187401227925e+00 5.723908283648245288e+02
1.764588209406069197e+00 5.723586384667972879e+02
1.764688231410910246e+00 5.723264597616480387e+02
1.764788253415751296e+00 5.722942927619589000e+02
1.764888275420592567e+00 5.722621379771495640e+02
1.764988297425433617e+00 5.722299959134735445e+02
1.765088319430274666e+00 5.721978670740203370e+02
1.765188341435115493e+00 5.721657519587097340e+02
1.765288363439956543e+00 5.721336510642947815e+02
1.765388385444797592e+00 5.721015648843572308e+02
1.765488407449638864e+00 5.720694939093083349e+02
1.765588429454479913e+00 5.720374386263879387e+02
1.765688451459320962e+00 5.720053995196618644e+02
1.765788473464162234e+00 5.719733770700250943e+02
1.765888495469003061e+00 5.719413717551971104e+02
1.765988517473844110e+00 5.719093840497232577e+02
1.766088539478685160e+00 5.718774144249748588e+02
1.766188561483526209e+00 5.718454633491470531e+02
1.766288583488367259e+00 5.718135312872611848e+02
1.766388605493208530e+00 5.717816187011632110e+02
1.766488627498049580e+00 5.717497260495232467e+02
1.766588649502890407e+00 5.717178537878373845e+02
1.766688671507731456e+00 5.716860023684270118e+02
1.766788693512572728e+00 5.716541722404388111e+02
1.766888715517413777e+00 5.716223638498460105e+02
1.766988737522254826e+00 5.715905776394481563e+02
1.767088759527095876e+00 5.715588140488735007e+02
1.767188781531936925e+00 5.715270735145769549e+02
1.767288803536777753e+00 5.714953564698446371e+02
1.767388825541619024e+00 5.714636633447903478e+02
1.767488847546460073e+00 5.714319945663619364e+02
1.767588869551301123e+00 5.714003505583372089e+02
1.767688891556142394e+00 5.713687317413292703e+02
1.767788913560983444e+00 5.713371385327857297e+02
1.767888935565824493e+00 5.713055713469919965e+02
1.767988957570665320e+00 5.712740305950701440e+02
1.768088979575506370e+00 5.712425166849834568e+02
1.768189001580347419e+00 5.712110300215363168e+02
1.768289023585188691e+00 5.711795710063763636e+02
1.768389045590029740e+00 5.711481400379990419e+02
1.768489067594870789e+00 5.711167375117452139e+02
1.768589089599712061e+00 5.710853638198063891e+02
1.768689111604552888e+00 5.710540193512266569e+02
1.768789133609393938e+00 5.710227044919047330e+02
1.768889155614234987e+00 5.709914196245963467e+02
1.768989177619076036e+00 5.709601651289165147e+02
1.769089199623917086e+00 5.709289413813428382e+02
1.769189221628758357e+00 5.708977487552185721e+02
1.769289243633599407e+00 5.708665876207543306e+02
1.769389265638440234e+00 5.708354583450318387e+02
1.769489287643281283e+00 5.708043612920063197e+02
1.769589309648122555e+00 5.707732968225114973e+02
1.769689331652963604e+00 5.707422652942593686e+02
1.769789353657804654e+00 5.707112670618475931e+02
1.769889375662645703e+00 5.706803024767594934e+02
1.769989397667486530e+00 5.706493718873700800e+02
1.770089419672327580e+00 5.706184756389476433e+02
1.770189441677168851e+00 5.705876140736587558e+02
1.770289463682009901e+00 5.705567875305715688e+02
1.770389485686850950e+00 5.705259963456599053e+02
1.770489507691692221e+00 5.704952408518063294e+02
1.770589529696533271e+00 5.704645213788086267e+02
1.770689551701374098e+00 5.704338382533799177e+02
1.770789573706215148e+00 5.704031917991569571e+02
1.770889595711056197e+00 5.703725823367025214e+02
1.770989617715897246e+00 5.703420101835082505e+02
1.771089639720738518e+00 5.703114756540030612e+02
1.771189661725579567e+00 5.702809790595543973e+02
1.771289683730420617e+00 5.702505207084736867e+02
1.771389705735261444e+00 5.702201009060215711e+02
1.771489727740102715e+00 5.701897199544123396e+02
1.771589749744943765e+00 5.701593781528201816e+02
1.771689771749784814e+00 5.701290757973807786e+02
1.771789793754625864e+00 5.700988131812002848e+02
1.771889815759466913e+00 5.700685905943585112e+02
1.771989837764308184e+00 5.700384083239132451e+02
1.772089859769149012e+00 5.700082666539083220e+02
1.772189881773990061e+00 5.699781658653748764e+02
1.772289903778831111e+00 5.699481062363429373e+02
1.772389925783672382e+00 5.699180880418402921e+02
1.772489947788513431e+00 5.698881115539024904e+02
1.772589969793354481e+00 5.698581770415762549e+02
1.772689991798195530e+00 5.698282847709278940e+02
1.772790013803036357e+00 5.697984350050462581e+02
1.772890035807877407e+00 5.697686280040504698e+02
1.772990057812718678e+00 5.697388640250942444e+02
1.773090079817559728e+00 5.697091433223752119e+02
1.773190101822400777e+00 5.696794661471365089e+02
1.773290123827242049e+00 5.696498327476778059e+02
1.773390145832083098e+00 5.696202433693574676e+02
1.773490167836923925e+00 5.695906982546018753e+02
1.773590189841764975e+00 5.695611976429112246e+02
1.773690211846606024e+00 5.695317417708637322e+02
1.773790233851447073e+00 5.695023308721259809e+02
1.773890255856288345e+00 5.694729651774567856e+02
1.773990277861129394e+00 5.694436449147154917e+02
1.774090299865970444e+00 5.694143703088677739e+02
1.774190321870811271e+00 5.693851415819923432e+02
1.774290343875652542e+00 5.693559589532903829e+02
1.774390365880493592e+00 5.693268226390881637e+02
1.774490387885334641e+00 5.692977328528492080e+02
1.774590409890175691e+00 5.692686898051773596e+02
1.774690431895016740e+00 5.692396937038250826e+02
1.774790453899858012e+00 5.692107447537034659e+02
1.774890475904698839e+00 5.691818431568842698e+02
1.774990497909539888e+00 5.691529891126131133e+02
1.775090519914380938e+00 5.691241828173134536e+02
1.775190541919222209e+00 5.690954244645940889e+02
1.775290563924063258e+00 5.690667142452583676e+02
1.775390585928904308e+00 5.690380523473112362e+02
1.775490607933745357e+00 5.690094389559661749e+02
1.775590629938586185e+00 5.689808742536558839e+02
1.775690651943427234e+00 5.689523584200341020e+02
1.775790673948268505e+00 5.689238916319914097e+02
1.775890695953109555e+00 5.688954740636567067e+02
1.775990717957950604e+00 5.688671058864086945e+02
1.776090739962791876e+00 5.688387872688833795e+02
1.776190761967632925e+00 5.688105183769813493e+02
1.776290783972473752e+00 5.687822993738759578e+02
1.776390805977314802e+00 5.687541304200244667e+02
1.776490827982155851e+00 5.687260116731715698e+02
1.776590849986996901e+00 5.686979432883617847e+02
1.776690871991838172e+00 5.686699254179469563e+02
1.776790893996679221e+00 5.686419582115920548e+02
1.776890916001520271e+00 5.686140418162882497e+02
1.776990938006361098e+00 5.685861763763590488e+02
1.777090960011202370e+00 5.685583620334679154e+02
1.777190982016043419e+00 5.685305989266286133e+02
1.777291004020884468e+00 5.685028871922146436e+02
1.777391026025725518e+00 5.684752269639661790e+02
1.777491048030566567e+00 5.684476183729996137e+02
1.777591070035407839e+00 5.684200615478169993e+02
1.777691092040248666e+00 5.683925566143151400e+02
1.777791114045089715e+00 5.683651036957940050e+02
1.777891136049930765e+00 5.683377029129646871e+02
1.777991158054772036e+00 5.683103543839617942e+02
1.778091180059613086e+00 5.682830582243503841e+02
1.778191202064454135e+00 5.682558145471334683e+02
1.778291224069295184e+00 5.682286234627657677e+02
1.778391246074136012e+00 5.682014850791586014e+02
1.778491268078977061e+00 5.681743995016928466e+02
1.778591290083818333e+00 5.681473668332259876e+02
1.778691312088659382e+00 5.681203871741016656e+02
1.778791334093500431e+00 5.680934606221605918e+02
1.778891356098341703e+00 5.680665872727488477e+02
1.778991378103182752e+00 5.680397672187282296e+02
1.779091400108023580e+00 5.680130005504853443e+02
1.779191422112864629e+00 5.679862873559407035e+02
1.779291444117705678e+00 5.679596277205610022e+02
1.779391466122546728e+00 5.679330217273646895e+02
1.779491488127387999e+00 5.679064694569370886e+02
1.779591510132229049e+00 5.678799709874341488e+02
1.779691532137070098e+00 5.678535263945972247e+02
1.779791554141910925e+00 5.678271357517606930e+02
1.779891576146752197e+00 5.678007991298619572e+02
1.779991598151593246e+00 5.677745165974529300e+02
1.780091620156434296e+00 5.677482882207081047e+02
1.780191642161275345e+00 5.677221140634344465e+02
1.780291664166116394e+00 5.676959941870853754e+02
1.780391686170957666e+00 5.676699286507650868e+02
1.780491708175798493e+00 5.676439175112429893e+02
1.780591730180639543e+00 5.676179608229622318e+02
1.780691752185480592e+00 5.675920586380500481e+02
1.780791774190321863e+00 5.675662110063281034e+02
1.780891796195162913e+00 5.675404179753234075e+02
1.780991818200003962e+00 5.675146795902778649e+02
1.781091840204845012e+00 5.674889958941577106e+02
1.781191862209685839e+00 5.674633669276665842e+02
1.781291884214526888e+00 5.674377927292530330e+02
1.781391906219368160e+00 5.674122733351233592e+02
1.781491928224209209e+00 5.673868087792504866e+02
1.781591950229050259e+00 5.673613990933840796e+02
1.781691972233891530e+00 5.673360443070632755e+02
1.781791994238732579e+00 5.673107444476253249e+02
1.781892016243573407e+00 5.672854995402163922e+02
1.781992038248414456e+00 5.672603096078030376e+02
1.782092060253255505e+00 5.672351746711819942e+02
1.782192082258096555e+00 5.672100947489907412e+02
1.782292104262937826e+00 5.671850698577195544e+02
1.782392126267778876e+00 5.671601000117195781e+02
1.782492148272619925e+00 5.671351852232170359e+02
1.782592170277460752e+00 5.671103255023206202e+02
1.782692192282302024e+00 5.670855208570339983e+02
1.782792214287143073e+00 5.670607712932669529e+02
1.782892236291984123e+00 5.670360768148445914e+02
1.782992258296825172e+00 5.670114374235200785e+02
1.783092280301666221e+00 5.669868531189835039e+02
1.783192302306507493e+00 5.669623238988752973e+02
1.783292324311348320e+00 5.669378497587931633e+02
1.783392346316189370e+00 5.669134306923072018e+02
1.783492368321030419e+00 5.668890666909690026e+02
1.783592390325871690e+00 5.668647577443216505e+02
1.783692412330712740e+00 5.668405038399125715e+02
1.783792434335553789e+00 5.668163049633021728e+02
1.783892456340394839e+00 5.667921610980777132e+02
1.783992478345235666e+00 5.667680722258616015e+02
1.784092500350076715e+00 5.667440383263241301e+02
1.784192522354917987e+00 5.667200593771940476e+02
1.784292544359759036e+00 5.666961353542687903e+02
1.784392566364600086e+00 5.666722662314267609e+02
1.784492588369441357e+00 5.666484519806368780e+02
1.784592610374282406e+00 5.666246925719726732e+02
1.784692632379123234e+00 5.666009879736194534e+02
1.784792654383964283e+00 5.665773381518872611e+02
1.784892676388805333e+00 5.665537430712231526e+02
1.784992698393646382e+00 5.665302026942197244e+02
1.785092720398487653e+00 5.665067169816286423e+02
1.785192742403328703e+00 5.664832858923703043e+02
1.785292764408169752e+00 5.664599093835449821e+02
1.785392786413010580e+00 5.664365874104452132e+02
1.785492808417851851e+00 5.664133199265652365e+02
1.785592830422692900e+00 5.663901068836145214e+02
1.785692852427533950e+00 5.663669482315252708e+02
1.785792874432374999e+00 5.663438439184666322e+02
1.785892896437216049e+00 5.663207938908558390e+02
1.785992918442057320e+00 5.662977980933673052e+02
1.786092940446898147e+00 5.662748564689459272e+02
1.786192962451739197e+00 5.662519689588167466e+02
1.786292984456580246e+00 5.662291355024965469e+02
1.786393006461421518e+00 5.662063560378054490e+02
1.786493028466262567e+00 5.661836305008787349e+02
1.786593050471103616e+00 5.661609588261760564e+02
1.786693072475944666e+00 5.661383409464930310e+02
1.786793094480785493e+00 5.661157767929752254e+02
1.786893116485626543e+00 5.660932662951248631e+02
1.786993138490467814e+00 5.660708093808166268e+02
1.787093160495308863e+00 5.660484059763052755e+02
1.787193182500149913e+00 5.660260560062374680e+02
1.787293204504991184e+00 5.660037593936659732e+02
1.787393226509832012e+00 5.659815160600550143e+02
1.787493248514673061e+00 5.659593259252987991e+02
1.787593270519514110e+00 5.659371889077247033e+02
1.787693292524355160e+00 5.659151049241121427e+02
1.787793314529196209e+00 5.658930738896979165e+02
1.787893336534037481e+00 5.658710957181899630e+02
1.787993358538878530e+00 5.658491703217788427e+02
1.788093380543719357e+00 5.658272976111467187e+02
1.788193402548560407e+00 5.658054774954810000e+02
1.788293424553401678e+00 5.657837098824836630e+02
1.788393446558242728e+00 5.657619946783831892e+02
1.788493468563083777e+00 5.657403317879457063e+02
1.788593490567924826e+00 5.657187211144861294e+02
1.788693512572765876e+00 5.656971625598783930e+02
1.788793534577606703e+00 5.656756560245673882e+02
1.788893556582447975e+00 5.656542014075796487e+02
1.788993578587289024e+00 5.656327986065347204e+02
1.789093600592130073e+00 5.656114475176566430e+02
1.789193622596971345e+00 5.655901480357831588e+02
1.789293644601812394e+00 5.655689000543782186e+02
1.789393666606653444e+00 5.655477034655436910e+02
1.789493688611494271e+00 5.655265581600283440e+02
1.789593710616335320e+00 5.655054640272405777e+02
1.789693732621176370e+00 5.654844209552579741e+02
1.789793754626017641e+00 5.654634288308396890e+02
1.789893776630858691e+00 5.654424875394364562e+02
1.789993798635699740e+00 5.654215969652007061e+02
1.790093820640541011e+00 5.654007569910006623e+02
1.790193842645381839e+00 5.653799674984270496e+02
1.790293864650222888e+00 5.653592283678069634e+02
1.790393886655063937e+00 5.653385394782129652e+02
1.790493908659904987e+00 5.653179007074760420e+02
1.790593930664746036e+00 5.652973119321936792e+02
1.790693952669587308e+00 5.652767730277437295e+02
1.790793974674428357e+00 5.652562838682908932e+02
1.790893996679269184e+00 5.652358443268035444e+02
1.790994018684110234e+00 5.652154542750581641e+02
1.791094040688951505e+00 5.651951135836551430e+02
1.791194062693792555e+00 5.651748221220250343e+02
1.791294084698633604e+00 5.651545797584439015e+02
1.791394106703474653e+00 5.651343863600408213e+02
1.791494128708315703e+00 5.651142417928085706e+02
1.791594150713156530e+00 5.650941459216156773e+02
1.791694172717997802e+00 5.650740986102155148e+02
1.791794194722838851e+00 5.650540997212602861e+02
1.791894216727679900e+00 5.650341491163057981e+02
1.791994238732521172e+00 5.650142466558274918e+02
1.792094260737362221e+00 5.649943921992271498e+02
1.792194282742203271e+00 5.649745856048459700e+02
1.792294304747044098e+00 5.649548267299733197e+02
1.792394326751885147e+00 5.649351154308581044e+02
1.792494348756726197e+00 5.649154515627187720e+02
1.792594370761567468e+00 5.648958349797543406e+02
1.792694392766408518e+00 5.648762655351529247e+02
1.792794414771249567e+00 5.648567430811054919e+02
1.792894436776090838e+00 5.648372674688118877e+02
1.792994458780931666e+00 5.648178385484941373e+02
1.793094480785772715e+00 5.647984561694067907e+02
1.793194502790613765e+00 5.647791201798441989e+02
1.793294524795454814e+00 5.647598304271534744e+02
1.793394546800295863e+00 5.647405867577456320e+02
1.793494568805137135e+00 5.647213890171012736e+02
1.793594590809978184e+00 5.647022370497853672e+02
1.793694612814819012e+00 5.646831306994540682e+02
1.793794634819660061e+00 5.646640698088664294e+02
1.793894656824501332e+00 5.646450542198942912e+02
1.793994678829342382e+00 5.646260837735322866e+02
1.794094700834183431e+00 5.646071583099071631e+02
1.794194722839024481e+00 5.645882776682875601e+02
1.794294744843865530e+00 5.645694416870952637e+02
1.794394766848706357e+00 5.645506502039131647e+02
1.794494788853547629e+00 5.645319030554976507e+02
1.794594810858388678e+00 5.645132000777862231e+02
1.794694832863229728e+00 5.644945411059069329e+02
1.794794854868070999e+00 5.644759259741904316e+02
1.794894876872912048e+00 5.644573545161777020e+02
1.794994898877753098e+00 5.644388265646304035e+02
1.795094920882593925e+00 5.644203419515407631e+02
1.795194942887434975e+00 5.644019005081408977e+02
1.795294964892276024e+00 5.643835020649121361e+02
1.795394986897117295e+00 5.643651464515944554e+02
1.795495008901958345e+00 5.643468334971965987e+02
1.795595030906799394e+00 5.643285630300056255e+02
1.795695052911640666e+00 5.643103348775952099e+02
1.795795074916481493e+00 5.642921488668362144e+02
1.795895096921322542e+00 5.642740048239051021e+02
1.795995118926163592e+00 5.642559025742938275e+02
1.796095140931004641e+00 5.642378419428200687e+02
1.796195162935845691e+00 5.642198227536332524e+02
1.796295184940686962e+00 5.642018448302275146e+02
1.796395206945528011e+00 5.641839079954487488e+02
1.796495228950368839e+00 5.641660120715044968e+02
1.796595250955209888e+00 5.641481568799719071e+02
1.796695272960051160e+00 5.641303422418086484e+02
1.796795294964892209e+00 5.641125679773598449e+02
1.796895316969733258e+00 5.640948339063693311e+02
1.796995338974574308e+00 5.640771398479864729e+02
1.797095360979415357e+00 5.640594856207763996e+02
1.797195382984256184e+00 5.640418710427273936e+02
1.797295404989097456e+00 5.640242959312619178e+02
1.797395426993938505e+00 5.640067601032433231e+02
1.797495448998779555e+00 5.639892633749866491e+02
1.797595471003620826e+00 5.639718055622647626e+02
1.797695493008461876e+00 5.639543864803188171e+02
1.797795515013302925e+00 5.639370059438658700e+02
1.797895537018143752e+00 5.639196637671091139e+02
1.797995559022984802e+00 5.639023597637442435e+02
1.798095581027825851e+00 5.638850937469705968e+02
1.798195603032667123e+00 5.638678655294945656e+02
1.798295625037508172e+00 5.638506749235455118e+02
1.798395647042349221e+00 5.638335217408763356e+02
1.798495669047190493e+00 5.638164057927783688e+02
1.798595691052031320e+00 5.637993268900850126e+02
1.798695713056872370e+00 5.637822848431819693e+02
1.798795735061713419e+00 5.637652794620163377e+02
1.798895757066554468e+00 5.637483105561017283e+02
1.798995779071395518e+00 5.637313779345300873e+02
1.799095801076236789e+00 5.637144814059763576e+02
1.799195823081077839e+00 5.636976207787090516e+02
1.799295845085918666e+00 5.636807958605958220e+02
1.799395867090759715e+00 5.636640064591150576e+02
1.799495889095600987e+00 5.636472523813599764e+02
1.799595911100442036e+00 5.636305334340481750e+02
1.799695933105283085e+00 5.636138494235283360e+02
1.799795955110124135e+00 5.635972001557911426e+02
1.799895977114965184e+00 5.635805854364726883e+02
1.799995999119806012e+00 5.635640050708652780e+02
1.800096021124647283e+00 5.635474588639229978e+02
1.800196043129488332e+00 5.635309466202713793e+02
1.800296065134329382e+00 5.635144681442131969e+02
1.800396087139170653e+00 5.634980232397360851e+02
1.800496109144011703e+00 5.634816117105206104e+02
1.800596131148852752e+00 5.634652333599490248e+02
1.800696153153693579e+00 5.634488879911082222e+02
1.800796175158534629e+00 5.634325754068023571e+02
1.800896197163375678e+00 5.634162954095559144e+02
1.800996219168216950e+00 5.634000478016233728e+02
1.801096241173057999e+00 5.633838323849963672e+02
1.801196263177899048e+00 5.633676489614086904e+02
1.801296285182740320e+00 5.633514973323458435e+02
1.801396307187581147e+00 5.633353772990489006e+02
1.801496329192422197e+00 5.633192886625270148e+02
1.801596351197263246e+00 5.633032312235575318e+02
1.801696373202104295e+00 5.632872047826973585e+02
1.801796395206945345e+00 5.632712091402891019e+02
1.801896417211786616e+00 5.632552440964668676e+02
1.801996439216627666e+00 5.632393094511641038e+02
1.802096461221468493e+00 5.632234050041188311e+02
1.802196483226309542e+00 5.632075305548819415e+02
1.802296505231150814e+00 5.631916859028215185e+02
1.802396527235991863e+00 5.631758708471336377e+02
1.802496549240832913e+00 5.631600851868432756e+02
1.802596571245673962e+00 5.631443287208152242e+02
1.802696593250515011e+00 5.631286012477589793e+02
1.802796615255355839e+00 5.631129025662339700e+02
1.802896637260197110e+00 5.630972324746576305e+02
1.802996659265038160e+00 5.630815907713101751e+02
1.803096681269879209e+00 5.630659772543436929e+02
1.803196703274720480e+00 5.630503917217836261e+02
1.803296725279561530e+00 5.630348339715385464e+02
1.803396747284402579e+00 5.630193038014060676e+02
1.803496769289243407e+00 5.630038010090763692e+02
1.803596791294084456e+00 5.629883253921406094e+02
1.803696813298925505e+00 5.629728767480966098e+02
1.803796835303766777e+00 5.629574548743530613e+02
1.803896857308607826e+00 5.629420595682365729e+02
1.803996879313448876e+00 5.629266906269986066e+02
1.804096901318290147e+00 5.629113478478175239e+02
1.804196923323130974e+00 5.628960310278102952e+02
1.804296945327972024e+00 5.628807399640312497e+02
1.804396967332813073e+00 5.628654744534818519e+02
1.804496989337654123e+00 5.628502342931165003e+02
1.804597011342495172e+00 5.628350192798461649e+02
1.804697033347336443e+00 5.628198292105439577e+02
1.804797055352177271e+00 5.628046638820522958e+02
1.804897077357018320e+00 5.627895230911863109e+02
1.804997099361859370e+00 5.627744066347402168e+02
1.805097121366700641e+00 5.627593143094927655e+02
1.805197143371541690e+00 5.627442459122109994e+02
1.805297165376382740e+00 5.627292012396570726e+02
1.805397187381223789e+00 5.627141800885932525e+02
1.805497209386064617e+00 5.626991822557848764e+02
1.805597231390905666e+00 5.626842075380087635e+02
1.805697253395746937e+00 5.626692557320552623e+02
1.805797275400587987e+00 5.626543266347341614e+02
1.805897297405429036e+00 5.626394200428802606e+02
1.805997319410270308e+00 5.626245357533574634e+02
1.806097341415111357e+00 5.626096735630646890e+02
1.806197363419952184e+00 5.625948332689370091e+02
1.806297385424793234e+00 5.625800146679549698e+02
1.806397407429634283e+00 5.625652175571478892e+02
1.806497429434475332e+00 5.625504417335960170e+02
1.806597451439316604e+00 5.625356869944375831e+02
1.806697473444157653e+00 5.625209531368722082e+02
1.806797495448998703e+00 5.625062399581668160e+02
1.806897517453839530e+00 5.624915472556574514e+02
1.806997539458680802e+00 5.624768748267561023e+02
1.807097561463521851e+00 5.624622224689542236e+02
1.807197583468362900e+00 5.624475899798247838e+02
1.807297605473203950e+00 5.624329771570317007e+02
1.807397627478044999e+00 5.624183837983273406e+02
1.807497649482886271e+00 5.624038097015630910e+02
1.807597671487727098e+00 5.623892546646886785e+02
1.807697693492568147e+00 5.623747184857579668e+02
1.807797715497409197e+00 5.623602009629339591e+02
1.807897737502250468e+00 5.623457018944900483e+02
1.807997759507091518e+00 5.623312210788170660e+02
1.808097781511932567e+00 5.623167583144258970e+02
1.808197803516773616e+00 5.623023133999489573e+02
1.808297825521614444e+00 5.622878861341471293e+02
1.808397847526455493e+00 5.622734763159129443e+02
1.808497869531296764e+00 5.622590837442722886e+02
1.808597891536137814e+00 5.622447082183909970e+02
1.808697913540978863e+00 5.622303495375743978e+02
1.808797935545820135e+00 5.622160075012748166e+02
1.808897957550661184e+00 5.622016819090938498e+02
1.808997979555502011e+00 5.621873725607838423e+02
1.809098001560343061e+00 5.621730792562540273e+02
1.809198023565184110e+00 5.621588017955716623e+02
1.809298045570025160e+00 5.621445399789676003e+02
1.809398067574866431e+00 5.621302936068360623e+02
1.809498089579707480e+00 5.621160624797424816e+02
1.809598111584548530e+00 5.621018463984228219e+02
1.809698133589389357e+00 5.620876451637884657e+02
1.809798155594230629e+00 5.620734585769289424e+02
1.809898177599071678e+00 5.620592864391131798e+02
1.809998199603912727e+00 5.620451285517975748e+02
1.810098221608753777e+00 5.620309847166237205e+02
1.810198243613594826e+00 5.620168547354223847e+02
1.810298265618436098e+00 5.620027384102183987e+02
1.810398287623276925e+00 5.619886355432320215e+02
1.810498309628117974e+00 5.619745459368813272e+02
1.810598331632959024e+00 5.619604693937867523e+02
1.810698353637800295e+00 5.619464057167706414e+02
1.810798375642641345e+00 5.619323547088638406e+02
1.810898397647482394e+00 5.619183161733041061e+02
1.810998419652323443e+00 5.619042899135437210e+02
1.811098441657164271e+00 5.618902757332466535e+02
1.811198463662005320e+00 5.618762734362937863e+02
1.811298485666846592e+00 5.618622828267859859e+02
1.811398507671687641e+00 5.618483037090447851e+02
1.811498529676528690e+00 5.618343358876156799e+02
1.811598551681369962e+00 5.618203791672714260e+02
1.811698573686211011e+00 5.618064333530102203e+02
1.811798595691051839e+00 5.617924982500641136e+02
1.811898617695892888e+00 5.617785736638961680e+02
1.811998639700733937e+00 5.617646594002044367e+02
1.812098661705574987e+00 5.617507552649249192e+02
1.812198683710416258e+00 5.617368610642314479e+02
1.812298705715257308e+00 5.617229766045396673e+02
1.812398727720098357e+00 5.617091016925088525e+02
1.812498749724939184e+00 5.616952361350420233e+02
1.812598771729780456e+00 5.616813797392906054e+02
1.812698793734621505e+00 5.616675323126537478e+02
1.812798815739462555e+00 5.616536936627823025e+02
1.812898837744303604e+00 5.616398635975783691e+02
1.812998859749144653e+00 5.616260419251992744e+02
1.813098881753985925e+00 5.616122284540584815e+02
1.813198903758826752e+00 5.615984229928259310e+02
1.813298925763667802e+00 5.615846253504309971e+02
1.813398947768508851e+00 5.615708353360656702e+02
1.813498969773350122e+00 5.615570527591822838e+02
1.813598991778191172e+00 5.615432774294984029e+02
1.813699013783032221e+00 5.615295091569968235e+02
1.813799035787873271e+00 5.615157477519261420e+02
1.813899057792714098e+00 5.615019930248058699e+02
1.813999079797555147e+00 5.614882447864223423e+02
1.814099101802396419e+00 5.614745028478354243e+02
1.814199123807237468e+00 5.614607670203756697e+02
1.814299145812078518e+00 5.614470371156479587e+02
1.814399167816919789e+00 5.614333129455325206e+02
1.814499189821760838e+00 5.614195943221852758e+02
1.814599211826601666e+00 5.614058810580402223e+02
1.814699233831442715e+00 5.613921729658082995e+02
1.814799255836283765e+00 5.613784698584815942e+02
1.814899277841124814e+00 5.613647715493311807e+02
1.814999299845966085e+00 5.613510778519120095e+02
1.815099321850807135e+00 5.613373885800602920e+02
1.815199343855648184e+00 5.613237035478970256e+02
1.815299365860489011e+00 5.613100225698251506e+02
1.815399387865330283e+00 5.612963454605369407e+02
1.815499409870171332e+00 5.612826720350084315e+02
1.815599431875012382e+00 5.612690021085039689e+02
1.815699453879853431e+00 5.612553354965757535e+02
1.815799475884694480e+00 5.612416720150652054e+02
1.815899497889535752e+00 5.612280114801023956e+02
1.815999519894376579e+00 5.612143537081093427e+02
1.816099541899217629e+00 5.612006985157980807e+02
1.816199563904058678e+00 5.611870457201715681e+02
1.816299585908899950e+00 5.611733951385272121e+02
1.816399607913740999e+00 5.611597465884535723e+02
1.816499629918582048e+00 5.611460998878332020e+02
1.816599651923423098e+00 5.611324548548438997e+02
1.816699673928263925e+00 5.611188113079560935e+02
1.816799695933104974e+00 5.611051690659364795e+02
1.816899717937946246e+00 5.610915279478469984e+02
1.816999739942787295e+00 5.610778877730458589e+02
1.817099761947628345e+00 5.610642483611878788e+02
1.817199783952469616e+00 5.610506095322233477e+02
1.817299805957310666e+00 5.610369711064004150e+02
1.817399827962151493e+00 5.610233329042652031e+02
1.817499849966992542e+00 5.610096947466604433e+02
1.817599871971833592e+00 5.609960564547280910e+02
1.817699893976674641e+00 5.609824178499073923e+02
1.817799915981515912e+00 5.609687787539364763e+02
1.817899937986356962e+00 5.609551389888517861e+02
1.817999959991198011e+00 5.609414983769887613e+02
1.818099981996038839e+00 5.609278567409818379e+02
1.818200004000880110e+00 5.609142139037643346e+02
1.818300026005721159e+00 5.609005696885695897e+02
1.818400048010562209e+00 5.608869239189284599e+02
1.818500070015403258e+00 5.608732764186731856e+02
1.818600092020244308e+00 5.608596270119330711e+02
1.818700114025085579e+00 5.608459755231385770e+02
1.818800136029926406e+00 5.608323217770190467e+02
1.818900158034767456e+00 5.608186655986020241e+02
1.819000180039608505e+00 5.608050068132158685e+02
1.819100202044449777e+00 5.607913452464863440e+02
1.819200224049290826e+00 5.607776807243398025e+02
1.819300246054131875e+00 5.607640130729996599e+02
1.819400268058972925e+00 5.607503421189901474e+02
1.819500290063813752e+00 5.607366676891324460e+02
1.819600312068654802e+00 5.607229896105468470e+02
1.819700334073496073e+00 5.607093077106513874e+02
1.819800356078337122e+00 5.606956218171618502e+02
1.819900378083178172e+00 5.606819317580916504e+02
1.820000400088019443e+00 5.606682373617524036e+02
1.820100422092860493e+00 5.606545384567526753e+02
1.820200444097701320e+00 5.606408348719967307e+02
1.820300466102542369e+00 5.606271264366863534e+02
1.820400488107383419e+00 5.606134129803187989e+02
1.820500510112224468e+00 5.605996943326871360e+02
1.820600532117065740e+00 5.605859703238812699e+02
1.820700554121906789e+00 5.605722407842838493e+02
1.820800576126747838e+00 5.605585055445742455e+02
1.820900598131588666e+00 5.605447644357234367e+02
1.821000620136429937e+00 5.605310172889986688e+02
1.821100642141270987e+00 5.605172639359591358e+02
1.821200664146112036e+00 5.605035042084571160e+02
1.821300686150953085e+00 5.604897379386372904e+02
1.821400708155794135e+00 5.604759649589359469e+02
1.821500730160635406e+00 5.604621851020805252e+02
1.821600752165476234e+00 5.604483982010900718e+02
1.821700774170317283e+00 5.604346040892733072e+02
1.821800796175158332e+00 5.604208026002280576e+02
1.821900818179999604e+00 5.604069935678417096e+02
1.822000840184840653e+00 5.603931768262909827e+02
1.822100862189681703e+00 5.603793522100395421e+02
1.822200884194522530e+00 5.603655195538381122e+02
1.822300906199363579e+00 5.603516786927254998e+02
1.822400928204204629e+00 5.603378294620251836e+02
1.822500950209045900e+00 5.603239716973471332e+02
1.822600972213886950e+00 5.603101052345854214e+02
1.822700994218727999e+00 5.602962299099185657e+02
1.822801016223569270e+00 5.602823455598080500e+02
1.822901038228410098e+00 5.602684520209994616e+02
1.823001060233251147e+00 5.602545491305193082e+02
1.823101082238092197e+00 5.602406367256752446e+02
1.823201104242933246e+00 5.602267146440576653e+02
1.823301126247774295e+00 5.602127827235337918e+02
1.823401148252615567e+00 5.601988408022529029e+02
1.823501170257456616e+00 5.601848887186414458e+02
1.823601192262297443e+00 5.601709263114039459e+02
1.823701214267138493e+00 5.601569534195227789e+02
1.823801236271979764e+00 5.601429698822545333e+02
1.823901258276820814e+00 5.601289755391333074e+02
1.824001280281661863e+00 5.601149702299680939e+02
1.824101302286502913e+00 5.601009537948399384e+02
1.824201324291343962e+00 5.600869260741058042e+02
1.824301346296184789e+00 5.600728869083923200e+02
1.824401368301026061e+00 5.600588361386003271e+02
1.824501390305867110e+00 5.600447736058990813e+02
1.824601412310708159e+00 5.600306991517306869e+02
1.824701434315549431e+00 5.600166126178042987e+02
1.824801456320390480e+00 5.600025138460986227e+02
1.824901478325231530e+00 5.599884026788606661e+02
1.825001500330072357e+00 5.599742789586019853e+02
1.825101522334913406e+00 5.599601425281026650e+02
1.825201544339754456e+00 5.599459932304073391e+02
1.825301566344595727e+00 5.599318309088246224e+02
1.825401588349436777e+00 5.599176554069273379e+02
1.825501610354277826e+00 5.599034665685506980e+02
1.825601632359119098e+00 5.598892642377925313e+02
1.825701654363959925e+00 5.598750482590112370e+02
1.825801676368800974e+00 5.598608184768260116e+02
1.825901698373642024e+00 5.598465747361151443e+02
1.826001720378483073e+00 5.598323168820161300e+02
1.826101742383324122e+00 5.598180447599251011e+02
1.826201764388165394e+00 5.598037582154930760e+02
1.826301786393006443e+00 5.597894570946297108e+02
1.826401808397847271e+00 5.597751412434995473e+02
1.826501830402688320e+00 5.597608105085204215e+02
1.826601852407529591e+00 5.597464647363658514e+02
1.826701874412370641e+00 5.597321037739611711e+02
1.826801896417211690e+00 5.597177274684854638e+02
1.826901918422052740e+00 5.597033356673675826e+02
1.827001940426893789e+00 5.596889282182874013e+02
1.827101962431734616e+00 5.596745049691764962e+02
1.827201984436575888e+00 5.596600657682125757e+02
1.827302006441416937e+00 5.596456104638240276e+02
1.827402028446257987e+00 5.596311389046854856e+02
1.827502050451099258e+00 5.596166509397194204e+02
1.827602072455940307e+00 5.596021464180923886e+02
1.827702094460781357e+00 5.595876251892190112e+02
1.827802116465622184e+00 5.595730871027551530e+02
1.827902138470463234e+00 5.595585320086025831e+02
1.828002160475304283e+00 5.595439597569069292e+02
1.828102182480145554e+00 5.595293701980518790e+02
1.828202204484986604e+00 5.595147631826664565e+02
1.828302226489827653e+00 5.595001385616199059e+02
1.828402248494668925e+00 5.594854961860203275e+02
1.828502270499509752e+00 5.594708359072152462e+02
1.828602292504350801e+00 5.594561575767921795e+02
1.828702314509191851e+00 5.594414610465747728e+02
1.828802336514032900e+00 5.594267461686256411e+02
1.828902358518873950e+00 5.594120127952429584e+02
1.829002380523715221e+00 5.593972607789605718e+02
1.829102402528556270e+00 5.593824899725489104e+02
1.829202424533397098e+00 5.593677002290112341e+02
1.829302446538238147e+00 5.593528914015868168e+02
1.829402468543079419e+00 5.593380633437463985e+02
1.829502490547920468e+00 5.593232159091953690e+02
1.829602512552761517e+00 5.593083489518689930e+02
1.829702534557602567e+00 5.592934623259362752e+02
1.829802556562443616e+00 5.592785558857951855e+02
1.829902578567284444e+00 5.592636294860765247e+02
1.830002600572125715e+00 5.592486829816385807e+02
1.830102622576966764e+00 5.592337162275704259e+02
1.830202644581807814e+00 5.592187290791891883e+02
1.830302666586649085e+00 5.592037213920402792e+02
1.830402688591490135e+00 5.591886930218978478e+02
1.830502710596331184e+00 5.591736438247623937e+02
1.830602732601172011e+00 5.591585736568611082e+02
1.830702754606013061e+00 5.591434823746478742e+02
1.830802776610854110e+00 5.591283698348023563e+02
1.830902798615695382e+00 5.591132358942301153e+02
1.831002820620536431e+00 5.590980804100607884e+02
1.831102842625377480e+00 5.590829032396495677e+02
1.831202864630218752e+00 5.590677042405758357e+02
1.831302886635059579e+00 5.590524832706413463e+02
1.831402908639900629e+00 5.590372401878739765e+02
1.831502930644741678e+00 5.590219748505223833e+02
1.831602952649582727e+00 5.590066871170593004e+02
1.831702974654423777e+00 5.589913768461800601e+02
1.831802996659265048e+00 5.589760438968017979e+02
1.831903018664106098e+00 5.589606881280631114e+02
1.832003040668946925e+00 5.589453093993259927e+02
1.832103062673787974e+00 5.589299075701721904e+02
1.832203084678629246e+00 5.589144825004059385e+02
1.832303106683470295e+00 5.588990340500517959e+02
1.832403128688311345e+00 5.588835620793557837e+02
1.832503150693152394e+00 5.588680664487831109e+02
1.832603172697993443e+00 5.588525470190222677e+02
1.832703194702834271e+00 5.588370036509793408e+02
1.832803216707675542e+00 5.588214362057830158e+02
1.832903238712516591e+00 5.588058445447808253e+02
1.833003260717357641e+00 5.587902285295411957e+02
1.833103282722198912e+00 5.587745880218524235e+02
1.833203304727039962e+00 5.587589228837226756e+02
1.833303326731881011e+00 5.587432329773801030e+02
1.833403348736721838e+00 5.587275181652739775e+02
1.833503370741562888e+00 5.587117783100726456e+02
1.833603392746403937e+00 5.586960132746652334e+02
1.833703414751245209e+00 5.586802229221605103e+02
1.833803436756086258e+00 5.586644071158879115e+02
1.833903458760927307e+00 5.586485657193986754e+02
1.834003480765768579e+00 5.586326985964622054e+02
1.834103502770609406e+00 5.586168056110703901e+02
1.834203524775450456e+00 5.586008866274360116e+02
1.834303546780291505e+00 5.585849415099919497e+02
1.834403568785132554e+00 5.585689701233932283e+02
1.834503590789973604e+00 5.585529723325173563e+02
1.834603612794814875e+00 5.585369480024623954e+02
1.834703634799655925e+00 5.585208969985495742e+02
1.834803656804496752e+00 5.585048191863215834e+02
1.834903678809337801e+00 5.584887144315453043e+02
1.835003700814179073e+00 5.584725826002103304e+02
1.835103722819020122e+00 5.584564235585297638e+02
1.835203744823861172e+00 5.584402371729411243e+02
1.835303766828702221e+00 5.584240233101062358e+02
1.835403788833543270e+00 5.584077818369119086e+02
1.835503810838384098e+00 5.583915126204716444e+02
1.835603832843225369e+00 5.583752155281224532e+02
1.835703854848066419e+00 5.583588904274303104e+02
1.835803876852907468e+00 5.583425371861872009e+02
1.835903898857748739e+00 5.583261556724128241e+02
1.836003920862589789e+00 5.583097457543552764e+02
1.836103942867430838e+00 5.582933073004920743e+02
1.836203964872271666e+00 5.582768401795302680e+02
1.836303986877112715e+00 5.582603442604066686e+02
1.836404008881953764e+00 5.582438194122898949e+02
1.836504030886795036e+00 5.582272655045801457e+02
1.836604052891636085e+00 5.582106824069099957e+02
1.836704074896477135e+00 5.581940699891458735e+02
1.836804096901318406e+00 5.581774281213876066e+02
1.836904118906159233e+00 5.581607566739718322e+02
1.837004140911000283e+00 5.581440555174688143e+02
1.837104162915841332e+00 5.581273245226877862e+02
1.837204184920682382e+00 5.581105635606747910e+02
1.837304206925523431e+00 5.580937725027143870e+02
1.837404228930364702e+00 5.580769512203324894e+02
1.837504250935205752e+00 5.580600995852934147e+02
1.837604272940046579e+00 5.580432174696060201e+02
1.837704294944887629e+00 5.580263047455197238e+02
1.837804316949728900e+00 5.580093612855292804e+02
1.837904338954569949e+00 5.579923869623745531e+02
1.838004360959410999e+00 5.579753816490414238e+02
1.838104382964252048e+00 5.579583452187637249e+02
1.838204404969093098e+00 5.579412775450234676e+02
1.838304426973933925e+00 5.579241785015532287e+02
1.838404448978775196e+00 5.579070479623370602e+02
1.838504470983616246e+00 5.578898858016102622e+02
1.838604492988457295e+00 5.578726918938635890e+02
1.838704514993298567e+00 5.578554661138424535e+02
1.838804536998139616e+00 5.578382083365482913e+02
1.838904559002980665e+00 5.578209184372423124e+02
1.839004581007821493e+00 5.578035962914442507e+02
1.839104603012662542e+00 5.577862417749345241e+02
1.839204625017503592e+00 5.577688547637570764e+02
1.839304647022344863e+00 5.577514351342181271e+02
1.839404669027185912e+00 5.577339827628925377e+02
1.839504691032026962e+00 5.577164975266194915e+02
1.839604713036867789e+00 5.576989793025093149e+02
1.839704735041709061e+00 5.576814279679416586e+02
1.839804757046550110e+00 5.576638434005685667e+02
1.839904779051391159e+00 5.576462254783161825e+02
1.840004801056232209e+00 5.576285740793869081e+02
