1.500060014403456821e+00 5.047410359457803111e+02
1.500160038409218188e+00 5.046580043209306723e+02
1.500260062414979556e+00 5.045752733177748155e+02
1.500360086420740924e+00 5.044928455379640582e+02
1.500460110426502292e+00 5.044107235786981960e+02
1.500560134432263659e+00 5.043289100326471157e+02
1.500660158438025027e+00 5.042474074878707597e+02
1.500760182443786395e+00 5.041662185277384083e+02
1.500860206449547762e+00 5.040853457308504062e+02
1.500960230455309130e+00 5.040047916709581841e+02
1.501060254461070720e+00 5.039245589168850756e+02
1.501160278466832088e+00 5.038446500324475323e+02
1.501260302472593455e+00 5.037650675763754293e+02
1.501360326478354823e+00 5.036858141022327118e+02
1.501460350484116191e+00 5.036068921583396332e+02
1.501560374489877558e+00 5.035283042876941408e+02
1.501660398495638926e+00 5.034500530278923520e+02
1.501760422501400294e+00 5.033721409110499394e+02
1.501860446507161662e+00 5.032945704637245967e+02
1.501960470512923029e+00 5.032173442068383906e+02
1.502060494518684397e+00 5.031404646555980662e+02
1.502160518524445765e+00 5.030639343194177400e+02
1.502260542530207132e+00 5.029877557018415928e+02
1.502360566535968500e+00 5.029119313004663354e+02
1.502460590541729868e+00 5.028364636068629920e+02
1.502560614547491236e+00 5.027613551064993658e+02
1.502660638553252603e+00 5.026866082786640959e+02
1.502760662559013971e+00 5.026122255963888392e+02
1.502860686564775561e+00 5.025382095263704514e+02
1.502960710570536929e+00 5.024645625288961810e+02
1.503060734576298296e+00 5.023912870577663625e+02
1.503160758582059664e+00 5.023183855602160293e+02
1.503260782587821032e+00 5.022458604768416990e+02
1.503360806593582399e+00 5.021737142415242943e+02
1.503460830599343767e+00 5.021019492813522334e+02
1.503560854605105135e+00 5.020305680165467948e+02
1.503660878610866503e+00 5.019595728603856628e+02
1.503760902616627870e+00 5.018889662191284060e+02
1.503860926622389238e+00 5.018187504919415005e+02
1.503960950628150606e+00 5.017489280708222168e+02
1.504060974633911973e+00 5.016795013405238706e+02
1.504160998639673341e+00 5.016104726784835179e+02
1.504261022645434709e+00 5.015418444547430568e+02
1.504361046651196077e+00 5.014736190318798208e+02
1.504461070656957444e+00 5.014057987649288748e+02
1.504561094662718812e+00 5.013383860013123012e+02
1.504661118668480180e+00 5.012713830807620070e+02
1.504761142674241992e+00 5.012047923352490670e+02
1.504861166680003137e+00 5.011386160889101120e+02
1.504961190685764727e+00 5.010728566579728636e+02
1.505061214691525873e+00 5.010075163506845115e+02
1.505161238697287462e+00 5.009425974672391249e+02
1.505261262703048608e+00 5.008781022997051195e+02
1.505361286708810198e+00 5.008140331319518168e+02
1.505461310714571344e+00 5.007503922395796963e+02
1.505561334720332933e+00 5.006871818898482047e+02
1.505661358726094079e+00 5.006244043416021441e+02
1.505761382731855669e+00 5.005620618452029476e+02
1.505861406737616814e+00 5.005001566424565453e+02
1.505961430743378404e+00 5.004386909665422536e+02
1.506061454749139550e+00 5.003776670419435391e+02
1.506161478754901140e+00 5.003170870843761122e+02
1.506261502760662285e+00 5.002569533007182372e+02
1.506361526766423875e+00 5.001972678889426334e+02
1.506461550772185021e+00 5.001380330380441137e+02
1.506561574777946833e+00 5.000792509279717706e+02
1.506661598783708200e+00 5.000209237295606499e+02
1.506761622789469568e+00 4.999630536044606970e+02
1.506861646795230936e+00 4.999056427050703064e+02
1.506961670800992303e+00 4.998486931744669164e+02
1.507061694806753671e+00 4.997922071463388534e+02
1.507161718812515039e+00 4.997361867449185979e+02
1.507261742818276407e+00 4.996806340849140042e+02
1.507361766824037774e+00 4.996255512714411680e+02
1.507461790829799142e+00 4.995709403999584310e+02
1.507561814835560510e+00 4.995168035561986812e+02
1.507661838841321877e+00 4.994631428161029589e+02
1.507761862847083245e+00 4.994099602457553715e+02
1.507861886852844613e+00 4.993572579013145969e+02
1.507961910858605981e+00 4.993050378289524360e+02
1.508061934864367348e+00 4.992533020647841795e+02
1.508161958870128716e+00 4.992020526348059093e+02
1.508261982875890084e+00 4.991512915548289016e+02
1.508362006881651451e+00 4.991010208304167577e+02
1.508462030887413041e+00 4.990512424568181586e+02
1.508562054893174409e+00 4.990019584189065540e+02
1.508662078898935777e+00 4.989531706911122910e+02
1.508762102904697144e+00 4.989048812373647479e+02
1.508862126910458512e+00 4.988570920110236102e+02
1.508962150916219880e+00 4.988098049548211748e+02
1.509062174921981248e+00 4.987630220007958428e+02
1.509162198927742615e+00 4.987167450702334008e+02
1.509262222933503983e+00 4.986709760736026169e+02
1.509362246939265351e+00 4.986257169104949298e+02
1.509462270945026718e+00 4.985809694695647067e+02
1.509562294950788086e+00 4.985367356284645552e+02
1.509662318956549454e+00 4.984930172537891622e+02
1.509762342962310822e+00 4.984498162010123110e+02
1.509862366968072189e+00 4.984071343144274806e+02
1.509962390973833557e+00 4.983649734270898080e+02
1.510062414979594925e+00 4.983233353607535605e+02
1.510162438985356292e+00 4.982822219258174528e+02
1.510262462991117882e+00 4.982416349212631985e+02
1.510362486996879250e+00 4.982015761345970191e+02
1.510462511002640618e+00 4.981620473417934818e+02
1.510562535008401985e+00 4.981230503072382021e+02
1.510662559014163353e+00 4.980845867836670777e+02
1.510762583019924721e+00 4.980466585121141634e+02
1.510862607025686088e+00 4.980092672218513599e+02
1.510962631031447456e+00 4.979724146303344128e+02
1.511062655037208824e+00 4.979361024431457281e+02
1.511162679042970192e+00 4.979003323539396320e+02
1.511262703048731559e+00 4.978651060443862661e+02
1.511362727054492927e+00 4.978304251841191785e+02
1.511462751060254295e+00 4.977962914306771154e+02
1.511562775066015663e+00 4.977627064294526349e+02
1.511662799071777030e+00 4.977296718136384470e+02
1.511762823077538398e+00 4.976971892041707406e+02
1.511862847083299766e+00 4.976652602096817759e+02
1.511962871089061133e+00 4.976338864264411654e+02
1.512062895094822501e+00 4.976030694383077844e+02
1.512162919100584091e+00 4.975728108166762240e+02
1.512262943106345681e+00 4.975431121204250076e+02
1.512362967112106826e+00 4.975139748958655446e+02
1.512462991117868416e+00 4.974854006766926773e+02
1.512563015123629562e+00 4.974573909839304520e+02
1.512663039129391152e+00 4.974299473258877811e+02
1.512763063135152297e+00 4.974030711981035893e+02
1.512863087140913887e+00 4.973767640832986672e+02
1.512963111146675033e+00 4.973510274513297418e+02
1.513063135152436622e+00 4.973258627591360437e+02
1.513163159158197768e+00 4.973012714506949692e+02
1.513263183163959358e+00 4.972772549569721718e+02
1.513363207169720503e+00 4.972538146958759739e+02
1.513463231175482093e+00 4.972309520722083676e+02
1.513563255181243239e+00 4.972086684776185166e+02
1.513663279187004829e+00 4.971869652905581347e+02
1.513763303192765974e+00 4.971658438762343621e+02
1.513863327198527564e+00 4.971453055865646320e+02
1.513963351204289154e+00 4.971253517601301155e+02
1.514063375210050522e+00 4.971059837221352495e+02
1.514163399215811889e+00 4.970872027843570322e+02
1.514263423221573257e+00 4.970690102451075632e+02
1.514363447227334625e+00 4.970514073891862381e+02
1.514463471233095992e+00 4.970343954878385375e+02
1.514563495238857360e+00 4.970179757987125413e+02
1.514663519244618728e+00 4.970021495658172626e+02
1.514763543250380096e+00 4.969869180194800720e+02
1.514863567256141463e+00 4.969722823763066231e+02
1.514963591261902831e+00 4.969582438391377650e+02
1.515063615267664199e+00 4.969448035970113438e+02
1.515163639273425567e+00 4.969319628251180916e+02
1.515263663279186934e+00 4.969197226847673505e+02
1.515363687284948302e+00 4.969080843233424503e+02
1.515463711290709670e+00 4.968970488742654084e+02
1.515563735296471037e+00 4.968866174569561736e+02
1.515663759302232405e+00 4.968767911767948249e+02
1.515763783307993773e+00 4.968675711250850213e+02
1.515863807313755363e+00 4.968589583790152346e+02
1.515963831319516730e+00 4.968509540016236201e+02
1.516063855325278098e+00 4.968435590417587946e+02
1.516163879331039466e+00 4.968367745340481179e+02
1.516263903336800833e+00 4.968306014988562538e+02
1.516363927342562201e+00 4.968250409422554981e+02
1.516463951348323569e+00 4.968200938559883184e+02
1.516563975354084937e+00 4.968157612174334758e+02
1.516663999359846304e+00 4.968120439895724303e+02
1.516764023365607672e+00 4.968089431209538702e+02
1.516864047371369040e+00 4.968064595456662573e+02
1.516964071377130407e+00 4.968045941832975814e+02
1.517064095382891775e+00 4.968033479389094964e+02
1.517164119388653143e+00 4.968027217030019642e+02
1.517264143394414511e+00 4.968027163514851736e+02
1.517364167400175878e+00 4.968033327456441839e+02
1.517464191405937246e+00 4.968045717321140842e+02
1.517564215411698614e+00 4.968064341428454327e+02
1.517664239417460204e+00 4.968089207950762329e+02
1.517764263423221571e+00 4.968120324913045920e+02
1.517864287428982939e+00 4.968157700192577977e+02
1.517964311434744307e+00 4.968201341518654317e+02
1.518064335440505674e+00 4.968251256472318573e+02
1.518164359446267042e+00 4.968307452486066040e+02
1.518264383452028410e+00 4.968369936843614596e+02
1.518364407457789778e+00 4.968438716679610820e+02
1.518464431463551145e+00 4.968513798979383864e+02
1.518564455469312513e+00 4.968595190578679421e+02
1.518664479475073881e+00 4.968682898163431787e+02
1.518764503480835248e+00 4.968776928269487598e+02
1.518864527486596616e+00 4.968877287282397788e+02
1.518964551492357984e+00 4.968983981437157240e+02
1.519064575498119352e+00 4.969097016817983103e+02
1.519164599503880719e+00 4.969216399358079457e+02
1.519264623509642087e+00 4.969342134839430969e+02
1.519364647515403455e+00 4.969474228892559040e+02
1.519464671521164822e+00 4.969612686996344451e+02
1.519564695526926634e+00 4.969757514477776112e+02
1.519664719532687780e+00 4.969908716511789635e+02
1.519764743538449370e+00 4.970066298121029149e+02
1.519864767544210515e+00 4.970230264175672232e+02
1.519964791549972105e+00 4.970400619393241755e+02
1.520064815555733251e+00 4.970577368338410338e+02
1.520164839561494841e+00 4.970760515422833805e+02
1.520264863567255986e+00 4.970950064904953933e+02
1.520364887573017576e+00 4.971146020889840429e+02
1.520464911578778722e+00 4.971348387329020397e+02
1.520564935584540311e+00 4.971557168020320887e+02
1.520664959590301457e+00 4.971772366607696654e+02
1.520764983596063047e+00 4.971993986581093736e+02
1.520865007601824193e+00 4.972222031276295979e+02
1.520965031607585782e+00 4.972456503874774967e+02
1.521065055613346928e+00 4.972697407403549050e+02
1.521165079619108518e+00 4.972944744735072504e+02
1.521265103624869663e+00 4.973198518587070112e+02
1.521365127630631475e+00 4.973458731522435414e+02
1.521465151636392843e+00 4.973725385949114184e+02
1.521565175642154211e+00 4.973998484119971408e+02
1.521665199647915578e+00 4.974278028132688405e+02
1.521765223653676946e+00 4.974564019929657093e+02
1.521865247659438314e+00 4.974856461297889609e+02
1.521965271665199682e+00 4.975155353868897805e+02
1.522065295670961049e+00 4.975460699118624461e+02
1.522165319676722417e+00 4.975772498367329035e+02
1.522265343682483785e+00 4.976090752779550144e+02
1.522365367688245152e+00 4.976415463363966865e+02
1.522465391694006520e+00 4.976746630973386800e+02
1.522565415699767888e+00 4.977084256304634664e+02
1.522665439705529256e+00 4.977428339898506238e+02
1.522765463711290623e+00 4.977778882139712664e+02
1.522865487717051991e+00 4.978135883256813372e+02
1.522965511722813359e+00 4.978499343322179129e+02
1.523065535728574726e+00 4.978869262251944292e+02
1.523165559734336094e+00 4.979245639805962469e+02
1.523265583740097684e+00 4.979628475587775256e+02
1.523365607745859052e+00 4.980017769044590636e+02
1.523465631751620419e+00 4.980413519467230117e+02
1.523565655757381787e+00 4.980815725990152600e+02
1.523665679763143155e+00 4.981224387591386744e+02
1.523765703768904523e+00 4.981639503092562791e+02
1.523865727774665890e+00 4.982061071158882442e+02
1.523965751780427258e+00 4.982489090299129657e+02
1.524065775786188626e+00 4.982923558865663836e+02
1.524165799791949993e+00 4.983364475054427203e+02
1.524265823797711361e+00 4.983811836904978918e+02
1.524365847803472729e+00 4.984265642300480295e+02
1.524465871809234097e+00 4.984725888967741412e+02
1.524565895814995464e+00 4.985192574477237599e+02
1.524665919820756832e+00 4.985665696243146385e+02
1.524765943826518200e+00 4.986145251523378192e+02
1.524865967832279567e+00 4.986631237419621812e+02
1.524965991838040935e+00 4.987123650877389878e+02
1.525066015843802525e+00 4.987622488686070028e+02
1.525166039849563893e+00 4.988127747478979472e+02
1.525266063855325260e+00 4.988639423733425815e+02
1.525366087861086628e+00 4.989157513770770720e+02
1.525466111866847996e+00 4.989682013756502670e+02
1.525566135872609363e+00 4.990212919700313705e+02
1.525666159878370731e+00 4.990750227456168204e+02
1.525766183884132099e+00 4.991293932722402360e+02
1.525866207889893467e+00 4.991844031041799781e+02
1.525966231895654834e+00 4.992400517801691535e+02
1.526066255901416202e+00 4.992963388234055060e+02
1.526166279907177570e+00 4.993532637415616477e+02
1.526266303912938938e+00 4.994108260267948936e+02
1.526366327918700305e+00 4.994690251557605052e+02
1.526466351924461673e+00 4.995278605896215254e+02
1.526566375930223041e+00 4.995873317740623065e+02
1.526666399935984408e+00 4.996474381393005615e+02
1.526766423941745776e+00 4.997081791000999829e+02
1.526866447947507144e+00 4.997695540557851359e+02
1.526966471953268734e+00 4.998315623902542484e+02
1.527066495959030323e+00 4.998942034719951266e+02
1.527166519964791469e+00 4.999574766540991959e+02
1.527266543970553059e+00 5.000213812742766777e+02
1.527366567976314204e+00 5.000859166548738699e+02
1.527466591982075794e+00 5.001510821028878695e+02
1.527566615987836940e+00 5.002168769099858991e+02
1.527666639993598530e+00 5.002833003525199729e+02
1.527766663999359675e+00 5.003503516915465639e+02
1.527866688005121265e+00 5.004180301728433164e+02
1.527966712010882411e+00 5.004863350269300781e+02
1.528066736016644001e+00 5.005552654690860663e+02
1.528166760022405146e+00 5.006248206993709573e+02
1.528266784028166736e+00 5.006949999026433034e+02
1.528366808033927882e+00 5.007658022485833840e+02
1.528466832039689471e+00 5.008372268917123051e+02
1.528566856045450617e+00 5.009092729714150778e+02
1.528666880051212207e+00 5.009819396119610246e+02
1.528766904056973797e+00 5.010552259225286775e+02
1.528866928062735164e+00 5.011291309972252179e+02
1.528966952068496532e+00 5.012036539151133638e+02
1.529066976074257900e+00 5.012787937402316629e+02
1.529167000080019267e+00 5.013545495216237100e+02
1.529267024085780635e+00 5.014309202933572465e+02
1.529367048091542003e+00 5.015079050745537188e+02
1.529467072097303371e+00 5.015855028694107887e+02
1.529567096103064738e+00 5.016637126672310956e+02
1.529667120108826106e+00 5.017425334424468701e+02
1.529767144114587474e+00 5.018219641546481284e+02
1.529867168120348841e+00 5.019020037486100136e+02
1.529967192126110209e+00 5.019826511543193419e+02
1.530067216131871577e+00 5.020639052870045589e+02
1.530167240137632945e+00 5.021457650471641045e+02
1.530267264143394312e+00 5.022282293205953465e+02
1.530367288149155680e+00 5.023112969784247070e+02
1.530467312154917048e+00 5.023949668771371080e+02
1.530567336160678416e+00 5.024792378586080304e+02
1.530667360166440005e+00 5.025641087501321067e+02
1.530767384172201373e+00 5.026495783644570565e+02
1.530867408177962741e+00 5.027356454998147228e+02
1.530967432183724108e+00 5.028223089399520518e+02
1.531067456189485476e+00 5.029095674541657104e+02
1.531167480195246844e+00 5.029974197973354535e+02
1.531267504201008212e+00 5.030858647099560130e+02
1.531367528206769579e+00 5.031749009181729093e+02
1.531467552212530947e+00 5.032645271338153634e+02
1.531567576218292315e+00 5.033547420544332454e+02
1.531667600224053682e+00 5.034455443633310097e+02
1.531767624229815050e+00 5.035369327296032793e+02
1.531867648235576418e+00 5.036289058081730445e+02
1.531967672241337786e+00 5.037214622398246888e+02
1.532067696247099153e+00 5.038146006512469057e+02
1.532167720252860521e+00 5.039083196550639059e+02
1.532267744258621889e+00 5.040026178498771969e+02
1.532367768264383256e+00 5.040974938203028159e+02
1.532467792270144846e+00 5.041929461370110062e+02
1.532567816275906214e+00 5.042889733567636199e+02
1.532667840281667582e+00 5.043855740224564670e+02
1.532767864287428949e+00 5.044827466631564903e+02
1.532867888293190317e+00 5.045804897941430909e+02
1.532967912298951685e+00 5.046788019169513859e+02
1.533067936304713053e+00 5.047776815194102937e+02
1.533167960310474420e+00 5.048771270756855074e+02
1.533267984316235788e+00 5.049771370463224684e+02
1.533368008321997156e+00 5.050777098782871235e+02
1.533468032327758523e+00 5.051788440050114559e+02
1.533568056333519891e+00 5.052805378464329351e+02
1.533668080339281259e+00 5.053827898090429471e+02
1.533768104345042627e+00 5.054855982859260735e+02
1.533868128350803994e+00 5.055889616568105112e+02
1.533968152356565362e+00 5.056928782881059306e+02
1.534068176362326730e+00 5.057973465329562259e+02
1.534168200368088097e+00 5.059023647312785101e+02
1.534268224373849465e+00 5.060079312098142736e+02
1.534368248379611277e+00 5.061140442821737224e+02
1.534468272385372423e+00 5.062207022488828443e+02
1.534568296391134012e+00 5.063279033974312142e+02
1.534668320396895158e+00 5.064356460023186628e+02
1.534768344402656748e+00 5.065439283251056963e+02
1.534868368408417894e+00 5.066527486144593695e+02
1.534968392414179483e+00 5.067621051062034780e+02
1.535068416419940629e+00 5.068719960233678989e+02
1.535168440425702219e+00 5.069824195762381009e+02
1.535268464431463364e+00 5.070933739624040300e+02
1.535368488437224954e+00 5.072048573668121776e+02
1.535468512442986100e+00 5.073168679618178203e+02
1.535568536448747690e+00 5.074294039072293572e+02
1.535668560454508835e+00 5.075424633503695304e+02
1.535768584460270425e+00 5.076560444261189673e+02
1.535868608466031571e+00 5.077701452569731373e+02
1.535968632471793160e+00 5.078847639530941365e+02
1.536068656477554306e+00 5.079998986123618465e+02
1.536168680483316118e+00 5.081155473204301529e+02
1.536268704489077486e+00 5.082317081507783314e+02
1.536368728494838853e+00 5.083483791647660723e+02
1.536468752500600221e+00 5.084655584116886757e+02
1.536568776506361589e+00 5.085832439288305977e+02
1.536668800512122957e+00 5.087014337415208729e+02
1.536768824517884324e+00 5.088201258631885366e+02
1.536868848523645692e+00 5.089393182954196391e+02
1.536968872529407060e+00 5.090590090280131790e+02
1.537068896535168427e+00 5.091791960390347640e+02
1.537168920540929795e+00 5.092998772948785700e+02
1.537268944546691163e+00 5.094210507503203189e+02
1.537368968552452531e+00 5.095427143485766237e+02
1.537468992558213898e+00 5.096648660213627409e+02
1.537569016563975266e+00 5.097875036889525973e+02
1.537669040569736634e+00 5.099106252602323366e+02
1.537769064575498001e+00 5.100342286327656893e+02
1.537869088581259369e+00 5.101583116928484856e+02
1.537969112587020737e+00 5.102828723155707280e+02
1.538069136592782327e+00 5.104079083648754818e+02
1.538169160598543694e+00 5.105334176936187873e+02
1.538269184604305062e+00 5.106593981436320746e+02
1.538369208610066430e+00 5.107858475457804275e+02
1.538469232615827798e+00 5.109127637200267031e+02
1.538569256621589165e+00 5.110401444754907061e+02
1.538669280627350533e+00 5.111679876105115454e+02
1.538769304633111901e+00 5.112962909127116973e+02
1.538869328638873268e+00 5.114250521590564631e+02
1.538969352644634636e+00 5.115542691159196238e+02
1.539069376650396004e+00 5.116839395391439780e+02
1.539169400656157372e+00 5.118140611741073940e+02
1.539269424661918739e+00 5.119446317557835755e+02
1.539369448667680107e+00 5.120756490088087958e+02
1.539469472673441475e+00 5.122071106475452780e+02
1.539569496679202842e+00 5.123390143761440640e+02
1.539669520684964210e+00 5.124713578886130563e+02
1.539769544690725578e+00 5.126041388688799998e+02
1.539869568696487168e+00 5.127373549908581936e+02
1.539969592702248535e+00 5.128710039185132246e+02
1.540069616708009903e+00 5.130050833059286788e+02
1.540169640713771271e+00 5.131395907973709427e+02
1.540269664719532638e+00 5.132745240273585523e+02
1.540369688725294006e+00 5.134098806207273356e+02
1.540469712731055374e+00 5.135456581926973740e+02
1.540569736736816742e+00 5.136818543489413287e+02
1.540669760742578109e+00 5.138184666856532203e+02
1.540769784748339477e+00 5.139554927896126628e+02
1.540869808754100845e+00 5.140929302382575088e+02
1.540969832759862213e+00 5.142307765997497881e+02
1.541069856765623580e+00 5.143690294330452843e+02
1.541169880771384948e+00 5.145076862879616328e+02
1.541269904777146316e+00 5.146467447052500575e+02
1.541369928782907683e+00 5.147862022166623319e+02
1.541469952788669051e+00 5.149260563450221753e+02
1.541569976794430419e+00 5.150663046042940323e+02
1.541670000800191787e+00 5.152069444996545826e+02
1.541770024805953376e+00 5.153479735275635676e+02
1.541870048811714966e+00 5.154893891758334803e+02
1.541970072817476112e+00 5.156311889237002788e+02
1.542070096823237701e+00 5.157733702418970552e+02
1.542170120828998847e+00 5.159159305927233845e+02
1.542270144834760437e+00 5.160588674301175161e+02
1.542370168840521583e+00 5.162021781997290191e+02
1.542470192846283172e+00 5.163458603389898371e+02
1.542570216852044318e+00 5.164899112771889804e+02
1.542670240857805908e+00 5.166343284355432388e+02
1.542770264863567053e+00 5.167791092272697142e+02
1.542870288869328643e+00 5.169242510576610812e+02
1.542970312875089789e+00 5.170697513241577781e+02
1.543070336880851379e+00 5.172156074164206530e+02
1.543170360886612524e+00 5.173618167164062243e+02
1.543270384892374114e+00 5.175083765984412594e+02
1.543370408898135260e+00 5.176552844292938289e+02
1.543470432903896850e+00 5.178025375682506137e+02
1.543570456909658439e+00 5.179501333671915972e+02
1.543670480915419807e+00 5.180980691706621428e+02
1.543770504921181175e+00 5.182463423159518925e+02
1.543870528926942542e+00 5.183949501331658212e+02
1.543970552932703910e+00 5.185438899453031354e+02
1.544070576938465278e+00 5.186931590683317381e+02
1.544170600944226646e+00 5.188427548112620116e+02
1.544270624949988013e+00 5.189926744762258295e+02
1.544370648955749381e+00 5.191429153585513632e+02
1.544470672961510749e+00 5.192934747468387968e+02
1.544570696967272116e+00 5.194443499230385441e+02
1.544670720973033484e+00 5.195955381625260543e+02
1.544770744978794852e+00 5.197470367341791189e+02
1.544870768984556220e+00 5.198988429004568843e+02
1.544970792990317587e+00 5.200509539174734073e+02
1.545070816996078955e+00 5.202033670350789407e+02
1.545170841001840323e+00 5.203560794969351946e+02
1.545270865007601691e+00 5.205090885405918470e+02
1.545370889013363058e+00 5.206623913975681717e+02
1.545470913019124648e+00 5.208159852934279570e+02
1.545570937024886016e+00 5.209698674478578369e+02
1.545670961030647383e+00 5.211240350747477805e+02
1.545770985036408751e+00 5.212784853822670357e+02
1.545871009042170119e+00 5.214332155729434817e+02
1.545971033047931487e+00 5.215882228437445747e+02
1.546071057053692854e+00 5.217435043861527220e+02
1.546171081059454222e+00 5.218990573862458859e+02
1.546271105065215590e+00 5.220548790247769375e+02
1.546371129070976957e+00 5.222109664772536917e+02
1.546471153076738325e+00 5.223673169140166692e+02
1.546571177082499693e+00 5.225239275003186776e+02
1.546671201088261061e+00 5.226807953964071203e+02
1.546771225094022428e+00 5.228379177575993708e+02
1.546871249099783796e+00 5.229952917343678109e+02
1.546971273105545164e+00 5.231529144724142952e+02
1.547071297111306531e+00 5.233107831127558711e+02
1.547171321117067899e+00 5.234688947918009490e+02
1.547271345122829489e+00 5.236272466414311566e+02
1.547371369128590857e+00 5.237858357890813750e+02
1.547471393134352224e+00 5.239446593578220472e+02
1.547571417140113592e+00 5.241037144664364860e+02
1.547671441145874960e+00 5.242629982295050013e+02
1.547771465151636328e+00 5.244225077574835723e+02
1.547871489157397695e+00 5.245822401567857014e+02
1.547971513163159063e+00 5.247421925298629048e+02
1.548071537168920431e+00 5.249023619752878176e+02
1.548171561174681798e+00 5.250627455878318415e+02
1.548271585180443166e+00 5.252233404585492735e+02
1.548371609186204534e+00 5.253841436748573415e+02
1.548471633191965902e+00 5.255451523206188540e+02
1.548571657197727269e+00 5.257063634762221227e+02
1.548671681203488637e+00 5.258677742186641808e+02
1.548771705209250005e+00 5.260293816216312734e+02
1.548871729215011372e+00 5.261911827555810532e+02
1.548971753220772740e+00 5.263531746878231843e+02
1.549071777226534108e+00 5.265153544826047209e+02
1.549171801232295920e+00 5.266777192011868465e+02
1.549271825238057065e+00 5.268402659019312750e+02
1.549371849243818655e+00 5.270029916403798325e+02
1.549471873249579801e+00 5.271658934693369929e+02
1.549571897255341391e+00 5.273289684389535523e+02
1.549671921261102536e+00 5.274922135968050725e+02
1.549771945266864126e+00 5.276556259879785102e+02
1.549871969272625272e+00 5.278192026551515710e+02
1.549971993278386861e+00 5.279829406386752453e+02
1.550072017284148007e+00 5.281468369766572550e+02
1.550172041289909597e+00 5.283108887050439080e+02
1.550272065295670743e+00 5.284750928577014975e+02
1.550372089301432332e+00 5.286394464664998623e+02
1.550472113307193478e+00 5.288039465613942411e+02
1.550572137312955068e+00 5.289685901705078095e+02
1.550672161318716213e+00 5.291333743202142159e+02
1.550772185324477803e+00 5.292982960352197779e+02
1.550872209330238949e+00 5.294633523386469278e+02
1.550972233336000761e+00 5.296285402521145897e+02
1.551072257341762128e+00 5.297938567958227623e+02
1.551172281347523496e+00 5.299592989886335772e+02
1.551272305353284864e+00 5.301248638481547459e+02
1.551372329359046232e+00 5.302905483908217548e+02
1.551472353364807599e+00 5.304563496319797196e+02
1.551572377370568967e+00 5.306222645859671729e+02
1.551672401376330335e+00 5.307882902661974640e+02
1.551772425382091702e+00 5.309544236852400445e+02
1.551872449387853070e+00 5.311206618549065297e+02
1.551972473393614438e+00 5.312870017863291423e+02
1.552072497399375806e+00 5.314534404900458640e+02
1.552172521405137173e+00 5.316199749760811528e+02
1.552272545410898541e+00 5.317866022540293898e+02
1.552372569416659909e+00 5.319533193331360508e+02
1.552472593422421276e+00 5.321201232223814941e+02
1.552572617428182644e+00 5.322870109305615642e+02
1.552672641433944012e+00 5.324539794663704697e+02
1.552772665439705380e+00 5.326210258384841154e+02
1.552872689445466969e+00 5.327881470556397971e+02
1.552972713451228337e+00 5.329553401267205572e+02
1.553072737456989705e+00 5.331226020608354474e+02
1.553172761462751073e+00 5.332899298674038846e+02
1.553272785468512440e+00 5.334573205562339808e+02
1.553372809474273808e+00 5.336247711376082634e+02
1.553472833480035176e+00 5.337922786223628009e+02
1.553572857485796543e+00 5.339598400219695122e+02
1.553672881491557911e+00 5.341274523486191583e+02
1.553772905497319279e+00 5.342951126153014911e+02
1.553872929503080647e+00 5.344628178358869945e+02
1.553972953508842014e+00 5.346305650252101032e+02
1.554072977514603382e+00 5.347983511991465093e+02
1.554173001520364750e+00 5.349661733746997925e+02
1.554273025526126117e+00 5.351340285700787263e+02
1.554373049531887485e+00 5.353019138047803835e+02
1.554473073537648853e+00 5.354698260996698309e+02
1.554573097543410221e+00 5.356377624770627790e+02
1.554673121549171810e+00 5.358057199608045948e+02
1.554773145554933178e+00 5.359736955763536344e+02
1.554873169560694546e+00 5.361416863508585493e+02
1.554973193566455913e+00 5.363096893132426430e+02
1.555073217572217281e+00 5.364777014942814048e+02
1.555173241577978649e+00 5.366457199266840234e+02
1.555273265583740017e+00 5.368137416451745594e+02
1.555373289589501384e+00 5.369817636865708437e+02
1.555473313595262752e+00 5.371497830898648544e+02
1.555573337601024120e+00 5.373177968963036619e+02
1.555673361606785488e+00 5.374858021494675313e+02
1.555773385612546855e+00 5.376537958953514362e+02
1.555873409618308223e+00 5.378217751824441848e+02
1.555973433624069591e+00 5.379897370618067498e+02
1.556073457629830958e+00 5.381576785871525317e+02
1.556173481635592326e+00 5.383255968149279624e+02
1.556273505641353694e+00 5.384934888043890169e+02
1.556373529647115062e+00 5.386613516176814755e+02
1.556473553652876429e+00 5.388291823199211876e+02
1.556573577658638019e+00 5.389969779792691043e+02
1.556673601664399609e+00 5.391647356670141562e+02
1.556773625670160754e+00 5.393324524576480599e+02
1.556873649675922344e+00 5.395001254289460348e+02
1.556973673681683490e+00 5.396677516620438837e+02
1.557073697687445080e+00 5.398353282415160947e+02
1.557173721693206225e+00 5.400028522554528081e+02
1.557273745698967815e+00 5.401703207955407606e+02
1.557373769704728961e+00 5.403377309571353635e+02
1.557473793710490551e+00 5.405050798393424429e+02
1.557573817716251696e+00 5.406723645450949789e+02
1.557673841722013286e+00 5.408395821812275699e+02
1.557773865727774432e+00 5.410067298585560138e+02
1.557873889733536021e+00 5.411738046919518865e+02
1.557973913739297167e+00 5.413408038004209857e+02
1.558073937745058757e+00 5.415077243071789326e+02
1.558173961750819903e+00 5.416745633397250685e+02
1.558273985756581492e+00 5.418413180299232863e+02
1.558374009762343082e+00 5.420079855140726295e+02
1.558474033768104450e+00 5.421745629329859639e+02
1.558574057773865817e+00 5.423410474320646699e+02
1.558674081779627185e+00 5.425074361613753808e+02
1.558774105785388553e+00 5.426737262757206963e+02
1.558874129791149921e+00 5.428399149347185357e+02
1.558974153796911288e+00 5.430059993028748977e+02
1.559074177802672656e+00 5.431719765496580976e+02
1.559174201808434024e+00 5.433378438495735736e+02
1.559274225814195391e+00 5.435035983822374419e+02
1.559374249819956759e+00 5.436692373324508480e+02
1.559474273825718127e+00 5.438347578902727264e+02
1.559574297831479495e+00 5.440001572510947199e+02
1.559674321837240862e+00 5.441654326157129162e+02
1.559774345843002230e+00 5.443305811904009488e+02
1.559874369848763598e+00 5.444956001869843476e+02
1.559974393854524966e+00 5.446604868229101157e+02
1.560074417860286333e+00 5.448252383213222174e+02
1.560174441866047701e+00 5.449898519111316091e+02
1.560274465871809291e+00 5.451543248270895674e+02
1.560374489877570658e+00 5.453186543098570382e+02
1.560474513883332026e+00 5.454828376060778510e+02
1.560574537889093394e+00 5.456468719684509097e+02
1.560674561894854762e+00 5.458107546557986325e+02
1.560774585900616129e+00 5.459744829331382334e+02
1.560874609906377497e+00 5.461380540717545955e+02
1.560974633912138865e+00 5.463014653492657544e+02
1.561074657917900232e+00 5.464647140496980455e+02
1.561174681923661600e+00 5.466277974635529517e+02
1.561274705929422968e+00 5.467907128878761114e+02
1.561374729935184336e+00 5.469534576263283725e+02
1.561474753940945703e+00 5.471160289892543460e+02
1.561574777946707071e+00 5.472784242937495947e+02
1.561674801952468439e+00 5.474406408637298682e+02
1.561774825958229806e+00 5.476026760300009073e+02
1.561874849963991174e+00 5.477645271303236996e+02
1.561974873969752542e+00 5.479261915094850792e+02
1.562074897975514132e+00 5.480876665193618464e+02
1.562174921981275499e+00 5.482489495189909121e+02
1.562274945987036867e+00 5.484100378746336446e+02
1.562374969992798235e+00 5.485709289598441956e+02
1.562474993998559603e+00 5.487316201555356656e+02
1.562575018004320970e+00 5.488921088500451333e+02
1.562675042010082338e+00 5.490523924391998207e+02
1.562775066015843706e+00 5.492124683263834868e+02
1.562875090021605073e+00 5.493723339226000917e+02
1.562975114027366441e+00 5.495319866465404175e+02
1.563075138033127809e+00 5.496914239246450506e+02
1.563175162038889177e+00 5.498506431911699792e+02
1.563275186044650544e+00 5.500096418882493481e+02
1.563375210050411912e+00 5.501684174659611699e+02
1.563475234056173280e+00 5.503269673823879202e+02
1.563575258061934647e+00 5.504852891036833853e+02
1.563675282067696015e+00 5.506433801041316656e+02
1.563775306073457383e+00 5.508012378662127730e+02
1.563875330079218751e+00 5.509588598806636810e+02
1.563975354084980562e+00 5.511162436465402834e+02
1.564075378090741708e+00 5.512733866712776489e+02
1.564175402096503298e+00 5.514302864707550498e+02
1.564275426102264444e+00 5.515869405693537146e+02
1.564375450108026033e+00 5.517433465000182196e+02
1.564475474113787179e+00 5.518995018043179925e+02
1.564575498119548769e+00 5.520554040325067717e+02
1.564675522125309914e+00 5.522110507435812679e+02
1.564775546131071504e+00 5.523664395053442604e+02
1.564875570136832650e+00 5.525215678944576894e+02
1.564975594142594240e+00 5.526764334965073431e+02
1.565075618148355385e+00 5.528310339060583374e+02
1.565175642154116975e+00 5.529853667267143464e+02
1.565275666159878121e+00 5.531394295711745599e+02
1.565375690165639710e+00 5.532932200612922315e+02
1.565475714171400856e+00 5.534467358281308407e+02
1.565575738177162446e+00 5.535999745120220723e+02
1.565675762182923592e+00 5.537529337626206143e+02
1.565775786188685403e+00 5.539056112389632744e+02
1.565875810194446771e+00 5.540580046095207081e+02
1.565975834200208139e+00 5.542101115522575583e+02
1.566075858205969507e+00 5.543619297546848657e+02
1.566175882211730874e+00 5.545134569139138421e+02
1.566275906217492242e+00 5.546646907367136237e+02
1.566375930223253610e+00 5.548156289395625436e+02
1.566475954229014977e+00 5.549662692487036111e+02
1.566575978234776345e+00 5.551166094001978308e+02
1.566676002240537713e+00 5.552666471399764987e+02
1.566776026246299081e+00 5.554163802238937251e+02
1.566876050252060448e+00 5.555658064177810047e+02
1.566976074257821816e+00 5.557149234974953060e+02
1.567076098263583184e+00 5.558637292489761421e+02
1.567176122269344551e+00 5.560122214682920685e+02
1.567276146275105919e+00 5.561603979616945708e+02
1.567376170280867287e+00 5.563082565456659268e+02
1.567476194286628655e+00 5.564557950469725256e+02
1.567576218292390022e+00 5.566030113027142079e+02
1.567676242298151612e+00 5.567499031603704225e+02
1.567776266303912980e+00 5.568964684778551373e+02
1.567876290309674348e+00 5.570427051235601539e+02
1.567976314315435715e+00 5.571886109764056982e+02
1.568076338321197083e+00 5.573341839258903292e+02
1.568176362326958451e+00 5.574794218721360721e+02
1.568276386332719818e+00 5.576243227259358264e+02
1.568376410338481186e+00 5.577688844088021369e+02
1.568476434344242554e+00 5.579131048530116459e+02
1.568576458350003922e+00 5.580569820016534095e+02
1.568676482355765289e+00 5.582005138086724401e+02
1.568776506361526657e+00 5.583436982389168861e+02
1.568876530367288025e+00 5.584865332681829386e+02
1.568976554373049392e+00 5.586290168832579184e+02
1.569076578378810760e+00 5.587711470819663191e+02
1.569176602384572128e+00 5.589129218732130084e+02
1.569276626390333496e+00 5.590543392770268838e+02
1.569376650396094863e+00 5.591953973246039595e+02
1.569476674401856453e+00 5.593360940583488627e+02
1.569576698407617821e+00 5.594764275319205353e+02
1.569676722413379188e+00 5.596163958102700917e+02
1.569776746419140556e+00 5.597559969696859525e+02
1.569876770424901924e+00 5.598952290978324982e+02
1.569976794430663292e+00 5.600340902937911096e+02
1.570076818436424659e+00 5.601725786681031423e+02
1.570176842442186027e+00 5.603106923428064192e+02
1.570276866447947395e+00 5.604484294514774092e+02
1.570376890453708763e+00 5.605857881392685158e+02
1.570476914459470130e+00 5.607227665629482090e+02
1.570576938465231498e+00 5.608593628909400195e+02
1.570676962470992866e+00 5.609955753033577821e+02
1.570776986476754233e+00 5.611314019920469036e+02
1.570877010482515601e+00 5.612668411606184691e+02
1.570977034488276969e+00 5.614018910244874405e+02
1.571077058494038337e+00 5.615365498109099462e+02
1.571177082499799704e+00 5.616708157590161363e+02
1.571277106505561072e+00 5.618046871198504277e+02
1.571377130511322662e+00 5.619381621564020861e+02
1.571477154517084251e+00 5.620712391436425150e+02
1.571577178522845397e+00 5.622039163685607264e+02
1.571677202528606987e+00 5.623361921301930124e+02
1.571777226534368133e+00 5.624680647396620543e+02
1.571877250540129722e+00 5.625995325202043205e+02
1.571977274545890868e+00 5.627305938072072422e+02
1.572077298551652458e+00 5.628612469482402503e+02
1.572177322557413603e+00 5.629914903030864934e+02
1.572277346563175193e+00 5.631213222437729655e+02
1.572377370568936339e+00 5.632507411546035883e+02
1.572477394574697929e+00 5.633797454321886562e+02
1.572577418580459074e+00 5.635083334854763280e+02
1.572677442586220664e+00 5.636365037357809342e+02
1.572777466591981810e+00 5.637642546168135596e+02
1.572877490597743400e+00 5.638915845747096682e+02
1.572977514603504545e+00 5.640184920680595724e+02
1.573077538609266135e+00 5.641449755679350346e+02
1.573177562615027725e+00 5.642710335579173488e+02
1.573277586620789092e+00 5.643966645341250796e+02
1.573377610626550460e+00 5.645218670052404377e+02
1.573477634632311828e+00 5.646466394925362238e+02
1.573577658638073196e+00 5.647709805299022037e+02
1.573677682643834563e+00 5.648948886638683007e+02
1.573777706649595931e+00 5.650183624536334719e+02
1.573877730655357299e+00 5.651414004710882182e+02
1.573977754661118666e+00 5.652640013008385722e+02
1.574077778666880034e+00 5.653861635402309957e+02
1.574177802672641402e+00 5.655078857993765951e+02
1.574277826678402770e+00 5.656291667011722666e+02
1.574377850684164137e+00 5.657500048813247986e+02
1.574477874689925505e+00 5.658703989883725853e+02
1.574577898695686873e+00 5.659903476837068865e+02
1.574677922701448241e+00 5.661098496415947920e+02
1.574777946707209608e+00 5.662289035491985487e+02
1.574877970712970976e+00 5.663475081065960239e+02
1.574977994718732344e+00 5.664656620268021925e+02
1.575078018724493933e+00 5.665833640357881222e+02
1.575178042730255301e+00 5.667006128724991640e+02
1.575278066736016669e+00 5.668174072888757564e+02
1.575378090741778037e+00 5.669337460498694554e+02
1.575478114747539404e+00 5.670496279334624887e+02
1.575578138753300772e+00 5.671650517306856045e+02
1.575678162759062140e+00 5.672800162456333055e+02
1.575778186764823507e+00 5.673945202954811293e+02
1.575878210770584875e+00 5.675085627105042931e+02
1.575978234776346243e+00 5.676221423340890624e+02
1.576078258782107611e+00 5.677352580227519638e+02
1.576178282787868978e+00 5.678479086461528595e+02
1.576278306793630346e+00 5.679600930871090441e+02
1.576378330799391714e+00 5.680718102416110469e+02
1.576478354805153081e+00 5.681830590188342285e+02
1.576578378810914449e+00 5.682938383411539007e+02
1.576678402816675817e+00 5.684041471441560134e+02
1.576778426822437185e+00 5.685139843766513650e+02
1.576878450828198774e+00 5.686233490006860620e+02
1.576978474833960142e+00 5.687322399915540245e+02
1.577078498839721510e+00 5.688406563378077863e+02
1.577178522845482878e+00 5.689485970412686129e+02
1.577278546851244245e+00 5.690560611170358243e+02
1.577378570857005613e+00 5.691630475934998685e+02
1.577478594862766981e+00 5.692695555123470967e+02
1.577578618868528348e+00 5.693755839285724960e+02
1.577678642874289716e+00 5.694811319104850327e+02
1.577778666880051084e+00 5.695861985397184526e+02
1.577878690885812452e+00 5.696907829112370791e+02
1.577978714891573819e+00 5.697948841333418386e+02
1.578078738897335187e+00 5.698985013276819700e+02
1.578178762903096555e+00 5.700016336292534334e+02
1.578278786908857922e+00 5.701042801864131206e+02
1.578378810914619290e+00 5.702064401608764683e+02
1.578478834920380658e+00 5.703081127277293945e+02
1.578578858926142026e+00 5.704092970754279577e+02
1.578678882931903393e+00 5.705099924058046099e+02
1.578778906937665205e+00 5.706101979340709249e+02
1.578878930943426351e+00 5.707099128888226005e+02
1.578978954949187941e+00 5.708091365120394585e+02
1.579078978954949086e+00 5.709078680590902195e+02
1.579179002960710676e+00 5.710061067987332990e+02
1.579279026966471822e+00 5.711038520131188534e+02
1.579379050972233411e+00 5.712011029977900307e+02
1.579479074977994557e+00 5.712978590616830843e+02
1.579579098983756147e+00 5.713941195271271454e+02
1.579679122989517293e+00 5.714898837298464969e+02
1.579779146995278882e+00 5.715851510189552300e+02
1.579879171001040028e+00 5.716799207569620194e+02
1.579979195006801618e+00 5.717741923197647793e+02
1.580079219012562763e+00 5.718679650966498684e+02
1.580179243018324353e+00 5.719612384902892472e+02
1.580279267024085499e+00 5.720540119167392277e+02
1.580379291029847089e+00 5.721462848054353572e+02
1.580479315035608234e+00 5.722380565991900312e+02
1.580579339041370046e+00 5.723293267541882869e+02
1.580679363047131414e+00 5.724200947399837105e+02
1.580779387052892782e+00 5.725103600394920704e+02
1.580879411058654149e+00 5.726001221489885893e+02
1.580979435064415517e+00 5.726893805780994171e+02
1.581079459070176885e+00 5.727781348497976524e+02
1.581179483075938252e+00 5.728663845003958386e+02
1.581279507081699620e+00 5.729541290795388022e+02
1.581379531087460988e+00 5.730413681501978544e+02
1.581479555093222356e+00 5.731281012886594226e+02
1.581579579098983723e+00 5.732143280845215259e+02
1.581679603104745091e+00 5.733000481406825202e+02
1.581779627110506459e+00 5.733852610733301844e+02
1.581879651116267826e+00 5.734699665119374004e+02
1.581979675122029194e+00 5.735541640992466910e+02
1.582079699127790562e+00 5.736378534912643090e+02
1.582179723133551930e+00 5.737210343572460260e+02
1.582279747139313297e+00 5.738037063796890607e+02
1.582379771145074887e+00 5.738858692543190045e+02
1.582479795150836255e+00 5.739675226900772032e+02
1.582579819156597623e+00 5.740486664091092734e+02
1.582679843162358990e+00 5.741293001467538488e+02
1.582779867168120358e+00 5.742094236515252987e+02
1.582879891173881726e+00 5.742890366851045201e+02
1.582979915179643093e+00 5.743681390223227936e+02
1.583079939185404461e+00 5.744467304511476868e+02
1.583179963191165829e+00 5.745248107726667968e+02
1.583279987196927197e+00 5.746023798010760402e+02
1.583380011202688564e+00 5.746794373636607816e+02
1.583480035208449932e+00 5.747559833007811676e+02
1.583580059214211300e+00 5.748320174658559836e+02
1.583680083219972667e+00 5.749075397253443498e+02
1.583780107225734035e+00 5.749825499587306012e+02
1.583880131231495403e+00 5.750570480585051882e+02
1.583980155237256771e+00 5.751310339301471686e+02
1.584080179243018138e+00 5.752045074921051082e+02
1.584180203248779506e+00 5.752774686757793461e+02
1.584280227254541096e+00 5.753499174255025537e+02
1.584380251260302463e+00 5.754218536985193850e+02
1.584480275266063831e+00 5.754932774649669227e+02
1.584580299271825199e+00 5.755641887078545551e+02
1.584680323277586567e+00 5.756345874230429445e+02
1.584780347283347934e+00 5.757044736192223127e+02
1.584880371289109302e+00 5.757738473178924323e+02
1.584980395294870670e+00 5.758427085533386389e+02
1.585080419300632038e+00 5.759110573726119355e+02
1.585180443306393405e+00 5.759788938355030723e+02
1.585280467312154773e+00 5.760462180145225375e+02
1.585380491317916141e+00 5.761130299948760012e+02
1.585480515323677508e+00 5.761793298744389631e+02
1.585580539329438876e+00 5.762451177637344699e+02
1.585680563335200244e+00 5.763103937859087864e+02
1.585780587340961612e+00 5.763751580767035421e+02
1.585880611346722979e+00 5.764394107844332211e+02
1.585980635352484347e+00 5.765031520699582188e+02
1.586080659358246159e+00 5.765663821066596029e+02
1.586180683364007304e+00 5.766291010804104644e+02
1.586280707369768894e+00 5.766913091895515890e+02
1.586380731375530040e+00 5.767530066448631487e+02
1.586480755381291630e+00 5.768141936695359391e+02
1.586580779387052775e+00 5.768748704991451177e+02
1.586680803392814365e+00 5.769350373816216688e+02
1.586780827398575511e+00 5.769946945772221625e+02
1.586880851404337101e+00 5.770538423585021519e+02
1.586980875410098246e+00 5.771124810102832043e+02
1.587080899415859836e+00 5.771706108296272077e+02
1.587180923421620982e+00 5.772282321258037427e+02
1.587280947427382571e+00 5.772853452202588187e+02
1.587380971433143717e+00 5.773419504465863383e+02
1.587480995438905307e+00 5.773980481504960380e+02
1.587581019444666453e+00 5.774536386897800639e+02
1.587681043450428042e+00 5.775087224342836407e+02
1.587781067456189188e+00 5.775632997658711929e+02
1.587881091461950778e+00 5.776173710783946262e+02
1.587981115467712367e+00 5.776709367776594490e+02
1.588081139473473735e+00 5.777239972813916893e+02
1.588181163479235103e+00 5.777765530192050392e+02
1.588281187484996471e+00 5.778286044325650437e+02
1.588381211490757838e+00 5.778801519747572684e+02
1.588481235496519206e+00 5.779311961108496689e+02
1.588581259502280574e+00 5.779817373176601905e+02
1.588681283508041941e+00 5.780317760837195920e+02
1.588781307513803309e+00 5.780813129092364306e+02
1.588881331519564677e+00 5.781303483060607959e+02
1.588981355525326045e+00 5.781788827976481571e+02
1.589081379531087412e+00 5.782269169190223010e+02
1.589181403536848780e+00 5.782744512167394078e+02
1.589281427542610148e+00 5.783214862488480321e+02
1.589381451548371516e+00 5.783680225848537475e+02
1.589481475554132883e+00 5.784140608056818564e+02
1.589581499559894251e+00 5.784596015036358949e+02
1.589681523565655619e+00 5.785046452823609116e+02
1.589781547571417208e+00 5.785491927568051551e+02
1.589881571577178576e+00 5.785932445531782378e+02
1.589981595582939944e+00 5.786368013089154374e+02
1.590081619588701312e+00 5.786798636726325640e+02
1.590181643594462679e+00 5.787224323040913987e+02
1.590281667600224047e+00 5.787645078741544467e+02
1.590381691605985415e+00 5.788060910647457149e+02
1.590481715611746782e+00 5.788471825688113768e+02
1.590581739617508150e+00 5.788877830902746382e+02
1.590681763623269518e+00 5.789278933439966295e+02
1.590781787629030886e+00 5.789675140557341138e+02
1.590881811634792253e+00 5.790066459620959449e+02
1.590981835640553621e+00 5.790452898105006625e+02
1.591081859646314989e+00 5.790834463591346548e+02
1.591181883652076356e+00 5.791211163769063432e+02
1.591281907657837724e+00 5.791583006434059371e+02
1.591381931663599092e+00 5.791949999488592766e+02
1.591481955669360460e+00 5.792312150940840638e+02
1.591581979675121827e+00 5.792669468904447285e+02
1.591682003680883417e+00 5.793021961598103644e+02
1.591782027686644785e+00 5.793369637345059573e+02
1.591882051692406153e+00 5.793712504572704347e+02
1.591982075698167520e+00 5.794050571812083490e+02
1.592082099703928888e+00 5.794383847697464489e+02
1.592182123709690256e+00 5.794712340965850217e+02
1.592282147715451623e+00 5.795036060456535552e+02
1.592382171721212991e+00 5.795355015110635577e+02
1.592482195726974359e+00 5.795669213970608098e+02
1.592582219732735727e+00 5.795978666179784113e+02
1.592682243738497094e+00 5.796283380981897153e+02
1.592782267744258462e+00 5.796583367720605793e+02
1.592882291750019830e+00 5.796878635839009348e+02
1.592982315755781197e+00 5.797169194879163570e+02
1.593082339761542565e+00 5.797455054481598609e+02
1.593182363767303933e+00 5.797736224384839261e+02
1.593282387773065301e+00 5.798012714424888827e+02
1.593382411778826668e+00 5.798284534534762997e+02
1.593482435784588258e+00 5.798551694743985081e+02
1.593582459790349848e+00 5.798814205178078964e+02
1.593682483796110994e+00 5.799072076058082530e+02
1.593782507801872583e+00 5.799325317700034930e+02
1.593882531807633729e+00 5.799573940514470678e+02
1.593982555813395319e+00 5.799817955005922840e+02
1.594082579819156464e+00 5.800057371772395527e+02
1.594182603824918054e+00 5.800292201504869354e+02
1.594282627830679200e+00 5.800522454986769390e+02
1.594382651836440790e+00 5.800748143093464932e+02
1.594482675842201935e+00 5.800969276791730636e+02
1.594582699847963525e+00 5.801185867139242873e+02
1.594682723853724671e+00 5.801397925284042003e+02
1.594782747859486260e+00 5.801605462464005996e+02
1.594882771865247406e+00 5.801808490006350212e+02
1.594982795871008996e+00 5.802007019327045327e+02
1.595082819876770142e+00 5.802201061930327342e+02
1.595182843882531731e+00 5.802390629408137102e+02
1.595282867888292877e+00 5.802575733439604164e+02
1.595382891894054689e+00 5.802756385790492004e+02
1.595482915899816057e+00 5.802932598312659138e+02
1.595582939905577424e+00 5.803104382943505470e+02
1.595682963911338792e+00 5.803271751705456154e+02
1.595782987917100160e+00 5.803434716705387473e+02
1.595883011922861527e+00 5.803593290134086828e+02
1.595983035928622895e+00 5.803747484265689991e+02
1.596083059934384263e+00 5.803897311457152455e+02
1.596183083940145631e+00 5.804042784147657130e+02
1.596283107945906998e+00 5.804183914858097069e+02
1.596383131951668366e+00 5.804320716190482017e+02
1.596483155957429734e+00 5.804453200827401815e+02
1.596583179963191101e+00 5.804581381531445459e+02
1.596683203968952469e+00 5.804705271144646304e+02
1.596783227974713837e+00 5.804824882587902266e+02
1.596883251980475205e+00 5.804940228860438083e+02
1.596983275986236572e+00 5.805051323039186855e+02
1.597083299991997940e+00 5.805158178278267087e+02
1.597183323997759530e+00 5.805260807808375603e+02
1.597283348003520898e+00 5.805359224936217970e+02
1.597383372009282265e+00 5.805453443043948027e+02
1.597483396015043633e+00 5.805543475588563069e+02
1.597583420020805001e+00 5.805629336101346780e+02
1.597683444026566368e+00 5.805711038187275790e+02
1.597783468032327736e+00 5.805788595524430775e+02
1.597883492038089104e+00 5.805862021863420068e+02
1.597983516043850472e+00 5.805931331026796443e+02
1.598083540049611839e+00 5.805996536908456847e+02
1.598183564055373207e+00 5.806057653473051232e+02
1.598283588061134575e+00 5.806114694755407299e+02
1.598383612066895942e+00 5.806167674859929093e+02
1.598483636072657310e+00 5.806216607959991052e+02
1.598583660078418678e+00 5.806261508297355931e+02
1.598683684084180046e+00 5.806302390181590454e+02
1.598783708089941413e+00 5.806339267989424116e+02
1.598883732095702781e+00 5.806372156164200078e+02
1.598983756101464149e+00 5.806401069215235111e+02
1.599083780107225738e+00 5.806426021717242065e+02
1.599183804112987106e+00 5.806447028309706866e+02
1.599283828118748474e+00 5.806464103696300754e+02
1.599383852124509842e+00 5.806477262644261828e+02
1.599483876130271209e+00 5.806486519983795915e+02
1.599583900136032577e+00 5.806491890607460391e+02
1.599683924141793945e+00 5.806493389469559361e+02
1.599783948147555313e+00 5.806491031585542260e+02
1.599883972153316680e+00 5.806484832031364931e+02
1.599983996159078048e+00 5.806474805942899593e+02
1.600084020164839416e+00 5.806460968515319792e+02
1.600184044170600783e+00 5.806443335002476260e+02
1.600284068176362151e+00 5.806421920716284149e+02
1.600384092182123519e+00 5.806396741026104564e+02
1.600484116187884887e+00 5.806367811358123845e+02
1.600584140193646254e+00 5.806335147194755564e+02
1.600684164199407622e+00 5.806298764073983421e+02
1.600784188205168990e+00 5.806258677588775754e+02
1.600884212210930801e+00 5.806214903386444348e+02
1.600984236216691947e+00 5.806167457168010060e+02
1.601084260222453537e+00 5.806116354687624153e+02
1.601184284228214683e+00 5.806061611751899818e+02
1.601284308233976272e+00 5.806003244219295993e+02
1.601384332239737418e+00 5.805941267999508000e+02
1.601484356245499008e+00 5.805875699052841128e+02
1.601584380251260153e+00 5.805806553389546707e+02
1.601684404257021743e+00 5.805733847069238891e+02
1.601784428262782889e+00 5.805657596200244370e+02
1.601884452268544479e+00 5.805577816938987326e+02
1.601984476274305624e+00 5.805494525489325497e+02
1.602084500280067214e+00 5.805407738101969244e+02
1.602184524285828360e+00 5.805317471073805109e+02
1.602284548291589950e+00 5.805223740747298962e+02
1.602384572297351095e+00 5.805126563509825246e+02
1.602484596303112685e+00 5.805025955793093999e+02
1.602584620308873831e+00 5.804921934072441445e+02
1.602684644314635420e+00 5.804814514866266109e+02
1.602784668320397010e+00 5.804703714735358062e+02
1.602884692326158378e+00 5.804589550282267965e+02
1.602984716331919746e+00 5.804472038150672688e+02
1.603084740337681113e+00 5.804351195024745493e+02
1.603184764343442481e+00 5.804227037628533026e+02
1.603284788349203849e+00 5.804099582725278879e+02
1.603384812354965216e+00 5.803968847116841516e+02
1.603484836360726584e+00 5.803834847643005332e+02
1.603584860366487952e+00 5.803697601180890615e+02
1.603684884372249320e+00 5.803557124644280520e+02
1.603784908378010687e+00 5.803413434983001480e+02
1.603884932383772055e+00 5.803266549182282006e+02
1.603984956389533423e+00 5.803116484262129688e+02
1.604084980395294791e+00 5.802963257276654758e+02
1.604185004401056158e+00 5.802806885313482326e+02
1.604285028406817526e+00 5.802647385493081629e+02
1.604385052412578894e+00 5.802484774968132797e+02
1.604485076418340261e+00 5.802319070922902711e+02
1.604585100424101851e+00 5.802150290572591302e+02
1.604685124429863219e+00 5.801978451162692636e+02
1.604785148435624587e+00 5.801803569968387819e+02
1.604885172441385954e+00 5.801625664293867430e+02
1.604985196447147322e+00 5.801444751471713062e+02
1.605085220452908690e+00 5.801260848862260673e+02
1.605185244458670057e+00 5.801073973852957124e+02
1.605285268464431425e+00 5.800884143857732624e+02
1.605385292470192793e+00 5.800691376316354990e+02
1.605485316475954161e+00 5.800495688693788452e+02
1.605585340481715528e+00 5.800297098479566102e+02
1.605685364487476896e+00 5.800095623187163483e+02
1.605785388493238264e+00 5.799891280353334650e+02
1.605885412498999631e+00 5.799684087537499408e+02
1.605985436504760999e+00 5.799474062321088468e+02
1.606085460510522367e+00 5.799261222306938635e+02
1.606185484516283735e+00 5.799045585118627741e+02
1.606285508522045102e+00 5.798827168399852781e+02
1.606385532527806470e+00 5.798605989813797805e+02
1.606485556533568060e+00 5.798382067042489325e+02
1.606585580539329428e+00 5.798155417786181260e+02
1.606685604545090795e+00 5.797926059762696696e+02
1.606785628550852163e+00 5.797694010706832159e+02
1.606885652556613531e+00 5.797459288369693695e+02
1.606985676562374898e+00 5.797221910518063623e+02
1.607085700568136266e+00 5.796981894933801414e+02
1.607185724573897634e+00 5.796739259413191121e+02
1.607285748579659002e+00 5.796494021766307014e+02
1.607385772585420369e+00 5.796246199816401941e+02
1.607485796591181737e+00 5.795995811399268405e+02
1.607585820596943105e+00 5.795742874362609882e+02
1.607685844602704472e+00 5.795487406565414403e+02
1.607785868608465840e+00 5.795229425877346330e+02
1.607885892614227208e+00 5.794968950178090381e+02
1.607985916619988576e+00 5.794705997356746821e+02
1.608085940625749943e+00 5.794440585311215273e+02
1.608185964631511311e+00 5.794172731947534203e+02
1.608285988637272901e+00 5.793902455179313620e+02
1.608386012643034491e+00 5.793629772927057502e+02
1.608486036648795636e+00 5.793354703117585132e+02
1.608586060654557226e+00 5.793077263683400133e+02
1.608686084660318372e+00 5.792797472562051553e+02
1.608786108666079961e+00 5.792515347695551782e+02
1.608886132671841107e+00 5.792230907029718310e+02
1.608986156677602697e+00 5.791944168513607565e+02
1.609086180683363843e+00 5.791655150098846434e+02
1.609186204689125432e+00 5.791363869739061556e+02
1.609286228694886578e+00 5.791070345389234717e+02
1.609386252700648168e+00 5.790774595005121910e+02
1.609486276706409313e+00 5.790476636542611004e+02
1.609586300712170903e+00 5.790176487957139670e+02
1.609686324717932049e+00 5.789874167203068964e+02
1.609786348723693639e+00 5.789569692233085334e+02
1.609886372729454784e+00 5.789263080997577617e+02
1.609986396735216374e+00 5.788954351444072017e+02
1.610086420740977520e+00 5.788643521516573855e+02
1.610186444746739332e+00 5.788330609155007096e+02
1.610286468752500699e+00 5.788015632294607258e+02
1.610386492758262067e+00 5.787698608865285905e+02
1.610486516764023435e+00 5.787379556791083814e+02
1.610586540769784802e+00 5.787058493989545696e+02
1.610686564775546170e+00 5.786735438371111968e+02
1.610786588781307538e+00 5.786410407838558285e+02
1.610886612787068906e+00 5.786083420286367982e+02
1.610986636792830273e+00 5.785754493600162505e+02
1.611086660798591641e+00 5.785423645656105691e+02
1.611186684804353009e+00 5.785090894320306916e+02
1.611286708810114376e+00 5.784756257448239012e+02
1.611386732815875744e+00 5.784419752884155059e+02
1.611486756821637112e+00 5.784081398460500623e+02
1.611586780827398480e+00 5.783741211997328264e+02
1.611686804833159847e+00 5.783399211301718879e+02
1.611786828838921215e+00 5.783055414167198478e+02
1.611886852844682583e+00 5.782709838373173170e+02
1.611986876850444173e+00 5.782362501684324343e+02
1.612086900856205540e+00 5.782013421850055011e+02
1.612186924861966908e+00 5.781662616603925926e+02
1.612286948867728276e+00 5.781310103663035989e+02
1.612386972873489643e+00 5.780955900727519747e+02
1.612486996879251011e+00 5.780600025479918713e+02
1.612587020885012379e+00 5.780242495584648168e+02
1.612687044890773747e+00 5.779883328687423045e+02
1.612787068896535114e+00 5.779522542414692907e+02
1.612887092902296482e+00 5.779160154373072373e+02
1.612987116908057850e+00 5.778796182148803382e+02
1.613087140913819217e+00 5.778430643307168566e+02
1.613187164919580585e+00 5.778063555391961472e+02
1.613287188925341953e+00 5.777694935924913580e+02
1.613387212931103321e+00 5.777324802405148603e+02
1.613487236936864688e+00 5.776953172308629973e+02
1.613587260942626056e+00 5.776580063087612871e+02
1.613687284948387424e+00 5.776205492170099660e+02
1.613787308954148791e+00 5.775829476959283966e+02
1.613887332959910381e+00 5.775452034833026573e+02
1.613987356965671749e+00 5.775073183143291544e+02
1.614087380971433117e+00 5.774692939215624392e+02
1.614187404977194484e+00 5.774311320348604113e+02
1.614287428982955852e+00 5.773928343813320225e+02
1.614387452988717220e+00 5.773544026852825937e+02
1.614487476994478587e+00 5.773158386681608363e+02
1.614587501000239955e+00 5.772771440485075800e+02
1.614687525006001323e+00 5.772383205419005208e+02
1.614787549011762691e+00 5.771993698609037438e+02
1.614887573017524058e+00 5.771602937150145181e+02
1.614987597023285426e+00 5.771210938106119102e+02
1.615087621029046794e+00 5.770817718509035785e+02
1.615187645034808162e+00 5.770423295358754103e+02
1.615287669040569529e+00 5.770027685622401350e+02
1.615387693046330897e+00 5.769630906233854830e+02
1.615487717052092265e+00 5.769232974093230268e+02
1.615587741057853632e+00 5.768833906066370218e+02
1.615687765063615444e+00 5.768433718984372263e+02
1.615787789069376590e+00 5.768032429643027399e+02
1.615887813075138180e+00 5.767630054802380073e+02
1.615987837080899325e+00 5.767226611186185892e+02
1.616087861086660915e+00 5.766822115481427318e+02
1.616187885092422061e+00 5.766416584337843005e+02
1.616287909098183651e+00 5.766010034367388926e+02
1.616387933103944796e+00 5.765602482143800671e+02
1.616487957109706386e+00 5.765193944202075045e+02
1.616587981115467532e+00 5.764784437037989164e+02
1.616688005121229121e+00 5.764373977107626388e+02
1.616788029126990267e+00 5.763962580826894282e+02
1.616888053132751857e+00 5.763550264571039179e+02
1.616988077138513002e+00 5.763137044674184608e+02
1.617088101144274592e+00 5.762722937428856085e+02
1.617188125150035738e+00 5.762307959085494531e+02
1.617288149155797328e+00 5.761892125852017443e+02
1.617388173161558473e+00 5.761475453893334588e+02
1.617488197167320063e+00 5.761057959330880749e+02
1.617588221173081653e+00 5.760639658242179166e+02
1.617688245178843021e+00 5.760220566660357235e+02
1.617788269184604388e+00 5.759800700573717904e+02
1.617888293190365756e+00 5.759380075925265601e+02
1.617988317196127124e+00 5.758958708612268538e+02
1.618088341201888491e+00 5.758536614485811924e+02
1.618188365207649859e+00 5.758113809350348902e+02
1.618288389213411227e+00 5.757690308963254893e+02
1.618388413219172595e+00 5.757266129034404685e+02
1.618488437224933962e+00 5.756841285225721094e+02
1.618588461230695330e+00 5.756415793150744094e+02
1.618688485236456698e+00 5.755989668374207895e+02
1.618788509242218066e+00 5.755562926411593025e+02
1.618888533247979433e+00 5.755135582728736381e+02
1.618988557253740801e+00 5.754707652741367383e+02
1.619088581259502169e+00 5.754279151814711213e+02
1.619188605265263536e+00 5.753850095263073854e+02
1.619288629271024904e+00 5.753420498349410082e+02
1.619388653276786494e+00 5.752990376284922149e+02
1.619488677282547862e+00 5.752559744228667569e+02
1.619588701288309229e+00 5.752128617287107772e+02
1.619688725294070597e+00 5.751697010513751138e+02
1.619788749299831965e+00 5.751264938908732347e+02
1.619888773305593332e+00 5.750832417418405385e+02
1.619988797311354700e+00 5.750399460934974059e+02
1.620088821317116068e+00 5.749966084296065674e+02
1.620188845322877436e+00 5.749532302284370644e+02
1.620288869328638803e+00 5.749098129627250273e+02
1.620388893334400171e+00 5.748663580996334304e+02
1.620488917340161539e+00 5.748228671007171897e+02
1.620588941345922906e+00 5.747793414218815542e+02
1.620688965351684274e+00 5.747357825133486813e+02
1.620788989357445642e+00 5.746921918196170509e+02
1.620889013363207010e+00 5.746485707794264499e+02
1.620989037368968377e+00 5.746049208257202281e+02
1.621089061374729745e+00 5.745612433856116468e+02
1.621189085380491113e+00 5.745175398803429516e+02
1.621289109386252703e+00 5.744738117252544498e+02
1.621389133392014070e+00 5.744300603297464249e+02
1.621489157397775438e+00 5.743862870972446899e+02
1.621589181403536806e+00 5.743424934251656850e+02
1.621689205409298173e+00 5.742986807048832816e+02
1.621789229415059541e+00 5.742548503216911513e+02
1.621889253420820909e+00 5.742110036547724121e+02
1.621989277426582277e+00 5.741671420771647263e+02
1.622089301432343644e+00 5.741232669557269901e+02
1.622189325438105012e+00 5.740793796511047731e+02
1.622289349443866380e+00 5.740354815177011005e+02
1.622389373449627747e+00 5.739915739036398463e+02
1.622489397455389115e+00 5.739476581507371975e+02
1.622589421461150483e+00 5.739037355944682304e+02
1.622689445466911851e+00 5.738598075639362150e+02
1.622789469472673218e+00 5.738158753818395326e+02
1.622889493478434586e+00 5.737719403644434806e+02
1.622989517484195954e+00 5.737280038215480999e+02
1.623089541489957544e+00 5.736840670564580478e+02
1.623189565495719133e+00 5.736401313659531525e+02
1.623289589501480279e+00 5.735961980402585141e+02
1.623389613507241869e+00 5.735522683630157417e+02
1.623489637513003014e+00 5.735083436112528261e+02
1.623589661518764604e+00 5.734644250553571965e+02
1.623689685524525750e+00 5.734205139590451381e+02
1.623789709530287340e+00 5.733766115793368954e+02
1.623889733536048485e+00 5.733327191665254077e+02
1.623989757541810075e+00 5.732888379641511847e+02
1.624089781547571221e+00 5.732449692089750215e+02
1.624189805553332810e+00 5.732011141309504865e+02
1.624289829559093956e+00 5.731572739531986826e+02
1.624389853564855546e+00 5.731134498919800535e+02
1.624489877570616692e+00 5.730696431566714182e+02
1.624589901576378281e+00 5.730258549497385729e+02
1.624689925582139427e+00 5.729820864667110527e+02
1.624789949587901017e+00 5.729383388961584842e+02
1.624889973593662162e+00 5.728946134196652338e+02
1.624989997599423974e+00 5.728509112118072153e+02
1.625090021605185342e+00 5.728072334401256285e+02
1.625190045610946710e+00 5.727635812651072911e+02
1.625290069616708077e+00 5.727199558401581498e+02
1.625390093622469445e+00 5.726763583115813390e+02
1.625490117628230813e+00 5.726327898185556933e+02
1.625590141633992181e+00 5.725892514931123287e+02
1.625690165639753548e+00 5.725457444601127008e+02
1.625790189645514916e+00 5.725022698372282548e+02
1.625890213651276284e+00 5.724588287349180291e+02
1.625990237657037651e+00 5.724154222564081920e+02
1.626090261662799019e+00 5.723720514976712366e+02
1.626190285668560387e+00 5.723287175474068817e+02
1.626290309674321755e+00 5.722854214870202441e+02
1.626390333680083122e+00 5.722421643906028521e+02
1.626490357685844490e+00 5.721989473249149114e+02
1.626590381691605858e+00 5.721557713493639312e+02
1.626690405697367225e+00 5.721126375159899453e+02
1.626790429703128815e+00 5.720695468694415240e+02
1.626890453708890183e+00 5.720265004469629275e+02
1.626990477714651551e+00 5.719834992783738699e+02
1.627090501720412918e+00 5.719405443860530340e+02
1.627190525726174286e+00 5.718976367849220424e+02
1.627290549731935654e+00 5.718547774824261296e+02
1.627390573737697022e+00 5.718119674785222060e+02
1.627490597743458389e+00 5.717692077656571428e+02
1.627590621749219757e+00 5.717264993287583366e+02
1.627690645754981125e+00 5.716838431452132454e+02
1.627790669760742492e+00 5.716412401848580203e+02
1.627890693766503860e+00 5.715986914099604519e+02
1.627990717772265228e+00 5.715561977752073517e+02
1.628090741778026596e+00 5.715137602276904545e+02
1.628190765783787963e+00 5.714713797068915255e+02
1.628290789789549331e+00 5.714290571446701961e+02
1.628390813795310699e+00 5.713867934652513441e+02
1.628490837801072066e+00 5.713445895852098602e+02
1.628590861806833434e+00 5.713024464134626896e+02
1.628690885812595024e+00 5.712603648512534846e+02
1.628790909818356392e+00 5.712183457921419176e+02
1.628890933824117759e+00 5.711763901219924264e+02
1.628990957829879127e+00 5.711344987189646645e+02
1.629090981835640495e+00 5.710926724534992900e+02
1.629191005841401862e+00 5.710509121883119406e+02
1.629291029847163230e+00 5.710092187783808413e+02
1.629391053852924598e+00 5.709675930709362319e+02
1.629491077858685966e+00 5.709260359054547962e+02
1.629591101864447333e+00 5.708845481136467015e+02
1.629691125870208701e+00 5.708431305194493461e+02
1.629791149875970069e+00 5.708017839390180370e+02
1.629891173881731437e+00 5.707605091807182589e+02
1.629991197887492804e+00 5.707193070451196490e+02
1.630091221893254172e+00 5.706781783249847422e+02
1.630191245899015540e+00 5.706371238052664694e+02
1.630291269904776907e+00 5.705961442630986085e+02
1.630391293910538275e+00 5.705552404677910090e+02
1.630491317916300087e+00 5.705144131808220891e+02
1.630591341922061233e+00 5.704736631558353110e+02
1.630691365927822822e+00 5.704329911386314507e+02
1.630791389933583968e+00 5.703923978671664372e+02
1.630891413939345558e+00 5.703518840715432816e+02
1.630991437945106703e+00 5.703114504740108259e+02
1.631091461950868293e+00 5.702710977889581727e+02
1.631191485956629439e+00 5.702308267229109333e+02
1.631291509962391029e+00 5.701906379745291815e+02
1.631391533968152174e+00 5.701505322346033608e+02
1.631491557973913764e+00 5.701105101860511013e+02
1.631591581979674910e+00 5.700705725039159688e+02
1.631691605985436500e+00 5.700307198553662147e+02
1.631791629991197645e+00 5.699909528996901145e+02
1.631891653996959235e+00 5.699512722882975595e+02
1.631991678002720381e+00 5.699116786647177832e+02
1.632091702008481970e+00 5.698721726645983381e+02
1.632191726014243116e+00 5.698327549157045269e+02
1.632291750020004706e+00 5.697934260379221314e+02
1.632391774025766296e+00 5.697541866432526376e+02
1.632491798031527663e+00 5.697150373358186926e+02
1.632591822037289031e+00 5.696759787118620579e+02
1.632691846043050399e+00 5.696370113597456566e+02
1.632791870048811766e+00 5.695981358599551641e+02
1.632891894054573134e+00 5.695593527851015097e+02
1.632991918060334502e+00 5.695206626999213313e+02
1.633091942066095870e+00 5.694820661612816366e+02
1.633191966071857237e+00 5.694435637181810534e+02
1.633291990077618605e+00 5.694051559117533543e+02
1.633392014083379973e+00 5.693668432752714352e+02
1.633492038089141341e+00 5.693286263341502718e+02
1.633592062094902708e+00 5.692905056059520348e+02
1.633692086100664076e+00 5.692524816003898422e+02
1.633792110106425444e+00 5.692145548193318518e+02
1.633892134112186811e+00 5.691767257568085370e+02
1.633992158117948179e+00 5.691389948990148469e+02
1.634092182123709547e+00 5.691013627243187329e+02
1.634192206129471137e+00 5.690638297032661512e+02
1.634292230135232504e+00 5.690263962985864055e+02
1.634392254140993872e+00 5.689890629652002190e+02
1.634492278146755240e+00 5.689518301502255326e+02
1.634592302152516607e+00 5.689146982929865999e+02
1.634692326158277975e+00 5.688776678250183068e+02
1.634792350164039343e+00 5.688407391700769722e+02
1.634892374169800711e+00 5.688039127441473966e+02
1.634992398175562078e+00 5.687671889554515019e+02
1.635092422181323446e+00 5.687305682044564037e+02
1.635192446187084814e+00 5.686940508838850974e+02
1.635292470192846181e+00 5.686576373787237344e+02
1.635392494198607549e+00 5.686213280662328771e+02
1.635492518204368917e+00 5.685851233159587537e+02
1.635592542210130285e+00 5.685490234897383743e+02
1.635692566215891652e+00 5.685130289417166978e+02
1.635792590221653020e+00 5.684771400183535661e+02
1.635892614227414388e+00 5.684413570584342779e+02
1.635992638233175756e+00 5.684056803930858450e+02
1.636092662238937345e+00 5.683701103457822228e+02
1.636192686244698713e+00 5.683346472323628404e+02
1.636292710250460081e+00 5.682992913610393089e+02
1.636392734256221448e+00 5.682640430324117915e+02
1.636492758261982816e+00 5.682289025394818509e+02
1.636592782267744184e+00 5.681938701676631354e+02
1.636692806273505552e+00 5.681589461947978634e+02
1.636792830279266919e+00 5.681241308911692158e+02
1.636892854285028287e+00 5.680894245195153189e+02
1.636992878290789655e+00 5.680548273350441377e+02
1.637092902296551022e+00 5.680203395854489372e+02
1.637192926302312390e+00 5.679859615109221522e+02
1.637292950308073758e+00 5.679516933441702804e+02
1.637392974313835126e+00 5.679175353104317310e+02
1.637492998319596493e+00 5.678834876274897852e+02
1.637593022325357861e+00 5.678495505056916954e+02
1.637693046331119229e+00 5.678157241479618733e+02
1.637793070336880596e+00 5.677820087498225803e+02
1.637893094342642186e+00 5.677484044994063197e+02
1.637993118348403776e+00 5.677149115774781194e+02
1.638093142354164922e+00 5.676815301574487194e+02
1.638193166359926511e+00 5.676482604053944669e+02
1.638293190365687657e+00 5.676151024800757341e+02
1.638393214371449247e+00 5.675820565329539704e+02
1.638493238377210393e+00 5.675491227082123942e+02
1.638593262382971982e+00 5.675163011427723632e+02
1.638693286388733128e+00 5.674835919663141794e+02
1.638793310394494718e+00 5.674509953012972119e+02
1.638893334400255863e+00 5.674185112629770629e+02
1.638993358406017453e+00 5.673861399594288741e+02
1.639093382411778599e+00 5.673538814915649482e+02
1.639193406417540189e+00 5.673217359531565762e+02
1.639293430423301334e+00 5.672897034308542743e+02
1.639393454429062924e+00 5.672577840042092703e+02
1.639493478434824070e+00 5.672259777456955590e+02
1.639593502440585659e+00 5.671942847207285467e+02
1.639693526446346805e+00 5.671627049876910860e+02
1.639793550452108617e+00 5.671312385979525743e+02
1.639893574457869985e+00 5.670998855958915783e+02
1.639993598463631352e+00 5.670686460189200488e+02
1.640093622469392720e+00 5.670375198975043531e+02
1.640193646475154088e+00 5.670065072551907406e+02
1.640293670480915456e+00 5.669756081086250106e+02
1.640393694486676823e+00 5.669448224675807069e+02
1.640493718492438191e+00 5.669141503349782170e+02
1.640593742498199559e+00 5.668835917069131938e+02
1.640693766503960926e+00 5.668531465726778151e+02
1.640793790509722294e+00 5.668228149147876138e+02
1.640893814515483662e+00 5.667925967090037602e+02
1.640993838521245030e+00 5.667624919243612567e+02
1.641093862527006397e+00 5.667325005231925843e+02
1.641193886532767765e+00 5.667026224611518046e+02
1.641293910538529133e+00 5.666728576872433223e+02
1.641393934544290500e+00 5.666432061438463279e+02
1.641493958550051868e+00 5.666136677667408321e+02
1.641593982555813458e+00 5.665842424851348369e+02
1.641694006561574826e+00 5.665549302216910519e+02
1.641794030567336193e+00 5.665257308925532698e+02
1.641894054573097561e+00 5.664966444073741059e+02
1.641994078578858929e+00 5.664676706693423966e+02
1.642094102584620297e+00 5.664388095752102572e+02
1.642194126590381664e+00 5.664100610153224125e+02
1.642294150596143032e+00 5.663814248736417767e+02
1.642394174601904400e+00 5.663529010277801490e+02
1.642494198607665767e+00 5.663244893490259528e+02
1.642594222613427135e+00 5.662961897023724305e+02
1.642694246619188503e+00 5.662680019465484520e+02
1.642794270624949871e+00 5.662399259340428443e+02
1.642894294630711238e+00 5.662119615111423627e+02
1.642994318636472606e+00 5.661841085179519268e+02
1.643094342642233974e+00 5.661563667884304323e+02
1.643194366647995341e+00 5.661287361504183764e+02
1.643294390653756709e+00 5.661012164256706001e+02
1.643394414659518077e+00 5.660738074298827769e+02
1.643494438665279667e+00 5.660465089727242685e+02
1.643594462671041034e+00 5.660193208578706390e+02
1.643694486676802402e+00 5.659922428830313947e+02
1.643794510682563770e+00 5.659652748399831808e+02
1.643894534688325137e+00 5.659384165146008172e+02
1.643994558694086505e+00 5.659116676868890181e+02
1.644094582699847873e+00 5.658850281310144510e+02
1.644194606705609241e+00 5.658584976153365460e+02
1.644294630711370608e+00 5.658320759024412610e+02
1.644394654717131976e+00 5.658057627491733683e+02
1.644494678722893344e+00 5.657795579066669234e+02
1.644594702728654712e+00 5.657534611203814165e+02
1.644694726734416079e+00 5.657274721301316731e+02
1.644794750740177447e+00 5.657015906701236645e+02
1.644894774745938815e+00 5.656758164689840669e+02
1.644994798751700182e+00 5.656501492497985737e+02
1.645094822757461550e+00 5.656245887301420225e+02
1.645194846763222918e+00 5.655991346221142066e+02
1.645294870768984730e+00 5.655737866323722756e+02
1.645394894774745875e+00 5.655485444621660918e+02
1.645494918780507465e+00 5.655234078073723367e+02
1.645594942786268611e+00 5.654983763585288443e+02
1.645694966792030201e+00 5.654734498008689343e+02
1.645794990797791346e+00 5.654486278143590425e+02
1.645895014803552936e+00 5.654239100737290755e+02
1.645995038809314082e+00 5.653992962485106091e+02
1.646095062815075671e+00 5.653747860030734955e+02
1.646195086820836817e+00 5.653503789966578097e+02
1.646295110826598407e+00 5.653260748834122751e+02
1.646395134832359552e+00 5.653018733124283699e+02
1.646495158838121142e+00 5.652777739277787532e+02
1.646595182843882288e+00 5.652537763685497794e+02
1.646695206849643878e+00 5.652298802688819706e+02
1.646795230855405023e+00 5.652060852580028723e+02
1.646895254861166613e+00 5.651823909602657068e+02
1.646995278866927759e+00 5.651587969951845025e+02
1.647095302872689349e+00 5.651353029774743391e+02
1.647195326878450938e+00 5.651119085170835206e+02
1.647295350884212306e+00 5.650886132192342757e+02
1.647395374889973674e+00 5.650654166844590236e+02
1.647495398895735041e+00 5.650423185086380045e+02
1.647595422901496409e+00 5.650193182830366823e+02
1.647695446907257777e+00 5.649964155943426931e+02
1.647795470913019145e+00 5.649736100247048398e+02
1.647895494918780512e+00 5.649509011517706085e+02
1.647995518924541880e+00 5.649282885487244812e+02
1.648095542930303248e+00 5.649057717843254522e+02
1.648195566936064616e+00 5.648833504229467053e+02
1.648295590941825983e+00 5.648610240246118792e+02
1.648395614947587351e+00 5.648387921450358817e+02
1.648495638953348719e+00 5.648166543356625198e+02
1.648595662959110086e+00 5.647946101437032667e+02
1.648695686964871454e+00 5.647726591121767115e+02
1.648795710970632822e+00 5.647508007799466441e+02
1.648895734976394190e+00 5.647290346817635509e+02
1.648995758982155779e+00 5.647073603482991757e+02
1.649095782987917147e+00 5.646857773061915395e+02
1.649195806993678515e+00 5.646642850780805247e+02
1.649295830999439882e+00 5.646428831826485748e+02
1.649395855005201250e+00 5.646215711346609396e+02
1.649495879010962618e+00 5.646003484450052383e+02
1.649595903016723986e+00 5.645792146207295445e+02
1.649695927022485353e+00 5.645581691650852463e+02
1.649795951028246721e+00 5.645372115775656994e+02
1.649895975034008089e+00 5.645163413539452222e+02
1.649995999039769456e+00 5.644955579863218418e+02
1.650096023045530824e+00 5.644748609631554928e+02
1.650196047051292192e+00 5.644542497693091718e+02
1.650296071057053560e+00 5.644337238860905472e+02
1.650396095062814927e+00 5.644132827912900439e+02
1.650496119068576295e+00 5.643929259592230210e+02
1.650596143074337663e+00 5.643726528607728596e+02
1.650696167080099030e+00 5.643524629634254097e+02
1.650796191085860398e+00 5.643323557313173069e+02
1.650896215091621988e+00 5.643123306252714428e+02
1.650996239097383356e+00 5.642923871028410758e+02
1.651096263103144723e+00 5.642725246183497347e+02
1.651196287108906091e+00 5.642527426229318053e+02
1.651296311114667459e+00 5.642330405645753899e+02
1.651396335120428827e+00 5.642134178881620983e+02
1.651496359126190194e+00 5.641938740355100208e+02
1.651596383131951562e+00 5.641744084454127233e+02
1.651696407137712930e+00 5.641550205536842668e+02
1.651796431143474297e+00 5.641357097931963835e+02
1.651896455149235665e+00 5.641164755939242923e+02
1.651996479154997033e+00 5.640973173829853522e+02
1.652096503160758401e+00 5.640782345846822636e+02
1.652196527166519768e+00 5.640592266205443366e+02
1.652296551172281136e+00 5.640402929093692137e+02
1.652396575178042504e+00 5.640214328672649344e+02
1.652496599183803871e+00 5.640026459076918854e+02
1.652596623189565239e+00 5.639839314415040690e+02
1.652696647195326829e+00 5.639652888769926449e+02
1.652796671201088419e+00 5.639467176199259484e+02
1.652896695206849564e+00 5.639282170735921227e+02
1.652996719212611154e+00 5.639097866388428884e+02
1.653096743218372300e+00 5.638914257141328790e+02
1.653196767224133890e+00 5.638731336955631832e+02
1.653296791229895035e+00 5.638549099769251143e+02
1.653396815235656625e+00 5.638367539497393182e+02
1.653496839241417771e+00 5.638186650032992020e+02
1.653596863247179360e+00 5.638006425247139077e+02
1.653696887252940506e+00 5.637826858989507173e+02
1.653796911258702096e+00 5.637647945088748429e+02
1.653896935264463242e+00 5.637469677352958115e+02
1.653996959270224831e+00 5.637292049570057770e+02
1.654096983275985977e+00 5.637115055508237447e+02
1.654197007281747567e+00 5.636938688916377487e+02
1.654297031287508712e+00 5.636762943524489629e+02
1.654397055293270302e+00 5.636587813044088762e+02
1.654497079299031448e+00 5.636413291168668138e+02
1.654597103304793260e+00 5.636239371574106372e+02
1.654697127310554627e+00 5.636066047919090352e+02
1.654797151316315995e+00 5.635893313845526791e+02
1.654897175322077363e+00 5.635721162978983330e+02
1.654997199327838731e+00 5.635549588929101219e+02
1.655097223333600098e+00 5.635378585290027331e+02
1.655197247339361466e+00 5.635208145640826842e+02
1.655297271345122834e+00 5.635038263545916379e+02
1.655397295350884201e+00 5.634868932555483525e+02
1.655497319356645569e+00 5.634700146205902911e+02
1.655597343362406937e+00 5.634531898020177323e+02
1.655697367368168305e+00 5.634364181508339016e+02
1.655797391373929672e+00 5.634196990167874901e+02
1.655897415379691040e+00 5.634030317484180159e+02
1.655997439385452408e+00 5.633864156930924310e+02
1.656097463391213775e+00 5.633698501970521875e+02
1.656197487396975143e+00 5.633533346054542790e+02
1.656297511402736511e+00 5.633368682624109169e+02
1.656397535408498101e+00 5.633204505110348919e+02
1.656497559414259468e+00 5.633040806934791362e+02
1.656597583420020836e+00 5.632877581509806078e+02
1.656697607425782204e+00 5.632714822239006480e+02
1.656797631431543572e+00 5.632552522517688658e+02
1.656897655437304939e+00 5.632390675733220178e+02
1.656997679443066307e+00 5.632229275265501656e+02
1.657097703448827675e+00 5.632068314487353291e+02
1.657197727454589042e+00 5.631907786764924140e+02
1.657297751460350410e+00 5.631747685458154820e+02
1.657397775466111778e+00 5.631588003921140171e+02
1.657497799471873146e+00 5.631428735502584004e+02
1.657597823477634513e+00 5.631269873546211784e+02
1.657697847483395881e+00 5.631111411391151478e+02
1.657797871489157249e+00 5.630953342372403085e+02
1.657897895494918616e+00 5.630795659821186518e+02
1.657997919500679984e+00 5.630638357065440687e+02
1.658097943506441352e+00 5.630481427430152053e+02
1.658197967512202720e+00 5.630324864237812790e+02
1.658297991517964309e+00 5.630168660808822096e+02
1.658398015523725677e+00 5.630012810461905701e+02
1.658498039529487045e+00 5.629857306514509219e+02
1.658598063535248412e+00 5.629702142283222202e+02
1.658698087541009780e+00 5.629547311084188550e+02
1.658798111546771148e+00 5.629392806233490774e+02
1.658898135552532516e+00 5.629238621047604738e+02
1.658998159558293883e+00 5.629084748843749821e+02
1.659098183564055251e+00 5.628931182940340250e+02
1.659198207569816619e+00 5.628777916657365950e+02
1.659298231575577987e+00 5.628624943316805229e+02
1.659398255581339354e+00 5.628472256243020411e+02
1.659498279587100722e+00 5.628319848763186428e+02
1.659598303592862090e+00 5.628167714207650079e+02
1.659698327598623457e+00 5.628015845910375674e+02
1.659798351604384825e+00 5.627864237209307703e+02
1.659898375610146193e+00 5.627712881446800566e+02
1.659998399615907561e+00 5.627561771969985784e+02
1.660098423621669372e+00 5.627410902131204011e+02
1.660198447627430518e+00 5.627260265288371102e+02
1.660298471633192108e+00 5.627109854805396481e+02
1.660398495638953253e+00 5.626959664052560584e+02
1.660498519644714843e+00 5.626809686406910487e+02
1.660598543650475989e+00 5.626659915252665769e+02
1.660698567656237579e+00 5.626510343981598226e+02
1.660798591661998724e+00 5.626360965993419541e+02
1.660898615667760314e+00 5.626211774696182601e+02
1.660998639673521460e+00 5.626062763506654392e+02
1.661098663679283050e+00 5.625913925850712758e+02
1.661198687685044195e+00 5.625765255163745451e+02
1.661298711690805785e+00 5.625616744890987775e+02
1.661398735696566931e+00 5.625468388487970515e+02
1.661498759702328520e+00 5.625320179420854174e+02
1.661598783708089666e+00 5.625172111166816649e+02
1.661698807713851256e+00 5.625024177214461361e+02
1.661798831719612402e+00 5.624876371064165141e+02
1.661898855725373991e+00 5.624728686228462493e+02
1.661998879731135581e+00 5.624581116232442355e+02
1.662098903736896949e+00 5.624433654614097122e+02
1.662198927742658316e+00 5.624286294924702361e+02
1.662298951748419684e+00 5.624139030729202204e+02
1.662398975754181052e+00 5.623991855606550416e+02
1.662498999759942420e+00 5.623844763150138988e+02
1.662599023765703787e+00 5.623697746968091451e+02
1.662699047771465155e+00 5.623550800683682382e+02
1.662799071777226523e+00 5.623403917935692107e+02
1.662899095782987891e+00 5.623257092378750031e+02
1.662999119788749258e+00 5.623110317683725725e+02
1.663099143794510626e+00 5.622963587538075672e+02
1.663199167800271994e+00 5.622816895646203648e+02
1.663299191806033361e+00 5.622670235729824526e+02
1.663399215811794729e+00 5.622523601528309882e+02
1.663499239817556097e+00 5.622376986799055203e+02
1.663599263823317465e+00 5.622230385317841410e+02
1.663699287829078832e+00 5.622083790879153185e+02
1.663799311834840422e+00 5.621937197296568911e+02
1.663899335840601790e+00 5.621790598403092645e+02
1.663999359846363157e+00 5.621643988051500855e+02
1.664099383852124525e+00 5.621497360114686899e+02
1.664199407857885893e+00 5.621350708486021404e+02
1.664299431863647261e+00 5.621204027079663774e+02
1.664399455869408628e+00 5.621057309830949862e+02
1.664499479875169996e+00 5.620910550696684140e+02
1.664599503880931364e+00 5.620763743655519420e+02
1.664699527886692731e+00 5.620616882708256981e+02
1.664799551892454099e+00 5.620469961878205822e+02
1.664899575898215467e+00 5.620322975211504399e+02
1.664999599903976835e+00 5.620175916777468501e+02
1.665099623909738202e+00 5.620028780668892523e+02
1.665199647915499570e+00 5.619881561002406443e+02
1.665299671921260938e+00 5.619734251918787322e+02
1.665399695927022305e+00 5.619586847583287863e+02
1.665499719932783673e+00 5.619439342185947908e+02
1.665599743938545041e+00 5.619291729941946869e+02
1.665699767944306631e+00 5.619144005091879990e+02
1.665799791950067998e+00 5.618996161902114181e+02
1.665899815955829366e+00 5.618848194665081337e+02
1.665999839961590734e+00 5.618700097699598928e+02
1.666099863967352102e+00 5.618551865351187189e+02
1.666199887973113469e+00 5.618403491992363570e+02
1.666299911978874837e+00 5.618254972022976972e+02
1.666399935984636205e+00 5.618106299870487419e+02
1.666499959990397572e+00 5.617957469990292338e+02
1.666599983996158940e+00 5.617808476866016463e+02
1.666700008001920308e+00 5.617659315009810825e+02
1.666800032007681676e+00 5.617509978962664263e+02
1.666900056013443043e+00 5.617360463294692181e+02
1.667000080019204411e+00 5.617210762605427590e+02
1.667100104024965779e+00 5.617060871524133745e+02
1.667200128030727146e+00 5.616910784710070175e+02
1.667300152036488514e+00 5.616760496852791675e+02
1.667400176042249882e+00 5.616610002672449582e+02
1.667500200048011472e+00 5.616459296920047564e+02
1.667600224053773061e+00 5.616308374377759947e+02
1.667700248059534207e+00 5.616157229859175004e+02
1.667800272065295797e+00 5.616005858209622374e+02
1.667900296071056943e+00 5.615854254306395887e+02
1.668000320076818532e+00 5.615702413059073024e+02
1.668100344082579678e+00 5.615550329409761616e+02
1.668200368088341268e+00 5.615397998333381793e+02
1.668300392094102413e+00 5.615245414837930866e+02
1.668400416099864003e+00 5.615092573964758458e+02
1.668500440105625149e+00 5.614939470788817744e+02
1.668600464111386739e+00 5.614786100418942851e+02
1.668700488117147884e+00 5.614632457998097834e+02
1.668800512122909474e+00 5.614478538703637014e+02
1.668900536128670620e+00 5.614324337747566460e+02
1.669000560134432209e+00 5.614169850376802060e+02
1.669100584140193355e+00 5.614015071873407123e+02
1.669200608145954945e+00 5.613859997554847041e+02
1.669300632151716091e+00 5.613704622774253039e+02
1.669400656157477902e+00 5.613548942920639320e+02
1.669500680163239270e+00 5.613392953419174773e+02
1.669600704169000638e+00 5.613236649731404668e+02
1.669700728174762006e+00 5.613080027355491666e+02
1.669800752180523373e+00 5.612923081826470479e+02
1.669900776186284741e+00 5.612765808716459333e+02
1.670000800192046109e+00 5.612608203634899837e+02
1.670100824197807476e+00 5.612450262228790052e+02
1.670200848203568844e+00 5.612291980182914131e+02
1.670300872209330212e+00 5.612133353220067420e+02
1.670400896215091580e+00 5.611974377101266782e+02
1.670500920220852947e+00 5.611815047625987063e+02
1.670600944226614315e+00 5.611655360632374823e+02
1.670700968232375683e+00 5.611495311997466615e+02
1.670800992238137050e+00 5.611334897637393624e+02
1.670901016243898418e+00 5.611174113507609036e+02
1.671001040249659786e+00 5.611012955603073351e+02
1.671101064255421154e+00 5.610851419958499946e+02
1.671201088261182743e+00 5.610689502648510825e+02
1.671301112266944111e+00 5.610527199787886730e+02
1.671401136272705479e+00 5.610364507531730851e+02
1.671501160278466847e+00 5.610201422075691653e+02
1.671601184284228214e+00 5.610037939656142498e+02
1.671701208289989582e+00 5.609874056550379464e+02
1.671801232295750950e+00 5.609709769076810062e+02
1.671901256301512317e+00 5.609545073595148779e+02
1.672001280307273685e+00 5.609379966506601249e+02
1.672101304313035053e+00 5.609214444254032514e+02
1.672201328318796421e+00 5.609048503322176202e+02
1.672301352324557788e+00 5.608882140237778913e+02
1.672401376330319156e+00 5.608715351569813947e+02
1.672501400336080524e+00 5.608548133929621144e+02
1.672601424341841891e+00 5.608380483971102421e+02
1.672701448347603259e+00 5.608212398390870703e+02
1.672801472353364627e+00 5.608043873928440917e+02
1.672901496359125995e+00 5.607874907366377784e+02
1.673001520364887362e+00 5.607705495530448161e+02
1.673101544370648952e+00 5.607535635289810898e+02
1.673201568376410320e+00 5.607365323557140755e+02
1.673301592382171687e+00 5.607194557288804617e+02
1.673401616387933055e+00 5.607023333485005878e+02
1.673501640393694423e+00 5.606851649189927684e+02
1.673601664399455791e+00 5.606679501491898918e+02
1.673701688405217158e+00 5.606506887523514706e+02
1.673801712410978526e+00 5.606333804461795580e+02
1.673901736416739894e+00 5.606160249528318218e+02
1.674001760422501262e+00 5.605986219989356414e+02
1.674101784428262629e+00 5.605811713156023188e+02
1.674201808434023997e+00 5.605636726384375379e+02
1.674301832439785365e+00 5.605461257075588719e+02
1.674401856445546732e+00 5.605285302676029460e+02
1.674501880451308100e+00 5.605108860677423763e+02
1.674601904457069468e+00 5.604931928616973664e+02
1.674701928462830836e+00 5.604754504077448019e+02
1.674801952468592203e+00 5.604576584687330296e+02
1.674901976474354015e+00 5.604398168120906121e+02
1.675002000480115161e+00 5.604219252098407651e+02
1.675102024485876751e+00 5.604039834386111352e+02
1.675202048491637896e+00 5.603859912796400522e+02
1.675302072497399486e+00 5.603679485187951741e+02
1.675402096503160632e+00 5.603498549465774659e+02
1.675502120508922221e+00 5.603317103581327956e+02
1.675602144514683367e+00 5.603135145532625074e+02
1.675702168520444957e+00 5.602952673364311522e+02
1.675802192526206102e+00 5.602769685167772877e+02
1.675902216531967692e+00 5.602586179081220052e+02
1.676002240537728838e+00 5.602402153289763191e+02
1.676102264543490428e+00 5.602217606025523082e+02
1.676202288549251573e+00 5.602032535567680043e+02
1.676302312555013163e+00 5.601846940242570554e+02
1.676402336560774309e+00 5.601660818423765704e+02
1.676502360566535899e+00 5.601474168532138265e+02
1.676602384572297044e+00 5.601286989035938859e+02
1.676702408578058634e+00 5.601099278450855081e+02
1.676802432583820224e+00 5.600911035340092212e+02
1.676902456589581591e+00 5.600722258314424380e+02
1.677002480595342959e+00 5.600532946032262771e+02
1.677102504601104327e+00 5.600343097199712474e+02
1.677202528606865695e+00 5.600152710570623640e+02
1.677302552612627062e+00 5.599961784946650596e+02
1.677402576618388430e+00 5.599770319177305282e+02
1.677502600624149798e+00 5.599578312159998177e+02
1.677602624629911165e+00 5.599385762840083771e+02
1.677702648635672533e+00 5.599192670210902634e+02
1.677802672641433901e+00 5.598999033313843938e+02
1.677902696647195269e+00 5.598804851238346600e+02
1.678002720652956636e+00 5.598610123121960669e+02
1.678102744658718004e+00 5.598414848150382568e+02
1.678202768664479372e+00 5.598219025557452824e+02
1.678302792670240740e+00 5.598022654625233372e+02
1.678402816676002107e+00 5.597825734683982546e+02
1.678502840681763475e+00 5.597628265112221015e+02
1.678602864687525065e+00 5.597430245336715871e+02
1.678702888693286432e+00 5.597231674832534054e+02
1.678802912699047800e+00 5.597032553123016214e+02
1.678902936704809168e+00 5.596832879779818768e+02
1.679002960710570536e+00 5.596632654422925270e+02
1.679102984716331903e+00 5.596431876720632772e+02
1.679203008722093271e+00 5.596230546389567735e+02
1.679303032727854639e+00 5.596028663194692854e+02
1.679403056733616006e+00 5.595826226949297961e+02
1.679503080739377374e+00 5.595623237515005712e+02
1.679603104745138742e+00 5.595419694801767037e+02
1.679703128750900110e+00 5.595215598767831580e+02
1.679803152756661477e+00 5.595010949419768167e+02
1.679903176762422845e+00 5.594805746812426150e+02
1.680003200768184213e+00 5.594599991048935408e+02
1.680103224773945580e+00 5.594393682280693838e+02
1.680203248779706948e+00 5.594186820707315064e+02
1.680303272785468316e+00 5.593979406576648898e+02
1.680403296791229684e+00 5.593771440184718813e+02
1.680503320796991273e+00 5.593562921875706024e+02
1.680603344802752641e+00 5.593353852041941536e+02
1.680703368808514009e+00 5.593144231123831105e+02
1.680803392814275377e+00 5.592934059609845008e+02
1.680903416820036744e+00 5.592723338036486211e+02
1.681003440825798112e+00 5.592512066988231254e+02
1.681103464831559480e+00 5.592300247097498413e+02
1.681203488837320847e+00 5.592087879044593137e+02
1.681303512843082215e+00 5.591874963557670526e+02
1.681403536848843583e+00 5.591661501412681901e+02
1.681503560854604951e+00 5.591447493433313412e+02
1.681603584860366318e+00 5.591232940490936016e+02
1.681703608866127686e+00 5.591017843504553184e+02
1.681803632871889054e+00 5.590802203440725862e+02
1.681903656877650421e+00 5.590586021313532683e+02
1.682003680883411789e+00 5.590369298184477884e+02
1.682103704889173157e+00 5.590152035162450375e+02
1.682203728894934525e+00 5.589934233403612325e+02
1.682303752900696114e+00 5.589715894111376429e+02
1.682403776906457704e+00 5.589497018536303585e+02
1.682503800912218850e+00 5.589277607976018771e+02
1.682603824917980440e+00 5.589057663775151923e+02
1.682703848923741585e+00 5.588837187325233344e+02
1.682803872929503175e+00 5.588616180064634591e+02
1.682903896935264321e+00 5.588394643478449098e+02
1.683003920941025910e+00 5.588172579098434198e+02
1.683103944946787056e+00 5.587949988502896304e+02
1.683203968952548646e+00 5.587726873316609044e+02
1.683303992958309792e+00 5.587503235210708681e+02
1.683404016964071381e+00 5.587279075902599743e+02
1.683504040969832527e+00 5.587054397155847028e+02
1.683604064975594117e+00 5.586829200780086921e+02
1.683704088981355262e+00 5.586603488630904621e+02
1.683804112987116852e+00 5.586377262609724994e+02
1.683904136992877998e+00 5.586150524663719352e+02
1.684004160998639588e+00 5.585923276785670168e+02
1.684104185004400733e+00 5.585695521013867619e+02
1.684204209010162545e+00 5.585467259431997036e+02
1.684304233015923913e+00 5.585238494169007026e+02
1.684404257021685281e+00 5.585009227398983285e+02
1.684504281027446648e+00 5.584779461341039450e+02
1.684604305033208016e+00 5.584549198259178411e+02
1.684704329038969384e+00 5.584318440462167246e+02
1.684804353044730751e+00 5.584087190303401940e+02
1.684904377050492119e+00 5.583855450180781190e+02
1.685004401056253487e+00 5.583623222536546109e+02
1.685104425062014855e+00 5.583390509857189272e+02
1.685204449067776222e+00 5.583157314673248948e+02
1.685304473073537590e+00 5.582923639559231788e+02
1.685404497079298958e+00 5.582689487133426383e+02
1.685504521085060325e+00 5.582454860057749784e+02
1.685604545090821693e+00 5.582219761037642911e+02
1.685704569096583061e+00 5.581984192821860233e+02
1.685804593102344429e+00 5.581748158202371997e+02
1.685904617108105796e+00 5.581511660014158451e+02
1.686004641113867386e+00 5.581274701135088208e+02
1.686104665119628754e+00 5.581037284485737473e+02
1.686204689125390122e+00 5.580799413029230891e+02
1.686304713131151489e+00 5.580561089771078969e+02
1.686404737136912857e+00 5.580322317759014368e+02
1.686504761142674225e+00 5.580083100082811143e+02
1.686604785148435592e+00 5.579843439874130127e+02
1.686704809154196960e+00 5.579603340306322252e+02
1.686804833159958328e+00 5.579362804594277350e+02
1.686904857165719696e+00 5.579121835994232015e+02
1.687004881171481063e+00 5.578880437803585437e+02
1.687104905177242431e+00 5.578638613360741374e+02
1.687204929183003799e+00 5.578396366044893284e+02
1.687304953188765166e+00 5.578153699275854933e+02
1.687404977194526534e+00 5.577910616513875084e+02
1.687505001200287902e+00 5.577667121259436271e+02
1.687605025206049270e+00 5.577423217053078588e+02
1.687705049211810637e+00 5.577178907475180267e+02
1.687805073217572005e+00 5.576934196145789429e+02
1.687905097223333595e+00 5.576689086724409208e+02
1.688005121229094962e+00 5.576443582909799943e+02
1.688105145234856330e+00 5.576197688439776812e+02
1.688205169240617698e+00 5.575951407091012015e+02
1.688305193246379066e+00 5.575704742678822186e+02
1.688405217252140433e+00 5.575457699056960337e+02
1.688505241257901801e+00 5.575210280117407819e+02
1.688605265263663169e+00 5.574962489790168547e+02
1.688705289269424537e+00 5.574714332043045033e+02
1.688805313275185904e+00 5.574465810881420111e+02
1.688905337280947272e+00 5.574216930348056849e+02
1.689005361286708640e+00 5.573967694522862075e+02
1.689105385292470007e+00 5.573718107522669243e+02
1.689205409298231375e+00 5.573468173501023557e+02
1.689305433303992743e+00 5.573217896647945508e+02
1.689405457309754111e+00 5.572967281189709183e+02
1.689505481315515478e+00 5.572716331388619437e+02
1.689605505321276846e+00 5.572465051542767469e+02
1.689705529327038658e+00 5.572213445985811404e+02
1.689805553332799803e+00 5.571961519086735279e+02
1.689905577338561393e+00 5.571709275249614848e+02
1.690005601344322539e+00 5.571456718913382247e+02
1.690105625350084129e+00 5.571203854551584982e+02
1.690205649355845274e+00 5.570950686672142638e+02
1.690305673361606864e+00 5.570697219817110408e+02
1.690405697367368010e+00 5.570443458562424439e+02
1.690505721373129600e+00 5.570189407517665359e+02
1.690605745378890745e+00 5.569935071325809304e+02
1.690705769384652335e+00 5.569680454662967577e+02
1.690805793390413481e+00 5.569425562238147904e+02
1.690905817396175070e+00 5.569170398793002050e+02
1.691005841401936216e+00 5.568914969101559791e+02
1.691105865407697806e+00 5.568659277969987897e+02
1.691205889413458952e+00 5.568403330236307056e+02
1.691305913419220541e+00 5.568147130770169042e+02
1.691405937424981687e+00 5.567890684472565681e+02
1.691505961430743277e+00 5.567633996275575328e+02
1.691605985436504866e+00 5.567377071142111618e+02
1.691706009442266234e+00 5.567119914065635840e+02
1.691806033448027602e+00 5.566862530069905688e+02
1.691906057453788970e+00 5.566604924208699003e+02
1.692006081459550337e+00 5.566347101565551156e+02
1.692106105465311705e+00 5.566089067253475378e+02
1.692206129471073073e+00 5.565830826414699004e+02
1.692306153476834440e+00 5.565572384220366757e+02
1.692406177482595808e+00 5.565313745870303137e+02
1.692506201488357176e+00 5.565054916592692962e+02
1.692606225494118544e+00 5.564795901643839215e+02
1.692706249499879911e+00 5.564536706307853819e+02
1.692806273505641279e+00 5.564277335896392742e+02
1.692906297511402647e+00 5.564017795748379740e+02
1.693006321517164015e+00 5.563758091229686897e+02
1.693106345522925382e+00 5.563498227732886789e+02
1.693206369528686750e+00 5.563238210676953486e+02
1.693306393534448118e+00 5.562978045506973785e+02
1.693406417540209707e+00 5.562717737693845947e+02
1.693506441545971075e+00 5.562457292734002294e+02
1.693606465551732443e+00 5.562196716149118174e+02
1.693706489557493811e+00 5.561936013485809553e+02
1.693806513563255178e+00 5.561675190315340842e+02
1.693906537569016546e+00 5.561414252233329307e+02
1.694006561574777914e+00 5.561153204859458583e+02
1.694106585580539281e+00 5.560892053837164895e+02
1.694206609586300649e+00 5.560630804833330103e+02
1.694306633592062017e+00 5.560369463538014543e+02
1.694406657597823385e+00 5.560108035664119370e+02
1.694506681603584752e+00 5.559846526947105758e+02
1.694606705609346120e+00 5.559584943144679983e+02
1.694706729615107488e+00 5.559323290036498975e+02
1.694806753620868855e+00 5.559061573423838354e+02
1.694906777626630223e+00 5.558799799129319581e+02
1.695006801632391591e+00 5.558537972996576855e+02
1.695106825638152959e+00 5.558276100889958116e+02
1.695206849643914326e+00 5.558014188694211271e+02
1.695306873649675916e+00 5.557752242314163595e+02
1.695406897655437284e+00 5.557490267674432971e+02
1.695506921661198652e+00 5.557228270719085685e+02
1.695606945666960019e+00 5.556966257411340848e+02
1.695706969672721387e+00 5.556704233733240699e+02
1.695806993678482755e+00 5.556442205685359568e+02
1.695907017684244122e+00 5.556180179286448038e+02
1.696007041690005490e+00 5.555918160573143041e+02
1.696107065695766858e+00 5.555656155599648400e+02
1.696207089701528226e+00 5.555394170437393768e+02
1.696307113707289593e+00 5.555132211174731083e+02
1.696407137713050961e+00 5.554870283916610560e+02
1.696507161718812329e+00 5.554608394784245320e+02
1.696607185724573696e+00 5.554346549914806701e+02
1.696707209730335064e+00 5.554084755461084342e+02
1.696807233736096432e+00 5.553823017591173539e+02
1.696907257741857800e+00 5.553561342488128503e+02
1.697007281747619167e+00 5.553299736349649720e+02
1.697107305753380757e+00 5.553038205387788366e+02
1.697207329759142347e+00 5.552776755828537034e+02
1.697307353764903493e+00 5.552515393911576211e+02
1.697407377770665082e+00 5.552254125889915031e+02
1.697507401776426228e+00 5.551992958029555894e+02
1.697607425782187818e+00 5.551731896609175010e+02
1.697707449787948963e+00 5.551470947919780201e+02
1.697807473793710553e+00 5.551210118264393714e+02
1.697907497799471699e+00 5.550949413957696379e+02
1.698007521805233289e+00 5.550688841325718386e+02
1.698107545810994434e+00 5.550428406705493671e+02
1.698207569816756024e+00 5.550168116444704083e+02
1.698307593822517170e+00 5.549907976901392885e+02
1.698407617828278759e+00 5.549647994443588459e+02
1.698507641834039905e+00 5.549388175448978018e+02
1.698607665839801495e+00 5.549128526304569959e+02
1.698707689845562641e+00 5.548869053406365310e+02
1.698807713851324230e+00 5.548609763159017803e+02
1.698907737857085820e+00 5.548350661975479170e+02
1.699007761862847188e+00 5.548091756276677415e+02
1.699107785868608556e+00 5.547833052491179160e+02
1.699207809874369923e+00 5.547574557054829256e+02
1.699307833880131291e+00 5.547316276410437013e+02
1.699407857885892659e+00 5.547058217007416943e+02
1.699507881891654026e+00 5.546800385301452252e+02
1.699607905897415394e+00 5.546542787754156052e+02
1.699707929903176762e+00 5.546285430832745078e+02
1.699807953908938130e+00 5.546028321009657702e+02
1.699907977914699497e+00 5.545771464762246978e+02
1.700008001920460865e+00 5.545514868572429350e+02
1.700108025926222233e+00 5.545258538926336769e+02
1.700208049931983600e+00 5.545002482313980181e+02
1.700308073937744968e+00 5.544746705228897099e+02
1.700408097943506336e+00 5.544491214167815087e+02
1.700508121949267704e+00 5.544236015630310703e+02
1.700608145955029071e+00 5.543981116118463888e+02
1.700708169960790439e+00 5.543726522136503263e+02
1.700808193966552029e+00 5.543472240190474167e+02
1.700908217972313397e+00 5.543218276787901004e+02
1.701008241978074764e+00 5.542964638437417761e+02
1.701108265983836132e+00 5.542711331648442865e+02
1.701208289989597500e+00 5.542458362930833573e+02
1.701308313995358867e+00 5.542205738794547187e+02
1.701408338001120235e+00 5.541953465749261341e+02
1.701508362006881603e+00 5.541701550304081820e+02
1.701608386012642971e+00 5.541449998967153761e+02
1.701708410018404338e+00 5.541198818245337634e+02
1.701808434024165706e+00 5.540948014643865918e+02
1.701908458029927074e+00 5.540697594665988390e+02
1.702008482035688441e+00 5.540447564812635619e+02
1.702108506041449809e+00 5.540197931582067667e+02
1.702208530047211177e+00 5.539948701469531898e+02
1.702308554052972545e+00 5.539699880966927594e+02
1.702408578058733912e+00 5.539451476562439893e+02
1.702508602064495280e+00 5.539203494740216911e+02
1.702608626070256870e+00 5.538955941980018451e+02
1.702708650076018237e+00 5.538708824756874947e+02
1.702808674081779605e+00 5.538462149540716837e+02
1.702908698087540973e+00 5.538215922796085806e+02
1.703008722093302341e+00 5.537970150981731194e+02
1.703108746099063708e+00 5.537724840550323506e+02
1.703208770104825076e+00 5.537479997948055370e+02
1.703308794110586444e+00 5.537235629614339132e+02
1.703408818116347812e+00 5.536991741981449877e+02
1.703508842122109179e+00 5.536748341474186645e+02
1.703608866127870547e+00 5.536505434509533643e+02
1.703708890133631915e+00 5.536263027496299856e+02
1.703808914139393282e+00 5.536021126834796178e+02
1.703908938145154650e+00 5.535779738916503447e+02
1.704008962150916018e+00 5.535538870123702964e+02
1.704108986156677386e+00 5.535298526829154753e+02
1.704209010162438753e+00 5.535058715395764466e+02
1.704309034168200121e+00 5.534819442176218445e+02
1.704409058173961489e+00 5.534580713512677903e+02
1.704509082179723300e+00 5.534342535736410582e+02
1.704609106185484446e+00 5.534104915167474701e+02
1.704709130191246036e+00 5.533867858114367664e+02
1.704809154197007182e+00 5.533631370873690685e+02
1.704909178202768771e+00 5.533395459729817958e+02
1.705009202208529917e+00 5.533160130954565830e+02
1.705109226214291507e+00 5.532925390806833548e+02
1.705209250220052652e+00 5.532691245532300854e+02
1.705309274225814242e+00 5.532457701363069873e+02
1.705409298231575388e+00 5.532224764517320637e+02
1.705509322237336978e+00 5.531992441199025734e+02
1.705609346243098123e+00 5.531760737597579691e+02
1.705709370248859713e+00 5.531529659887456774e+02
1.705809394254620859e+00 5.531299214227914263e+02
1.705909418260382449e+00 5.531069406762643439e+02
1.706009442266143594e+00 5.530840243619442163e+02
1.706109466271905184e+00 5.530611730909874950e+02
1.706209490277666330e+00 5.530383874728968294e+02
1.706309514283428141e+00 5.530156681154857097e+02
1.706409538289189509e+00 5.529930156248483399e+02
1.706509562294950877e+00 5.529704306053242817e+02
1.706609586300712245e+00 5.529479136594677584e+02
1.706709610306473612e+00 5.529254653880149135e+02
1.706809634312234980e+00 5.529030863898510688e+02
1.706909658317996348e+00 5.528807772619776415e+02
1.707009682323757715e+00 5.528585385994820172e+02
1.707109706329519083e+00 5.528363709955034437e+02
1.707209730335280451e+00 5.528142750412016539e+02
1.707309754341041819e+00 5.527922513257246919e+02
1.707409778346803186e+00 5.527703004361786725e+02
1.707509802352564554e+00 5.527484229575920835e+02
1.707609826358325922e+00 5.527266194728892970e+02
1.707709850364087290e+00 5.527048905628536204e+02
1.707809874369848657e+00 5.526832368060998988e+02
1.707909898375610025e+00 5.526616587790412041e+02
1.708009922381371393e+00 5.526401570558583671e+02
1.708109946387132760e+00 5.526187322084668949e+02
1.708209970392894350e+00 5.525973848064884351e+02
1.708309994398655718e+00 5.525761154172181477e+02
1.708410018404417086e+00 5.525549246055943513e+02
1.708510042410178453e+00 5.525338129341670310e+02
1.708610066415939821e+00 5.525127809630675983e+02
1.708710090421701189e+00 5.524918292499796735e+02
1.708810114427462556e+00 5.524709583501047518e+02
1.708910138433223924e+00 5.524501688161366246e+02
1.709010162438985292e+00 5.524294611982278411e+02
1.709110186444746660e+00 5.524088360439609460e+02
1.709210210450508027e+00 5.523882938983169879e+02
1.709310234456269395e+00 5.523678353036476665e+02
1.709410258462030763e+00 5.523474607996436134e+02
1.709510282467792130e+00 5.523271709233067668e+02
1.709610306473553498e+00 5.523069662089184249e+02
1.709710330479314866e+00 5.522868471880120751e+02
1.709810354485076234e+00 5.522668143893417891e+02
1.709910378490837601e+00 5.522468683388553927e+02
1.710010402496599191e+00 5.522270095596632018e+02
1.710110426502360559e+00 5.522072385720100556e+02
1.710210450508121927e+00 5.521875558932488275e+02
1.710310474513883294e+00 5.521679620378065465e+02
1.710410498519644662e+00 5.521484575171600682e+02
1.710510522525406030e+00 5.521290428398069707e+02
1.710610546531167397e+00 5.521097185112349734e+02
1.710710570536928765e+00 5.520904850338972665e+02
1.710810594542690133e+00 5.520713429071813607e+02
1.710910618548451501e+00 5.520522926273835083e+02
1.711010642554212868e+00 5.520333346876801670e+02
1.711110666559974236e+00 5.520144695780986694e+02
1.711210690565735604e+00 5.519956977854930074e+02
1.711310714571496971e+00 5.519770197935138185e+02
1.711410738577258339e+00 5.519584360825831482e+02
1.711510762583019707e+00 5.519399471298658000e+02
1.711610786588781075e+00 5.519215534092439839e+02
1.711710810594542442e+00 5.519032553912885533e+02
1.711810834600303810e+00 5.518850535432346760e+02
1.711910858606065400e+00 5.518669483289547770e+02
1.712010882611826990e+00 5.518489402089303439e+02
1.712110906617588135e+00 5.518310296402290760e+02
1.712210930623349725e+00 5.518132170764758939e+02
1.712310954629110871e+00 5.517955029678298615e+02
1.712410978634872460e+00 5.517778877609548545e+02
1.712511002640633606e+00 5.517603718989989829e+02
1.712611026646395196e+00 5.517429558215640100e+02
1.712711050652156342e+00 5.517256399646847740e+02
1.712811074657917931e+00 5.517084247608008809e+02
1.712911098663679077e+00 5.516913106387336256e+02
1.713011122669440667e+00 5.516742980236608673e+02
1.713111146675201812e+00 5.516573873370923593e+02
1.713211170680963402e+00 5.516405789968448516e+02
1.713311194686724548e+00 5.516238734170186717e+02
1.713411218692486138e+00 5.516072710079741910e+02
1.713511242698247283e+00 5.515907721763067002e+02
1.713611266704008873e+00 5.515743773248223079e+02
1.713711290709770463e+00 5.515580868525183860e+02
1.713811314715531831e+00 5.515419011545537842e+02
1.713911338721293198e+00 5.515258206222314357e+02
1.714011362727054566e+00 5.515098456429718681e+02
1.714111386732815934e+00 5.514939766002922852e+02
1.714211410738577301e+00 5.514782138737828063e+02
1.714311434744338669e+00 5.514625578390840701e+02
1.714411458750100037e+00 5.514470088678657476e+02
1.714511482755861405e+00 5.514315673278042595e+02
1.714611506761622772e+00 5.514162335825599257e+02
1.714711530767384140e+00 5.514010079917563871e+02
1.714811554773145508e+00 5.513858909109578690e+02
1.714911578778906875e+00 5.513708826916488306e+02
1.715011602784668243e+00 5.513559836812123649e+02
1.715111626790429611e+00 5.513411942229091665e+02
1.715211650796190979e+00 5.513265146558563856e+02
1.715311674801952346e+00 5.513119453150085292e+02
1.715411698807713714e+00 5.512974865311347230e+02
1.715511722813475082e+00 5.512831386307993853e+02
1.715611746819236672e+00 5.512689019363438092e+02
1.715711770824998039e+00 5.512547767658631983e+02
1.715811794830759407e+00 5.512407634331896134e+02
1.715911818836520775e+00 5.512268622478718498e+02
1.716011842842282142e+00 5.512130735151544059e+02
1.716111866848043510e+00 5.511993975359612250e+02
1.716211890853804878e+00 5.511858346068752326e+02
1.716311914859566246e+00 5.511723850201183268e+02
1.716411938865327613e+00 5.511590490635367132e+02
1.716511962871088981e+00 5.511458270205775989e+02
1.716611986876850349e+00 5.511327191702753225e+02
1.716712010882611716e+00 5.511197257872322552e+02
1.716812034888373084e+00 5.511068471415994736e+02
1.716912058894134452e+00 5.510940834990606163e+02
1.717012082899895820e+00 5.510814351208151720e+02
1.717112106905657187e+00 5.510689022635596075e+02
1.717212130911418555e+00 5.510564851794727019e+02
1.717312154917179923e+00 5.510441841161972434e+02
1.717412178922941512e+00 5.510319993168228621e+02
1.717512202928702880e+00 5.510199310198731837e+02
1.717612226934464248e+00 5.510079794592853659e+02
1.717712250940225616e+00 5.509961448643977064e+02
1.717812274945986983e+00 5.509844274599314531e+02
1.717912298951748351e+00 5.509728274659777298e+02
1.718012322957509719e+00 5.509613450979802565e+02
1.718112346963271087e+00 5.509499805667221608e+02
1.718212370969032454e+00 5.509387340783093805e+02
1.718312394974793822e+00 5.509276058341574753e+02
1.718412418980555190e+00 5.509165960309760521e+02
1.718512442986316557e+00 5.509057048607562592e+02
1.718612466992077925e+00 5.508949325107549839e+02
1.718712490997839293e+00 5.508842791634826881e+02
1.718812515003600661e+00 5.508737449966882878e+02
1.718912539009362028e+00 5.508633301833480118e+02
1.719012563015123396e+00 5.508530348916502817e+02
1.719112587020884764e+00 5.508428592849838878e+02
1.719212611026646131e+00 5.508328035219250296e+02
1.719312635032407943e+00 5.508228677562244684e+02
1.719412659038169089e+00 5.508130521367971824e+02
1.719512683043930679e+00 5.508033568077080417e+02
1.719612707049691824e+00 5.507937819081606676e+02
1.719712731055453414e+00 5.507843275724878822e+02
1.719812755061214560e+00 5.507749939301369295e+02
1.719912779066976150e+00 5.507657811056617447e+02
1.720012803072737295e+00 5.507566892187098802e+02
1.720112827078498885e+00 5.507477183840119324e+02
1.720212851084260031e+00 5.507388687113731294e+02
1.720312875090021620e+00 5.507301403056603704e+02
1.720412899095782766e+00 5.507215332667954044e+02
1.720512923101544356e+00 5.507130476897408471e+02
1.720612947107305502e+00 5.507046836644951782e+02
1.720712971113067091e+00 5.506964412760812593e+02
1.720812995118828237e+00 5.506883206045356474e+02
1.720913019124589827e+00 5.506803217249033651e+02
1.721013043130350972e+00 5.506724447072266457e+02
1.721113067136112784e+00 5.506646896165376575e+02
1.721213091141874152e+00 5.506570565128497492e+02
1.721313115147635520e+00 5.506495454511498338e+02
1.721413139153396887e+00 5.506421564813907708e+02
1.721513163159158255e+00 5.506348896484832949e+02
1.721613187164919623e+00 5.506277449922901042e+02
1.721713211170680990e+00 5.506207225476180156e+02
1.721813235176442358e+00 5.506138223442105755e+02
1.721913259182203726e+00 5.506070444067419203e+02
1.722013283187965094e+00 5.506003887548114335e+02
1.722113307193726461e+00 5.505938554029370380e+02
1.722213331199487829e+00 5.505874443605489432e+02
1.722313355205249197e+00 5.505811556319844158e+02
1.722413379211010565e+00 5.505749892164811854e+02
1.722513403216771932e+00 5.505689451081753987e+02
1.722613427222533300e+00 5.505630232960934336e+02
1.722713451228294668e+00 5.505572237641493984e+02
1.722813475234056035e+00 5.505515464911385379e+02
1.722913499239817403e+00 5.505459914507353005e+02
1.723013523245578993e+00 5.505405586114882226e+02
1.723113547251340361e+00 5.505352479368161767e+02
1.723213571257101728e+00 5.505300593850053019e+02
1.723313595262863096e+00 5.505249929092042294e+02
1.723413619268624464e+00 5.505200484574241955e+02
1.723513643274385831e+00 5.505152259725326758e+02
1.723613667280147199e+00 5.505105253922536122e+02
1.723713691285908567e+00 5.505059466491625244e+02
1.723813715291669935e+00 5.505014896706874197e+02
1.723913739297431302e+00 5.504971543791043587e+02
1.724013763303192670e+00 5.504929406915371146e+02
1.724113787308954038e+00 5.504888485199542174e+02
1.724213811314715405e+00 5.504848777711714547e+02
1.724313835320476773e+00 5.504810283468464149e+02
1.724413859326238141e+00 5.504773001434811022e+02
1.724513883331999509e+00 5.504736930524203444e+02
1.724613907337760876e+00 5.504702069598508842e+02
1.724713931343522244e+00 5.504668417468019470e+02
1.724813955349283834e+00 5.504635972891467190e+02
1.724913979355045202e+00 5.504604734576016654e+02
1.725014003360806569e+00 5.504574701177263023e+02
1.725114027366567937e+00 5.504545871299269493e+02
1.725214051372329305e+00 5.504518243494541139e+02
1.725314075378090672e+00 5.504491816264088584e+02
1.725414099383852040e+00 5.504466588057391618e+02
1.725514123389613408e+00 5.504442557272460590e+02
1.725614147395374776e+00 5.504419722255834131e+02
1.725714171401136143e+00 5.504398081302613264e+02
1.725814195406897511e+00 5.504377632656492096e+02
1.725914219412658879e+00 5.504358374509764644e+02
1.726014243418420246e+00 5.504340305003381673e+02
1.726114267424181614e+00 5.504323422226973435e+02
1.726214291429942982e+00 5.504307724218883777e+02
1.726314315435704350e+00 5.504293208966207658e+02
1.726414339441465717e+00 5.504279874404835482e+02
1.726514363447227085e+00 5.504267718419500852e+02
1.726614387452988453e+00 5.504256738843803305e+02
1.726714411458750043e+00 5.504246933460290165e+02
1.726814435464511632e+00 5.504238300000475874e+02
1.726914459470272778e+00 5.504230836144928389e+02
1.727014483476034368e+00 5.504224539523261228e+02
1.727114507481795513e+00 5.504219407714267618e+02
1.727214531487557103e+00 5.504215438245940959e+02
1.727314555493318249e+00 5.504212628595518026e+02
1.727414579499079839e+00 5.504210976189579014e+02
1.727514603504840984e+00 5.504210478404095284e+02
1.727614627510602574e+00 5.504211132564513491e+02
1.727714651516363720e+00 5.504212935945793106e+02
1.727814675522125309e+00 5.504215885772516685e+02
1.727914699527886455e+00 5.504219979218956951e+02
1.728014723533648045e+00 5.504225213409118851e+02
1.728114747539409191e+00 5.504231585416882808e+02
1.728214771545170780e+00 5.504239092266037687e+02
1.728314795550931926e+00 5.504247730930374018e+02
1.728414819556693516e+00 5.504257498333810190e+02
1.728514843562455106e+00 5.504268391350407228e+02
1.728614867568216473e+00 5.504280406804541599e+02
1.728714891573977841e+00 5.504293541470940454e+02
1.728814915579739209e+00 5.504307792074804411e+02
1.728914939585500576e+00 5.504323155291909870e+02
1.729014963591261944e+00 5.504339627748695420e+02
1.729114987597023312e+00 5.504357206022363016e+02
1.729215011602784680e+00 5.504375886641010993e+02
1.729315035608546047e+00 5.504395666083707965e+02
1.729415059614307415e+00 5.504416540780629248e+02
1.729515083620068783e+00 5.504438507113143260e+02
1.729615107625830150e+00 5.504461561413947948e+02
1.729715131631591518e+00 5.504485699967189021e+02
1.729815155637352886e+00 5.504510919008562269e+02
1.729915179643114254e+00 5.504537214725443164e+02
1.730015203648875621e+00 5.504564583257011918e+02
1.730115227654636989e+00 5.504593020694379675e+02
1.730215251660398357e+00 5.504622523080713563e+02
1.730315275666159724e+00 5.504653086411376535e+02
1.730415299671921314e+00 5.504684706634037639e+02
1.730515323677682682e+00 5.504717379648834594e+02
1.730615347683444050e+00 5.504751101308490888e+02
1.730715371689205417e+00 5.504785867418459020e+02
1.730815395694966785e+00 5.504821673737067158e+02
1.730915419700728153e+00 5.504858515975673754e+02
1.731015443706489521e+00 5.504896389798773271e+02
1.731115467712250888e+00 5.504935290824189451e+02
1.731215491718012256e+00 5.504975214623203783e+02
1.731315515723773624e+00 5.505016156720705567e+02
1.731415539729534991e+00 5.505058112595352213e+02
1.731515563735296359e+00 5.505101077679735226e+02
1.731615587741057727e+00 5.505145047360507533e+02
1.731715611746819095e+00 5.505190016978583571e+02
1.731815635752580462e+00 5.505235981829283674e+02
1.731915659758341830e+00 5.505282937162489816e+02
1.732015683764103198e+00 5.505330878182832066e+02
1.732115707769864565e+00 5.505379800049838650e+02
1.732215731775626155e+00 5.505429697878133766e+02
1.732315755781387523e+00 5.505480566737574009e+02
1.732415779787148891e+00 5.505532401653465513e+02
1.732515803792910258e+00 5.505585197606707197e+02
1.732615827798671626e+00 5.505638949533995401e+02
1.732715851804432994e+00 5.505693652327983045e+02
1.732815875810194362e+00 5.505749300837487681e+02
1.732915899815955729e+00 5.505805889867663154e+02
1.733015923821717097e+00 5.505863414180178097e+02
1.733115947827478465e+00 5.505921868493438751e+02
1.733215971833239832e+00 5.505981247482743584e+02
1.733315995839001200e+00 5.506041545780501565e+02
1.733416019844762568e+00 5.506102757976418616e+02
1.733516043850523936e+00 5.506164878617698832e+02
1.733616067856285303e+00 5.506227902209253671e+02
1.733716091862046671e+00 5.506291823213873613e+02
1.733816115867808039e+00 5.506356636052477143e+02
1.733916139873569406e+00 5.506422335104280137e+02
1.734016163879330774e+00 5.506488914707015283e+02
1.734116187885092586e+00 5.506556369157150357e+02
1.734216211890853732e+00 5.506624692710086038e+02
1.734316235896615321e+00 5.506693879580393514e+02
1.734416259902376467e+00 5.506763923941994108e+02
1.734516283908138057e+00 5.506834819928404841e+02
1.734616307913899202e+00 5.506906561632963530e+02
1.734716331919660792e+00 5.506979143109022061e+02
1.734816355925421938e+00 5.507052558370181714e+02
1.734916379931183528e+00 5.507126801390541004e+02
1.735016403936944673e+00 5.507201866104886676e+02
1.735116427942706263e+00 5.507277746408940402e+02
1.735216451948467409e+00 5.507354436159605484e+02
1.735316475954228999e+00 5.507431929175169216e+02
1.735416499959990144e+00 5.507510219235556406e+02
1.735516523965751734e+00 5.507589300082563568e+02
1.735616547971512880e+00 5.507669165420082891e+02
1.735716571977274469e+00 5.507749808914368259e+02
1.735816595983035615e+00 5.507831224194262631e+02
1.735916619988797427e+00 5.507913404851426549e+02
1.736016643994558795e+00 5.507996344440623488e+02
1.736116668000320162e+00 5.508080036479913133e+02
1.736216692006081530e+00 5.508164474450956050e+02
1.736316716011842898e+00 5.508249651799227422e+02
1.736416740017604265e+00 5.508335561934275120e+02
1.736516764023365633e+00 5.508422198229975493e+02
1.736616788029127001e+00 5.508509554024814179e+02
1.736716812034888369e+00 5.508597622622094150e+02
1.736816836040649736e+00 5.508686397290246077e+02
1.736916860046411104e+00 5.508775871263043200e+02
1.737016884052172472e+00 5.508866037739907142e+02
1.737116908057933840e+00 5.508956889886136423e+02
1.737216932063695207e+00 5.509048420833187265e+02
1.737316956069456575e+00 5.509140623678950988e+02
1.737416980075217943e+00 5.509233491487997298e+02
1.737517004080979310e+00 5.509327017291875563e+02
1.737617028086740678e+00 5.509421194089361506e+02
1.737717052092502046e+00 5.509516014846742564e+02
1.737817076098263636e+00 5.509611472498095281e+02
1.737917100104025003e+00 5.509707559945550202e+02
1.738017124109786371e+00 5.509804270059592000e+02
1.738117148115547739e+00 5.509901595679316415e+02
1.738217172121309106e+00 5.509999529612722426e+02
1.738317196127070474e+00 5.510098064636998743e+02
1.738417220132831842e+00 5.510197193498797787e+02
1.738517244138593210e+00 5.510296908914534697e+02
1.738617268144354577e+00 5.510397203570662441e+02
1.738717292150115945e+00 5.510498070123969683e+02
1.738817316155877313e+00 5.510599501201867270e+02
1.738917340161638680e+00 5.510701489402683819e+02
1.739017364167400048e+00 5.510804027295941978e+02
1.739117388173161416e+00 5.510907107422689251e+02
1.739217412178922784e+00 5.511010722295756068e+02
1.739317436184684151e+00 5.511114864400063880e+02
1.739417460190445519e+00 5.511219526192946887e+02
1.739517484196206887e+00 5.511324700104428302e+02
1.739617508201968477e+00 5.511430378537510251e+02
1.739717532207729844e+00 5.511536553868521651e+02
1.739817556213491212e+00 5.511643218447376285e+02
1.739917580219252580e+00 5.511750364597901353e+02
1.740017604225013947e+00 5.511857984618141018e+02
