1.900018003960871393e+00 5.044626242478914833e+02
1.900118025965712443e+00 5.044639737399891146e+02
1.900218047970553270e+00 5.044653950165570109e+02
1.900318069975394319e+00 5.044668878444685447e+02
1.900418091980235591e+00 5.044684519890055867e+02
1.900518113985076640e+00 5.044700872138672025e+02
1.900618135989917690e+00 5.044717932811807941e+02
1.900718157994758739e+00 5.044735699515122178e+02
1.900818179999599788e+00 5.044754169838766984e+02
1.900918202004440616e+00 5.044773341357474692e+02
1.901018224009281887e+00 5.044793211630689029e+02
1.901118246014122937e+00 5.044813778202648109e+02
1.901218268018963986e+00 5.044835038602502664e+02
1.901318290023805258e+00 5.044856990344421774e+02
1.901418312028646307e+00 5.044879630927682683e+02
1.901518334033487356e+00 5.044902957836811765e+02
1.901618356038328184e+00 5.044926968541660131e+02
1.901718378043169233e+00 5.044951660497525268e+02
1.901818400048010282e+00 5.044977031145260185e+02
1.901918422052851554e+00 5.045003077911391074e+02
1.902018444057692603e+00 5.045029798208196326e+02
1.902118466062533653e+00 5.045057189433865688e+02
1.902218488067374924e+00 5.045085248972562795e+02
1.902318510072215751e+00 5.045113974194571256e+02
1.902418532077056801e+00 5.045143362456374803e+02
1.902518554081897850e+00 5.045173411100810199e+02
1.902618576086738900e+00 5.045204117457141137e+02
1.902718598091579949e+00 5.045235478841191252e+02
1.902818620096421220e+00 5.045267492555455533e+02
1.902918642101262270e+00 5.045300155889210600e+02
1.903018664106103097e+00 5.045333466118628394e+02
1.903118686110944147e+00 5.045367420506900089e+02
1.903218708115785418e+00 5.045402016304344670e+02
1.903318730120626467e+00 5.045437250748506699e+02
1.903418752125467517e+00 5.045473121064320594e+02
1.903518774130308566e+00 5.045509624464171452e+02
1.903618796135149616e+00 5.045546758148055346e+02
1.903718818139990443e+00 5.045584519303674256e+02
1.903818840144831714e+00 5.045622905106546909e+02
1.903918862149672764e+00 5.045661912720157716e+02
1.904018884154513813e+00 5.045701539296039755e+02
1.904118906159355085e+00 5.045741781973919160e+02
1.904218928164196134e+00 5.045782637881835058e+02
1.904318950169037183e+00 5.045824104136224832e+02
1.904418972173878011e+00 5.045866177842092384e+02
1.904518994178719060e+00 5.045908856093096801e+02
1.904619016183560110e+00 5.045952135971683674e+02
1.904719038188401381e+00 5.045996014549201618e+02
1.904819060193242430e+00 5.046040488886030744e+02
1.904919082198083480e+00 5.046085556031697479e+02
1.905019104202924751e+00 5.046131213025005877e+02
1.905119126207765579e+00 5.046177456894146758e+02
1.905219148212606628e+00 5.046224284656831287e+02
1.905319170217447677e+00 5.046271693320418308e+02
1.905419192222288727e+00 5.046319679882022911e+02
1.905519214227129776e+00 5.046368241328647741e+02
1.905619236231971048e+00 5.046417374637313742e+02
1.905719258236812097e+00 5.046467076775181795e+02
1.905819280241652924e+00 5.046517344699660725e+02
1.905919302246493974e+00 5.046568175358559074e+02
1.906019324251335245e+00 5.046619565690200488e+02
1.906119346256176295e+00 5.046671512623534568e+02
1.906219368261017344e+00 5.046724013078288635e+02
1.906319390265858393e+00 5.046777063965072330e+02
1.906419412270699443e+00 5.046830662185512324e+02
1.906519434275540270e+00 5.046884804632385340e+02
1.906619456280381542e+00 5.046939488189746612e+02
1.906719478285222591e+00 5.046994709733033915e+02
1.906819500290063640e+00 5.047050466129223310e+02
1.906919522294904912e+00 5.047106754236939423e+02
1.907019544299745961e+00 5.047163570906599261e+02
1.907119566304587011e+00 5.047220912980532148e+02
1.907219588309427838e+00 5.047278777293084886e+02
1.907319610314268887e+00 5.047337160670808771e+02
1.907419632319109937e+00 5.047396059932517005e+02
1.907519654323951208e+00 5.047455471889494447e+02
1.907619676328792258e+00 5.047515393345539678e+02
1.907719698333633307e+00 5.047575821097169069e+02
1.907819720338474578e+00 5.047636751933701476e+02
1.907919742343315406e+00 5.047698182637407172e+02
1.908019764348156455e+00 5.047760109983641428e+02
1.908119786352997505e+00 5.047822530740967295e+02
1.908219808357838554e+00 5.047885441671275544e+02
1.908319830362679603e+00 5.047948839529937004e+02
1.908419852367520875e+00 5.048012721065929327e+02
1.908519874372361924e+00 5.048077083021961471e+02
1.908619896377202751e+00 5.048141922134602169e+02
1.908719918382043801e+00 5.048207235134423172e+02
1.908819940386885072e+00 5.048273018746117486e+02
1.908919962391726122e+00 5.048339269688652280e+02
1.909019984396567171e+00 5.048405984675379159e+02
1.909120006401408220e+00 5.048473160414168319e+02
1.909220028406249048e+00 5.048540793607571118e+02
1.909320050411090097e+00 5.048608880952907612e+02
1.909420072415931369e+00 5.048677419142436520e+02
1.909520094420772418e+00 5.048746404863462658e+02
1.909620116425613467e+00 5.048815834798481887e+02
1.909720138430454739e+00 5.048885705625320384e+02
1.909820160435295788e+00 5.048956014017254574e+02
1.909920182440136616e+00 5.049026756643152112e+02
1.910020204444977665e+00 5.049097930167604886e+02
1.910120226449818714e+00 5.049169531251060334e+02
1.910220248454659764e+00 5.049241556549950474e+02
1.910320270459501035e+00 5.049314002716840832e+02
1.910420292464342085e+00 5.049386866400555505e+02
1.910520314469183134e+00 5.049460144246295386e+02
1.910620336474023961e+00 5.049533832895800174e+02
1.910720358478865233e+00 5.049607928987471723e+02
1.910820380483706282e+00 5.049682429156497960e+02
1.910920402488547332e+00 5.049757330034993288e+02
1.911020424493388381e+00 5.049832628252144104e+02
1.911120446498229430e+00 5.049908320434325333e+02
1.911220468503070702e+00 5.049984403205242529e+02
1.911320490507911529e+00 5.050060873186066601e+02
1.911420512512752579e+00 5.050137726995578191e+02
1.911520534517593628e+00 5.050214961250275110e+02
1.911620556522434899e+00 5.050292572564537750e+02
1.911720578527275949e+00 5.050370557550735953e+02
1.911820600532116998e+00 5.050448912819389875e+02
1.911920622536958048e+00 5.050527634979281402e+02
1.912020644541798875e+00 5.050606720637601939e+02
1.912120666546639924e+00 5.050686166400084289e+02
1.912220688551481196e+00 5.050765968871135101e+02
1.912320710556322245e+00 5.050846124653965603e+02
1.912420732561163295e+00 5.050926630350735422e+02
1.912520754566004566e+00 5.051007482562681048e+02
1.912620776570845615e+00 5.051088677890251688e+02
1.912720798575686443e+00 5.051170212933239441e+02
1.912820820580527492e+00 5.051252084290917992e+02
1.912920842585368542e+00 5.051334288562180177e+02
1.913020864590209591e+00 5.051416822345663604e+02
1.913120886595050862e+00 5.051499682239885942e+02
1.913220908599891912e+00 5.051582864843384186e+02
1.913320930604732961e+00 5.051666366754853925e+02
1.913420952609573789e+00 5.051750184573261322e+02
1.913520974614415060e+00 5.051834314897995455e+02
1.913620996619256109e+00 5.051918754329010426e+02
1.913721018624097159e+00 5.052003499466923699e+02
1.913821040628938208e+00 5.052088546913188907e+02
1.913921062633779258e+00 5.052173893270205554e+02
1.914021084638620529e+00 5.052259535141461697e+02
1.914121106643461356e+00 5.052345469131660138e+02
1.914221128648302406e+00 5.052431691846859394e+02
1.914321150653143455e+00 5.052518199894598752e+02
1.914421172657984727e+00 5.052604989884042652e+02
1.914521194662825776e+00 5.052692058426099493e+02
1.914621216667666825e+00 5.052779402133564304e+02
1.914721238672507875e+00 5.052867017621244941e+02
1.914821260677348702e+00 5.052954901506104761e+02
1.914921282682189752e+00 5.053043050407370629e+02
1.915021304687031023e+00 5.053131460946698326e+02
1.915121326691872072e+00 5.053220129748283398e+02
1.915221348696713122e+00 5.053309053438985075e+02
1.915321370701554393e+00 5.053398228648485428e+02
1.915421392706395443e+00 5.053487652009397380e+02
1.915521414711236270e+00 5.053577320157399413e+02
1.915621436716077319e+00 5.053667229731379962e+02
1.915721458720918369e+00 5.053757377373544273e+02
1.915821480725759418e+00 5.053847759729572999e+02
1.915921502730600690e+00 5.053938373448741572e+02
1.916021524735441739e+00 5.054029215184023656e+02
1.916121546740282788e+00 5.054120281592265655e+02
1.916221568745123616e+00 5.054211569334294722e+02
1.916321590749964887e+00 5.054303075075040397e+02
1.916421612754805937e+00 5.054394795483676717e+02
1.916521634759646986e+00 5.054486727233746706e+02
1.916621656764488035e+00 5.054578867003298797e+02
1.916721678769329085e+00 5.054671211474991424e+02
1.916821700774170356e+00 5.054763757336255594e+02
1.916921722779011183e+00 5.054856501279396070e+02
1.917021744783852233e+00 5.054949440001732910e+02
1.917121766788693282e+00 5.055042570205718562e+02
1.917221788793534554e+00 5.055135888599074860e+02
1.917321810798375603e+00 5.055229391894922628e+02
1.917421832803216653e+00 5.055323076811895930e+02
1.917521854808057702e+00 5.055416940074271110e+02
1.917621876812898529e+00 5.055510978412103213e+02
1.917721898817739579e+00 5.055605188561347632e+02
1.917821920822580850e+00 5.055699567263981180e+02
1.917921942827421899e+00 5.055794111268121469e+02
1.918021964832262949e+00 5.055888817328167306e+02
1.918121986837104220e+00 5.055983682204920342e+02
1.918222008841945270e+00 5.056078702665703304e+02
1.918322030846786097e+00 5.056173875484477094e+02
1.918422052851627146e+00 5.056269197441987444e+02
1.918522074856468196e+00 5.056364665325860983e+02
1.918622096861309245e+00 5.056460275930752459e+02
1.918722118866150517e+00 5.056556026058454449e+02
1.918822140870991566e+00 5.056651912518013887e+02
1.918922162875832615e+00 5.056747932125872467e+02
1.919022184880673443e+00 5.056844081705976919e+02
1.919122206885514714e+00 5.056940358089897813e+02
1.919222228890355764e+00 5.057036758116958595e+02
1.919322250895196813e+00 5.057133278634340741e+02
1.919422272900037862e+00 5.057229916497235536e+02
1.919522294904878912e+00 5.057326668568927062e+02
1.919622316909720183e+00 5.057423531720937717e+02
1.919722338914561011e+00 5.057520502833132809e+02
1.919822360919402060e+00 5.057617578793837083e+02
1.919922382924243109e+00 5.057714756499981377e+02
1.920022404929084381e+00 5.057812032857183908e+02
1.920122426933925430e+00 5.057909404779888405e+02
1.920222448938766480e+00 5.058006869191474948e+02
1.920322470943607529e+00 5.058104423024377638e+02
1.920422492948448356e+00 5.058202063220206810e+02
1.920522514953289406e+00 5.058299786729853054e+02
1.920622536958130677e+00 5.058397590513609998e+02
1.920722558962971727e+00 5.058495471541297093e+02
1.920822580967812776e+00 5.058593426792355672e+02
1.920922602972654047e+00 5.058691453255974579e+02
1.921022624977495097e+00 5.058789547931208972e+02
1.921122646982335924e+00 5.058887707827083204e+02
1.921222668987176974e+00 5.058985929962707360e+02
1.921322690992018023e+00 5.059084211367393209e+02
1.921422712996859072e+00 5.059182549080757099e+02
1.921522735001700344e+00 5.059280940152847279e+02
1.921622757006541393e+00 5.059379381644232012e+02
1.921722779011382443e+00 5.059477870626132585e+02
1.921822801016223270e+00 5.059576404180518807e+02
1.921922823021064541e+00 5.059674979400234065e+02
1.922022845025905591e+00 5.059773593389073767e+02
1.922122867030746640e+00 5.059872243261938820e+02
1.922222889035587690e+00 5.059970926144899295e+02
1.922322911040428739e+00 5.060069639175330281e+02
1.922422933045270010e+00 5.060168379502014773e+02
1.922522955050110838e+00 5.060267144285237464e+02
1.922622977054951887e+00 5.060365930696905821e+02
1.922722999059792937e+00 5.060464735920647286e+02
1.922823021064634208e+00 5.060563557151917280e+02
1.922923043069475257e+00 5.060662391598103795e+02
1.923023065074316307e+00 5.060761236478625733e+02
1.923123087079157356e+00 5.060860089025050002e+02
1.923223109083998184e+00 5.060958946481183034e+02
1.923323131088839233e+00 5.061057806103172538e+02
1.923423153093680504e+00 5.061156665159619479e+02
1.923523175098521554e+00 5.061255520931665615e+02
1.923623197103362603e+00 5.061354370713107755e+02
1.923723219108203875e+00 5.061453211810485868e+02
1.923823241113044924e+00 5.061552041543196765e+02
1.923923263117885751e+00 5.061650857243581072e+02
1.924023285122726801e+00 5.061749656257036349e+02
1.924123307127567850e+00 5.061848435942082460e+02
1.924223329132408900e+00 5.061947193670504248e+02
1.924323351137250171e+00 5.062045926827415769e+02
1.924423373142091220e+00 5.062144632811366591e+02
1.924523395146932270e+00 5.062243309034442404e+02
1.924623417151773097e+00 5.062341952922354267e+02
1.924723439156614369e+00 5.062440561914529553e+02
1.924823461161455418e+00 5.062539133464215411e+02
1.924923483166296467e+00 5.062637665038565729e+02
1.925023505171137517e+00 5.062736154118742320e+02
1.925123527175978566e+00 5.062834598199987113e+02
1.925223549180819838e+00 5.062932994791742090e+02
1.925323571185660665e+00 5.063031341417718068e+02
1.925423593190501714e+00 5.063129635615984512e+02
1.925523615195342764e+00 5.063227874939086632e+02
1.925623637200184035e+00 5.063326056954097112e+02
1.925723659205025085e+00 5.063424179242733771e+02
1.925823681209866134e+00 5.063522239401429488e+02
1.925923703214707183e+00 5.063620235041423712e+02
1.926023725219548011e+00 5.063718163788866491e+02
1.926123747224389060e+00 5.063816023284878156e+02
1.926223769229230331e+00 5.063913811185641407e+02
1.926323791234071381e+00 5.064011525162500220e+02
1.926423813238912430e+00 5.064109162902033177e+02
1.926523835243753702e+00 5.064206722106131906e+02
1.926623857248594529e+00 5.064304200492096015e+02
1.926723879253435578e+00 5.064401595792712101e+02
1.926823901258276628e+00 5.064498905756322529e+02
1.926923923263117677e+00 5.064596128146918659e+02
1.927023945267958727e+00 5.064693260744227246e+02
1.927123967272799998e+00 5.064790301343767851e+02
1.927223989277641047e+00 5.064887247756955162e+02
1.927324011282481875e+00 5.064984097811166066e+02
1.927424033287322924e+00 5.065080849349806158e+02
1.927524055292164196e+00 5.065177500232410921e+02
1.927624077297005245e+00 5.065274048334707686e+02
1.927724099301846294e+00 5.065370491548686687e+02
1.927824121306687344e+00 5.065466827782684049e+02
1.927924143311528393e+00 5.065563054961444891e+02
1.928024165316369221e+00 5.065659171026229046e+02
1.928124187321210492e+00 5.065755173934832669e+02
1.928224209326051541e+00 5.065851061661702488e+02
1.928324231330892591e+00 5.065946832197977301e+02
1.928424253335733862e+00 5.066042483551593136e+02
1.928524275340574912e+00 5.066138013747318496e+02
1.928624297345415961e+00 5.066233420826842462e+02
1.928724319350256788e+00 5.066328702848830972e+02
1.928824341355097838e+00 5.066423857889017199e+02
1.928924363359938887e+00 5.066518884040235662e+02
1.929024385364780159e+00 5.066613779412516578e+02
1.929124407369621208e+00 5.066708542133141009e+02
1.929224429374462257e+00 5.066803170346701677e+02
1.929324451379303529e+00 5.066897662215172886e+02
1.929424473384144356e+00 5.066992015917968502e+02
1.929524495388985406e+00 5.067086229652013571e+02
1.929624517393826455e+00 5.067180301631795487e+02
1.929724539398667504e+00 5.067274230089435605e+02
1.929824561403508554e+00 5.067368013274732448e+02
1.929924583408349825e+00 5.067461649455248107e+02
1.930024605413190875e+00 5.067555136916348602e+02
1.930124627418031702e+00 5.067648473961253330e+02
1.930224649422872751e+00 5.067741658911123181e+02
1.930324671427714023e+00 5.067834690105079858e+02
1.930424693432555072e+00 5.067927565900304216e+02
1.930524715437396122e+00 5.068020284672039679e+02
1.930624737442237171e+00 5.068112844813701372e+02
1.930724759447078220e+00 5.068205244736888062e+02
1.930824781451919048e+00 5.068297482871451507e+02
1.930924803456760319e+00 5.068389557665554435e+02
1.931024825461601369e+00 5.068481467585717155e+02
1.931124847466442418e+00 5.068573211116848825e+02
1.931224869471283689e+00 5.068664786762328731e+02
1.931324891476124739e+00 5.068756193044041538e+02
1.931424913480965788e+00 5.068847428502422190e+02
1.931524935485806616e+00 5.068938491696504229e+02
1.931624957490647665e+00 5.069029381203970388e+02
1.931724979495488714e+00 5.069120095621202609e+02
1.931825001500329986e+00 5.069210633563312740e+02
1.931925023505171035e+00 5.069300993664198813e+02
1.932025045510012085e+00 5.069391174576591084e+02
1.932125067514853356e+00 5.069481174972082727e+02
1.932225089519694183e+00 5.069570993541182133e+02
1.932325111524535233e+00 5.069660628993349292e+02
1.932425133529376282e+00 5.069750080057040691e+02
1.932525155534217332e+00 5.069839345479747976e+02
1.932625177539058381e+00 5.069928424028021254e+02
1.932725199543899652e+00 5.070017314487537874e+02
1.932825221548740702e+00 5.070106015663117205e+02
1.932925243553581529e+00 5.070194526378764976e+02
1.933025265558422578e+00 5.070282845477698856e+02
1.933125287563263850e+00 5.070370971822397337e+02
1.933225309568104899e+00 5.070458904294630997e+02
1.933325331572945949e+00 5.070546641795490359e+02
1.933425353577786998e+00 5.070634183245420559e+02
1.933525375582628048e+00 5.070721527584252044e+02
1.933625397587468875e+00 5.070808673771236954e+02
1.933725419592310146e+00 5.070895620785071287e+02
1.933825441597151196e+00 5.070982367623934692e+02
1.933925463601992245e+00 5.071068913305506385e+02
1.934025485606833517e+00 5.071155256866998684e+02
1.934125507611674566e+00 5.071241397365193393e+02
1.934225529616515615e+00 5.071327333876453736e+02
1.934325551621356443e+00 5.071413065496748231e+02
1.934425573626197492e+00 5.071498591341688211e+02
1.934525595631038541e+00 5.071583910546547713e+02
1.934625617635879813e+00 5.071669022266283946e+02
1.934725639640720862e+00 5.071753925675547521e+02
1.934825661645561912e+00 5.071838619968736452e+02
1.934925683650403183e+00 5.071923104359969443e+02
1.935025705655244010e+00 5.072007378083156368e+02
1.935125727660085060e+00 5.072091440391980086e+02
1.935225749664926109e+00 5.072175290559919745e+02
1.935325771669767159e+00 5.072258927880290003e+02
1.935425793674608208e+00 5.072342351666231366e+02
1.935525815679449479e+00 5.072425561250743158e+02
1.935625837684290529e+00 5.072508555986681813e+02
1.935725859689131356e+00 5.072591335246796689e+02
1.935825881693972406e+00 5.072673898423727792e+02
1.935925903698813677e+00 5.072756244930014873e+02
1.936025925703654726e+00 5.072838374198120732e+02
1.936125947708495776e+00 5.072920285680431220e+02
1.936225969713336825e+00 5.073001978849273428e+02
1.936325991718177875e+00 5.073083453196925916e+02
1.936426013723018702e+00 5.073164708235613034e+02
1.936526035727859973e+00 5.073245743497524245e+02
1.936626057732701023e+00 5.073326558534822652e+02
1.936726079737542072e+00 5.073407152919642158e+02
1.936826101742383344e+00 5.073487526244090304e+02
1.936926123747224393e+00 5.073567678120264191e+02
1.937026145752065442e+00 5.073647608180256157e+02
1.937126167756906270e+00 5.073727316076123088e+02
1.937226189761747319e+00 5.073806801479938144e+02
1.937326211766588369e+00 5.073886064083746987e+02
1.937426233771429640e+00 5.073965103599596773e+02
1.937526255776270689e+00 5.074043919759516257e+02
1.937626277781111739e+00 5.074122512315534550e+02
1.937726299785953010e+00 5.074200881039650994e+02
1.937826321790793838e+00 5.074279025723863015e+02
1.937926343795634887e+00 5.074356946180132582e+02
1.938026365800475936e+00 5.074434642240397011e+02
1.938126387805316986e+00 5.074512113756573513e+02
1.938226409810158035e+00 5.074589360600527925e+02
1.938326431814999307e+00 5.074666382664074717e+02
1.938426453819840356e+00 5.074743179858987787e+02
1.938526475824681183e+00 5.074819752116959535e+02
1.938626497829522233e+00 5.074896099389630422e+02
1.938726519834363504e+00 5.074972221648524737e+02
1.938826541839204554e+00 5.075048118885102326e+02
1.938926563844045603e+00 5.075123791110689808e+02
1.939026585848886652e+00 5.075199238356503315e+02
1.939126607853727702e+00 5.075274460673617796e+02
1.939226629858568529e+00 5.075349458132956784e+02
1.939326651863409801e+00 5.075424230825277618e+02
1.939426673868250850e+00 5.075498778861160645e+02
1.939526695873091899e+00 5.075573102370968286e+02
1.939626717877933171e+00 5.075647201504865507e+02
1.939726739882774220e+00 5.075721076432757286e+02
1.939826761887615270e+00 5.075794727344302828e+02
1.939926783892456097e+00 5.075868154448888845e+02
1.940026805897297146e+00 5.075941357975588630e+02
1.940126827902138196e+00 5.076014338173157512e+02
1.940226849906979467e+00 5.076087095310011819e+02
1.940326871911820517e+00 5.076159629674193638e+02
1.940426893916661566e+00 5.076231941573350923e+02
1.940526915921502837e+00 5.076304031334716456e+02
1.940626937926343665e+00 5.076375899305073176e+02
1.940726959931184714e+00 5.076447545850737129e+02
1.940826981936025764e+00 5.076518971357516534e+02
1.940927003940866813e+00 5.076590176230704969e+02
1.941027025945707862e+00 5.076661160895022249e+02
1.941127047950549134e+00 5.076731925794611016e+02
1.941227069955390183e+00 5.076802471392984444e+02
1.941327091960231011e+00 5.076872798173014303e+02
1.941427113965072060e+00 5.076942906636880366e+02
1.941527135969913331e+00 5.077012797306051084e+02
1.941627157974754381e+00 5.077082470721246068e+02
1.941727179979595430e+00 5.077151927442383226e+02
1.941827201984436480e+00 5.077221168048577056e+02
1.941927223989277529e+00 5.077290193138066456e+02
1.942027245994118356e+00 5.077359003328212452e+02
1.942127267998959628e+00 5.077427599255418613e+02
1.942227290003800677e+00 5.077495981575139012e+02
1.942327312008641726e+00 5.077564150961796372e+02
1.942427334013482998e+00 5.077632108108770126e+02
1.942527356018324047e+00 5.077699853728339576e+02
1.942627378023165097e+00 5.077767388551646945e+02
1.942727400028005924e+00 5.077834713328659291e+02
1.942827422032846973e+00 5.077901828828112798e+02
1.942927444037688023e+00 5.077968735837488339e+02
1.943027466042529294e+00 5.078035435162939848e+02
1.943127488047370344e+00 5.078101927629269312e+02
1.943227510052211393e+00 5.078168214079869927e+02
1.943327532057052665e+00 5.078234295376688578e+02
1.943427554061893492e+00 5.078300172400162182e+02
1.943527576066734541e+00 5.078365846049185848e+02
1.943627598071575591e+00 5.078431317241044667e+02
1.943727620076416640e+00 5.078496586911379609e+02
1.943827642081257689e+00 5.078561656014130676e+02
1.943927664086098961e+00 5.078626525521490294e+02
1.944027686090939788e+00 5.078691196423824863e+02
1.944127708095780838e+00 5.078755669729656006e+02
1.944227730100621887e+00 5.078819946465587805e+02
1.944327752105463158e+00 5.078884027676257347e+02
1.944427774110304208e+00 5.078947914424271630e+02
1.944527796115145257e+00 5.079011607790159815e+02
1.944627818119986307e+00 5.079075108872314104e+02
1.944727840124827134e+00 5.079138418786925513e+02
1.944827862129668183e+00 5.079201538667923046e+02
1.944927884134509455e+00 5.079264469666941295e+02
1.945027906139350504e+00 5.079327212953228354e+02
1.945127928144191554e+00 5.079389769713584997e+02
1.945227950149032825e+00 5.079452141152341369e+02
1.945327972153873874e+00 5.079514328491241599e+02
1.945427994158714702e+00 5.079576332969421628e+02
1.945528016163555751e+00 5.079638155843327922e+02
1.945628038168396801e+00 5.079699798386653811e+02
1.945728060173237850e+00 5.079761261890280934e+02
1.945828082178079121e+00 5.079822547662208763e+02
1.945928104182920171e+00 5.079883657027486947e+02
1.946028126187761220e+00 5.079944591328138586e+02
1.946128148192602048e+00 5.080005351923124408e+02
1.946228170197443319e+00 5.080065940188237619e+02
1.946328192202284368e+00 5.080126357516052167e+02
1.946428214207125418e+00 5.080186605315849988e+02
1.946528236211966467e+00 5.080246685013552792e+02
1.946628258216807517e+00 5.080306598051647597e+02
1.946728280221648788e+00 5.080366345889115109e+02
1.946828302226489615e+00 5.080425930001358097e+02
1.946928324231330665e+00 5.080485351880116127e+02
1.947028346236171714e+00 5.080544613033423502e+02
1.947128368241012986e+00 5.080603714985490456e+02
1.947228390245854035e+00 5.080662659276661088e+02
1.947328412250695084e+00 5.080721447463332083e+02
1.947428434255536134e+00 5.080780081117854934e+02
1.947528456260376961e+00 5.080838561828486490e+02
1.947628478265218011e+00 5.080896891199289485e+02
1.947728500270059282e+00 5.080955070850071706e+02
1.947828522274900331e+00 5.081013102416281981e+02
1.947928544279741381e+00 5.081070987548961853e+02
1.948028566284582652e+00 5.081128727914636443e+02
1.948128588289423702e+00 5.081186325195245672e+02
1.948228610294264529e+00 5.081243781088068658e+02
1.948328632299105578e+00 5.081301097305624239e+02
1.948428654303946628e+00 5.081358275575605603e+02
1.948528676308787677e+00 5.081415317640777971e+02
1.948628698313628949e+00 5.081472225258912090e+02
1.948728720318469998e+00 5.081529000202687598e+02
1.948828742323311047e+00 5.081585644259608898e+02
1.948928764328151875e+00 5.081642159231919891e+02
1.949028786332993146e+00 5.081698546936527237e+02
1.949128808337834196e+00 5.081754809204886669e+02
1.949228830342675245e+00 5.081810947882939900e+02
1.949328852347516294e+00 5.081866964831021392e+02
1.949428874352357344e+00 5.081922861923754908e+02
1.949528896357198615e+00 5.081978641049977909e+02
1.949628918362039443e+00 5.082034304112644350e+02
1.949728940366880492e+00 5.082089853028732023e+02
1.949828962371721541e+00 5.082145289729164119e+02
1.949928984376562813e+00 5.082200616158690991e+02
1.950029006381403862e+00 5.082255834275831035e+02
1.950129028386244912e+00 5.082310946052735972e+02
1.950229050391085961e+00 5.082365953475147080e+02
1.950329072395926788e+00 5.082420858542250812e+02
1.950429094400767838e+00 5.082475663266613992e+02
1.950529116405609109e+00 5.082530369674083204e+02
1.950629138410450159e+00 5.082584979803673377e+02
1.950729160415291208e+00 5.082639495707502419e+02
1.950829182420132479e+00 5.082693919450657631e+02
1.950929204424973529e+00 5.082748253111118402e+02
1.951029226429814356e+00 5.082802498779661278e+02
1.951129248434655405e+00 5.082856658559734910e+02
1.951229270439496455e+00 5.082910734567396958e+02
1.951329292444337504e+00 5.082964728931192440e+02
1.951429314449178776e+00 5.083018643792049147e+02
1.951529336454019825e+00 5.083072481303182713e+02
1.951629358458860874e+00 5.083126243630015324e+02
1.951729380463701702e+00 5.083179932950017701e+02
1.951829402468542973e+00 5.083233551452688630e+02
1.951929424473384023e+00 5.083287101339373635e+02
1.952029446478225072e+00 5.083340584823196195e+02
1.952129468483066121e+00 5.083394004128970209e+02
1.952229490487907171e+00 5.083447361493056178e+02
1.952329512492748442e+00 5.083500659163287310e+02
1.952429534497589270e+00 5.083553899398851286e+02
1.952529556502430319e+00 5.083607084470183395e+02
1.952629578507271368e+00 5.083660216658857962e+02
1.952729600512112640e+00 5.083713298257497399e+02
1.952829622516953689e+00 5.083766331569641466e+02
1.952929644521794739e+00 5.083819318909658023e+02
1.953029666526635788e+00 5.083872262602631054e+02
1.953129688531476615e+00 5.083925164984226512e+02
1.953229710536317665e+00 5.083978028400628091e+02
1.953329732541158936e+00 5.084030855208399657e+02
1.953429754545999986e+00 5.084083647774365886e+02
1.953529776550841035e+00 5.084136408475528697e+02
1.953629798555682306e+00 5.084189139698933104e+02
1.953729820560523356e+00 5.084241843841569448e+02
1.953829842565364183e+00 5.084294523310261411e+02
1.953929864570205233e+00 5.084347180521540963e+02
1.954029886575046282e+00 5.084399817901546044e+02
1.954129908579887331e+00 5.084452437885904601e+02
1.954229930584728603e+00 5.084505042919630000e+02
1.954329952589569652e+00 5.084557635456986873e+02
1.954429974594410702e+00 5.084610217961385388e+02
1.954529996599251529e+00 5.084662792905292008e+02
1.954630018604092800e+00 5.084715362770069760e+02
1.954730040608933850e+00 5.084767930045883304e+02
1.954830062613774899e+00 5.084820497231614809e+02
1.954930084618615949e+00 5.084873066834673523e+02
1.955030106623456998e+00 5.084925641370951439e+02
1.955130128628298269e+00 5.084978223364673795e+02
1.955230150633139097e+00 5.085030815348283113e+02
1.955330172637980146e+00 5.085083419862318692e+02
1.955430194642821196e+00 5.085136039455312584e+02
1.955530216647662467e+00 5.085188676683653739e+02
1.955630238652503516e+00 5.085241334111493074e+02
1.955730260657344566e+00 5.085294014310579769e+02
1.955830282662185615e+00 5.085346719860199869e+02
1.955930304667026443e+00 5.085399453347015424e+02
1.956030326671867492e+00 5.085452217364960461e+02
1.956130348676708763e+00 5.085505014515109110e+02
1.956230370681549813e+00 5.085557847405570442e+02
1.956330392686390862e+00 5.085610718651350339e+02
1.956430414691232134e+00 5.085663630874253158e+02
1.956530436696073183e+00 5.085716586702734503e+02
1.956630458700914010e+00 5.085769588771792087e+02
1.956730480705755060e+00 5.085822639722848635e+02
1.956830502710596109e+00 5.085875742203617165e+02
1.956930524715437159e+00 5.085928898867985026e+02
1.957030546720278430e+00 5.085982112375886004e+02
1.957130568725119479e+00 5.086035385393195156e+02
1.957230590729960529e+00 5.086088720591574202e+02
1.957330612734801356e+00 5.086142120648370337e+02
1.957430634739642628e+00 5.086195588246489478e+02
1.957530656744483677e+00 5.086249126074262108e+02
1.957630678749324726e+00 5.086302736825326178e+02
1.957730700754165776e+00 5.086356423198509447e+02
1.957830722759006825e+00 5.086410187897680544e+02
1.957930744763848097e+00 5.086464033631656889e+02
1.958030766768688924e+00 5.086517963114044960e+02
1.958130788773529973e+00 5.086571979063141953e+02
1.958230810778371023e+00 5.086626084201787990e+02
1.958330832783212294e+00 5.086680281257260390e+02
1.958430854788053344e+00 5.086734572961133836e+02
1.958530876792894393e+00 5.086788962049152474e+02
1.958630898797735442e+00 5.086843451261119071e+02
1.958730920802576270e+00 5.086898043340742674e+02
1.958830942807417319e+00 5.086952741035533450e+02
1.958930964812258591e+00 5.087007547096669668e+02
1.959030986817099640e+00 5.087062464278862990e+02
1.959131008821940689e+00 5.087117495340229993e+02
1.959231030826781961e+00 5.087172643042185314e+02
1.959331052831623010e+00 5.087227910149283048e+02
1.959431074836463837e+00 5.087283299429107046e+02
1.959531096841304887e+00 5.087338813652148701e+02
1.959631118846145936e+00 5.087394455591658584e+02
1.959731140850986986e+00 5.087450228023525369e+02
1.959831162855828257e+00 5.087506133726158737e+02
1.959931184860669307e+00 5.087562175480343285e+02
1.960031206865510356e+00 5.087618356069124275e+02
1.960131228870351183e+00 5.087674678277663247e+02
1.960231250875192455e+00 5.087731144893123201e+02
1.960331272880033504e+00 5.087787758704538987e+02
1.960431294884874553e+00 5.087844522502659856e+02
1.960531316889715603e+00 5.087901439079868169e+02
1.960631338894556652e+00 5.087958511229999772e+02
1.960731360899397924e+00 5.088015741748253618e+02
1.960831382904238751e+00 5.088073133431047381e+02
1.960931404909079800e+00 5.088130689075868531e+02
1.961031426913920850e+00 5.088188411481175990e+02
1.961131448918762121e+00 5.088246303446247794e+02
1.961231470923603171e+00 5.088304367771074226e+02
1.961331492928444220e+00 5.088362607256187857e+02
1.961431514933285047e+00 5.088421024702569184e+02
1.961531536938126097e+00 5.088479622911516458e+02
1.961631558942967146e+00 5.088538404684485386e+02
1.961731580947808418e+00 5.088597372822981697e+02
1.961831602952649467e+00 5.088656530128426425e+02
1.961931624957490516e+00 5.088715879402025735e+02
1.962031646962331788e+00 5.088775423444636772e+02
1.962131668967172615e+00 5.088835165056647156e+02
1.962231690972013665e+00 5.088895107037815819e+02
1.962331712976854714e+00 5.088955252187192855e+02
1.962431734981695763e+00 5.089015603302932504e+02
1.962531756986536813e+00 5.089076163182204482e+02
1.962631778991378084e+00 5.089136934621046180e+02
1.962731800996219134e+00 5.089197920414227383e+02
1.962831823001059961e+00 5.089259123355127485e+02
1.962931845005901010e+00 5.089320546235612710e+02
1.963031867010742282e+00 5.089382191845890020e+02
1.963131889015583331e+00 5.089444062974381495e+02
1.963231911020424381e+00 5.089506162407598708e+02
1.963331933025265430e+00 5.089568492930008574e+02
1.963431955030106479e+00 5.089631057323897494e+02
1.963531977034947307e+00 5.089693858369261079e+02
1.963631999039788578e+00 5.089756898843647264e+02
1.963732021044629628e+00 5.089820181522044891e+02
1.963832043049470677e+00 5.089883709176746152e+02
1.963932065054311948e+00 5.089947484577202772e+02
1.964032087059152998e+00 5.090011510489940179e+02
1.964132109063994047e+00 5.090075789678380147e+02
1.964232131068834875e+00 5.090140324902729390e+02
1.964332153073675924e+00 5.090205118919853930e+02
1.964432175078516973e+00 5.090270174483136998e+02
1.964532197083358245e+00 5.090335494342365337e+02
1.964632219088199294e+00 5.090401081243593353e+02
1.964732241093040344e+00 5.090466937929004416e+02
1.964832263097881615e+00 5.090533067136797172e+02
1.964932285102722442e+00 5.090599471601041728e+02
1.965032307107563492e+00 5.090666154051569379e+02
1.965132329112404541e+00 5.090733117213804348e+02
1.965232351117245591e+00 5.090800363808711495e+02
1.965332373122086640e+00 5.090867896552563252e+02
1.965432395126927911e+00 5.090935718156908933e+02
1.965532417131768961e+00 5.091003831328391698e+02
1.965632439136609788e+00 5.091072238768618945e+02
1.965732461141450838e+00 5.091140943174073641e+02
1.965832483146292109e+00 5.091209947235934692e+02
1.965932505151133158e+00 5.091279253640004754e+02
1.966032527155974208e+00 5.091348865066529470e+02
1.966132549160815257e+00 5.091418784190114479e+02
1.966232571165656307e+00 5.091489013679567393e+02
1.966332593170497134e+00 5.091559556197780694e+02
1.966432615175338405e+00 5.091630414401611802e+02
1.966532637180179455e+00 5.091701590941760287e+02
1.966632659185020504e+00 5.091773088462610986e+02
1.966732681189861776e+00 5.091844909602153848e+02
1.966832703194702825e+00 5.091917056991811705e+02
1.966932725199543874e+00 5.091989533256356140e+02
1.967032747204384702e+00 5.092062341013748892e+02
1.967132769209225751e+00 5.092135482875041816e+02
1.967232791214066800e+00 5.092208961444238184e+02
1.967332813218908072e+00 5.092282779318161374e+02
1.967432835223749121e+00 5.092356939086346870e+02
1.967532857228590171e+00 5.092431443330914362e+02
1.967632879233431442e+00 5.092506294626435874e+02
1.967732901238272269e+00 5.092581495539818093e+02
1.967832923243113319e+00 5.092657048630175041e+02
1.967932945247954368e+00 5.092732956448704726e+02
1.968032967252795418e+00 5.092809221538584552e+02
1.968132989257636467e+00 5.092885846434811015e+02
1.968233011262477739e+00 5.092962833664117852e+02
1.968333033267318788e+00 5.093040185744816881e+02
1.968433055272159615e+00 5.093117905186715006e+02
1.968533077277000665e+00 5.093195994490958469e+02
1.968633099281841936e+00 5.093274456149937350e+02
1.968733121286682985e+00 5.093353292647137778e+02
1.968833143291524035e+00 5.093432506457049840e+02
1.968933165296365084e+00 5.093512100045030593e+02
1.969033187301206134e+00 5.093592075867189806e+02
1.969133209306046961e+00 5.093672436370266041e+02
1.969233231310888232e+00 5.093753183991510696e+02
1.969333253315729282e+00 5.093834321158568628e+02
1.969433275320570331e+00 5.093915850289357650e+02
1.969533297325411603e+00 5.093997773791961663e+02
1.969633319330252652e+00 5.094080094064487980e+02
1.969733341335093701e+00 5.094162813494976376e+02
1.969833363339934529e+00 5.094245934461270053e+02
1.969933385344775578e+00 5.094329459330891154e+02
1.970033407349616628e+00 5.094413390460945266e+02
1.970133429354457899e+00 5.094497730197979308e+02
1.970233451359298948e+00 5.094582480877891157e+02
1.970333473364139998e+00 5.094667644825798334e+02
1.970433495368981269e+00 5.094753224355932844e+02
1.970533517373822097e+00 5.094839221771502480e+02
1.970633539378663146e+00 5.094925639364618064e+02
1.970733561383504195e+00 5.095012479416145652e+02
1.970833583388345245e+00 5.095099744195604217e+02
1.970933605393186294e+00 5.095187435961060487e+02
1.971033627398027566e+00 5.095275556959002756e+02
1.971133649402868615e+00 5.095364109424238563e+02
1.971233671407709442e+00 5.095453095579776459e+02
1.971333693412550492e+00 5.095542517636724256e+02
1.971433715417391763e+00 5.095632377794168519e+02
1.971533737422232813e+00 5.095722678239063725e+02
1.971633759427073862e+00 5.095813421146132782e+02
1.971733781431914911e+00 5.095904608677748797e+02
1.971833803436755961e+00 5.095996242983832758e+02
1.971933825441596788e+00 5.096088326201725067e+02
1.972033847446438060e+00 5.096180860456121877e+02
1.972133869451279109e+00 5.096273847858907402e+02
1.972233891456120158e+00 5.096367290509096506e+02
1.972333913460961430e+00 5.096461190492703963e+02
1.972433935465802479e+00 5.096555549882646687e+02
1.972533957470643529e+00 5.096650370738634592e+02
1.972633979475484356e+00 5.096745655107062589e+02
1.972734001480325405e+00 5.096841405020901448e+02
1.972834023485166455e+00 5.096937622499619351e+02
1.972934045490007726e+00 5.097034309549046611e+02
1.973034067494848776e+00 5.097131468161293242e+02
1.973134089499689825e+00 5.097229100314619359e+02
1.973234111504531096e+00 5.097327207973378336e+02
1.973334133509371924e+00 5.097425793087871853e+02
1.973434155514212973e+00 5.097524857594266905e+02
1.973534177519054023e+00 5.097624403414491212e+02
1.973634199523895072e+00 5.097724432456150794e+02
1.973734221528736121e+00 5.097824946612387862e+02
1.973834243533577393e+00 5.097925947761828525e+02
1.973934265538418442e+00 5.098027437768456025e+02
1.974034287543259270e+00 5.098129418481523203e+02
1.974134309548100319e+00 5.098231891735447903e+02
1.974234331552941590e+00 5.098334859349720318e+02
1.974334353557782640e+00 5.098438323128817729e+02
1.974434375562623689e+00 5.098542284862066367e+02
1.974534397567464739e+00 5.098646746323618117e+02
1.974634419572305788e+00 5.098751709272280550e+02
1.974734441577146615e+00 5.098857175451470312e+02
1.974834463581987887e+00 5.098963146589105691e+02
1.974934485586828936e+00 5.099069624397507141e+02
1.975034507591669986e+00 5.099176610573319977e+02
1.975134529596511257e+00 5.099284106797400682e+02
1.975234551601352306e+00 5.099392114734746428e+02
1.975334573606193356e+00 5.099500636034392187e+02
1.975434595611034183e+00 5.099609672329327168e+02
1.975534617615875232e+00 5.099719225236397051e+02
1.975634639620716282e+00 5.099829296356225541e+02
1.975734661625557553e+00 5.099939887273111481e+02
1.975834683630398603e+00 5.100050999554956093e+02
1.975934705635239652e+00 5.100162634753172028e+02
1.976034727640080924e+00 5.100274794402592420e+02
1.976134749644921751e+00 5.100387480021373676e+02
1.976234771649762800e+00 5.100500693110941484e+02
1.976334793654603850e+00 5.100614435155873707e+02
1.976434815659444899e+00 5.100728707623840137e+02
1.976534837664285948e+00 5.100843511965499033e+02
1.976634859669127220e+00 5.100958849614432324e+02
1.976734881673968269e+00 5.101074721987047269e+02
1.976834903678809097e+00 5.101191130482510516e+02
1.976934925683650146e+00 5.101308076482648630e+02
1.977034947688491417e+00 5.101425561351888973e+02
1.977134969693332467e+00 5.101543586437150566e+02
1.977234991698173516e+00 5.101662153067817371e+02
1.977335013703014566e+00 5.101781262555588228e+02
1.977435035707855615e+00 5.101900916194458659e+02
1.977535057712696442e+00 5.102021115260621400e+02
1.977635079717537714e+00 5.102141861012378854e+02
1.977735101722378763e+00 5.102263154690085116e+02
1.977835123727219813e+00 5.102384997516073781e+02
1.977935145732061084e+00 5.102507390694559035e+02
1.978035167736902133e+00 5.102630335411583928e+02
1.978135189741743183e+00 5.102753832834948753e+02
1.978235211746584010e+00 5.102877884114106450e+02
1.978335233751425060e+00 5.103002490380145559e+02
1.978435255756266109e+00 5.103127652745667433e+02
1.978535277761107380e+00 5.103253372304741333e+02
1.978635299765948430e+00 5.103379650132829966e+02
1.978735321770789479e+00 5.103506487286725246e+02
1.978835343775630307e+00 5.103633884804468153e+02
1.978935365780471578e+00 5.103761843705301544e+02
1.979035387785312627e+00 5.103890364989567274e+02
1.979135409790153677e+00 5.104019449638686865e+02
1.979235431794994726e+00 5.104149098615060325e+02
1.979335453799835776e+00 5.104279312862011011e+02
1.979435475804677047e+00 5.104410093303729923e+02
1.979535497809517874e+00 5.104541440845199531e+02
1.979635519814358924e+00 5.104673356372142621e+02
1.979735541819199973e+00 5.104805840750955213e+02
1.979835563824041245e+00 5.104938894828638922e+02
1.979935585828882294e+00 5.105072519432756621e+02
1.980035607833723343e+00 5.105206715371353425e+02
1.980135629838564393e+00 5.105341483432921450e+02
1.980235651843405220e+00 5.105476824386304884e+02
1.980335673848246270e+00 5.105612738980686345e+02
1.980435695853087541e+00 5.105749227945494226e+02
1.980535717857928590e+00 5.105886291990369728e+02
1.980635739862769640e+00 5.106023931805098073e+02
1.980735761867610911e+00 5.106162148059555648e+02
1.980835783872451961e+00 5.106300941403670777e+02
1.980935805877292788e+00 5.106440312467344143e+02
1.981035827882133837e+00 5.106580261860425480e+02
1.981135849886974887e+00 5.106720790172626039e+02
1.981235871891815936e+00 5.106861897973513464e+02
1.981335893896657208e+00 5.107003585812421420e+02
1.981435915901498257e+00 5.107145854218422869e+02
1.981535937906339306e+00 5.107288703700268684e+02
1.981635959911180134e+00 5.107432134746352403e+02
1.981735981916021405e+00 5.107576147824653390e+02
1.981836003920862455e+00 5.107720743382690216e+02
1.981936025925703504e+00 5.107865921847483150e+02
1.982036047930544553e+00 5.108011683625509249e+02
1.982136069935385603e+00 5.108158029102640398e+02
1.982236091940226874e+00 5.108304958644122848e+02
1.982336113945067702e+00 5.108452472594518099e+02
1.982436135949908751e+00 5.108600571277684139e+02
1.982536157954749800e+00 5.108749254996693594e+02
1.982636179959591072e+00 5.108898524033838839e+02
1.982736201964432121e+00 5.109048378650569475e+02
1.982836223969273171e+00 5.109198819087449124e+02
1.982936245974114220e+00 5.109349845564123598e+02
1.983036267978955047e+00 5.109501458279296457e+02
1.983136289983796097e+00 5.109653657410671030e+02
1.983236311988637368e+00 5.109806443114935632e+02
1.983336333993478418e+00 5.109959815527708997e+02
1.983436355998319467e+00 5.110113774763522088e+02
1.983536378003160738e+00 5.110268320915769777e+02
1.983636400008001788e+00 5.110423454056706305e+02
1.983736422012842615e+00 5.110579174237377060e+02
1.983836444017683664e+00 5.110735481487610059e+02
1.983936466022524714e+00 5.110892375815992636e+02
1.984036488027365763e+00 5.111049857209815173e+02
1.984136510032207035e+00 5.111207925635071661e+02
1.984236532037048084e+00 5.111366581036416505e+02
1.984336554041889134e+00 5.111525823337138377e+02
1.984436576046729961e+00 5.111685652439132355e+02
1.984536598051571232e+00 5.111846068222895951e+02
1.984636620056412282e+00 5.112007070547468857e+02
1.984736642061253331e+00 5.112168659250446581e+02
1.984836664066094380e+00 5.112330834147915652e+02
1.984936686070935430e+00 5.112493595034488294e+02
1.985036708075776701e+00 5.112656941683214313e+02
1.985136730080617529e+00 5.112820873845625442e+02
1.985236752085458578e+00 5.112985391251668261e+02
1.985336774090299627e+00 5.113150493609700789e+02
1.985436796095140899e+00 5.113316180606494754e+02
1.985536818099981948e+00 5.113482451907179325e+02
1.985636840104822998e+00 5.113649307155260999e+02
1.985736862109664047e+00 5.113816745972591207e+02
1.985836884114504874e+00 5.113984767959338456e+02
1.985936906119345924e+00 5.114153372694015047e+02
1.986036928124187195e+00 5.114322559733425919e+02
1.986136950129028245e+00 5.114492328612660117e+02
1.986236972133869294e+00 5.114662678845107848e+02
1.986336994138710565e+00 5.114833609922415008e+02
1.986437016143551615e+00 5.115005121314495682e+02
1.986537038148392442e+00 5.115177212469517372e+02
1.986637060153233492e+00 5.115349882813895874e+02
1.986737082158074541e+00 5.115523131752279937e+02
1.986837104162915590e+00 5.115696958667542162e+02
1.986937126167756862e+00 5.115871362920796059e+02
1.987037148172597911e+00 5.116046343851362508e+02
1.987137170177438961e+00 5.116221900776785105e+02
1.987237192182279788e+00 5.116398032992825620e+02
1.987337214187121059e+00 5.116574739773442388e+02
1.987437236191962109e+00 5.116752020370815330e+02
1.987537258196803158e+00 5.116929874015331166e+02
1.987637280201644208e+00 5.117108299915582847e+02
1.987737302206485257e+00 5.117287297258378089e+02
1.987837324211326528e+00 5.117466865208726290e+02
1.987937346216167356e+00 5.117647002909857861e+02
1.988037368221008405e+00 5.117827709483221383e+02
1.988137390225849455e+00 5.118008984028484747e+02
1.988237412230690726e+00 5.118190825623547653e+02
1.988337434235531775e+00 5.118373233324532521e+02
1.988437456240372825e+00 5.118556206165803246e+02
1.988537478245213874e+00 5.118739743159979980e+02
1.988637500250054702e+00 5.118923843297930034e+02
1.988737522254895751e+00 5.119108505548778680e+02
1.988837544259737022e+00 5.119293728859943258e+02
1.988937566264578072e+00 5.119479512157107592e+02
1.989037588269419121e+00 5.119665854344258946e+02
1.989137610274260393e+00 5.119852754303691995e+02
1.989237632279101442e+00 5.120040210896030430e+02
1.989337654283942269e+00 5.120228222960226958e+02
1.989437676288783319e+00 5.120416789313580921e+02
1.989537698293624368e+00 5.120605908751763309e+02
1.989637720298465418e+00 5.120795580048836655e+02
1.989737742303306689e+00 5.120985801957242529e+02
1.989837764308147738e+00 5.121176573207859519e+02
1.989937786312988788e+00 5.121367892509999820e+02
1.990037808317829615e+00 5.121559758551425148e+02
1.990137830322670887e+00 5.121752169998372892e+02
1.990237852327511936e+00 5.121945125495594766e+02
1.990337874332352985e+00 5.122138623666349986e+02
1.990437896337194035e+00 5.122332663112451883e+02
1.990537918342035084e+00 5.122527242414265629e+02
1.990637940346876356e+00 5.122722360130760535e+02
1.990737962351717183e+00 5.122918014799522552e+02
1.990837984356558232e+00 5.123114204936781562e+02
1.990938006361399282e+00 5.123310929037430697e+02
1.991038028366240553e+00 5.123508185575076368e+02
1.991138050371081603e+00 5.123705973002035989e+02
1.991238072375922652e+00 5.123904289749394820e+02
1.991338094380763701e+00 5.124103134227020746e+02
1.991438116385604529e+00 5.124302504823602931e+02
1.991538138390445578e+00 5.124502399906676828e+02
1.991638160395286850e+00 5.124702817822656016e+02
1.991738182400127899e+00 5.124903756896886762e+02
1.991838204404968948e+00 5.125105215433637795e+02
1.991938226409810220e+00 5.125307191716188981e+02
1.992038248414651269e+00 5.125509684006833595e+02
1.992138270419492097e+00 5.125712690546913564e+02
1.992238292424333146e+00 5.125916209556871763e+02
1.992338314429174195e+00 5.126120239236286125e+02
1.992438336434015245e+00 5.126324777763900329e+02
1.992538358438856516e+00 5.126529823297678377e+02
1.992638380443697566e+00 5.126735373974833010e+02
1.992738402448538615e+00 5.126941427911860956e+02
1.992838424453379442e+00 5.127147983204611137e+02
1.992938446458220714e+00 5.127355037928302863e+02
1.993038468463061763e+00 5.127562590137572442e+02
1.993138490467902812e+00 5.127770637866528887e+02
1.993238512472743862e+00 5.127979179128794840e+02
1.993338534477584911e+00 5.128188211917549779e+02
1.993438556482426183e+00 5.128397734205565257e+02
1.993538578487267010e+00 5.128607743945289030e+02
1.993638600492108059e+00 5.128818239068850744e+02
1.993738622496949109e+00 5.129029217488132417e+02
1.993838644501790380e+00 5.129240677094820740e+02
1.993938666506631430e+00 5.129452615760450271e+02
1.994038688511472479e+00 5.129665031336451193e+02
1.994138710516313528e+00 5.129877921654215243e+02
1.994238732521154356e+00 5.130091284525144602e+02
1.994338754525995405e+00 5.130305117740681453e+02
1.994438776530836677e+00 5.130519419072398932e+02
1.994538798535677726e+00 5.130734186272036368e+02
1.994638820540518775e+00 5.130949417071560674e+02
1.994738842545360047e+00 5.131165109183216373e+02
1.994838864550201096e+00 5.131381260299586984e+02
1.994938886555041924e+00 5.131597868093657553e+02
1.995038908559882973e+00 5.131814930218864674e+02
1.995138930564724022e+00 5.132032444309165840e+02
1.995238952569565072e+00 5.132250407979092870e+02
1.995338974574406343e+00 5.132468818823812171e+02
1.995438996579247393e+00 5.132687674419203177e+02
1.995539018584088442e+00 5.132906972321883359e+02
1.995639040588929269e+00 5.133126710069311684e+02
1.995739062593770541e+00 5.133346885179837500e+02
1.995839084598611590e+00 5.133567495152757374e+02
1.995939106603452640e+00 5.133788537468387858e+02
1.996039128608293689e+00 5.134010009588131425e+02
1.996139150613134738e+00 5.134231908954549226e+02
1.996239172617975566e+00 5.134454232991415665e+02
1.996339194622816837e+00 5.134676979103788881e+02
1.996439216627657887e+00 5.134900144678101697e+02
1.996539238632498936e+00 5.135123727082191181e+02
1.996639260637340207e+00 5.135347723665416879e+02
1.996739282642181257e+00 5.135572131758681280e+02
1.996839304647022306e+00 5.135796948674546911e+02
1.996939326651863134e+00 5.136022171707279540e+02
1.997039348656704183e+00 5.136247798132932303e+02
1.997139370661545232e+00 5.136473825209420738e+02
1.997239392666386504e+00 5.136700250176603504e+02
1.997339414671227553e+00 5.136927070256331262e+02
1.997439436676068603e+00 5.137154282652547863e+02
1.997539458680909874e+00 5.137381884551369922e+02
1.997639480685750701e+00 5.137609873121143664e+02
1.997739502690591751e+00 5.137838245512530193e+02
1.997839524695432800e+00 5.138066998858596435e+02
1.997939546700273850e+00 5.138296130274885627e+02
1.998039568705114899e+00 5.138525636859483257e+02
1.998139590709956170e+00 5.138755515693133020e+02
1.998239612714797220e+00 5.138985763839274341e+02
1.998339634719638047e+00 5.139216378344168561e+02
1.998439656724479097e+00 5.139447356236939868e+02
1.998539678729320368e+00 5.139678694529694667e+02
1.998639700734161417e+00 5.139910390217571603e+02
1.998739722739002467e+00 5.140142440278860931e+02
1.998839744743843516e+00 5.140374841675065909e+02
1.998939766748684566e+00 5.140607591350990333e+02
1.999039788753525393e+00 5.140840686234844270e+02
1.999139810758366664e+00 5.141074123238292941e+02
1.999239832763207714e+00 5.141307899256596556e+02
1.999339854768048763e+00 5.141542011168651243e+02
1.999439876772890035e+00 5.141776455837098183e+02
1.999539898777731084e+00 5.142011230108431619e+02
1.999639920782572133e+00 5.142246330813045461e+02
1.999739942787412961e+00 5.142481754765360620e+02
1.999839964792254010e+00 5.142717498763906860e+02
1.999939986797095060e+00 5.142953559591404655e+02
2.000040008801936331e+00 5.160078989428475325e+02
2.000140030806777602e+00 5.159912262264798528e+02
2.000240052811618430e+00 5.159747935346665599e+02
2.000340074816459701e+00 5.159586019837255435e+02
2.000440096821300529e+00 5.159426526851236758e+02
2.000540118826141356e+00 5.159269467454398637e+02
2.000640140830982627e+00 5.159114852663316242e+02
2.000740162835823899e+00 5.158962693444968863e+02
2.000840184840664726e+00 5.158813000716406805e+02
2.000940206845505998e+00 5.158665785344406913e+02
2.001040228850347269e+00 5.158521058145098550e+02
2.001140250855187652e+00 5.158378829883631624e+02
2.001240272860028924e+00 5.158239111273836670e+02
2.001340294864870195e+00 5.158101912977855363e+02
2.001440316869711022e+00 5.157967245605822200e+02
2.001540338874552294e+00 5.157835119715504106e+02
2.001640360879393565e+00 5.157705545811978709e+02
2.001740382884234393e+00 5.157578534347268260e+02
2.001840404889075220e+00 5.157454095720021314e+02
2.001940426893916491e+00 5.157332240275181903e+02
2.002040448898757319e+00 5.157212978303623458e+02
2.002140470903598590e+00 5.157096320041848685e+02
2.002240492908439862e+00 5.156982275671649631e+02
2.002340514913280689e+00 5.156870855319764360e+02
2.002440536918121960e+00 5.156762069057557483e+02
2.002540558922962788e+00 5.156655926900689337e+02
2.002640580927804059e+00 5.156552438808803345e+02
2.002740602932644887e+00 5.156451614685181539e+02
2.002840624937486158e+00 5.156353464376439888e+02
2.002940646942326985e+00 5.156257997672191777e+02
2.003040668947168257e+00 5.156165224304747881e+02
2.003140690952009528e+00 5.156075153948776233e+02
2.003240712956850356e+00 5.155987796221002100e+02
2.003340734961691183e+00 5.155903160679893062e+02
2.003440756966532454e+00 5.155821256825339560e+02
2.003540778971373726e+00 5.155742094098358166e+02
2.003640800976214553e+00 5.155665681880749389e+02
2.003740822981055825e+00 5.155592029494830513e+02
2.003840844985896652e+00 5.155521146203104763e+02
2.003940866990737923e+00 5.155453041207971410e+02
2.004040888995578751e+00 5.155387723651406304e+02
2.004140911000420022e+00 5.155325202614679938e+02
2.004240933005260850e+00 5.155265487118041392e+02
2.004340955010102121e+00 5.155208586120435257e+02
2.004440977014943392e+00 5.155154508519199226e+02
2.004540999019784220e+00 5.155103263149778741e+02
2.004641021024625047e+00 5.155054858785410943e+02
2.004741043029466319e+00 5.155009304136871151e+02
2.004841065034307590e+00 5.154966607852160223e+02
2.004941087039148417e+00 5.154926778516219201e+02
2.005041109043989689e+00 5.154889824650647370e+02
2.005141131048830516e+00 5.154855754713435090e+02
2.005241153053671788e+00 5.154824577098653435e+02
2.005341175058512615e+00 5.154796300136200671e+02
2.005441197063353886e+00 5.154770932091512350e+02
2.005541219068194714e+00 5.154748481165293015e+02
2.005641241073035985e+00 5.154728955493229705e+02
2.005741263077877257e+00 5.154712363145740710e+02
2.005841285082718084e+00 5.154698712127694762e+02
2.005941307087559355e+00 5.154688010378124545e+02
2.006041329092400183e+00 5.154680265770006145e+02
2.006141351097241010e+00 5.154675486109954363e+02
2.006241373102082282e+00 5.154673679137976023e+02
2.006341395106923553e+00 5.154674852527214171e+02
2.006441417111764380e+00 5.154679013883680909e+02
2.006541439116605652e+00 5.154686170746005018e+02
2.006641461121446923e+00 5.154696330585186388e+02
2.006741483126287307e+00 5.154709500804319759e+02
2.006841505131128578e+00 5.154725688738378722e+02
2.006941527135969849e+00 5.154744901653936040e+02
2.007041549140810677e+00 5.154767146748936284e+02
2.007141571145651948e+00 5.154792431152449126e+02
2.007241593150493220e+00 5.154820761924421504e+02
2.007341615155334047e+00 5.154852146055429785e+02
2.007441637160174874e+00 5.154886590466471716e+02
2.007541659165016146e+00 5.154924102008696991e+02
2.007641681169856973e+00 5.154964687463186692e+02
2.007741703174698245e+00 5.155008353540735015e+02
2.007841725179539516e+00 5.155055106881586653e+02
2.007941747184380343e+00 5.155104954055241251e+02
2.008041769189221615e+00 5.155157901560213531e+02
2.008141791194062442e+00 5.155213955823803644e+02
2.008241813198903714e+00 5.155273123201891394e+02
2.008341835203744541e+00 5.155335409978703183e+02
2.008441857208585812e+00 5.155400822366596003e+02
2.008541879213426640e+00 5.155469366505857352e+02
2.008641901218267911e+00 5.155541048464457390e+02
2.008741923223109183e+00 5.155615874237896605e+02
2.008841945227950010e+00 5.155693849748923867e+02
2.008941967232790837e+00 5.155774980847389770e+02
2.009041989237632109e+00 5.155859273310011304e+02
2.009142011242473380e+00 5.155946732840183131e+02
2.009242033247314208e+00 5.156037365067763858e+02
2.009342055252155479e+00 5.156131175548879355e+02
2.009442077256996306e+00 5.156228169765761322e+02
2.009542099261837578e+00 5.156328353126493766e+02
2.009642121266678405e+00 5.156431730964866347e+02
2.009742143271519677e+00 5.156538308540174285e+02
2.009842165276360504e+00 5.156648091037021686e+02
2.009942187281201775e+00 5.156761083565151011e+02
2.010042209286043047e+00 5.156877291159239576e+02
2.010142231290883874e+00 5.156996718778747208e+02
2.010242253295724701e+00 5.157119371307713891e+02
2.010342275300565973e+00 5.157245253554588089e+02
2.010442297305407244e+00 5.157374370252068729e+02
2.010542319310248072e+00 5.157506726056917614e+02
2.010642341315089343e+00 5.157642325549792304e+02
2.010742363319930170e+00 5.157781173235080132e+02
2.010842385324771442e+00 5.157923273540739046e+02
2.010942407329612269e+00 5.158068630818132760e+02
2.011042429334453541e+00 5.158217249341856814e+02
2.011142451339294368e+00 5.158369133309598737e+02
2.011242473344135639e+00 5.158524286841977755e+02
2.011342495348976911e+00 5.158682713982387895e+02
2.011442517353817738e+00 5.158844418696842240e+02
2.011542539358659010e+00 5.159009404873834228e+02
2.011642561363499837e+00 5.159177676324188724e+02
2.011742583368340664e+00 5.159349236780903993e+02
2.011842605373181936e+00 5.159524089899040291e+02
2.011942627378023207e+00 5.159702239255540235e+02
2.012042649382864035e+00 5.159883688349127624e+02
2.012142671387705306e+00 5.160068440600150552e+02
2.012242693392546578e+00 5.160256499350449531e+02
2.012342715397386961e+00 5.160447867863239253e+02
2.012442737402228232e+00 5.160642549322980130e+02
2.012542759407069504e+00 5.160840546835223677e+02
2.012642781411910331e+00 5.161041863426548844e+02
2.012742803416751602e+00 5.161246502044367617e+02
2.012842825421592874e+00 5.161454465556862488e+02
2.012942847426433701e+00 5.161665756752844345e+02
2.013042869431274529e+00 5.161880378341645610e+02
2.013142891436115800e+00 5.162098332953002000e+02
2.013242913440956627e+00 5.162319623136958171e+02
2.013342935445797899e+00 5.162544251363747208e+02
2.013442957450639170e+00 5.162772220023692853e+02
2.013542979455479998e+00 5.163003531427100370e+02
2.013643001460320825e+00 5.163238187804164454e+02
2.013743023465162096e+00 5.163476191304866916e+02
2.013843045470003368e+00 5.163717543998891415e+02
2.013943067474844195e+00 5.163962247875498406e+02
2.014043089479685467e+00 5.164210304843502399e+02
2.014143111484526294e+00 5.164461716731101433e+02
2.014243133489367565e+00 5.164716485285853196e+02
2.014343155494208393e+00 5.164974612174561344e+02
2.014443177499049664e+00 5.165236098983208421e+02
2.014543199503890492e+00 5.165500947216877421e+02
2.014643221508731763e+00 5.165769158299668788e+02
2.014743243513573034e+00 5.166040733574618571e+02
2.014843265518413862e+00 5.166315674303659762e+02
2.014943287523255133e+00 5.166593981667522257e+02
2.015043309528095961e+00 5.166875656765677149e+02
2.015143331532937232e+00 5.167160700616275335e+02
2.015243353537778059e+00 5.167449114156088399e+02
2.015343375542619331e+00 5.167740898240440401e+02
2.015443397547460158e+00 5.168036053643161267e+02
2.015543419552301430e+00 5.168334581056528805e+02
2.015643441557142701e+00 5.168636481091210726e+02
2.015743463561983528e+00 5.168941754276232814e+02
2.015843485566824356e+00 5.169250401058910711e+02
2.015943507571665627e+00 5.169562421804826045e+02
2.016043529576506899e+00 5.169877816797763899e+02
2.016143551581347726e+00 5.170196586239699172e+02
2.016243573586188997e+00 5.170518730250728368e+02
2.016343595591029825e+00 5.170844248869062767e+02
2.016443617595870652e+00 5.171173142050985234e+02
2.016543639600711924e+00 5.171505409670814970e+02
2.016643661605553195e+00 5.171841051520895007e+02
2.016743683610394022e+00 5.172180067311543326e+02
2.016843705615235294e+00 5.172522456671067630e+02
2.016943727620076565e+00 5.172868219145705098e+02
2.017043749624917393e+00 5.173217354199633746e+02
2.017143771629758220e+00 5.173569861214934917e+02
2.017243793634599491e+00 5.173925739491620561e+02
2.017343815639440319e+00 5.174284988247565025e+02
2.017443837644281590e+00 5.174647606618547115e+02
2.017543859649122862e+00 5.175013593658227364e+02
2.017643881653963689e+00 5.175382948338132110e+02
2.017743903658804960e+00 5.175755669547673961e+02
2.017843925663645788e+00 5.176131756094144976e+02
2.017943947668486615e+00 5.176511206702721211e+02
2.018043969673327886e+00 5.176894020016471814e+02
2.018143991678169158e+00 5.177280194596368119e+02
2.018244013683009985e+00 5.177669728921285923e+02
2.018344035687851257e+00 5.178062621388050957e+02
2.018444057692692528e+00 5.178458870311411602e+02
2.018544079697533355e+00 5.178858473924082091e+02
2.018644101702374183e+00 5.179261430376783437e+02
2.018744123707215454e+00 5.179667737738222968e+02
2.018844145712056282e+00 5.180077393995161401e+02
2.018944167716897553e+00 5.180490397052417393e+02
2.019044189721738825e+00 5.180906744732913012e+02
2.019144211726579652e+00 5.181326434777696477e+02
2.019244233731420479e+00 5.181749464845988769e+02
2.019344255736261751e+00 5.182175832515212051e+02
2.019444277741103022e+00 5.182605535281052198e+02
2.019544299745943849e+00 5.183038570557464482e+02
2.019644321750785121e+00 5.183474935676772475e+02
2.019744343755625948e+00 5.183914627889654412e+02
2.019844365760467220e+00 5.184357644365252327e+02
2.019944387765308047e+00 5.184803982191185696e+02
2.020044409770149318e+00 5.185253638373627609e+02
2.020144431774990146e+00 5.185706609837359338e+02
2.020244453779831417e+00 5.186162893425827178e+02
2.020344475784672689e+00 5.186622485901207256e+02
2.020444497789513516e+00 5.187085383944471459e+02
2.020544519794354787e+00 5.187551584155456794e+02
2.020644541799195615e+00 5.188021083052933591e+02
2.020744563804036886e+00 5.188493877074678267e+02
2.020844585808877714e+00 5.188969962577557453e+02
2.020944607813718985e+00 5.189449335837589388e+02
2.021044629818559812e+00 5.189931993050035999e+02
2.021144651823401084e+00 5.190417930329485898e+02
2.021244673828242355e+00 5.190907143709929414e+02
2.021344695833083183e+00 5.191399629144855226e+02
2.021444717837924010e+00 5.191895382507337899e+02
2.021544739842765281e+00 5.192394399590132252e+02
2.021644761847606553e+00 5.192896676105757479e+02
2.021744783852447380e+00 5.193402207686601741e+02
2.021844805857288652e+00 5.193910989885035860e+02
2.021944827862129479e+00 5.194423018173470155e+02
2.022044849866970306e+00 5.194938287944530657e+02
2.022144871871811578e+00 5.195456794511080716e+02
2.022244893876652849e+00 5.195978533106398345e+02
2.022344915881493677e+00 5.196503498884253531e+02
2.022444937886334948e+00 5.197031686919036702e+02
2.022544959891176219e+00 5.197563092205857629e+02
2.022644981896017047e+00 5.198097709660671626e+02
2.022745003900857874e+00 5.198635534120420516e+02
2.022845025905699146e+00 5.199176560343112214e+02
2.022945047910539973e+00 5.199720783007990121e+02
2.023045069915381244e+00 5.200268196715636577e+02
2.023145091920222516e+00 5.200818795988097918e+02
2.023245113925063343e+00 5.201372575269037952e+02
2.023345135929904615e+00 5.201929528923861881e+02
2.023445157934745442e+00 5.202489651239840214e+02
2.023545179939586269e+00 5.203052936426274755e+02
2.023645201944427541e+00 5.203619378614617972e+02
2.023745223949268812e+00 5.204188971858615105e+02
2.023845245954109640e+00 5.204761710134483792e+02
2.023945267958950911e+00 5.205337587341018661e+02
2.024045289963792182e+00 5.205916597299762998e+02
2.024145311968633010e+00 5.206498733755167905e+02
2.024245333973473837e+00 5.207083990374742370e+02
2.024345355978315109e+00 5.207672360749197651e+02
2.024445377983155936e+00 5.208263838392625757e+02
2.024545399987997207e+00 5.208858416742655209e+02
2.024645421992838479e+00 5.209456089160609054e+02
2.024745443997679306e+00 5.210056848931682225e+02
2.024845466002520133e+00 5.210660689265100700e+02
2.024945488007361405e+00 5.211267603294297714e+02
2.025045510012202676e+00 5.211877584077092251e+02
2.025145532017043504e+00 5.212490624595844793e+02
2.025245554021884775e+00 5.213106717757667639e+02
2.025345576026725603e+00 5.213725856394571565e+02
2.025445598031566874e+00 5.214348033263669322e+02
2.025545620036407701e+00 5.214973241047358670e+02
2.025645642041248973e+00 5.215601472353488361e+02
2.025745664046089800e+00 5.216232719715587791e+02
2.025845686050931072e+00 5.216866975593003417e+02
2.025945708055772343e+00 5.217504232371151147e+02
2.026045730060613170e+00 5.218144482361660721e+02
2.026145752065454442e+00 5.218787717802613315e+02
2.026245774070295269e+00 5.219433930858704116e+02
2.026345796075136541e+00 5.220083113621474240e+02
2.026445818079977368e+00 5.220735258109508550e+02
2.026545840084818639e+00 5.221390356268628921e+02
2.026645862089659467e+00 5.222048399972114794e+02
2.026745884094500738e+00 5.222709381020914634e+02
2.026845906099342010e+00 5.223373291143843744e+02
2.026945928104182837e+00 5.224040121997812776e+02
2.027045950109023664e+00 5.224709865168048282e+02
2.027145972113864936e+00 5.225382512168300764e+02
2.027245994118706207e+00 5.226058054441068634e+02
2.027346016123547034e+00 5.226736483357824454e+02
2.027446038128388306e+00 5.227417790219230938e+02
2.027546060133229133e+00 5.228101966255388788e+02
2.027646082138069961e+00 5.228789002626049296e+02
2.027746104142911232e+00 5.229478890420837160e+02
2.027846126147752503e+00 5.230171620659514247e+02
2.027946148152593331e+00 5.230867184292187630e+02
2.028046170157434602e+00 5.231565572199557437e+02
2.028146192162275874e+00 5.232266775193165813e+02
2.028246214167116701e+00 5.232970784015611798e+02
2.028346236171957528e+00 5.233677589340826444e+02
2.028446258176798800e+00 5.234387181774296778e+02
2.028546280181639627e+00 5.235099551853327284e+02
2.028646302186480899e+00 5.235814690047282056e+02
2.028746324191322170e+00 5.236532586757834906e+02
2.028846346196162997e+00 5.237253232319224026e+02
2.028946368201004269e+00 5.237976616998516874e+02
2.029046390205845096e+00 5.238702730995853472e+02
2.029146412210685924e+00 5.239431564444721516e+02
2.029246434215527195e+00 5.240163107412201953e+02
2.029346456220368466e+00 5.240897349899239543e+02
2.029446478225209294e+00 5.241634281840915719e+02
2.029546500230050565e+00 5.242373893106699825e+02
2.029646522234891837e+00 5.243116173500737887e+02
2.029746544239732664e+00 5.243861112762099310e+02
2.029846566244573491e+00 5.244608700565075878e+02
2.029946588249414763e+00 5.245358926519440956e+02
2.030046610254255590e+00 5.246111780170721204e+02
2.030146632259096862e+00 5.246867251000492161e+02
2.030246654263938133e+00 5.247625328426651095e+02
2.030346676268778960e+00 5.248386001803692125e+02
2.030446698273619788e+00 5.249149260422996122e+02
2.030546720278461059e+00 5.249915093513128568e+02
2.030646742283302331e+00 5.250683490240097626e+02
2.030746764288143158e+00 5.251454439707677011e+02
2.030846786292984429e+00 5.252227930957675426e+02
2.030946808297825257e+00 5.253003952970237833e+02
2.031046830302666528e+00 5.253782494664130809e+02
2.031146852307507356e+00 5.254563544897057454e+02
2.031246874312348627e+00 5.255347092465947298e+02
2.031346896317189454e+00 5.256133126107248472e+02
2.031446918322030726e+00 5.256921634497236937e+02
2.031546940326871997e+00 5.257712606252320029e+02
2.031646962331712825e+00 5.258506029929345686e+02
2.031746984336553652e+00 5.259301894025898036e+02
2.031847006341394923e+00 5.260100186980620265e+02
2.031947028346236195e+00 5.260900897173504518e+02
2.032047050351077022e+00 5.261704012926237510e+02
2.032147072355918294e+00 5.262509522502484742e+02
2.032247094360759121e+00 5.263317414108208823e+02
2.032347116365600392e+00 5.264127675892005982e+02
2.032447138370441220e+00 5.264940295945402795e+02
2.032547160375282491e+00 5.265755262303194968e+02
2.032647182380123319e+00 5.266572562943755429e+02
2.032747204384964590e+00 5.267392185789370842e+02
2.032847226389805861e+00 5.268214118706544014e+02
2.032947248394646689e+00 5.269038349506349732e+02
2.033047270399487960e+00 5.269864865944745134e+02
2.033147292404328788e+00 5.270693655722905078e+02
2.033247314409169615e+00 5.271524706487556386e+02
2.033347336414010886e+00 5.272358005831297305e+02
2.033447358418852158e+00 5.273193541292951068e+02
2.033547380423692985e+00 5.274031300357893315e+02
2.033647402428534257e+00 5.274871270458387471e+02
2.033747424433375528e+00 5.275713438973913298e+02
2.033847446438215911e+00 5.276557793231550022e+02
2.033947468443057183e+00 5.277404320506263957e+02
2.034047490447898454e+00 5.278253008021287087e+02
2.034147512452739281e+00 5.279103842948447891e+02
2.034247534457580553e+00 5.279956812408527185e+02
2.034347556462421824e+00 5.280811903471591222e+02
2.034447578467262652e+00 5.281669103157364589e+02
2.034547600472103479e+00 5.282528398435559893e+02
2.034647622476944751e+00 5.283389776226229060e+02
2.034747644481785578e+00 5.284253223400140769e+02
2.034847666486626849e+00 5.285118726779114695e+02
2.034947688491468121e+00 5.285986273136376212e+02
2.035047710496308948e+00 5.286855849196925874e+02
2.035147732501150220e+00 5.287727441637891843e+02
2.035247754505991047e+00 5.288601037088900512e+02
2.035347776510832318e+00 5.289476622132408465e+02
2.035447798515673146e+00 5.290354183304116304e+02
2.035547820520514417e+00 5.291233707093269913e+02
2.035647842525355244e+00 5.292115179943086787e+02
2.035747864530196516e+00 5.292998588251081173e+02
2.035847886535037787e+00 5.293883918369448338e+02
2.035947908539878615e+00 5.294771156605431770e+02
2.036047930544719442e+00 5.295660289221697212e+02
2.036147952549560713e+00 5.296551302436701008e+02
2.036247974554401985e+00 5.297444182425057306e+02
2.036347996559242812e+00 5.298338915317923465e+02
2.036448018564084084e+00 5.299235487203368393e+02
2.036548040568924911e+00 5.300133884126754538e+02
2.036648062573766182e+00 5.301034092091108505e+02
2.036748084578607010e+00 5.301936097057499637e+02
2.036848106583448281e+00 5.302839884945440190e+02
2.036948128588289109e+00 5.303745441633232076e+02
2.037048150593130380e+00 5.304652752958371593e+02
2.037148172597971651e+00 5.305561804717937093e+02
2.037248194602812479e+00 5.306472582668967561e+02
2.037348216607653306e+00 5.307385072528825276e+02
2.037448238612494578e+00 5.308299259975623272e+02
2.037548260617335849e+00 5.309215130648590275e+02
2.037648282622176676e+00 5.310132670148448142e+02
2.037748304627017948e+00 5.311051864037838186e+02
2.037848326631858775e+00 5.311972697841666786e+02
2.037948348636700047e+00 5.312895157047535122e+02
2.038048370641540874e+00 5.313819227106107519e+02
2.038148392646382145e+00 5.314744893431527544e+02
2.038248414651222973e+00 5.315672141401784074e+02
2.038348436656064244e+00 5.316600956359123984e+02
2.038448458660905516e+00 5.317531323610465961e+02
2.038548480665746343e+00 5.318463228427756349e+02
2.038648502670587614e+00 5.319396656048402292e+02
2.038748524675428442e+00 5.320331591675660547e+02
2.038848546680269269e+00 5.321268020479034249e+02
2.038948568685110541e+00 5.322205927594681043e+02
2.039048590689951812e+00 5.323145298125804175e+02
2.039148612694792639e+00 5.324086117143060619e+02
2.039248634699633911e+00 5.325028369684979452e+02
2.039348656704475182e+00 5.325972040758340427e+02
2.039448678709315566e+00 5.326917115338600297e+02
2.039548700714156837e+00 5.327863578370281630e+02
2.039648722718998108e+00 5.328811414767400265e+02
2.039748744723838936e+00 5.329760609413854127e+02
2.039848766728680207e+00 5.330711147163841588e+02
2.039948788733521479e+00 5.331663012842271883e+02
2.040048810738362306e+00 5.332616191245170967e+02
2.040148832743203133e+00 5.333570667140083970e+02
2.040248854748044405e+00 5.334526425266507204e+02
2.040348876752885232e+00 5.335483450336289479e+02
2.040448898757726504e+00 5.336441727034036830e+02
2.040548920762567775e+00 5.337401240017534292e+02
2.040648942767408602e+00 5.338361973918166541e+02
2.040748964772249874e+00 5.339323913341318075e+02
2.040848986777090701e+00 5.340287042866796128e+02
2.040949008781931973e+00 5.341251347049254719e+02
2.041049030786772800e+00 5.342216810418597106e+02
2.041149052791614071e+00 5.343183417480394155e+02
2.041249074796454899e+00 5.344151152716316346e+02
2.041349096801296170e+00 5.345120000584543050e+02
2.041449118806137442e+00 5.346089945520171796e+02
2.041549140810978269e+00 5.347060971935653697e+02
2.041649162815819096e+00 5.348033064221212953e+02
2.041749184820660368e+00 5.349006206745248164e+02
2.041849206825501639e+00 5.349980383854772299e+02
2.041949228830342467e+00 5.350955579875828789e+02
2.042049250835183738e+00 5.351931779113924676e+02
2.042149272840024565e+00 5.352908965854419421e+02
2.042249294844865837e+00 5.353887124362986469e+02
2.042349316849706664e+00 5.354866238886014571e+02
2.042449338854547936e+00 5.355846293651037513e+02
2.042549360859388763e+00 5.356827272867158172e+02
2.042649382864230034e+00 5.357809160725471429e+02
2.042749404869071306e+00 5.358791941399483676e+02
2.042849426873912133e+00 5.359775599045560739e+02
2.042949448878752960e+00 5.360760117803324647e+02
2.043049470883594232e+00 5.361745481796094737e+02
2.043149492888435503e+00 5.362731675131312841e+02
2.043249514893276331e+00 5.363718681900971887e+02
2.043349536898117602e+00 5.364706486182028584e+02
2.043449558902958429e+00 5.365695072036851343e+02
2.043549580907799701e+00 5.366684423513637512e+02
2.043649602912640528e+00 5.367674524646832879e+02
2.043749624917481800e+00 5.368665359457578461e+02
2.043849646922322627e+00 5.369656911954120915e+02
2.043949668927163899e+00 5.370649166132250230e+02
2.044049690932005170e+00 5.371642105975731738e+02
2.044149712936845997e+00 5.372635715456721073e+02
2.044249734941687269e+00 5.373629978536198450e+02
2.044349756946528096e+00 5.374624879164418871e+02
2.044449778951368923e+00 5.375620401281300929e+02
2.044549800956210195e+00 5.376616528816899745e+02
2.044649822961051466e+00 5.377613245691800330e+02
2.044749844965892294e+00 5.378610535817564369e+02
2.044849866970733565e+00 5.379608383097171327e+02
2.044949888975574837e+00 5.380606771425409534e+02
2.045049910980415220e+00 5.381605684689355940e+02
2.045149932985256491e+00 5.382605106768774021e+02
2.045249954990097763e+00 5.383605021536537834e+02
2.045349976994938590e+00 5.384605412859090166e+02
2.045449998999779861e+00 5.385606264596863184e+02
2.045550021004621133e+00 5.386607560604677474e+02
2.045650043009461960e+00 5.387609284732228616e+02
2.045750065014302788e+00 5.388611420824461220e+02
2.045850087019144059e+00 5.389613952722038448e+02
2.045950109023984886e+00 5.390616864261747878e+02
2.046050131028826158e+00 5.391620139276952841e+02
2.046150153033667429e+00 5.392623761597997145e+02
2.046250175038508257e+00 5.393627715052648455e+02
2.046350197043349528e+00 5.394631983466538259e+02
2.046450219048190355e+00 5.395636550663572280e+02
2.046550241053031627e+00 5.396641400466362484e+02
2.046650263057872454e+00 5.397646516696676144e+02
2.046750285062713726e+00 5.398651883175828061e+02
2.046850307067554553e+00 5.399657483725153497e+02
2.046950329072395824e+00 5.400663302166391304e+02
2.047050351077237096e+00 5.401669322322165954e+02
2.047150373082077923e+00 5.402675528016360431e+02
2.047250395086918751e+00 5.403681903074572119e+02
2.047350417091760022e+00 5.404688431324543672e+02
2.047450439096601293e+00 5.405695096596582516e+02
2.047550461101442121e+00 5.406701882723990593e+02
2.047650483106283392e+00 5.407708773543490679e+02
2.047750505111124220e+00 5.408715752895648166e+02
2.047850527115965491e+00 5.409722804625309891e+02
2.047950549120806318e+00 5.410729912582013412e+02
2.048050571125647590e+00 5.411737060620434931e+02
2.048150593130488417e+00 5.412744232600775831e+02
2.048250615135329689e+00 5.413751412389252664e+02
2.048350637140170960e+00 5.414758583858440488e+02
2.048450659145011787e+00 5.415765730887769678e+02
2.048550681149852615e+00 5.416772837363895405e+02
2.048650703154693886e+00 5.417779887181168306e+02
2.048750725159535158e+00 5.418786864242022148e+02
2.048850747164375985e+00 5.419793752457404707e+02
2.048950769169217256e+00 5.420800535747198410e+02
2.049050791174058084e+00 5.421807198040669391e+02
2.049150813178898911e+00 5.422813723276838118e+02
2.049250835183740183e+00 5.423820095404951189e+02
2.049350857188581454e+00 5.424826298384856500e+02
2.049450879193422281e+00 5.425832316187465949e+02
2.049550901198263553e+00 5.426838132795137426e+02
2.049650923203104824e+00 5.427843732202120464e+02
2.049750945207945652e+00 5.428849098414950731e+02
2.049850967212786479e+00 5.429854215452893413e+02
2.049950989217627750e+00 5.430859067348333156e+02
2.050051011222468578e+00 5.431863638147214033e+02
2.050151033227309849e+00 5.432867911909443137e+02
2.050251055232151121e+00 5.433871872709303261e+02
2.050351077236991948e+00 5.434875504635870129e+02
2.050451099241833219e+00 5.435878791793428491e+02
2.050551121246674047e+00 5.436881718301895035e+02
2.050651143251514874e+00 5.437884268297203789e+02
2.050751165256356146e+00 5.438886425931740405e+02
2.050851187261197417e+00 5.439888175374754837e+02
2.050951209266038244e+00 5.440889500812752431e+02
2.051051231270879516e+00 5.441890386449920243e+02
2.051151253275720787e+00 5.442890816508538592e+02
2.051251275280561615e+00 5.443890775229357359e+02
2.051351297285402442e+00 5.444890246872053012e+02
2.051451319290243713e+00 5.445889215715599221e+02
2.051551341295084541e+00 5.446887666058681816e+02
2.051651363299925812e+00 5.447885582220113747e+02
2.051751385304767084e+00 5.448882948539207973e+02
2.051851407309607911e+00 5.449879749376245854e+02
2.051951429314448738e+00 5.450875969112787516e+02
2.052051451319290010e+00 5.451871592152164112e+02
2.052151473324131281e+00 5.452866602919821162e+02
2.052251495328972108e+00 5.453860985863736914e+02
2.052351517333813380e+00 5.454854725454820255e+02
2.052451539338654207e+00 5.455847806187314291e+02
2.052551561343495479e+00 5.456840212579180616e+02
2.052651583348336306e+00 5.457831929172518812e+02
2.052751605353177577e+00 5.458822940533930250e+02
2.052851627358018405e+00 5.459813231254939865e+02
2.052951649362859676e+00 5.460802785952381555e+02
2.053051671367700948e+00 5.461791589268774487e+02
2.053151693372541775e+00 5.462779625872753968e+02
2.053251715377383047e+00 5.463766880459409094e+02
2.053351737382223874e+00 5.464753337750718174e+02
2.053451759387065145e+00 5.465738982495929577e+02
2.053551781391905973e+00 5.466723799471916436e+02
2.053651803396747244e+00 5.467707773483598430e+02
2.053751825401588071e+00 5.468690889364328314e+02
2.053851847406429343e+00 5.469673131976236391e+02
2.053951869411270614e+00 5.470654486210671621e+02
2.054051891416111442e+00 5.471634936988532445e+02
2.054151913420952269e+00 5.472614469260685155e+02
2.054251935425793540e+00 5.473593068008312912e+02
2.054351957430634812e+00 5.474570718243329566e+02
2.054451979435475639e+00 5.475547405008724127e+02
2.054552001440316911e+00 5.476523113378965490e+02
2.054652023445157738e+00 5.477497828460352594e+02
2.054752045449998565e+00 5.478471535391412317e+02
2.054852067454839837e+00 5.479444219343254190e+02
2.054952089459681108e+00 5.480415865519955787e+02
2.055052111464521936e+00 5.481386459158931075e+02
2.055152133469363207e+00 5.482355985531285114e+02
2.055252155474204478e+00 5.483324429942213101e+02
2.055352177479045306e+00 5.484291777731343700e+02
2.055452199483886133e+00 5.485258014273100571e+02
2.055552221488727405e+00 5.486223124977096859e+02
2.055652243493568232e+00 5.487187095288463752e+02
2.055752265498409503e+00 5.488149910688242699e+02
2.055852287503250775e+00 5.489111556693727607e+02
2.055952309508091602e+00 5.490072018858827505e+02
2.056052331512932874e+00 5.491031282774433748e+02
2.056152353517773701e+00 5.491989334068767903e+02
2.056252375522614528e+00 5.492946158407742132e+02
2.056352397527455800e+00 5.493901741495311626e+02
2.056452419532297071e+00 5.494856069073836125e+02
2.056552441537137899e+00 5.495809126924414159e+02
2.056652463541979170e+00 5.496760900867254804e+02
2.056752485546820441e+00 5.497711376762008513e+02
2.056852507551661269e+00 5.498660540508122949e+02
2.056952529556502096e+00 5.499608378045196559e+02
2.057052551561343368e+00 5.500554875353311672e+02
2.057152573566184195e+00 5.501500018453373286e+02
2.057252595571025466e+00 5.502443793407483099e+02
2.057352617575866738e+00 5.503386186319232820e+02
2.057452639580707565e+00 5.504327183334080473e+02
2.057552661585548393e+00 5.505266770639680090e+02
2.057652683590389664e+00 5.506204934466202303e+02
2.057752705595230935e+00 5.507141661086699287e+02
2.057852727600071763e+00 5.508076936817393516e+02
2.057952749604913034e+00 5.509010748018057484e+02
2.058052771609753862e+00 5.509943081092322927e+02
2.058152793614595133e+00 5.510873922487985510e+02
2.058252815619435960e+00 5.511803258697393630e+02
2.058352837624277232e+00 5.512731076257697396e+02
2.058452859629118059e+00 5.513657361751248800e+02
2.058552881633959331e+00 5.514582101805852972e+02
2.058652903638800602e+00 5.515505283095164941e+02
2.058752925643641429e+00 5.516426892338930656e+02
2.058852947648482701e+00 5.517346916303362150e+02
2.058952969653323528e+00 5.518265341801439945e+02
2.059052991658164800e+00 5.519182155693216600e+02
2.059153013663005627e+00 5.520097344886133897e+02
2.059253035667846898e+00 5.521010896335341158e+02
2.059353057672687726e+00 5.521922797044007893e+02
2.059453079677528997e+00 5.522833034063614832e+02
2.059553101682370269e+00 5.523741594494275660e+02
2.059653123687211096e+00 5.524648465485047382e+02
2.059753145692051923e+00 5.525553634234221363e+02
2.059853167696893195e+00 5.526457087989625734e+02
2.059953189701734466e+00 5.527358814048918703e+02
2.060053211706575294e+00 5.528258799759922795e+02
2.060153233711416565e+00 5.529157032520877237e+02
2.060253255716257392e+00 5.530053499780767652e+02
2.060353277721098220e+00 5.530948189039579574e+02
2.060453299725939491e+00 5.531841087848634970e+02
2.060553321730780763e+00 5.532732183810863944e+02
2.060653343735621590e+00 5.533621464581081000e+02
2.060753365740462861e+00 5.534508917866285174e+02
2.060853387745304133e+00 5.535394531425943114e+02
2.060953409750144960e+00 5.536278293072267616e+02
2.061053431754985787e+00 5.537160190670506381e+02
2.061153453759827059e+00 5.538040212139219420e+02
2.061253475764667886e+00 5.538918345450545075e+02
2.061353497769509158e+00 5.539794578630489923e+02
2.061453519774350429e+00 5.540668899759216401e+02
2.061553541779191256e+00 5.541541296971262227e+02
2.061653563784032528e+00 5.542411758455875770e+02
2.061753585788873355e+00 5.543280272457244564e+02
2.061853607793714183e+00 5.544146827274777252e+02
2.061953629798555454e+00 5.545011411263360515e+02
2.062053651803396725e+00 5.545874012833629649e+02
2.062153673808237553e+00 5.546734620452225499e+02
2.062253695813078824e+00 5.547593222642062756e+02
2.062353717817920096e+00 5.548449807982567563e+02
2.062453739822760923e+00 5.549304365109966284e+02
2.062553761827601750e+00 5.550156882717499229e+02
2.062653783832443022e+00 5.551007349555709425e+02
2.062753805837283849e+00 5.551855754432665435e+02
2.062853827842125121e+00 5.552702086214233077e+02
2.062953849846966392e+00 5.553546333824306203e+02
2.063053871851807219e+00 5.554388486245059084e+02
2.063153893856648047e+00 5.555228532517173790e+02
2.063253915861489318e+00 5.556066461740109617e+02
2.063353937866330590e+00 5.556902263072312280e+02
2.063453959871171417e+00 5.557735925731477664e+02
2.063553981876012688e+00 5.558567438994759868e+02
2.063654003880853516e+00 5.559396792199032689e+02
2.063754025885694787e+00 5.560223974741090842e+02
2.063854047890535615e+00 5.561048976077909174e+02
2.063954069895376886e+00 5.561871785726846156e+02
2.064054091900217713e+00 5.562692393265874671e+02
2.064154113905058985e+00 5.563510788333825303e+02
2.064254135909900256e+00 5.564326960630576195e+02
2.064354157914741084e+00 5.565140899917296338e+02
2.064454179919582355e+00 5.565952596016650205e+02
2.064554201924423182e+00 5.566762038813025129e+02
2.064654223929264454e+00 5.567569218252725705e+02
2.064754245934105281e+00 5.568374124344213669e+02
2.064854267938946553e+00 5.569176747158277294e+02
2.064954289943787380e+00 5.569977076828286044e+02
2.065054311948628651e+00 5.570775103550354288e+02
2.065154333953469923e+00 5.571570817583578901e+02
2.065254355958310750e+00 5.572364209250210934e+02
2.065354377963151578e+00 5.573155268935871618e+02
2.065454399967992849e+00 5.573943987089754728e+02
2.065554421972834120e+00 5.574730354224803932e+02
2.065654443977674948e+00 5.575514360917916292e+02
2.065754465982516219e+00 5.576295997810148037e+02
2.065854487987357047e+00 5.577075255606863493e+02
2.065954509992197874e+00 5.577852125077971550e+02
2.066054531997039145e+00 5.578626597058076868e+02
2.066154554001880417e+00 5.579398662446670869e+02
2.066254576006721244e+00 5.580168312208311363e+02
2.066354598011562516e+00 5.580935537372813542e+02
2.066454620016403787e+00 5.581700329035418235e+02
2.066554642021244170e+00 5.582462678356964716e+02
2.066654664026085442e+00 5.583222576564054407e+02
2.066754686030926713e+00 5.583980014949238466e+02
2.066854708035767541e+00 5.584734984871192864e+02
2.066954730040608812e+00 5.585487477754841166e+02
2.067054752045450083e+00 5.586237485091584176e+02
2.067154774050290911e+00 5.586984998439403398e+02
2.067254796055131738e+00 5.587730009423054298e+02
2.067354818059973010e+00 5.588472509734210689e+02
2.067454840064813837e+00 5.589212491131617071e+02
2.067554862069655108e+00 5.589949945441273940e+02
2.067654884074496380e+00 5.590684864556532148e+02
2.067754906079337207e+00 5.591417240438305498e+02
2.067854928084178479e+00 5.592147065115168516e+02
2.067954950089019306e+00 5.592874330683525841e+02
2.068054972093860577e+00 5.593599029307750925e+02
2.068154994098701405e+00 5.594321153220332690e+02
2.068255016103542676e+00 5.595040694721992622e+02
2.068355038108383503e+00 5.595757646181858718e+02
2.068455060113224775e+00 5.596472000037555290e+02
2.068555082118066046e+00 5.597183748795374640e+02
2.068655104122906874e+00 5.597892885030377101e+02
2.068755126127747701e+00 5.598599401386546788e+02
2.068855148132588972e+00 5.599303290576896188e+02
2.068955170137430244e+00 5.600004545383593495e+02
2.069055192142271071e+00 5.600703158658102438e+02
2.069155214147112343e+00 5.601399123321263005e+02
2.069255236151953170e+00 5.602092432363456282e+02
2.069355258156794442e+00 5.602783078844678357e+02
2.069455280161635269e+00 5.603471055894685833e+02
2.069555302166476540e+00 5.604156356713082232e+02
2.069655324171317368e+00 5.604838974569432821e+02
2.069755346176158639e+00 5.605518902803389665e+02
2.069855368180999911e+00 5.606196134824768933e+02
2.069955390185840738e+00 5.606870664113654357e+02
2.070055412190681565e+00 5.607542484220537062e+02
2.070155434195522837e+00 5.608211588766350815e+02
2.070255456200364108e+00 5.608877971442631178e+02
2.070355478205204935e+00 5.609541626011547351e+02
2.070455500210046207e+00 5.610202546306043132e+02
2.070555522214887034e+00 5.610860726229908551e+02
2.070655544219728306e+00 5.611516159757852620e+02
2.070755566224569133e+00 5.612168840935612479e+02
2.070855588229410404e+00 5.612818763880006827e+02
2.070955610234251232e+00 5.613465922779057564e+02
2.071055632239092503e+00 5.614110311892019354e+02
2.071155654243933775e+00 5.614751925549493308e+02
2.071255676248774602e+00 5.615390758153489514e+02
2.071355698253615873e+00 5.616026804177480471e+02
2.071455720258456701e+00 5.616660058166495446e+02
2.071555742263297528e+00 5.617290514737189824e+02
2.071655764268138800e+00 5.617918168577878077e+02
2.071755786272980071e+00 5.618543014448626991e+02
2.071855808277820898e+00 5.619165047181299997e+02
2.071955830282662170e+00 5.619784261679627662e+02
2.072055852287503441e+00 5.620400652919255435e+02
2.072155874292343825e+00 5.621014215947805042e+02
2.072255896297185096e+00 5.621624945884915405e+02
2.072355918302026367e+00 5.622232837922294948e+02
2.072455940306867195e+00 5.622837887323773884e+02
2.072555962311708466e+00 5.623440089425362203e+02
2.072655984316549738e+00 5.624039439635258759e+02
2.072756006321390565e+00 5.624635933433921764e+02
2.072856028326231392e+00 5.625229566374091519e+02
2.072956050331072664e+00 5.625820334080839302e+02
2.073056072335913491e+00 5.626408232251595791e+02
2.073156094340754763e+00 5.626993256656172662e+02
2.073256116345596034e+00 5.627575403136813748e+02
2.073356138350436861e+00 5.628154667608207546e+02
2.073456160355278133e+00 5.628731046057507683e+02
2.073556182360118960e+00 5.629304534544389753e+02
2.073656204364960232e+00 5.629875129201018353e+02
2.073756226369801059e+00 5.630442826232115294e+02
2.073856248374642330e+00 5.631007621914953916e+02
2.073956270379483158e+00 5.631569512599377276e+02
2.074056292384324429e+00 5.632128494707797017e+02
2.074156314389165701e+00 5.632684564735236563e+02
2.074256336394006528e+00 5.633237719249318616e+02
2.074356358398847355e+00 5.633787954890252649e+02
2.074456380403688627e+00 5.634335268370878111e+02
2.074556402408529898e+00 5.634879656476639411e+02
2.074656424413370726e+00 5.635421116065590468e+02
2.074756446418211997e+00 5.635959644068408352e+02
2.074856468423052824e+00 5.636495237488347811e+02
2.074956490427894096e+00 5.637027893401278789e+02
2.075056512432734923e+00 5.637557608955662545e+02
2.075156534437576195e+00 5.638084381372524376e+02
2.075256556442417022e+00 5.638608207945464983e+02
2.075356578447258293e+00 5.639129086040622951e+02
2.075456600452099565e+00 5.639647013096669070e+02
2.075556622456940392e+00 5.640161986624797237e+02
2.075656644461781219e+00 5.640674004208666474e+02
2.075756666466622491e+00 5.641183063504416850e+02
2.075856688471463762e+00 5.641689162240618316e+02
2.075956710476304590e+00 5.642192298218255928e+02
2.076056732481145861e+00 5.642692469310694605e+02
2.076156754485986689e+00 5.643189673463631379e+02
2.076256776490827960e+00 5.643683908695093123e+02
2.076356798495668787e+00 5.644175173095370610e+02
2.076456820500510059e+00 5.644663464826990094e+02
2.076556842505350886e+00 5.645148782124671243e+02
2.076656864510192158e+00 5.645631123295298721e+02
2.076756886515033429e+00 5.646110486717839194e+02
2.076856908519874256e+00 5.646586870843336783e+02
2.076956930524715528e+00 5.647060274194827798e+02
2.077056952529556355e+00 5.647530695367328235e+02
2.077156974534397182e+00 5.647998133027734866e+02
2.077256996539238454e+00 5.648462585914801366e+02
2.077357018544079725e+00 5.648924052839071237e+02
2.077457040548920553e+00 5.649382532682815281e+02
2.077557062553761824e+00 5.649838024399972483e+02
2.077657084558603096e+00 5.650290527016086344e+02
2.077757106563443479e+00 5.650740039628227578e+02
2.077857128568284750e+00 5.651186561404956592e+02
2.077957150573126022e+00 5.651630091586199569e+02
2.078057172577966849e+00 5.652070629483243920e+02
2.078157194582808120e+00 5.652508174478599585e+02
2.078257216587649392e+00 5.652942726025971751e+02
2.078357238592490219e+00 5.653374283650143752e+02
2.078457260597331047e+00 5.653802846946931595e+02
2.078557282602172318e+00 5.654228415583063452e+02
2.078657304607013145e+00 5.654650989296138732e+02
2.078757326611854417e+00 5.655070567894501892e+02
2.078857348616695688e+00 5.655487151257177629e+02
2.078957370621536516e+00 5.655900739333764022e+02
2.079057392626377787e+00 5.656311332144363178e+02
2.079157414631218614e+00 5.656718929779449354e+02
2.079257436636059886e+00 5.657123532399814394e+02
2.079357458640900713e+00 5.657525140236442667e+02
2.079457480645741985e+00 5.657923753590411025e+02
2.079557502650582812e+00 5.658319372832798990e+02
2.079657524655424083e+00 5.658711998404571659e+02
2.079757546660265355e+00 5.659101630816470561e+02
2.079857568665106182e+00 5.659488270648935213e+02
2.079957590669947010e+00 5.659871918551941690e+02
2.080057612674788281e+00 5.660252575244941227e+02
2.080157634679629552e+00 5.660630241516699925e+02
2.080257656684470380e+00 5.661004918225230540e+02
2.080357678689311651e+00 5.661376606297623084e+02
2.080457700694152479e+00 5.661745306729958429e+02
2.080557722698993750e+00 5.662111020587180974e+02
2.080657744703834577e+00 5.662473749002970180e+02
2.080757766708675849e+00 5.662833493179608695e+02
2.080857788713516676e+00 5.663190254387861842e+02
2.080957810718357948e+00 5.663544033966845745e+02
2.081057832723199219e+00 5.663894833323902276e+02
2.081157854728040046e+00 5.664242653934447844e+02
2.081257876732880874e+00 5.664587497341848348e+02
2.081357898737722145e+00 5.664929365157292978e+02
2.081457920742563417e+00 5.665268259059627098e+02
2.081557942747404244e+00 5.665604180795241973e+02
2.081657964752245515e+00 5.665937132177912190e+02
2.081757986757086343e+00 5.666267115088647870e+02
2.081858008761927614e+00 5.666594131475566201e+02
2.081958030766768442e+00 5.666918183353720906e+02
2.082058052771609713e+00 5.667239272804969232e+02
2.082158074776450540e+00 5.667557401977807103e+02
2.082258096781291812e+00 5.667872573087225874e+02
2.082358118786133083e+00 5.668184788414547484e+02
2.082458140790973911e+00 5.668494050307274392e+02
2.082558162795815182e+00 5.668800361178912226e+02
2.082658184800656009e+00 5.669103723508837902e+02
2.082758206805496837e+00 5.669404139842108634e+02
2.082858228810338108e+00 5.669701612789308456e+02
2.082958250815179380e+00 5.669996145026392469e+02
2.083058272820020207e+00 5.670287739294499261e+02
2.083158294824861478e+00 5.670576398399769005e+02
2.083258316829702750e+00 5.670862125213230911e+02
2.083358338834543133e+00 5.671144922670553115e+02
2.083458360839384405e+00 5.671424793771919894e+02
2.083558382844225676e+00 5.671701741581834995e+02
2.083658404849066503e+00 5.671975769228940862e+02
2.083758426853907775e+00 5.672246879905843571e+02
2.083858448858749046e+00 5.672515076868933193e+02
2.083958470863589874e+00 5.672780363438184850e+02
2.084058492868430701e+00 5.673042742996998413e+02
2.084158514873271972e+00 5.673302218991981363e+02
2.084258536878112800e+00 5.673558794932777118e+02
2.084358558882954071e+00 5.673812474391878595e+02
2.084458580887795343e+00 5.674063261004416745e+02
2.084558602892636170e+00 5.674311158467990026e+02
2.084658624897476997e+00 5.674556170542440441e+02
2.084758646902318269e+00 5.674798301049678457e+02
2.084858668907159540e+00 5.675037553873486331e+02
2.084958690912000367e+00 5.675273932959296417e+02
2.085058712916841639e+00 5.675507442314000173e+02
2.085158734921682466e+00 5.675738086005756031e+02
2.085258756926523738e+00 5.675965868163757477e+02
2.085358778931364565e+00 5.676190792978048876e+02
2.085458800936205837e+00 5.676412864699303782e+02
2.085558822941046664e+00 5.676632087638624853e+02
2.085658844945887935e+00 5.676848466167328979e+02
2.085758866950729207e+00 5.677062004716717638e+02
2.085858888955570034e+00 5.677272707777883625e+02
2.085958910960411306e+00 5.677480579901495048e+02
2.086058932965252133e+00 5.677685625697550904e+02
2.086158954970093404e+00 5.677887849835193492e+02
2.086258976974934232e+00 5.678087257042466263e+02
2.086358998979775503e+00 5.678283852106103495e+02
2.086459020984616330e+00 5.678477639871292695e+02
2.086559042989457602e+00 5.678668625241464269e+02
2.086659064994298873e+00 5.678856813178057337e+02
2.086759086999139701e+00 5.679042208700282117e+02
2.086859109003980528e+00 5.679224816884914162e+02
2.086959131008821799e+00 5.679404642866030599e+02
2.087059153013663071e+00 5.679581691834810044e+02
2.087159175018503898e+00 5.679755969039279080e+02
2.087259197023345170e+00 5.679927479784067827e+02
2.087359219028185997e+00 5.680096229430203039e+02
2.087459241033026824e+00 5.680262223394846615e+02
2.087559263037868096e+00 5.680425467151048906e+02
2.087659285042709367e+00 5.680585966227534982e+02
2.087759307047550195e+00 5.680743726208444286e+02
2.087859329052391466e+00 5.680898752733079391e+02
2.087959351057232738e+00 5.681051051495678621e+02
2.088059373062073565e+00 5.681200628245162534e+02
2.088159395066914392e+00 5.681347488784869029e+02
2.088259417071755664e+00 5.681491638972333931e+02
2.088359439076596491e+00 5.681633084719023827e+02
2.088459461081437762e+00 5.681771831990081409e+02
2.088559483086279034e+00 5.681907886804074224e+02
2.088659505091119861e+00 5.682041255232752519e+02
2.088759527095961133e+00 5.682171943400765031e+02
2.088859549100801960e+00 5.682299957485442974e+02
2.088959571105642787e+00 5.682425303716491953e+02
2.089059593110484059e+00 5.682547988375781642e+02
2.089159615115325330e+00 5.682668017797054745e+02
2.089259637120166158e+00 5.682785398365662104e+02
2.089359659125007429e+00 5.682900136518317140e+02
2.089459681129848700e+00 5.683012238742834370e+02
2.089559703134689528e+00 5.683121711577829274e+02
2.089659725139530355e+00 5.683228561612494332e+02
2.089759747144371627e+00 5.683332795486300029e+02
2.089859769149212454e+00 5.683434419888745879e+02
2.089959791154053725e+00 5.683533441559076209e+02
2.090059813158894997e+00 5.683629867285999353e+02
2.090159835163735824e+00 5.683723703907458003e+02
2.090259857168576652e+00 5.683814958310310885e+02
2.090359879173417923e+00 5.683903637430055369e+02
2.090459901178259194e+00 5.683989748250602361e+02
2.090559923183100022e+00 5.684073297803940932e+02
2.090659945187941293e+00 5.684154293169897301e+02
2.090759967192782121e+00 5.684232741475829016e+02
2.090859989197623392e+00 5.684308649896380530e+02
2.090960011202464219e+00 5.684382025653160326e+02
2.091060033207305491e+00 5.684452876014479443e+02
2.091160055212146318e+00 5.684521208295076349e+02
2.091260077216987590e+00 5.684587029855809988e+02
2.091360099221828861e+00 5.684650348103400574e+02
2.091460121226669688e+00 5.684711170490111272e+02
2.091560143231510960e+00 5.684769504513490119e+02
2.091660165236351787e+00 5.684825357716059671e+02
2.091760187241193059e+00 5.684878737685044143e+02
2.091860209246033886e+00 5.684929652052078382e+02
2.091960231250875157e+00 5.684978108492883848e+02
2.092060253255715985e+00 5.685024114727037841e+02
2.092160275260557256e+00 5.685067678517613103e+02
2.092260297265398528e+00 5.685108807670922033e+02
2.092360319270239355e+00 5.685147510036223366e+02
2.092460341275080182e+00 5.685183793505414087e+02
2.092560363279921454e+00 5.685217666012725886e+02
2.092660385284762725e+00 5.685249135534440938e+02
2.092760407289603553e+00 5.685278210088596325e+02
2.092860429294444824e+00 5.685304897734667975e+02
2.092960451299285651e+00 5.685329206573279635e+02
2.093060473304126479e+00 5.685351144745905003e+02
2.093160495308967750e+00 5.685370720434557370e+02
2.093260517313809022e+00 5.685387941861495165e+02
2.093360539318649849e+00 5.685402817288901360e+02
2.093460561323491120e+00 5.685415355018616310e+02
2.093560583328332392e+00 5.685425563391783044e+02
2.093660605333173219e+00 5.685433450788577829e+02
2.093760627338014046e+00 5.685439025627891851e+02
2.093860649342855318e+00 5.685442296367016297e+02
2.093960671347696145e+00 5.685443271501351319e+02
2.094060693352537417e+00 5.685441959564076342e+02
2.094160715357378688e+00 5.685438369125854479e+02
2.094260737362219515e+00 5.685432508794526711e+02
2.094360759367060787e+00 5.685424387214773105e+02
2.094460781371901614e+00 5.685414013067842234e+02
2.094560803376742442e+00 5.685401395071203297e+02
2.094660825381583713e+00 5.685386541978255082e+02
2.094760847386424985e+00 5.685369462577979220e+02
2.094860869391265812e+00 5.685350165694692350e+02
2.094960891396107083e+00 5.685328660187653895e+02
2.095060913400948355e+00 5.685304954950802312e+02
2.095160935405789182e+00 5.685279058912412893e+02
2.095260957410630009e+00 5.685250981034790811e+02
2.095360979415471281e+00 5.685220730313966442e+02
2.095461001420312108e+00 5.685188315779348613e+02
2.095561023425153380e+00 5.685153746493424478e+02
2.095661045429994651e+00 5.685117031551434366e+02
2.095761067434835478e+00 5.685078180081063692e+02
2.095861089439676306e+00 5.685037201242112133e+02
2.095961111444517577e+00 5.684994104226170748e+02
2.096061133449358849e+00 5.684948898256307075e+02
2.096161155454199676e+00 5.684901592586734296e+02
2.096261177459040947e+00 5.684852196502509969e+02
2.096361199463881775e+00 5.684800719319185873e+02
2.096461221468723046e+00 5.684747170382510149e+02
2.096561243473563874e+00 5.684691559068087372e+02
2.096661265478405145e+00 5.684633894781053414e+02
2.096761287483245972e+00 5.684574186955763935e+02
2.096861309488087244e+00 5.684512445055470380e+02
2.096961331492928515e+00 5.684448678571966411e+02
2.097061353497769343e+00 5.684382897025298007e+02
2.097161375502610614e+00 5.684315109963423538e+02
2.097261397507451441e+00 5.684245326961879528e+02
2.097361419512292713e+00 5.684173557623464603e+02
2.097461441517133540e+00 5.684099811577909804e+02
2.097561463521974812e+00 5.684024098481542069e+02
2.097661485526815639e+00 5.683946428016978416e+02
2.097761507531656910e+00 5.683866809892774654e+02
2.097861529536498182e+00 5.683785253843105920e+02
2.097961551541339009e+00 5.683701769627446083e+02
2.098061573546179837e+00 5.683616367030228957e+02
2.098161595551021108e+00 5.683529055860511789e+02
2.098261617555862379e+00 5.683439845951667166e+02
2.098361639560703207e+00 5.683348747161044230e+02
2.098461661565544478e+00 5.683255769369629888e+02
2.098561683570385306e+00 5.683160922481720263e+02
2.098661705575226133e+00 5.683064216424612596e+02
2.098761727580067404e+00 5.682965661148238041e+02
2.098861749584908676e+00 5.682865266624869491e+02
2.098961771589749503e+00 5.682763042848756641e+02
2.099061793594590775e+00 5.682658999835817895e+02
2.099161815599432046e+00 5.682553147623301584e+02
2.099261837604272873e+00 5.682445496269452860e+02
2.099361859609113701e+00 5.682336055853181733e+02
2.099461881613954972e+00 5.682224836473737923e+02
2.099561903618795800e+00 5.682111848250375488e+02
2.099661925623637071e+00 5.681997101322014032e+02
2.099761947628478342e+00 5.681880605846919252e+02
2.099861969633319170e+00 5.681762372002364145e+02
2.099961991638160441e+00 5.681642409984295909e+02
2.100062013643001269e+00 5.681520730007002840e+02
2.100162035647842096e+00 5.681397342302794868e+02
2.100262057652683367e+00 5.681272257121656821e+02
2.100362079657524639e+00 5.681145484730916451e+02
2.100462101662365466e+00 5.681017035414915881e+02
2.100562123667206738e+00 5.680886919474692149e+02
2.100662145672048009e+00 5.680755147227622501e+02
2.100762167676888836e+00 5.680621729007114027e+02
2.100862189681729664e+00 5.680486675162246684e+02
2.100962211686570935e+00 5.680349996057453836e+02
2.101062233691411762e+00 5.680211702072211892e+02
2.101162255696253034e+00 5.680071803600670819e+02
2.101262277701094305e+00 5.679930311051344916e+02
2.101362299705935133e+00 5.679787234846766069e+02
2.101462321710775960e+00 5.679642585423187029e+02
2.101562343715617232e+00 5.679496373230185782e+02
2.101662365720458503e+00 5.679348608730409751e+02
2.101762387725299330e+00 5.679199302399174485e+02
2.101862409730140602e+00 5.679048464724201040e+02
2.101962431734981429e+00 5.678896106205211254e+02
2.102062453739822701e+00 5.678742237353666269e+02
2.102162475744663528e+00 5.678586868692381131e+02
2.102262497749504799e+00 5.678430010755238300e+02
2.102362519754345627e+00 5.678271674086811345e+02
2.102462541759186898e+00 5.678111869242092098e+02
2.102562563764028170e+00 5.677950606786089338e+02
2.102662585768868997e+00 5.677787897293569586e+02
2.102762607773709824e+00 5.677623751348689893e+02
2.102862629778551096e+00 5.677458179544667018e+02
2.102962651783392367e+00 5.677291192483463647e+02
2.103062673788233194e+00 5.677122800775442784e+02
2.103162695793074466e+00 5.676953015039067623e+02
2.103262717797915293e+00 5.676781845900536609e+02
2.103362739802756565e+00 5.676609303993483309e+02
2.103462761807597392e+00 5.676435399958638754e+02
2.103562783812438663e+00 5.676260144443509716e+02
2.103662805817279491e+00 5.676083548102038776e+02
2.103762827822120762e+00 5.675905621594296235e+02
2.103862849826962034e+00 5.675726375586123140e+02
2.103962871831802861e+00 5.675545820748868664e+02
2.104062893836644133e+00 5.675363967758975150e+02
2.104162915841484960e+00 5.675180827297731412e+02
2.104262937846325787e+00 5.674996410050912345e+02
2.104362959851167059e+00 5.674810726708453785e+02
2.104462981856008330e+00 5.674623787964134181e+02
2.104563003860849157e+00 5.674435604515268778e+02
2.104663025865690429e+00 5.674246187062340141e+02
2.104763047870531700e+00 5.674055546308733256e+02
2.104863069875372084e+00 5.673863692960375147e+02
2.104963091880213355e+00 5.673670637725423376e+02
2.105063113885054626e+00 5.673476391313944305e+02
2.105163135889895454e+00 5.673280964437594776e+02
2.105263157894736725e+00 5.673084367809304922e+02
2.105363179899577997e+00 5.672886612142951890e+02
2.105463201904418824e+00 5.672687708153042649e+02
2.105563223909259651e+00 5.672487666554395673e+02
2.105663245914100923e+00 5.672286498061831708e+02
2.105763267918941750e+00 5.672084213389842944e+02
2.105863289923783022e+00 5.671880823252276969e+02
2.105963311928624293e+00 5.671676338362028673e+02
2.106063333933465120e+00 5.671470769430724204e+02
2.106163355938306392e+00 5.671264127168398090e+02
2.106263377943147219e+00 5.671056422283185157e+02
2.106363399947988491e+00 5.670847665481009017e+02
2.106463421952829318e+00 5.670637867465252384e+02
2.106563443957670589e+00 5.670427038936468307e+02
2.106663465962511417e+00 5.670215190592050476e+02
2.106763487967352688e+00 5.670002333125926270e+02
2.106863509972193960e+00 5.669788477228258898e+02
2.106963531977034787e+00 5.669573633585094967e+02
2.107063553981875614e+00 5.669357812878122331e+02
2.107163575986716886e+00 5.669141025784305157e+02
2.107263597991558157e+00 5.668923282975597431e+02
2.107363619996398985e+00 5.668704595118630323e+02
2.107463642001240256e+00 5.668484972874421146e+02
2.107563664006081083e+00 5.668264426898041393e+02
2.107663686010922355e+00 5.668042967838321147e+02
2.107763708015763182e+00 5.667820606337568279e+02
2.107863730020604454e+00 5.667597353031225111e+02
2.107963752025445281e+00 5.667373218547602391e+02
2.108063774030286552e+00 5.667148213507548462e+02
2.108163796035127824e+00 5.666922348524151403e+02
2.108263818039968651e+00 5.666695634202471865e+02
2.108363840044809479e+00 5.666468081139191781e+02
2.108463862049650750e+00 5.666239699922350610e+02
2.108563884054492021e+00 5.666010501131046340e+02
2.108663906059332849e+00 5.665780495335111482e+02
2.108763928064174120e+00 5.665549693094851591e+02
2.108863950069014948e+00 5.665318104960717847e+02
2.108963972073856219e+00 5.665085741473036478e+02
2.109063994078697046e+00 5.664852613161705222e+02
2.109164016083538318e+00 5.664618730545890912e+02
2.109264038088379145e+00 5.664384104133742994e+02
2.109364060093220417e+00 5.664148744422119535e+02
2.109464082098061688e+00 5.663912661896271175e+02
2.109564104102902515e+00 5.663675867029569417e+02
2.109664126107743787e+00 5.663438370283200811e+02
2.109764148112584614e+00 5.663200182105897511e+02
2.109864170117425441e+00 5.662961312933634872e+02
2.109964192122266713e+00 5.662721773189358601e+02
2.110064214127107984e+00 5.662481573282691443e+02
2.110164236131948812e+00 5.662240723609642146e+02
2.110264258136790083e+00 5.661999234552351936e+02
2.110364280141631355e+00 5.661757116478763692e+02
2.110464302146471738e+00 5.661514379742390020e+02
2.110564324151313009e+00 5.661271034682006302e+02
2.110664346156154281e+00 5.661027091621367617e+02
2.110764368160995108e+00 5.660782560868950668e+02
2.110864390165836380e+00 5.660537452717660472e+02
2.110964412170677651e+00 5.660291777444557511e+02
2.111064434175518478e+00 5.660045545310582611e+02
2.111164456180359306e+00 5.659798766560288641e+02
2.111264478185200577e+00 5.659551451421566526e+02
2.111364500190041404e+00 5.659303610105348525e+02
2.111464522194882676e+00 5.659055252805380860e+02
2.111564544199723947e+00 5.658806389697916757e+02
2.111664566204564775e+00 5.658557030941470884e+02
2.111764588209406046e+00 5.658307186676523770e+02
2.111864610214246873e+00 5.658056867025306929e+02
2.111964632219088145e+00 5.657806082091462940e+02
2.112064654223928972e+00 5.657554841959844225e+02
2.112164676228770244e+00 5.657303156696225415e+02
2.112264698233611071e+00 5.657051036347030504e+02
2.112364720238452342e+00 5.656798490939094108e+02
2.112464742243293614e+00 5.656545530479382933e+02
2.112564764248134441e+00 5.656292164954746795e+02
2.112664786252975269e+00 5.656038404331658285e+02
2.112764808257816540e+00 5.655784258555946735e+02
2.112864830262657811e+00 5.655529737552564029e+02
2.112964852267498639e+00 5.655274851225307202e+02
2.113064874272339910e+00 5.655019609456572880e+02
2.113164896277180738e+00 5.654764022107117398e+02
2.113264918282022009e+00 5.654508099015789639e+02
2.113364940286862836e+00 5.654251849999282058e+02
2.113464962291704108e+00 5.653995284851891938e+02
2.113564984296544935e+00 5.653738413345276967e+02
2.113665006301386207e+00 5.653481245228185799e+02
2.113765028306227478e+00 5.653223790226234087e+02
2.113865050311068305e+00 5.652966058041663473e+02
2.113965072315909133e+00 5.652708058353077831e+02
2.114065094320750404e+00 5.652449800815217031e+02
2.114165116325591676e+00 5.652191295058726155e+02
2.114265138330432503e+00 5.651932550689894015e+02
2.114365160335273774e+00 5.651673577290421235e+02
2.114465182340114602e+00 5.651414384417199699e+02
2.114565204344955873e+00 5.651154981602070393e+02
2.114665226349796701e+00 5.650895378351565341e+02
2.114765248354637972e+00 5.650635584146717747e+02
2.114865270359478799e+00 5.650375608442797102e+02
2.114965292364320071e+00 5.650115460669092045e+02
2.115065314369161342e+00 5.649855150228682987e+02
2.115165336374002170e+00 5.649594686498204510e+02
2.115265358378843441e+00 5.649334078827638450e+02
2.115365380383684268e+00 5.649073336540071750e+02
2.115465402388525096e+00 5.648812468931472495e+02
2.115565424393366367e+00 5.648551485270478452e+02
2.115665446398207639e+00 5.648290394798178795e+02
2.115765468403048466e+00 5.648029206727870815e+02
2.115865490407889737e+00 5.647767930244874606e+02
2.115965512412731009e+00 5.647506574506293191e+02
2.116065534417571392e+00 5.647245148640796515e+02
2.116165556422412664e+00 5.646983661748423629e+02
2.116265578427253935e+00 5.646722122900354179e+02
2.116365600432094762e+00 5.646460541138712870e+02
2.116465622436936034e+00 5.646198925476342083e+02
2.116565644441777305e+00 5.645937284896597248e+02
2.116665666446618133e+00 5.645675628353154707e+02
2.116765688451458960e+00 5.645413964769784343e+02
2.116865710456300231e+00 5.645152303040155175e+02
2.116965732461141059e+00 5.644890652027640954e+02
2.117065754465982330e+00 5.644629020565096198e+02
2.117165776470823602e+00 5.644367417454675433e+02
2.117265798475664429e+00 5.644105851467628554e+02
2.117365820480505700e+00 5.643844331344105285e+02
2.117465842485346528e+00 5.643582865792943721e+02
2.117565864490187799e+00 5.643321463491502072e+02
2.117665886495028627e+00 5.643060133085440384e+02
2.117765908499869898e+00 5.642798883188540913e+02
2.117865930504710725e+00 5.642537722382522816e+02
2.117965952509551997e+00 5.642276659216836379e+02
2.118065974514393268e+00 5.642015702208497032e+02
2.118165996519234096e+00 5.641754859841875032e+02
2.118266018524074923e+00 5.641494140568532885e+02
2.118366040528916194e+00 5.641233552807024125e+02
2.118466062533757466e+00 5.640973104942720511e+02
2.118566084538598293e+00 5.640712805327635806e+02
2.118666106543439565e+00 5.640452662280241611e+02
2.118766128548280392e+00 5.640192684085280916e+02
2.118866150553121663e+00 5.639932878993613485e+02
2.118966172557962491e+00 5.639673255222020316e+02
2.119066194562803762e+00 5.639413820953045615e+02
2.119166216567644589e+00 5.639154584334814899e+02
2.119266238572485861e+00 5.638895553480863327e+02
2.119366260577327132e+00 5.638636736469982225e+02
2.119466282582167960e+00 5.638378141346044004e+02
2.119566304587008787e+00 5.638119776117822539e+02
2.119666326591850058e+00 5.637861648758853335e+02
2.119766348596691330e+00 5.637603767207256169e+02
2.119866370601532157e+00 5.637346139365571389e+02
2.119966392606373429e+00 5.637088773100614389e+02
2.120066414611214256e+00 5.636831676243298261e+02
2.120166436616055083e+00 5.636574856588499642e+02
2.120266458620896355e+00 5.636318321894884775e+02
2.120366480625737626e+00 5.636062079884759441e+02
2.120466502630578454e+00 5.635806138243933674e+02
2.120566524635419725e+00 5.635550504621542132e+02
2.120666546640260997e+00 5.635295186629925865e+02
2.120766568645101824e+00 5.635040191844451556e+02
2.120866590649942651e+00 5.634785527803403511e+02
2.120966612654783923e+00 5.634531202007808588e+02
2.121066634659624750e+00 5.634277221921305454e+02
2.121166656664466021e+00 5.634023594970002478e+02
2.121266678669307293e+00 5.633770328542339030e+02
2.121366700674148120e+00 5.633517429988945651e+02
2.121466722678989392e+00 5.633264906622501940e+02
2.121566744683830219e+00 5.633012765717616048e+02
2.121666766688671046e+00 5.632761014510681434e+02
2.121766788693512318e+00 5.632509660199727932e+02
2.121866810698353589e+00 5.632258709944325119e+02
2.121966832703194417e+00 5.632008170865435659e+02
2.122066854708035688e+00 5.631758050045289110e+02
2.122166876712876959e+00 5.631508354527243227e+02
2.122266898717717787e+00 5.631259091315689602e+02
2.122366920722558614e+00 5.631010267375895637e+02
2.122466942727399886e+00 5.630761889633912460e+02
2.122566964732240713e+00 5.630513964976441912e+02
2.122666986737081984e+00 5.630266500250725130e+02
2.122767008741923256e+00 5.630019502264408402e+02
2.122867030746764083e+00 5.629772977785449939e+02
2.122967052751604911e+00 5.629526933541997096e+02
2.123067074756446182e+00 5.629281376222277231e+02
2.123167096761287453e+00 5.629036312474478336e+02
2.123267118766128281e+00 5.628791748906648991e+02
2.123367140770969552e+00 5.628547692086593770e+02
2.123467162775810380e+00 5.628304148541766381e+02
2.123567184780651651e+00 5.628061124759148015e+02
2.123667206785492478e+00 5.627818627185174591e+02
2.123767228790333750e+00 5.627576662225618520e+02
2.123867250795174577e+00 5.627335236245480701e+02
2.123967272800015849e+00 5.627094355568917763e+02
2.124067294804857120e+00 5.626854026479126105e+02
2.124167316809697947e+00 5.626614255218255494e+02
2.124267338814539219e+00 5.626375047987318112e+02
2.124367360819380046e+00 5.626136410946073738e+02
2.124467382824221318e+00 5.625898350212985406e+02
2.124567404829062145e+00 5.625660871865092076e+02
2.124667426833903416e+00 5.625423981937933604e+02
2.124767448838744244e+00 5.625187686425473430e+02
2.124867470843585515e+00 5.624951991280007633e+02
2.124967492848426787e+00 5.624716902412078525e+02
2.125067514853267614e+00 5.624482425690403034e+02
2.125167536858108441e+00 5.624248566941799936e+02
2.125267558862949713e+00 5.624015331951088683e+02
2.125367580867790984e+00 5.623782726461038237e+02
2.125467602872631812e+00 5.623550756172290903e+02
2.125567624877473083e+00 5.623319426743260010e+02
2.125667646882313910e+00 5.623088743790102626e+02
2.125767668887154738e+00 5.622858712886625199e+02
2.125867690891996009e+00 5.622629339564213069e+02
2.125967712896837281e+00 5.622400629311779312e+02
2.126067734901678108e+00 5.622172587575680609e+02
2.126167756906519379e+00 5.621945219759684278e+02
2.126267778911360651e+00 5.621718531224879598e+02
2.126367800916201478e+00 5.621492527289613008e+02
2.126467822921042305e+00 5.621267213229467643e+02
2.126567844925883577e+00 5.621042594277164426e+02
2.126667866930724404e+00 5.620818675622541605e+02
2.126767888935565676e+00 5.620595462412474035e+02
2.126867910940406947e+00 5.620372959750834525e+02
2.126967932945247775e+00 5.620151172698433584e+02
2.127067954950089046e+00 5.619930106272988724e+02
2.127167976954929873e+00 5.619709765449065344e+02
2.127267998959770701e+00 5.619490155158026710e+02
2.127368020964611972e+00 5.619271280288003254e+02
2.127468042969453244e+00 5.619053145683831190e+02
2.127568064974294071e+00 5.618835756147036591e+02
2.127668086979135342e+00 5.618619116435763772e+02
2.127768108983976614e+00 5.618403231264773012e+02
2.127868130988817441e+00 5.618188105305372346e+02
2.127968152993658268e+00 5.617973743185405056e+02
2.128068174998499540e+00 5.617760149489211017e+02
2.128168197003340367e+00 5.617547328757580090e+02
2.128268219008181639e+00 5.617335285487744159e+02
2.128368241013022910e+00 5.617124024133340754e+02
2.128468263017863737e+00 5.616913549104373260e+02
2.128568285022704565e+00 5.616703864767199548e+02
2.128668307027545836e+00 5.616494975444513784e+02
2.128768329032387108e+00 5.616286885415302095e+02
2.128868351037227935e+00 5.616079598914838016e+02
2.128968373042069206e+00 5.615873120134668852e+02
2.129068395046910034e+00 5.615667453222570202e+02
2.129168417051751305e+00 5.615462602282563012e+02
2.129268439056592133e+00 5.615258571374878329e+02
2.129368461061433404e+00 5.615055364515944802e+02
2.129468483066274231e+00 5.614852985678387540e+02
2.129568505071115503e+00 5.614651438791008786e+02
2.129668527075956774e+00 5.614450727738786782e+02
2.129768549080797602e+00 5.614250856362858713e+02
2.129868571085638873e+00 5.614051828460519573e+02
2.129968593090479700e+00 5.613853647785223302e+02
2.130068615095320972e+00 5.613656318046577098e+02
2.130168637100161799e+00 5.613459842910325506e+02
2.130268659105003071e+00 5.613264225998383381e+02
2.130368681109843898e+00 5.613069470888809747e+02
2.130468703114685169e+00 5.612875581115807790e+02
2.130568725119526441e+00 5.612682560169769204e+02
2.130668747124367268e+00 5.612490411497223022e+02
2.130768769129208096e+00 5.612299138500895879e+02
2.130868791134049367e+00 5.612108744539689269e+02
2.130968813138890638e+00 5.611919232928702286e+02
2.131068835143731466e+00 5.611730606939236168e+02
2.131168857148572737e+00 5.611542869798823858e+02
2.131268879153413565e+00 5.611356024691222046e+02
2.131368901158254392e+00 5.611170074756456643e+02
2.131468923163095663e+00 5.610985023090809136e+02
2.131568945167936935e+00 5.610800872746856385e+02
2.131668967172777762e+00 5.610617626733501311e+02
2.131768989177619034e+00 5.610435288015955848e+02
2.131869011182460305e+00 5.610253859515814838e+02
2.131969033187301132e+00 5.610073344111042388e+02
2.132069055192141960e+00 5.609893744636013935e+02
2.132169077196983231e+00 5.609715063881553760e+02
2.132269099201824059e+00 5.609537304594938405e+02
2.132369121206665330e+00 5.609360469479959193e+02
2.132469143211506601e+00 5.609184561196930190e+02
2.132569165216347429e+00 5.609009582362742776e+02
2.132669187221188700e+00 5.608835535550879285e+02
2.132769209226029528e+00 5.608662423291466439e+02
2.132869231230870355e+00 5.608490248071296946e+02
2.132969253235711626e+00 5.608319012333893170e+02
2.133069275240552898e+00 5.608148718479529862e+02
2.133169297245393725e+00 5.607979368865280776e+02
2.133269319250234997e+00 5.607810965805067553e+02
2.133369341255076268e+00 5.607643511569689281e+02
2.133469363259917095e+00 5.607477008386894113e+02
2.133569385264757923e+00 5.607311458441405421e+02
2.133669407269599194e+00 5.607146863874980909e+02
2.133769429274440022e+00 5.606983226786458090e+02
2.133869451279281293e+00 5.606820549231814539e+02
2.133969473284122564e+00 5.606658833224216778e+02
2.134069495288963392e+00 5.606498080734074847e+02
2.134169517293804219e+00 5.606338293689090051e+02
2.134269539298645491e+00 5.606179473974333405e+02
2.134369561303486762e+00 5.606021623432284287e+02
2.134469583308327589e+00 5.605864743862897512e+02
2.134569605313168861e+00 5.605708837023674960e+02
2.134669627318009688e+00 5.605553904629708768e+02
2.134769649322850960e+00 5.605399948353752961e+02
2.134869671327691787e+00 5.605246969826298482e+02
2.134969693332533058e+00 5.605094970635637992e+02
2.135069715337373886e+00 5.604943952327920442e+02
2.135169737342215157e+00 5.604793916407226106e+02
2.135269759347056429e+00 5.604644864335650709e+02
2.135369781351897256e+00 5.604496797533356585e+02
2.135469803356738527e+00 5.604349717378668174e+02
2.135569825361579355e+00 5.604203625208119774e+02
2.135669847366420626e+00 5.604058522316552171e+02
2.135769869371261453e+00 5.603914409957191083e+02
2.135869891376102725e+00 5.603771289341700594e+02
2.135969913380943552e+00 5.603629161640303664e+02
2.136069935385784824e+00 5.603488027981819641e+02
2.136169957390625651e+00 5.603347889453768857e+02
2.136269979395466923e+00 5.603208747102463576e+02
2.136370001400307750e+00 5.603070601933072794e+02
2.136470023405149021e+00 5.602933454909723423e+02
2.136570045409990293e+00 5.602797306955569638e+02
2.136670067414831120e+00 5.602662158952911113e+02
2.136770089419672392e+00 5.602528011743245315e+02
2.136870111424513219e+00 5.602394866127391424e+02
2.136970133429354046e+00 5.602262722865558544e+02
2.137070155434195318e+00 5.602131582677450297e+02
2.137170177439036589e+00 5.602001446242363727e+02
2.137270199443877416e+00 5.601872314199267748e+02
2.137370221448718688e+00 5.601744187146910008e+02
2.137470243453559959e+00 5.601617065643919204e+02
2.137570265458400343e+00 5.601490950208899449e+02
2.137670287463241614e+00 5.601365841320528034e+02
2.137770309468082885e+00 5.601241739417658891e+02
2.137870331472923713e+00 5.601118644899418086e+02
2.137970353477764984e+00 5.600996558125327738e+02
2.138070375482606256e+00 5.600875479415394693e+02
2.138170397487447083e+00 5.600755409050198068e+02
2.138270419492287910e+00 5.600636347271047271e+02
2.138370441497129182e+00 5.600518294280032023e+02
2.138470463501970009e+00 5.600401250240184936e+02
2.138570485506811281e+00 5.600285215275540622e+02
2.138670507511652552e+00 5.600170189471292588e+02
2.138770529516493379e+00 5.600056172873876221e+02
2.138870551521334651e+00 5.599943165491080208e+02
2.138970573526175478e+00 5.599831167292202281e+02
2.139070595531016750e+00 5.599720178208103789e+02
2.139170617535857577e+00 5.599610198131374545e+02
2.139270639540698848e+00 5.599501226916434007e+02
2.139370661545539676e+00 5.599393264379638140e+02
2.139470683550380947e+00 5.599286310299427214e+02
2.139570705555222219e+00 5.599180364416415614e+02
2.139670727560063046e+00 5.599075426433537359e+02
2.139770749564903873e+00 5.598971496016158653e+02
2.139870771569745145e+00 5.598868572792199529e+02
2.139970793574586416e+00 5.598766656352264590e+02
