1.600052011442517408e+00 5.063276212893889010e+02
1.600152033447358235e+00 5.062914864919521847e+02
1.600252055452199285e+00 5.062552371529695847e+02
1.600352077457040334e+00 5.062188748442276278e+02
1.600452099461881605e+00 5.061824011434611066e+02
1.600552121466722655e+00 5.061458176343043647e+02
1.600652143471563704e+00 5.061091259062412746e+02
1.600752165476404754e+00 5.060723275545568640e+02
1.600852187481245581e+00 5.060354241802876913e+02
1.600952209486086630e+00 5.059984173901719942e+02
1.601052231490927902e+00 5.059613087966011449e+02
1.601152253495768951e+00 5.059241000175686054e+02
1.601252275500610001e+00 5.058867926766204732e+02
1.601352297505451272e+00 5.058493884028035268e+02
1.601452319510292321e+00 5.058118888306197505e+02
1.601552341515133149e+00 5.057742955999671608e+02
1.601652363519974198e+00 5.057366103560989927e+02
1.601752385524815248e+00 5.056988347495648100e+02
1.601852407529656297e+00 5.056609704361644049e+02
1.601952429534497568e+00 5.056230190768922057e+02
1.602052451539338618e+00 5.055849823378918018e+02
1.602152473544179667e+00 5.055468618903969968e+02
1.602252495549020495e+00 5.055086594106866755e+02
1.602352517553861766e+00 5.054703765800283009e+02
1.602452539558702815e+00 5.054320150846297111e+02
1.602552561563543865e+00 5.053935766155821625e+02
1.602652583568384914e+00 5.053550628688122401e+02
1.602752605573225964e+00 5.053164755450277426e+02
1.602852627578067235e+00 5.052778163496641355e+02
1.602952649582908062e+00 5.052390869928337906e+02
1.603052671587749112e+00 5.052002891892694834e+02
1.603152693592590161e+00 5.051614246582764167e+02
1.603252715597431433e+00 5.051224951236741276e+02
1.603352737602272482e+00 5.050835023137453277e+02
1.603452759607113531e+00 5.050444479611828115e+02
1.603552781611954581e+00 5.050053338030338637e+02
1.603652803616795408e+00 5.049661615806491000e+02
1.603752825621636457e+00 5.049269330396259079e+02
1.603852847626477729e+00 5.048876499297552414e+02
1.603952869631318778e+00 5.048483140049696090e+02
1.604052891636159828e+00 5.048089270232837862e+02
1.604152913641001099e+00 5.047694907467457597e+02
1.604252935645842149e+00 5.047300069413787469e+02
1.604352957650682976e+00 5.046904773771272517e+02
1.604452979655524025e+00 5.046509038278030062e+02
1.604553001660365075e+00 5.046112880710297759e+02
1.604653023665206124e+00 5.045716318881852658e+02
1.604753045670047396e+00 5.045319370643526327e+02
1.604853067674888445e+00 5.044922053882578439e+02
1.604953089679729494e+00 5.044524386522195982e+02
1.605053111684570322e+00 5.044126386520899814e+02
1.605153133689411593e+00 5.043728071872020564e+02
1.605253155694252643e+00 5.043329460603114285e+02
1.605353177699093692e+00 5.042930570775428123e+02
1.605453199703934741e+00 5.042531420483322222e+02
1.605553221708775791e+00 5.042132027853709246e+02
1.605653243713617062e+00 5.041732411045520621e+02
1.605753265718457889e+00 5.041332588249092055e+02
1.605853287723298939e+00 5.040932577685656497e+02
1.605953309728139988e+00 5.040532397606737050e+02
1.606053331732981260e+00 5.040132066293607522e+02
1.606153353737822309e+00 5.039731602056715474e+02
1.606253375742663358e+00 5.039331023235113207e+02
1.606353397747504408e+00 5.038930348195900706e+02
1.606453419752345235e+00 5.038529595333635029e+02
1.606553441757186285e+00 5.038128783069785186e+02
1.606653463762027556e+00 5.037727929852158582e+02
1.606753485766868605e+00 5.037327054154302459e+02
1.606853507771709655e+00 5.036926174474971276e+02
1.606953529776550926e+00 5.036525309337519616e+02
1.607053551781391976e+00 5.036124477289346260e+02
1.607153573786232803e+00 5.035723696901334847e+02
1.607253595791073852e+00 5.035322986767229736e+02
1.607353617795914902e+00 5.034922365503119863e+02
1.607453639800755951e+00 5.034521851746825405e+02
1.607553661805597223e+00 5.034121464157321384e+02
1.607653683810438272e+00 5.033721221414175488e+02
1.607753705815279321e+00 5.033321142216967701e+02
1.607853727820120149e+00 5.032921245284696852e+02
1.607953749824961420e+00 5.032521549355221282e+02
1.608053771829802470e+00 5.032122073184667670e+02
1.608153793834643519e+00 5.031722835546840997e+02
1.608253815839484568e+00 5.031323855232672031e+02
1.608353837844325618e+00 5.030925151049605688e+02
1.608453859849166889e+00 5.030526741821032601e+02
1.608553881854007717e+00 5.030128646385721254e+02
1.608653903858848766e+00 5.029730883597202933e+02
1.608753925863689815e+00 5.029333472323216938e+02
1.608853947868531087e+00 5.028936431445110316e+02
1.608953969873372136e+00 5.028539779857267149e+02
1.609053991878213186e+00 5.028143536466517958e+02
1.609154013883054235e+00 5.027747720191540566e+02
1.609254035887895062e+00 5.027352349962301332e+02
1.609354057892736112e+00 5.026957444719460568e+02
1.609454079897577383e+00 5.026563023413775113e+02
1.609554101902418433e+00 5.026169105005531605e+02
1.609654123907259482e+00 5.025775708463942237e+02
1.609754145912100753e+00 5.025382852766574615e+02
1.609854167916941803e+00 5.024990556898743534e+02
1.609954189921782630e+00 5.024598839852966421e+02
1.610054211926623680e+00 5.024207720628323841e+02
1.610154233931464729e+00 5.023817218229905279e+02
1.610254255936305778e+00 5.023427351668227061e+02
1.610354277941147050e+00 5.023038139958607644e+02
1.610454299945988099e+00 5.022649602120634995e+02
1.610554321950829149e+00 5.022261757177528807e+02
1.610654343955669976e+00 5.021874624155592528e+02
1.610754365960511247e+00 5.021488222083586948e+02
1.610854387965352297e+00 5.021102569992183362e+02
1.610954409970193346e+00 5.020717686913349098e+02
1.611054431975034396e+00 5.020333591879773394e+02
1.611154453979875445e+00 5.019950303924265427e+02
1.611254475984716716e+00 5.019567842079187585e+02
1.611354497989557544e+00 5.019186225375849517e+02
1.611454519994398593e+00 5.018805472843936286e+02
1.611554541999239643e+00 5.018425603510914925e+02
1.611654564004080914e+00 5.018046636401439287e+02
1.611754586008921963e+00 5.017668590536776492e+02
1.611854608013763013e+00 5.017291484934225991e+02
1.611954630018604062e+00 5.016915338606507362e+02
1.612054652023444890e+00 5.016540170561198124e+02
1.612154674028285939e+00 5.016165999800148256e+02
1.612254696033127210e+00 5.015792845318863442e+02
1.612354718037968260e+00 5.015420726105970175e+02
1.612454740042809309e+00 5.015049661142587638e+02
1.612554762047650581e+00 5.014679669401768933e+02
1.612654784052491408e+00 5.014310769847907636e+02
1.612754806057332457e+00 5.013942981436137529e+02
1.612854828062173507e+00 5.013576323111791453e+02
1.612954850067014556e+00 5.013210813809774322e+02
1.613054872071855605e+00 5.012846472454003788e+02
1.613154894076696877e+00 5.012483317956824749e+02
1.613254916081537926e+00 5.012121369218421592e+02
1.613354938086378754e+00 5.011760645126246914e+02
1.613454960091219803e+00 5.011401164554433763e+02
1.613554982096061075e+00 5.011042946363206738e+02
1.613655004100902124e+00 5.010686009398327201e+02
1.613755026105743173e+00 5.010330372490484478e+02
1.613855048110584223e+00 5.009976054454744485e+02
1.613955070115425272e+00 5.009623074089944907e+02
1.614055092120266099e+00 5.009271450178142118e+02
1.614155114125107371e+00 5.008921201484018297e+02
1.614255136129948420e+00 5.008572346754309592e+02
1.614355158134789470e+00 5.008224904717234267e+02
1.614455180139630741e+00 5.007878894081911767e+02
1.614555202144471791e+00 5.007534333537799967e+02
1.614655224149312840e+00 5.007191241754097746e+02
1.614755246154153667e+00 5.006849637379201567e+02
1.614855268158994717e+00 5.006509539040104073e+02
1.614955290163835766e+00 5.006170965341855776e+02
1.615055312168677037e+00 5.005833934866964796e+02
1.615155334173518087e+00 5.005498466174847181e+02
1.615255356178359136e+00 5.005164577801238011e+02
1.615355378183200408e+00 5.004832288257651385e+02
1.615455400188041235e+00 5.004501616030779019e+02
1.615555422192882284e+00 5.004172579581953073e+02
1.615655444197723334e+00 5.003845197346575446e+02
1.615755466202564383e+00 5.003519487733528877e+02
1.615855488207405433e+00 5.003195469124648298e+02
1.615955510212246704e+00 5.002873159874137627e+02
1.616055532217087753e+00 5.002552578308002467e+02
1.616155554221928581e+00 5.002233742723514638e+02
1.616255576226769630e+00 5.001916671388623286e+02
1.616355598231610902e+00 5.001601382541419412e+02
1.616455620236451951e+00 5.001287894389564030e+02
1.616555642241293000e+00 5.000976225109734514e+02
1.616655664246134050e+00 5.000666392847076054e+02
1.616755686250975099e+00 5.000358415714632088e+02
1.616855708255815927e+00 5.000052311792815090e+02
1.616955730260657198e+00 4.999748099128822219e+02
1.617055752265498247e+00 4.999445795736116338e+02
1.617155774270339297e+00 4.999145419593856445e+02
1.617255796275180568e+00 4.998846988646348564e+02
1.617355818280021618e+00 4.998550520802515393e+02
1.617455840284862667e+00 4.998256033935329015e+02
1.617555862289703494e+00 4.997963545881282243e+02
1.617655884294544544e+00 4.997673074439821335e+02
1.617755906299385593e+00 4.997384637372844054e+02
1.617855928304226865e+00 4.997098252404106802e+02
1.617955950309067914e+00 4.996813937218738033e+02
1.618055972313908963e+00 4.996531709462656181e+02
1.618155994318750235e+00 4.996251586742049540e+02
1.618256016323591062e+00 4.995973586622849325e+02
1.618356038328432112e+00 4.995697726630176021e+02
1.618456060333273161e+00 4.995424024247819261e+02
1.618556082338114210e+00 4.995152496917706912e+02
1.618656104342955260e+00 4.994883162039361082e+02
1.618756126347796531e+00 4.994616036969378001e+02
1.618856148352637581e+00 4.994351139020909613e+02
1.618956170357478408e+00 4.994088485463121287e+02
1.619056192362319457e+00 4.993828093520676248e+02
1.619156214367160729e+00 4.993569980373209773e+02
1.619256236372001778e+00 4.993314163154802827e+02
1.619356258376842828e+00 4.993060658953469328e+02
1.619456280381683877e+00 4.992809484810646836e+02
1.619556302386524926e+00 4.992560657720648578e+02
1.619656324391365754e+00 4.992314194630182556e+02
1.619756346396207025e+00 4.992070112437815510e+02
1.619856368401048075e+00 4.991828427993469290e+02
1.619956390405889124e+00 4.991589158097909262e+02
1.620056412410730395e+00 4.991352319502231580e+02
1.620156434415571445e+00 4.991117928907362966e+02
1.620256456420412494e+00 4.990886002963551391e+02
1.620356478425253322e+00 4.990656558269856760e+02
1.620456500430094371e+00 4.990429611373661487e+02
1.620556522434935420e+00 4.990205178770157204e+02
1.620656544439776692e+00 4.989983276901853628e+02
1.620756566444617741e+00 4.989763922158074365e+02
1.620856588449458791e+00 4.989547130874475442e+02
1.620956610454300062e+00 4.989332919332534857e+02
1.621056632459140889e+00 4.989121303759072816e+02
1.621156654463981939e+00 4.988912300325758906e+02
1.621256676468822988e+00 4.988705925148617553e+02
1.621356698473664038e+00 4.988502194287552811e+02
1.621456720478505087e+00 4.988301123745860650e+02
1.621556742483346358e+00 4.988102729469737255e+02
1.621656764488187408e+00 4.987907027347814619e+02
1.621756786493028235e+00 4.987714033210670550e+02
1.621856808497869284e+00 4.987523762830339820e+02
1.621956830502710556e+00 4.987336231919878173e+02
1.622056852507551605e+00 4.987151456132861540e+02
1.622156874512392655e+00 4.986969451062897178e+02
1.622256896517233704e+00 4.986790232243204741e+02
1.622356918522074753e+00 4.986613815146099569e+02
1.622456940526915581e+00 4.986440215182565225e+02
1.622556962531756852e+00 4.986269447701760100e+02
1.622656984536597902e+00 4.986101527990593922e+02
1.622757006541438951e+00 4.985936471273222423e+02
1.622857028546280223e+00 4.985774292710630675e+02
1.622957050551121272e+00 4.985615007400156173e+02
1.623057072555962321e+00 4.985458630375043754e+02
1.623157094560803149e+00 4.985305176603992550e+02
1.623257116565644198e+00 4.985154660990714319e+02
1.623357138570485247e+00 4.985007098373479266e+02
1.623457160575326519e+00 4.984862503524673230e+02
1.623557182580167568e+00 4.984720891150355442e+02
1.623657204585008618e+00 4.984582275889828793e+02
1.623757226589849889e+00 4.984446672315194178e+02
1.623857248594690716e+00 4.984314094930903707e+02
1.623957270599531766e+00 4.984184558173344044e+02
1.624057292604372815e+00 4.984058076410415765e+02
1.624157314609213865e+00 4.983934663941066674e+02
1.624257336614054914e+00 4.983814334994909245e+02
1.624357358618896185e+00 4.983697103731753941e+02
1.624457380623737235e+00 4.983582984241231202e+02
1.624557402628578062e+00 4.983471990542336698e+02
1.624657424633419112e+00 4.983364136583021491e+02
1.624757446638260383e+00 4.983259436239801516e+02
1.624857468643101432e+00 4.983157903317313639e+02
1.624957490647942482e+00 4.983059551547916044e+02
1.625057512652783531e+00 4.982964394591286919e+02
1.625157534657624581e+00 4.982872446034018594e+02
1.625257556662465408e+00 4.982783719389200314e+02
1.625357578667306679e+00 4.982698228096024877e+02
1.625457600672147729e+00 4.982615985519415176e+02
1.625557622676988778e+00 4.982537004949576271e+02
1.625657644681830050e+00 4.982461299601644100e+02
1.625757666686671099e+00 4.982388882615291550e+02
1.625857688691512148e+00 4.982319767054306112e+02
1.625957710696352976e+00 4.982253965906245412e+02
1.626057732701194025e+00 4.982191492082024524e+02
1.626157754706035075e+00 4.982132358415558997e+02
1.626257776710876346e+00 4.982076577663357284e+02
1.626357798715717395e+00 4.982024162504160927e+02
1.626457820720558445e+00 4.981975125538580755e+02
1.626557842725399716e+00 4.981929479288696712e+02
1.626657864730240544e+00 4.981887236197733273e+02
1.626757886735081593e+00 4.981848408629641085e+02
1.626857908739922642e+00 4.981813008868767838e+02
1.626957930744763692e+00 4.981781049119487648e+02
1.627057952749604741e+00 4.981752541505843510e+02
1.627157974754446013e+00 4.981727498071194873e+02
1.627257996759287062e+00 4.981705930777851563e+02
1.627358018764127889e+00 4.981687851506747506e+02
1.627458040768968939e+00 4.981673272057061013e+02
1.627558062773810210e+00 4.981662204145895885e+02
1.627658084778651260e+00 4.981654659407923873e+02
1.627758106783492309e+00 4.981650649395053279e+02
1.627858128788333358e+00 4.981650185576082777e+02
1.627958150793174408e+00 4.981653279336369451e+02
1.628058172798015235e+00 4.981659941977512744e+02
1.628158194802856507e+00 4.981670184716993504e+02
1.628258216807697556e+00 4.981684018687868729e+02
1.628358238812538605e+00 4.981701454938458937e+02
1.628458260817379877e+00 4.981722504431984362e+02
1.628558282822220926e+00 4.981747178046294948e+02
1.628658304827061976e+00 4.981775486573524176e+02
1.628758326831902803e+00 4.981807440719783244e+02
1.628858348836743852e+00 4.981843051104862639e+02
1.628958370841584902e+00 4.981882328261899602e+02
1.629058392846426173e+00 4.981925282637095620e+02
1.629158414851267223e+00 4.981971924589402647e+02
1.629258436856108272e+00 4.982022264390232067e+02
1.629358458860949543e+00 4.982076312223150580e+02
1.629458480865790371e+00 4.982134078183594852e+02
1.629558502870631420e+00 4.982195572278566260e+02
1.629658524875472470e+00 4.982260804426360892e+02
1.629758546880313519e+00 4.982329784456272250e+02
1.629858568885154568e+00 4.982402522108308744e+02
1.629958590889995840e+00 4.982479027032924819e+02
1.630058612894836667e+00 4.982559308790731620e+02
1.630158634899677716e+00 4.982643376852228698e+02
1.630258656904518766e+00 4.982731240597535134e+02
1.630358678909360037e+00 4.982822909316120104e+02
1.630458700914201087e+00 4.982918392206528893e+02
1.630558722919042136e+00 4.983017698376146996e+02
1.630658744923883186e+00 4.983120836840892025e+02
1.630758766928724013e+00 4.983227816525021581e+02
1.630858788933565062e+00 4.983338646260817768e+02
1.630958810938406334e+00 4.983453334788380289e+02
1.631058832943247383e+00 4.983571890755355298e+02
1.631158854948088432e+00 4.983694322716696661e+02
1.631258876952929704e+00 4.983820639134425505e+02
1.631358898957770753e+00 4.983950848377398870e+02
1.631458920962611581e+00 4.984084958721053908e+02
1.631558942967452630e+00 4.984222978347185062e+02
1.631658964972293679e+00 4.984364915343735447e+02
1.631758986977134729e+00 4.984510777704524003e+02
1.631859008981976000e+00 4.984660573329055637e+02
1.631959030986817050e+00 4.984814310022300106e+02
1.632059052991658099e+00 4.984971995494452131e+02
1.632159074996498926e+00 4.985133637360728471e+02
1.632259097001340198e+00 4.985299243141167835e+02
1.632359119006181247e+00 4.985468820260393272e+02
1.632459141011022297e+00 4.985642376047432549e+02
1.632559163015863346e+00 4.985819917735508398e+02
1.632659185020704395e+00 4.986001452461820236e+02
1.632759207025545667e+00 4.986186987267367385e+02
1.632859229030386494e+00 4.986376529096751256e+02
1.632959251035227544e+00 4.986570084797971276e+02
1.633059273040068593e+00 4.986767661122260051e+02
1.633159295044909864e+00 4.986969264723874744e+02
1.633259317049750914e+00 4.987174902159927115e+02
1.633359339054591963e+00 4.987384579890199916e+02
1.633459361059433013e+00 4.987598304276980343e+02
1.633559383064273840e+00 4.987816081584873018e+02
1.633659405069114889e+00 4.988037917980631732e+02
1.633759427073956161e+00 4.988263819533010519e+02
1.633859449078797210e+00 4.988493792212577773e+02
1.633959471083638260e+00 4.988727841891564481e+02
1.634059493088479531e+00 4.988965974343713015e+02
1.634159515093320580e+00 4.989208195244108310e+02
1.634259537098161408e+00 4.989454510169035757e+02
1.634359559103002457e+00 4.989704924595836246e+02
1.634459581107843507e+00 4.989959443902751559e+02
1.634559603112684556e+00 4.990218073368791352e+02
1.634659625117525827e+00 4.990480818173577973e+02
1.634759647122366877e+00 4.990747683397222545e+02
1.634859669127207926e+00 4.991018674020205026e+02
1.634959691132048754e+00 4.991293794923212204e+02
1.635059713136890025e+00 4.991573050887041632e+02
1.635159735141731074e+00 4.991856446592454404e+02
1.635259757146572124e+00 4.992143986620069995e+02
1.635359779151413173e+00 4.992435675450240069e+02
1.635459801156254223e+00 4.992731517462949000e+02
1.635559823161095494e+00 4.993031516937668357e+02
1.635659845165936321e+00 4.993335678053296078e+02
1.635759867170777371e+00 4.993644004888004702e+02
1.635859889175618420e+00 4.993956501419178267e+02
1.635959911180459692e+00 4.994273171523289534e+02
1.636059933185300741e+00 4.994594018975809604e+02
1.636159955190141790e+00 4.994919047451122651e+02
1.636259977194982840e+00 4.995248260522420196e+02
1.636359999199823667e+00 4.995581661661635167e+02
1.636460021204664717e+00 4.995919254239346969e+02
1.636560043209505988e+00 4.996261041524693383e+02
1.636660065214347037e+00 4.996607026685313713e+02
1.636760087219188087e+00 4.996957212787260687e+02
1.636860109224029358e+00 4.997311602794939063e+02
1.636960131228870408e+00 4.997670199571010698e+02
1.637060153233711235e+00 4.998033005876376365e+02
1.637160175238552284e+00 4.998400024370084225e+02
1.637260197243393334e+00 4.998771257609261625e+02
1.637360219248234383e+00 4.999146708049086669e+02
1.637460241253075655e+00 4.999526378042723991e+02
1.637560263257916704e+00 4.999910269841276431e+02
1.637660285262757753e+00 5.000298385593730472e+02
1.637760307267598581e+00 5.000690727346934068e+02
1.637860329272439852e+00 5.001087297045533546e+02
1.637960351277280902e+00 5.001488096531957694e+02
1.638060373282121951e+00 5.001893127546371716e+02
1.638160395286963000e+00 5.002302391726649944e+02
1.638260417291804050e+00 5.002715890608349127e+02
1.638360439296645321e+00 5.003133625624683418e+02
1.638460461301486148e+00 5.003555598106509592e+02
1.638560483306327198e+00 5.003981809282298627e+02
1.638660505311168247e+00 5.004412260278131157e+02
1.638760527316009519e+00 5.004846952117686669e+02
1.638860549320850568e+00 5.005285885722204853e+02
1.638960571325691618e+00 5.005729061910548126e+02
1.639060593330532667e+00 5.006176481399117506e+02
1.639160615335373494e+00 5.006628144801908320e+02
1.639260637340214544e+00 5.007084052630502811e+02
1.639360659345055815e+00 5.007544205294067297e+02
1.639460681349896864e+00 5.008008603099372635e+02
1.639560703354737914e+00 5.008477246250795361e+02
1.639660725359579185e+00 5.008950134850351787e+02
1.639760747364420235e+00 5.009427268897695740e+02
1.639860769369261062e+00 5.009908648290162887e+02
1.639960791374102111e+00 5.010394272822782114e+02
1.640060813378943161e+00 5.010884142188303372e+02
1.640160835383784210e+00 5.011378255977249978e+02
1.640260857388625482e+00 5.011876613677920318e+02
1.640360879393466531e+00 5.012379214676462311e+02
1.640460901398307580e+00 5.012886058256871138e+02
1.640560923403148408e+00 5.013397143601077914e+02
1.640660945407989679e+00 5.013912469788971293e+02
1.640760967412830729e+00 5.014432035798449192e+02
1.640860989417671778e+00 5.014955840505483025e+02
1.640961011422512827e+00 5.015483882684158061e+02
1.641061033427353877e+00 5.016016161006751872e+02
1.641161055432195148e+00 5.016552674043779234e+02
1.641261077437035976e+00 5.017093420264071710e+02
1.641361099441877025e+00 5.017638398034821989e+02
1.641461121446718074e+00 5.018187605621707235e+02
1.641561143451559346e+00 5.018741041188887380e+02
1.641661165456400395e+00 5.019298702799159173e+02
1.641761187461241445e+00 5.019860588413981759e+02
1.641861209466082494e+00 5.020426695893589226e+02
1.641961231470923321e+00 5.020997022997063368e+02
1.642061253475764371e+00 5.021571567382436569e+02
1.642161275480605642e+00 5.022150326606770250e+02
1.642261297485446692e+00 5.022733298126257750e+02
1.642361319490287741e+00 5.023320479296314716e+02
1.642461341495129012e+00 5.023911867371709832e+02
1.642561363499970062e+00 5.024507459506614282e+02
1.642661385504810889e+00 5.025107252754780234e+02
1.642761407509651939e+00 5.025711244069575514e+02
1.642861429514492988e+00 5.026319430304167781e+02
1.642961451519334037e+00 5.026931808211584780e+02
1.643061473524175309e+00 5.027548374444864976e+02
1.643161495529016358e+00 5.028169125557171810e+02
1.643261517533857408e+00 5.028794058001930125e+02
1.643361539538698235e+00 5.029423168132919955e+02
1.643461561543539506e+00 5.030056452204446487e+02
1.643561583548380556e+00 5.030693906371461708e+02
1.643661605553221605e+00 5.031335526689686617e+02
1.643761627558062655e+00 5.031981309115765839e+02
1.643861649562903704e+00 5.032631249507413145e+02
1.643961671567744975e+00 5.033285343623546169e+02
1.644061693572585803e+00 5.033943587124435908e+02
1.644161715577426852e+00 5.034605975571869294e+02
1.644261737582267902e+00 5.035272504429290166e+02
1.644361759587109173e+00 5.035943169061973208e+02
1.644461781591950222e+00 5.036617964737150714e+02
1.644561803596791272e+00 5.037296886624223475e+02
1.644661825601632321e+00 5.037979929794880718e+02
1.644761847606473149e+00 5.038667089223304743e+02
1.644861869611314198e+00 5.039358359786306210e+02
1.644961891616155469e+00 5.040053736263536734e+02
1.645061913620996519e+00 5.040753213337635543e+02
1.645161935625837568e+00 5.041456785594430698e+02
1.645261957630678840e+00 5.042164447523108493e+02
1.645361979635519889e+00 5.042876193516391936e+02
1.645462001640360716e+00 5.043592017870752215e+02
1.645562023645201766e+00 5.044311914786584339e+02
1.645662045650042815e+00 5.045035878368390740e+02
1.645762067654883865e+00 5.045763902625009791e+02
1.645862089659725136e+00 5.046495981469777234e+02
1.645962111664566185e+00 5.047232108720754695e+02
1.646062133669407235e+00 5.047972278100936023e+02
1.646162155674248062e+00 5.048716483238419528e+02
1.646262177679089334e+00 5.049464717666662068e+02
1.646362199683930383e+00 5.050216974824659815e+02
1.646462221688771432e+00 5.050973248057194382e+02
1.646562243693612482e+00 5.051733530615011887e+02
1.646662265698453531e+00 5.052497815655078739e+02
1.646762287703294803e+00 5.053266096240791967e+02
1.646862309708135630e+00 5.054038365342192947e+02
1.646962331712976679e+00 5.054814615836218650e+02
1.647062353717817729e+00 5.055594840506922765e+02
1.647162375722659000e+00 5.056379032045699660e+02
1.647262397727500050e+00 5.057167183051540178e+02
1.647362419732341099e+00 5.057959286031260717e+02
1.647462441737182148e+00 5.058755333399741971e+02
1.647562463742022976e+00 5.059555317480184726e+02
1.647662485746864025e+00 5.060359230504340076e+02
1.647762507751705296e+00 5.061167064612773174e+02
1.647862529756546346e+00 5.061978811855116760e+02
1.647962551761387395e+00 5.062794464190309327e+02
1.648062573766228667e+00 5.063614013486874796e+02
1.648162595771069494e+00 5.064437451523166374e+02
1.648262617775910543e+00 5.065264769987626323e+02
1.648362639780751593e+00 5.066095960479067344e+02
1.648462661785592642e+00 5.066931014506932911e+02
1.648562683790433692e+00 5.067769923491554209e+02
1.648662705795274963e+00 5.068612678764429802e+02
1.648762727800116012e+00 5.069459271568528038e+02
1.648862749804956840e+00 5.070309693058520111e+02
1.648962771809797889e+00 5.071163934301076779e+02
1.649062793814639161e+00 5.072021986275167933e+02
1.649162815819480210e+00 5.072883839872319527e+02
1.649262837824321259e+00 5.073749485896920532e+02
1.649362859829162309e+00 5.074618915066499767e+02
1.649462881834003358e+00 5.075492118012033984e+02
1.649562903838844186e+00 5.076369085278220155e+02
1.649662925843685457e+00 5.077249807323786399e+02
1.649762947848526506e+00 5.078134274521793259e+02
1.649862969853367556e+00 5.079022477159921891e+02
1.649962991858208827e+00 5.079914405440782730e+02
1.650063013863049877e+00 5.080810049482228692e+02
1.650163035867890926e+00 5.081709399317660996e+02
1.650263057872731753e+00 5.082612444896335546e+02
1.650363079877572803e+00 5.083519176083665343e+02
1.650463101882413852e+00 5.084429582661558698e+02
1.650563123887255124e+00 5.085343654328730167e+02
1.650663145892096173e+00 5.086261380700993868e+02
1.650763167896937222e+00 5.087182751311622724e+02
1.650863189901778494e+00 5.088107755611650305e+02
1.650963211906619321e+00 5.089036382970209047e+02
1.651063233911460371e+00 5.089968622674840617e+02
1.651163255916301420e+00 5.090904463931844930e+02
1.651263277921142469e+00 5.091843895866604157e+02
1.651363299925983519e+00 5.092786907523916966e+02
1.651463321930824790e+00 5.093733487868341854e+02
1.651563343935665840e+00 5.094683625784530818e+02
1.651663365940506667e+00 5.095637310077576103e+02
1.651763387945347716e+00 5.096594529473337616e+02
1.651863409950188988e+00 5.097555272618819231e+02
1.651963431955030037e+00 5.098519528082475745e+02
1.652063453959871087e+00 5.099487284354600547e+02
1.652163475964712136e+00 5.100458529847658156e+02
1.652263497969553185e+00 5.101433252896636077e+02
1.652363519974394013e+00 5.102411441759406330e+02
1.652463541979235284e+00 5.103393084617085833e+02
1.652563563984076334e+00 5.104378169574391109e+02
1.652663585988917383e+00 5.105366684660003784e+02
1.652763607993758654e+00 5.106358617826930413e+02
1.652863629998599704e+00 5.107353956952871386e+02
1.652963652003440753e+00 5.108352689840589278e+02
1.653063674008281581e+00 5.109354804218265258e+02
1.653163696013122630e+00 5.110360287739896421e+02
1.653263718017963679e+00 5.111369127985647083e+02
1.653363740022804951e+00 5.112381312462237020e+02
1.653463762027646000e+00 5.113396828603308109e+02
1.653563784032487050e+00 5.114415663769810294e+02
1.653663806037328321e+00 5.115437805250380165e+02
1.653763828042169148e+00 5.116463240261730334e+02
1.653863850047010198e+00 5.117491955949025169e+02
1.653963872051851247e+00 5.118523939386269603e+02
1.654063894056692297e+00 5.119559177576688853e+02
1.654163916061533346e+00 5.120597657453146212e+02
1.654263938066374617e+00 5.121639365878511398e+02
1.654363960071215667e+00 5.122684289646047091e+02
1.654463982076056494e+00 5.123732415479828433e+02
1.654564004080897544e+00 5.124783730035122744e+02
1.654664026085738815e+00 5.125838219898797661e+02
1.654764048090579864e+00 5.126895871589712215e+02
1.654864070095420914e+00 5.127956671559120423e+02
1.654964092100261963e+00 5.129020606191091929e+02
1.655064114105103013e+00 5.130087661802890580e+02
1.655164136109943840e+00 5.131157824645400751e+02
1.655264158114785111e+00 5.132231080903532074e+02
1.655364180119626161e+00 5.133307416696620749e+02
1.655464202124467210e+00 5.134386818078851320e+02
1.655564224129308482e+00 5.135469271039681871e+02
1.655664246134149531e+00 5.136554761504219186e+02
1.655764268138990580e+00 5.137643275333671227e+02
1.655864290143831408e+00 5.138734798325768907e+02
1.655964312148672457e+00 5.139829316215146946e+02
1.656064334153513506e+00 5.140926814673804301e+02
1.656164356158354778e+00 5.142027279311507755e+02
1.656264378163195827e+00 5.143130695676222786e+02
1.656364400168036877e+00 5.144237049254537624e+02
1.656464422172878148e+00 5.145346325472073659e+02
1.656564444177718975e+00 5.146458509693954966e+02
1.656664466182560025e+00 5.147573587225194842e+02
1.656764488187401074e+00 5.148691543311146006e+02
1.656864510192242124e+00 5.149812363137932607e+02
1.656964532197083173e+00 5.150936031832897015e+02
1.657064554201924444e+00 5.152062534464995451e+02
1.657164576206765494e+00 5.153191856045284567e+02
1.657264598211606321e+00 5.154323981527322758e+02
1.657364620216447371e+00 5.155458895807622639e+02
1.657464642221288642e+00 5.156596583726100107e+02
1.657564664226129691e+00 5.157737030066498392e+02
1.657664686230970741e+00 5.158880219556840530e+02
1.657764708235811790e+00 5.160026136869885249e+02
1.657864730240652840e+00 5.161174766623532832e+02
1.657964752245493667e+00 5.162326093381332157e+02
1.658064774250334938e+00 5.163480101652882013e+02
1.658164796255175988e+00 5.164636775894293805e+02
1.658264818260017037e+00 5.165796100508632662e+02
1.658364840264858309e+00 5.166958059846401738e+02
1.658464862269699358e+00 5.168122638205956036e+02
1.658564884274540407e+00 5.169289819833967385e+02
1.658664906279381235e+00 5.170459588925906473e+02
1.658764928284222284e+00 5.171631929626443025e+02
1.658864950289063334e+00 5.172806826029967624e+02
1.658964972293904605e+00 5.173984262181000986e+02
1.659064994298745654e+00 5.175164222074672580e+02
1.659165016303586704e+00 5.176346689657177649e+02
1.659265038308427975e+00 5.177531648826244464e+02
1.659365060313268803e+00 5.178719083431579975e+02
1.659465082318109852e+00 5.179908977275358666e+02
1.659565104322950901e+00 5.181101314112655700e+02
1.659665126327791951e+00 5.182296077651938049e+02
1.659765148332633000e+00 5.183493251555520374e+02
1.659865170337474272e+00 5.184692819440028870e+02
1.659965192342315321e+00 5.185894764876862837e+02
1.660065214347156148e+00 5.187099071392689211e+02
1.660165236351997198e+00 5.188305722469881403e+02
1.660265258356838469e+00 5.189514701547012692e+02
1.660365280361679519e+00 5.190725992019309842e+02
1.660465302366520568e+00 5.191939577239129449e+02
1.660565324371361617e+00 5.193155440516452472e+02
1.660665346376202667e+00 5.194373565119318528e+02
1.660765368381043494e+00 5.195593934274332923e+02
1.660865390385884766e+00 5.196816531167121411e+02
1.660965412390725815e+00 5.198041338942824723e+02
1.661065434395566864e+00 5.199268340706551044e+02
1.661165456400408136e+00 5.200497519523884193e+02
1.661265478405249185e+00 5.201728858421322457e+02
1.661365500410090235e+00 5.202962340386794722e+02
1.661465522414931062e+00 5.204197948370122049e+02
1.661565544419772111e+00 5.205435665283484923e+02
1.661665566424613161e+00 5.206675474001932571e+02
1.661765588429454432e+00 5.207917357363841120e+02
1.661865610434295482e+00 5.209161298171401313e+02
1.661965632439136531e+00 5.210407279191113048e+02
1.662065654443977802e+00 5.211655283154245808e+02
1.662165676448818630e+00 5.212905292757337747e+02
1.662265698453659679e+00 5.214157290662673176e+02
1.662365720458500729e+00 5.215411259498766867e+02
1.662465742463341778e+00 5.216667181860862001e+02
1.662565764468182827e+00 5.217925040311387193e+02
1.662665786473024099e+00 5.219184817380468075e+02
1.662765808477865148e+00 5.220446495566408203e+02
1.662865830482705976e+00 5.221710057336157433e+02
1.662965852487547025e+00 5.222975485125826935e+02
1.663065874492388296e+00 5.224242761341156438e+02
1.663165896497229346e+00 5.225511868358008769e+02
1.663265918502070395e+00 5.226782788522862120e+02
1.663365940506911445e+00 5.228055504153280708e+02
1.663465962511752494e+00 5.229329997538424095e+02
1.663565984516593321e+00 5.230606250939534902e+02
1.663666006521434593e+00 5.231884246590410612e+02
1.663766028526275642e+00 5.233163966697909473e+02
1.663866050531116692e+00 5.234445393442431396e+02
1.663966072535957963e+00 5.235728508978417040e+02
1.664066094540799012e+00 5.237013295434826432e+02
1.664166116545640062e+00 5.238299734915644876e+02
1.664266138550480889e+00 5.239587809500349067e+02
1.664366160555321938e+00 5.240877501244431187e+02
1.664466182560162988e+00 5.242168792179850243e+02
1.664566204565004259e+00 5.243461664315575490e+02
1.664666226569845309e+00 5.244756099638021851e+02
1.664766248574686358e+00 5.246052080111570604e+02
1.664866270579527630e+00 5.247349587679068463e+02
1.664966292584368457e+00 5.248648604262301660e+02
1.665066314589209506e+00 5.249949111762487064e+02
1.665166336594050556e+00 5.251251092060778092e+02
1.665266358598891605e+00 5.252554527018751287e+02
1.665366380603732654e+00 5.253859398478892899e+02
1.665466402608573926e+00 5.255165688265083190e+02
1.665566424613414753e+00 5.256473378183127352e+02
1.665666446618255803e+00 5.257782450021176146e+02
1.665766468623096852e+00 5.259092885550302299e+02
1.665866490627938123e+00 5.260404666524920003e+02
1.665966512632779173e+00 5.261717774683314701e+02
1.666066534637620222e+00 5.263032191748136484e+02
1.666166556642461272e+00 5.264347899426860522e+02
1.666266578647302099e+00 5.265664879412313439e+02
1.666366600652143148e+00 5.266983113383145110e+02
1.666466622656984420e+00 5.268302583004326607e+02
1.666566644661825469e+00 5.269623269927632236e+02
1.666666666666666519e+00 5.270945155792139758e+02
1.666766688671507790e+00 5.272268222224711280e+02
1.666866710676348839e+00 5.273592450840496895e+02
1.666966732681189667e+00 5.274917823243408748e+02
1.667066754686030716e+00 5.276244321026631496e+02
1.667166776690871766e+00 5.277571925773075918e+02
1.667266798695712815e+00 5.278900619055907555e+02
1.667366820700554086e+00 5.280230382439020786e+02
1.667466842705395136e+00 5.281561197477502674e+02
1.667566864710236185e+00 5.282893045718171834e+02
1.667666886715077013e+00 5.284225908700009313e+02
1.667766908719918284e+00 5.285559767954696326e+02
1.667866930724759333e+00 5.286894605007066730e+02
1.667966952729600383e+00 5.288230401375607244e+02
1.668066974734441432e+00 5.289567138572945169e+02
1.668166996739282482e+00 5.290904798106323597e+02
1.668267018744123753e+00 5.292243361478098223e+02
1.668367040748964580e+00 5.293582810186227334e+02
1.668467062753805630e+00 5.294923125724727697e+02
1.668567084758646679e+00 5.296264289584191829e+02
1.668667106763487951e+00 5.297606283252248431e+02
1.668767128768329000e+00 5.298949088214058065e+02
1.668867150773170049e+00 5.300292685952786087e+02
1.668967172778011099e+00 5.301637057950096050e+02
1.669067194782851926e+00 5.302982185686623779e+02
1.669167216787692976e+00 5.304328050642449170e+02
1.669267238792534247e+00 5.305674634297594139e+02
1.669367260797375296e+00 5.307021918132487599e+02
1.669467282802216346e+00 5.308369883628454318e+02
1.669567304807057617e+00 5.309718512268184440e+02
1.669667326811898667e+00 5.311067785536214387e+02
1.669767348816739494e+00 5.312417684919408885e+02
1.669867370821580543e+00 5.313768191907433902e+02
1.669967392826421593e+00 5.315119287993219359e+02
1.670067414831262642e+00 5.316470954673452525e+02
1.670167436836103914e+00 5.317823173449045271e+02
1.670267458840944963e+00 5.319175925825605873e+02
1.670367480845786012e+00 5.320529193313908536e+02
1.670467502850626840e+00 5.321882957430367469e+02
1.670567524855468111e+00 5.323237199697517781e+02
1.670667546860309161e+00 5.324591901644469090e+02
1.670767568865150210e+00 5.325947044807380735e+02
1.670867590869991259e+00 5.327302610729940398e+02
1.670967612874832309e+00 5.328658580963808618e+02
1.671067634879673580e+00 5.330014937069120151e+02
1.671167656884514408e+00 5.331371660614906887e+02
1.671267678889355457e+00 5.332728733179606024e+02
1.671367700894196506e+00 5.334086136351480718e+02
1.671467722899037778e+00 5.335443851729137350e+02
1.671567744903878827e+00 5.336801860921929119e+02
1.671667766908719877e+00 5.338160145550458537e+02
1.671767788913560926e+00 5.339518687247012849e+02
1.671867810918401753e+00 5.340877467656047202e+02
1.671967832923242803e+00 5.342236468434622338e+02
1.672067854928084074e+00 5.343595671252874126e+02
1.672167876932925124e+00 5.344955057794460345e+02
1.672267898937766173e+00 5.346314609757026801e+02
1.672367920942607444e+00 5.347674308852649574e+02
1.672467942947448494e+00 5.349034136808303401e+02
1.672567964952289321e+00 5.350394075366297102e+02
1.672667986957130370e+00 5.351754106284737418e+02
1.672768008961971420e+00 5.353114211337967845e+02
1.672868030966812469e+00 5.354474372317029065e+02
1.672968052971653741e+00 5.355834571030104598e+02
1.673068074976494790e+00 5.357194789302958498e+02
1.673168096981335840e+00 5.358555008979378727e+02
1.673268118986176667e+00 5.359915211921655782e+02
1.673368140991017938e+00 5.361275380010962408e+02
1.673468162995858988e+00 5.362635495147858364e+02
1.673568185000700037e+00 5.363995539252703111e+02
1.673668207005541086e+00 5.365355494266083269e+02
1.673768229010382136e+00 5.366715342149275330e+02
1.673868251015223407e+00 5.368075064884669700e+02
1.673968273020064235e+00 5.369434644476209542e+02
1.674068295024905284e+00 5.370794062949821637e+02
1.674168317029746333e+00 5.372153302353856361e+02
1.674268339034587605e+00 5.373512344759514008e+02
1.674368361039428654e+00 5.374871172261272250e+02
1.674468383044269704e+00 5.376229766977323834e+02
1.674568405049110753e+00 5.377588111050012003e+02
1.674668427053951580e+00 5.378946186646223850e+02
1.674768449058792630e+00 5.380303975957856437e+02
1.674868471063633901e+00 5.381661461202211285e+02
1.674968493068474951e+00 5.383018624622428661e+02
1.675068515073316000e+00 5.384375448487921858e+02
1.675168537078157271e+00 5.385731915094755777e+02
1.675268559082998321e+00 5.387088006766120998e+02
1.675368581087839148e+00 5.388443705852704397e+02
1.675468603092680198e+00 5.389798994733120026e+02
1.675568625097521247e+00 5.391153855814337703e+02
1.675668647102362296e+00 5.392508271532078652e+02
1.675768669107203568e+00 5.393862224351217947e+02
1.675868691112044617e+00 5.395215696766224482e+02
1.675968713116885667e+00 5.396568671301540689e+02
1.676068735121726494e+00 5.397921130512007721e+02
1.676168757126567765e+00 5.399273056983258812e+02
1.676268779131408815e+00 5.400624433332120589e+02
1.676368801136249864e+00 5.401975242207030306e+02
1.676468823141090914e+00 5.403325466288425787e+02
1.676568845145931963e+00 5.404675088289135374e+02
1.676668867150773234e+00 5.406024090954799703e+02
1.676768889155614062e+00 5.407372457064235505e+02
1.676868911160455111e+00 5.408720169429868747e+02
1.676968933165296161e+00 5.410067210898089343e+02
1.677068955170137432e+00 5.411413564349663829e+02
1.677168977174978481e+00 5.412759212700118496e+02
1.677268999179819531e+00 5.414104138900117960e+02
1.677369021184660580e+00 5.415448325935878984e+02
1.677469043189501408e+00 5.416791756829524047e+02
1.677569065194342457e+00 5.418134414639478109e+02
1.677669087199183728e+00 5.419476282460834682e+02
1.677769109204024778e+00 5.420817343425777608e+02
1.677869131208865827e+00 5.422157580703900521e+02
1.677969153213707099e+00 5.423496977502627487e+02
1.678069175218548148e+00 5.424835517067562023e+02
1.678169197223388975e+00 5.426173182682867946e+02
1.678269219228230025e+00 5.427509957671641132e+02
1.678369241233071074e+00 5.428845825396274449e+02
1.678469263237912124e+00 5.430180769258836335e+02
1.678569285242753395e+00 5.431514772701416405e+02
1.678669307247594444e+00 5.432847819206507438e+02
1.678769329252435494e+00 5.434179892297352126e+02
1.678869351257276321e+00 5.435510975538309140e+02
1.678969373262117593e+00 5.436841052535231711e+02
1.679069395266958642e+00 5.438170106935770036e+02
1.679169417271799691e+00 5.439498122429788509e+02
1.679269439276640741e+00 5.440825082749674948e+02
1.679369461281481790e+00 5.442150971670714625e+02
1.679469483286323062e+00 5.443475773011424508e+02
1.679569505291163889e+00 5.444799470633910232e+02
1.679669527296004938e+00 5.446122048444208303e+02
1.679769549300845988e+00 5.447443490392618060e+02
1.679869571305687259e+00 5.448763780474068881e+02
1.679969593310528309e+00 5.450082902728428280e+02
1.680069615315369358e+00 5.451400841240874797e+02
1.680169637320210407e+00 5.452717580142184488e+02
1.680269659325051235e+00 5.454033103609139062e+02
1.680369681329892284e+00 5.455347395864765758e+02
1.680469703334733556e+00 5.456660441178738665e+02
1.680569725339574605e+00 5.457972223867677712e+02
1.680669747344415654e+00 5.459282728295489733e+02
1.680769769349256926e+00 5.460591938873658364e+02
1.680869791354097975e+00 5.461899840061607847e+02
1.680969813358938802e+00 5.463206416367002021e+02
1.681069835363779852e+00 5.464511652346058099e+02
1.681169857368620901e+00 5.465815532603874090e+02
1.681269879373461951e+00 5.467118041794735745e+02
1.681369901378303222e+00 5.468419164622433755e+02
1.681469923383144272e+00 5.469718885840568419e+02
1.681569945387985321e+00 5.471017190252856608e+02
1.681669967392826148e+00 5.472314062713451221e+02
1.681769989397667420e+00 5.473609488127218583e+02
1.681870011402508469e+00 5.474903451450074954e+02
1.681970033407349518e+00 5.476195937689250286e+02
1.682070055412190568e+00 5.477486931903621326e+02
1.682170077417031617e+00 5.478776419203963997e+02
1.682270099421872889e+00 5.480064384753292188e+02
1.682370121426713716e+00 5.481350813767128329e+02
1.682470143431554765e+00 5.482635691513779648e+02
1.682570165436395815e+00 5.483919003314651945e+02
1.682670187441237086e+00 5.485200734544515626e+02
1.682770209446078136e+00 5.486480870631801281e+02
1.682870231450919185e+00 5.487759397058856621e+02
1.682970253455760012e+00 5.489036299362263662e+02
1.683070275460601062e+00 5.490311563133083155e+02
1.683170297465442111e+00 5.491585174017142208e+02
1.683270319470283383e+00 5.492857117715303730e+02
1.683370341475124432e+00 5.494127379983744959e+02
1.683470363479965481e+00 5.495395946634197344e+02
1.683570385484806753e+00 5.496662803534264867e+02
1.683670407489647580e+00 5.497927936607634365e+02
1.683770429494488630e+00 5.499191331834356333e+02
1.683870451499329679e+00 5.500452975251118914e+02
1.683970473504170728e+00 5.501712852951490049e+02
1.684070495509011778e+00 5.502970951086170999e+02
1.684170517513853049e+00 5.504227255863257824e+02
1.684270539518694099e+00 5.505481753548477855e+02
1.684370561523534926e+00 5.506734430465469359e+02
1.684470583528375975e+00 5.507985272995986179e+02
1.684570605533217247e+00 5.509234267580168307e+02
1.684670627538058296e+00 5.510481400716776079e+02
1.684770649542899346e+00 5.511726658963434602e+02
1.684870671547740395e+00 5.512970028936863400e+02
1.684970693552581444e+00 5.514211497313120844e+02
1.685070715557422272e+00 5.515451050827826975e+02
1.685170737562263543e+00 5.516688676276393153e+02
1.685270759567104593e+00 5.517924360514271029e+02
1.685370781571945642e+00 5.519158090457158323e+02
1.685470803576786913e+00 5.520389853081210276e+02
1.685570825581627963e+00 5.521619635423313639e+02
1.685670847586469012e+00 5.522847424581236737e+02
1.685770869591309840e+00 5.524073207713905731e+02
1.685870891596150889e+00 5.525296972041576282e+02
1.685970913600991938e+00 5.526518704846082528e+02
1.686070935605833210e+00 5.527738393471021254e+02
1.686170957610674259e+00 5.528956025321970174e+02
1.686270979615515309e+00 5.530171587866684604e+02
1.686371001620356580e+00 5.531385068635316884e+02
1.686471023625197407e+00 5.532596455220605094e+02
1.686571045630038457e+00 5.533805735278085649e+02
1.686671067634879506e+00 5.535012896526258146e+02
1.686771089639720556e+00 5.536217926746821831e+02
1.686871111644561605e+00 5.537420813784843858e+02
1.686971133649402876e+00 5.538621545548930953e+02
1.687071155654243926e+00 5.539820110011469296e+02
1.687171177659084753e+00 5.541016495208766628e+02
1.687271199663925803e+00 5.542210689241234149e+02
1.687371221668767074e+00 5.543402680273592296e+02
1.687471243673608123e+00 5.544592456535040128e+02
1.687571265678449173e+00 5.545780006319413360e+02
1.687671287683290222e+00 5.546965317985381034e+02
1.687771309688131272e+00 5.548148379956609233e+02
1.687871331692972099e+00 5.549329180721919101e+02
1.687971353697813370e+00 5.550507708835465337e+02
1.688071375702654420e+00 5.551683952916905582e+02
1.688171397707495469e+00 5.552857901651544807e+02
1.688271419712336741e+00 5.554029543790501293e+02
1.688371441717177790e+00 5.555198868150885119e+02
1.688471463722018839e+00 5.556365863615906164e+02
1.688571485726859667e+00 5.557530519135079885e+02
1.688671507731700716e+00 5.558692823724347818e+02
1.688771529736541765e+00 5.559852766466219691e+02
1.688871551741383037e+00 5.561010336509933722e+02
1.688971573746224086e+00 5.562165523071602138e+02
1.689071595751065136e+00 5.563318315434343049e+02
1.689171617755906407e+00 5.564468702948411192e+02
1.689271639760747235e+00 5.565616675031360501e+02
1.689371661765588284e+00 5.566762221168150973e+02
1.689471683770429333e+00 5.567905330911296460e+02
1.689571705775270383e+00 5.569045993880986316e+02
1.689671727780111432e+00 5.570184199765211588e+02
1.689771749784952704e+00 5.571319938319901439e+02
1.689871771789793753e+00 5.572453199369019785e+02
1.689971793794634580e+00 5.573583972804715359e+02
1.690071815799475630e+00 5.574712248587422891e+02
1.690171837804316901e+00 5.575838016745975665e+02
1.690271859809157950e+00 5.576961267377726017e+02
1.690371881813999000e+00 5.578081990648647661e+02
1.690471903818840049e+00 5.579200176793463015e+02
1.690571925823681099e+00 5.580315816115717098e+02
1.690671947828521926e+00 5.581428898987904859e+02
1.690771969833363197e+00 5.582539415851572357e+02
1.690871991838204247e+00 5.583647357217399758e+02
1.690972013843045296e+00 5.584752713665311603e+02
1.691072035847886568e+00 5.585855475844570037e+02
1.691172057852727617e+00 5.586955634473847567e+02
1.691272079857568666e+00 5.588053180341346433e+02
1.691372101862409494e+00 5.589148104304864546e+02
1.691472123867250543e+00 5.590240397291886438e+02
1.691572145872091593e+00 5.591330050299667391e+02
1.691672167876932864e+00 5.592417054395306195e+02
1.691772189881773913e+00 5.593501400715832688e+02
1.691872211886614963e+00 5.594583080468273693e+02
1.691972233891456234e+00 5.595662084929733737e+02
1.692072255896297062e+00 5.596738405447464402e+02
1.692172277901138111e+00 5.597812033438930257e+02
1.692272299905979160e+00 5.598882960391861161e+02
1.692372321910820210e+00 5.599951177864362535e+02
1.692472343915661259e+00 5.601016677484899446e+02
1.692572365920502531e+00 5.602079450952446678e+02
1.692672387925343580e+00 5.603139490036462576e+02
1.692772409930184407e+00 5.604196786577006151e+02
1.692872431935025457e+00 5.605251332484756404e+02
1.692972453939866728e+00 5.606303119741053251e+02
1.693072475944707778e+00 5.607352140397978246e+02
1.693172497949548827e+00 5.608398386578380723e+02
1.693272519954389876e+00 5.609441850475916453e+02
1.693372541959230926e+00 5.610482524355093119e+02
1.693472563964071753e+00 5.611520400551323746e+02
1.693572585968913025e+00 5.612555471470930115e+02
1.693672607973754074e+00 5.613587729591206426e+02
1.693772629978595123e+00 5.614617167460430665e+02
1.693872651983436395e+00 5.615643777697907808e+02
1.693972673988277444e+00 5.616667552993998243e+02
1.694072695993118494e+00 5.617688486110126860e+02
1.694172717997959321e+00 5.618706569878808068e+02
1.694272740002800370e+00 5.619721797203686720e+02
1.694372762007641420e+00 5.620734161059525604e+02
1.694472784012482691e+00 5.621743654492249789e+02
1.694572806017323741e+00 5.622750270618935247e+02
1.694672828022164790e+00 5.623754002627840691e+02
1.694772850027006061e+00 5.624754843778397344e+02
1.694872872031846889e+00 5.625752787401229398e+02
1.694972894036687938e+00 5.626747826898151743e+02
1.695072916041528988e+00 5.627739955742176789e+02
1.695172938046370037e+00 5.628729167477511055e+02
1.695272960051211086e+00 5.629715455719542661e+02
1.695372982056052358e+00 5.630698814154865204e+02
1.695473004060893407e+00 5.631679236541233422e+02
1.695573026065734235e+00 5.632656716707590476e+02
1.695673048070575284e+00 5.633631248554023614e+02
1.695773070075416555e+00 5.634602826051776674e+02
1.695873092080257605e+00 5.635571443243219392e+02
1.695973114085098654e+00 5.636537094241836030e+02
1.696073136089939704e+00 5.637499773232202642e+02
1.696173158094780753e+00 5.638459474469962061e+02
1.696273180099621580e+00 5.639416192281812528e+02
1.696373202104462852e+00 5.640369921065454264e+02
1.696473224109303901e+00 5.641320655289591741e+02
1.696573246114144951e+00 5.642268389493887071e+02
1.696673268118986222e+00 5.643213118288917940e+02
1.696773290123827271e+00 5.644154836356162832e+02
1.696873312128668321e+00 5.645093538447946457e+02
1.696973334133509148e+00 5.646029219387401099e+02
1.697073356138350197e+00 5.646961874068457519e+02
1.697173378143191247e+00 5.647891497455738090e+02
1.697273400148032518e+00 5.648818084584567032e+02
1.697373422152873568e+00 5.649741630560894237e+02
1.697473444157714617e+00 5.650662130561260028e+02
1.697573466162555889e+00 5.651579579832720128e+02
1.697673488167396716e+00 5.652493973692821783e+02
1.697773510172237765e+00 5.653405307529523043e+02
1.697873532177078815e+00 5.654313576801139334e+02
1.697973554181919864e+00 5.655218777036294568e+02
1.698073576186760913e+00 5.656120903833841567e+02
1.698173598191602185e+00 5.657019952862805212e+02
1.698273620196443234e+00 5.657915919862313103e+02
1.698373642201284062e+00 5.658808800641537573e+02
1.698473664206125111e+00 5.659698591079595644e+02
1.698573686210966383e+00 5.660585287125516061e+02
1.698673708215807432e+00 5.661468884798129011e+02
1.698773730220648481e+00 5.662349380186011558e+02
1.698873752225489531e+00 5.663226769447385323e+02
1.698973774230330580e+00 5.664101048810069869e+02
1.699073796235171407e+00 5.664972214571354243e+02
1.699173818240012679e+00 5.665840263097956040e+02
1.699273840244853728e+00 5.666705190825907721e+02
1.699373862249694778e+00 5.667566994260463389e+02
1.699473884254536049e+00 5.668425669976023755e+02
1.699573906259377098e+00 5.669281214616041780e+02
1.699673928264218148e+00 5.670133624892915805e+02
1.699773950269058975e+00 5.670982897587903153e+02
1.699873972273900025e+00 5.671829029550995074e+02
1.699973994278741074e+00 5.672672017700863307e+02
1.700074016283582345e+00 5.673511859024720252e+02
1.700174038288423395e+00 5.674348550578216646e+02
1.700274060293264444e+00 5.675182089485342658e+02
1.700374082298105272e+00 5.676012472938321025e+02
1.700474104302946543e+00 5.676839698197487678e+02
1.700574126307787592e+00 5.677663762591193972e+02
1.700674148312628642e+00 5.678484663515666853e+02
1.700774170317469691e+00 5.679302398434916768e+02
1.700874192322310741e+00 5.680116964880598971e+02
1.700974214327152012e+00 5.680928360451924846e+02
1.701074236331992839e+00 5.681736582815490237e+02
1.701174258336833889e+00 5.682541629705199284e+02
1.701274280341674938e+00 5.683343498922113213e+02
1.701374302346516210e+00 5.684142188334323009e+02
1.701474324351357259e+00 5.684937695876834596e+02
1.701574346356198308e+00 5.685730019551413079e+02
1.701674368361039358e+00 5.686519157426474749e+02
1.701774390365880185e+00 5.687305107636939283e+02
1.701874412370721235e+00 5.688087868384094463e+02
1.701974434375562506e+00 5.688867437935458611e+02
1.702074456380403555e+00 5.689643814624628249e+02
1.702174478385244605e+00 5.690416996851166687e+02
1.702274500390085876e+00 5.691186983080422124e+02
1.702374522394926926e+00 5.691953771843410550e+02
1.702474544399767753e+00 5.692717361736655448e+02
1.702574566404608802e+00 5.693477751422033180e+02
1.702674588409449852e+00 5.694234939626649066e+02
1.702774610414290901e+00 5.694988925142638436e+02
1.702874632419132173e+00 5.695739706827058626e+02
1.702974654423973222e+00 5.696487283601700256e+02
1.703074676428814271e+00 5.697231654452968996e+02
1.703174698433655099e+00 5.697972818431659334e+02
1.703274720438496370e+00 5.698710774652865894e+02
1.703374742443337420e+00 5.699445522295773117e+02
1.703474764448178469e+00 5.700177060603510881e+02
1.703574786453019518e+00 5.700905388882987381e+02
1.703674808457860568e+00 5.701630506504704954e+02
1.703774830462701839e+00 5.702352412902616834e+02
1.703874852467542667e+00 5.703071107573937297e+02
1.703974874472383716e+00 5.703786590078975678e+02
1.704074896477224765e+00 5.704498860040954469e+02
1.704174918482066037e+00 5.705207917145854708e+02
1.704274940486907086e+00 5.705913761142204521e+02
1.704374962491748136e+00 5.706616391840938149e+02
1.704474984496589185e+00 5.707315809115178808e+02
1.704575006501430012e+00 5.708012012900094305e+02
1.704675028506271062e+00 5.708705003192687855e+02
1.704775050511112333e+00 5.709394780051597991e+02
1.704875072515953383e+00 5.710081343596966690e+02
1.704975094520794432e+00 5.710764694010192670e+02
1.705075116525635703e+00 5.711444831533783599e+02
1.705175138530476753e+00 5.712121756471133267e+02
1.705275160535317580e+00 5.712795469186349919e+02
1.705375182540158630e+00 5.713465970104055032e+02
1.705475204544999679e+00 5.714133259709196864e+02
1.705575226549840728e+00 5.714797338546836727e+02
1.705675248554682000e+00 5.715458207221961402e+02
1.705775270559523049e+00 5.716115866399278502e+02
1.705875292564364099e+00 5.716770316803017522e+02
1.705975314569204926e+00 5.717421559216743390e+02
1.706075336574046197e+00 5.718069594483110905e+02
1.706175358578887247e+00 5.718714423503705575e+02
1.706275380583728296e+00 5.719356047238801466e+02
1.706375402588569345e+00 5.719994466707183847e+02
1.706475424593410395e+00 5.720629682985911586e+02
1.706575446598251666e+00 5.721261697210119337e+02
1.706675468603092494e+00 5.721890510572811763e+02
1.706775490607933543e+00 5.722516124324630482e+02
1.706875512612774592e+00 5.723138539773661932e+02
1.706975534617615864e+00 5.723757758285207728e+02
1.707075556622456913e+00 5.724373781281572064e+02
1.707175578627297963e+00 5.724986610241840026e+02
1.707275600632139012e+00 5.725596246701645669e+02
1.707375622636979839e+00 5.726202692252988982e+02
1.707475644641820889e+00 5.726805948543970999e+02
1.707575666646662160e+00 5.727406017278591435e+02
1.707675688651503210e+00 5.728002900216516764e+02
1.707775710656344259e+00 5.728596599172869901e+02
1.707875732661185531e+00 5.729187116017969856e+02
1.707975754666026580e+00 5.729774452677150975e+02
1.708075776670867407e+00 5.730358611130470763e+02
1.708175798675708457e+00 5.730939593412541626e+02
1.708275820680549506e+00 5.731517401612262574e+02
1.708375842685390555e+00 5.732092037872599803e+02
1.708475864690231827e+00 5.732663504390332037e+02
1.708575886695072876e+00 5.733231803415849299e+02
1.708675908699913926e+00 5.733796937252883481e+02
1.708775930704754753e+00 5.734358908258292331e+02
1.708875952709596024e+00 5.734917718841812757e+02
1.708975974714437074e+00 5.735473371465816399e+02
1.709075996719278123e+00 5.736025868645090213e+02
1.709176018724119173e+00 5.736575212946554529e+02
1.709276040728960222e+00 5.737121406989050456e+02
1.709376062733801493e+00 5.737664453443107959e+02
1.709476084738642321e+00 5.738204355030659372e+02
1.709576106743483370e+00 5.738741114524823388e+02
1.709676128748324420e+00 5.739274734749667459e+02
1.709776150753165691e+00 5.739805218579909933e+02
1.709876172758006740e+00 5.740332568940734745e+02
1.709976194762847790e+00 5.740856788807496969e+02
1.710076216767688839e+00 5.741377881205485210e+02
1.710176238772529667e+00 5.741895849209679454e+02
1.710276260777370716e+00 5.742410695944486179e+02
1.710376282782211987e+00 5.742922424583476868e+02
1.710476304787053037e+00 5.743431038349162918e+02
1.710576326791894086e+00 5.743936540512713691e+02
1.710676348796735358e+00 5.744438934393707541e+02
1.710776370801576407e+00 5.744938223359874883e+02
1.710876392806417234e+00 5.745434410826834437e+02
1.710976414811258284e+00 5.745927500257866996e+02
1.711076436816099333e+00 5.746417495163600506e+02
1.711176458820940383e+00 5.746904399101792933e+02
1.711276480825781654e+00 5.747388215677049175e+02
1.711376502830622703e+00 5.747868948540572092e+02
1.711476524835463753e+00 5.748346601389890793e+02
1.711576546840304580e+00 5.748821177968608254e+02
1.711676568845145852e+00 5.749292682066111411e+02
1.711776590849986901e+00 5.749761117517332423e+02
1.711876612854827950e+00 5.750226488202481505e+02
1.711976634859669000e+00 5.750688798046754755e+02
1.712076656864510049e+00 5.751148051020095409e+02
1.712176678869351321e+00 5.751604251136911898e+02
1.712276700874192148e+00 5.752057402455810688e+02
1.712376722879033197e+00 5.752507509079329111e+02
1.712476744883874247e+00 5.752954575153657970e+02
1.712576766888715518e+00 5.753398604868384609e+02
1.712676788893556568e+00 5.753839602456205284e+02
1.712776810898397617e+00 5.754277572192669368e+02
1.712876832903238666e+00 5.754712518395886036e+02
1.712976854908079494e+00 5.755144445426280981e+02
1.713076876912920543e+00 5.755573357686283771e+02
1.713176898917761815e+00 5.755999259620090243e+02
1.713276920922602864e+00 5.756422155713361235e+02
1.713376942927443913e+00 5.756842050492965654e+02
1.713476964932285185e+00 5.757258948526691711e+02
1.713576986937126234e+00 5.757672854422969522e+02
1.713677008941967062e+00 5.758083772830606222e+02
1.713777030946808111e+00 5.758491708438494925e+02
1.713877052951649160e+00 5.758896665975350970e+02
1.713977074956490210e+00 5.759298650209411790e+02
1.714077096961331481e+00 5.759697665948179974e+02
1.714177118966172531e+00 5.760093718038120869e+02
1.714277140971013580e+00 5.760486811364417008e+02
1.714377162975854407e+00 5.760876950850642970e+02
1.714477184980695679e+00 5.761264141458525501e+02
1.714577206985536728e+00 5.761648388187629735e+02
1.714677228990377778e+00 5.762029696075098855e+02
1.714777250995218827e+00 5.762408070195364189e+02
1.714877273000059876e+00 5.762783515659854174e+02
1.714977295004901148e+00 5.763156037616737422e+02
1.715077317009741975e+00 5.763525641250600984e+02
1.715177339014583024e+00 5.763892331782207066e+02
1.715277361019424074e+00 5.764256114468175838e+02
1.715377383024265345e+00 5.764616994600721682e+02
1.715477405029106395e+00 5.764974977507351923e+02
1.715577427033947444e+00 5.765330068550607621e+02
1.715677449038788493e+00 5.765682273127742974e+02
1.715777471043629321e+00 5.766031596670472936e+02
1.715877493048470370e+00 5.766378044644670808e+02
1.715977515053311642e+00 5.766721622550080610e+02
1.716077537058152691e+00 5.767062335920036276e+02
1.716177559062993740e+00 5.767400190321183118e+02
1.716277581067835012e+00 5.767735191353161781e+02
1.716377603072676061e+00 5.768067344648356993e+02
1.716477625077516889e+00 5.768396655871587200e+02
1.716577647082357938e+00 5.768723130719827168e+02
1.716677669087198987e+00 5.769046774921924907e+02
1.716777691092040037e+00 5.769367594238292440e+02
1.716877713096881308e+00 5.769685594460647735e+02
1.716977735101722358e+00 5.770000781411692969e+02
1.717077757106563407e+00 5.770313160944866695e+02
1.717177779111404234e+00 5.770622738944013008e+02
1.717277801116245506e+00 5.770929521323134850e+02
1.717377823121086555e+00 5.771233514026065450e+02
1.717477845125927605e+00 5.771534723026215943e+02
1.717577867130768654e+00 5.771833154326261592e+02
1.717677889135609703e+00 5.772128813957855300e+02
1.717777911140450531e+00 5.772421707981360441e+02
1.717877933145291802e+00 5.772711842485533680e+02
1.717977955150132852e+00 5.772999223587265760e+02
1.718077977154973901e+00 5.773283857431258639e+02
1.718177999159815172e+00 5.773565750189771961e+02
1.718278021164656222e+00 5.773844908062301329e+02
1.718378043169497271e+00 5.774121337275316819e+02
1.718478065174338099e+00 5.774395044081963988e+02
1.718578087179179148e+00 5.774666034761767150e+02
1.718678109184020197e+00 5.774934315620348571e+02
1.718778131188861469e+00 5.775199892989152204e+02
1.718878153193702518e+00 5.775462773225127648e+02
1.718978175198543568e+00 5.775722962710468664e+02
1.719078197203384839e+00 5.775980467852305082e+02
1.719178219208225666e+00 5.776235295082431094e+02
1.719278241213066716e+00 5.776487450856993746e+02
1.719378263217907765e+00 5.776736941656242834e+02
1.719478285222748815e+00 5.776983773984206891e+02
1.719578307227589864e+00 5.777227954368424889e+02
1.719678329232431135e+00 5.777469489359648378e+02
1.719778351237272185e+00 5.777708385531567501e+02
1.719878373242113012e+00 5.777944649480511998e+02
1.719978395246954062e+00 5.778178287825165853e+02
1.720078417251795333e+00 5.778409307206293306e+02
1.720178439256636382e+00 5.778637714286439859e+02
1.720278461261477432e+00 5.778863515749634416e+02
1.720378483266318481e+00 5.779086718301149403e+02
1.720478505271159531e+00 5.779307328667154025e+02
1.720578527276000358e+00 5.779525353594470971e+02
1.720678549280841629e+00 5.779740799850292206e+02
1.720778571285682679e+00 5.779953674221853817e+02
1.720878593290523728e+00 5.780163983516204098e+02
1.720978615295365000e+00 5.780371734559880679e+02
1.721078637300206049e+00 5.780576934198651315e+02
1.721178659305047098e+00 5.780779589297210350e+02
1.721278681309887926e+00 5.780979706738913819e+02
1.721378703314728975e+00 5.781177293425473636e+02
1.721478725319570025e+00 5.781372356276708615e+02
1.721578747324411296e+00 5.781564902230223879e+02
1.721678769329252345e+00 5.781754938241167565e+02
1.721778791334093395e+00 5.781942471281919325e+02
1.721878813338934666e+00 5.782127508341818611e+02
1.721978835343775494e+00 5.782310056426888423e+02
1.722078857348616543e+00 5.782490122559563588e+02
1.722178879353457592e+00 5.782667713778383813e+02
1.722278901358298642e+00 5.782842837137744709e+02
1.722378923363139691e+00 5.783015499707601066e+02
1.722478945367980963e+00 5.783185708573189459e+02
1.722578967372822012e+00 5.783353470834761083e+02
1.722678989377662839e+00 5.783518793607295265e+02
1.722779011382503889e+00 5.783681684020226612e+02
1.722879033387345160e+00 5.783842149217164206e+02
1.722979055392186210e+00 5.784000196355618755e+02
1.723079077397027259e+00 5.784155832606735430e+02
1.723179099401868308e+00 5.784309065155000553e+02
1.723279121406709358e+00 5.784459901197985801e+02
1.723379143411550185e+00 5.784608347946066260e+02
1.723479165416391456e+00 5.784754412622146447e+02
1.723579187421232506e+00 5.784898102461390863e+02
1.723679209426073555e+00 5.785039424710945468e+02
1.723779231430914827e+00 5.785178386629686429e+02
1.723879253435755876e+00 5.785314995487916576e+02
1.723979275440596926e+00 5.785449258567133484e+02
1.724079297445437753e+00 5.785581183159716829e+02
1.724179319450278802e+00 5.785710776568707843e+02
1.724279341455119852e+00 5.785838046107494392e+02
1.724379363459961123e+00 5.785962999099579065e+02
1.724479385464802172e+00 5.786085642878299495e+02
1.724579407469643222e+00 5.786205984786550971e+02
1.724679429474484493e+00 5.786324032176535184e+02
1.724779451479325321e+00 5.786439792409498750e+02
1.724879473484166370e+00 5.786553272855451269e+02
1.724979495489007419e+00 5.786664480892924303e+02
1.725079517493848469e+00 5.786773423908684890e+02
1.725179539498689518e+00 5.786880109297493391e+02
1.725279561503530790e+00 5.786984544461831774e+02
1.725379583508371839e+00 5.787086736811642140e+02
1.725479605513212666e+00 5.787186693764076608e+02
1.725579627518053716e+00 5.787284422743230152e+02
1.725679649522894987e+00 5.787379931179880259e+02
1.725779671527736037e+00 5.787473226511241364e+02
1.725879693532577086e+00 5.787564316180692003e+02
1.725979715537418135e+00 5.787653207637532660e+02
1.726079737542259185e+00 5.787739908336725421e+02
1.726179759547100012e+00 5.787824425738638183e+02
1.726279781551941284e+00 5.787906767308791132e+02
1.726379803556782333e+00 5.787986940517604353e+02
1.726479825561623382e+00 5.788064952840151136e+02
1.726579847566464654e+00 5.788140811755899904e+02
1.726679869571305703e+00 5.788214524748470922e+02
1.726779891576146753e+00 5.788286099305378229e+02
1.726879913580987580e+00 5.788355542917799994e+02
1.726979935585828629e+00 5.788422863080290881e+02
1.727079957590669679e+00 5.788488067290586514e+02
1.727179979595510950e+00 5.788551163049326078e+02
1.727280001600352000e+00 5.788612157859802210e+02
1.727380023605193049e+00 5.788671059227746127e+02
1.727480045610034320e+00 5.788727874661068427e+02
1.727580067614875148e+00 5.788782611669597600e+02
1.727680089619716197e+00 5.788835277764874263e+02
1.727780111624557247e+00 5.788885880459887403e+02
1.727880133629398296e+00 5.788934427268850413e+02
1.727980155634239345e+00 5.788980925706940752e+02
1.728080177639080617e+00 5.789025383290087348e+02
1.728180199643921666e+00 5.789067807534712529e+02
1.728280221648762494e+00 5.789108205957514883e+02
1.728380243653603543e+00 5.789146586075233927e+02
1.728480265658444814e+00 5.789182955404387485e+02
1.728580287663285864e+00 5.789217321461081838e+02
1.728680309668126913e+00 5.789249691760751375e+02
1.728780331672967963e+00 5.789280073817933499e+02
1.728880353677809012e+00 5.789308475146051478e+02
1.728980375682649839e+00 5.789334903257165479e+02
1.729080397687491111e+00 5.789359365661759966e+02
1.729180419692332160e+00 5.789381869868524291e+02
1.729280441697173210e+00 5.789402423384096892e+02
1.729380463702014481e+00 5.789421033712882263e+02
1.729480485706855530e+00 5.789437708356788335e+02
1.729580507711696580e+00 5.789452454815030933e+02
1.729680529716537407e+00 5.789465280583902995e+02
1.729780551721378457e+00 5.789476193156557429e+02
1.729880573726219506e+00 5.789485200022785421e+02
1.729980595731060777e+00 5.789492308668794749e+02
1.730080617735901827e+00 5.789497526576997188e+02
1.730180639740742876e+00 5.789500861225808421e+02
1.730280661745584148e+00 5.789502320089409295e+02
1.730380683750424975e+00 5.789501910637528681e+02
1.730480705755266024e+00 5.789499640335264985e+02
1.730580727760107074e+00 5.789495516642843995e+02
1.730680749764948123e+00 5.789489547015414246e+02
1.730780771769789173e+00 5.789481738902856023e+02
1.730880793774630444e+00 5.789472099749556264e+02
1.730980815779471493e+00 5.789460636994195966e+02
1.731080837784312321e+00 5.789447358069563734e+02
1.731180859789153370e+00 5.789432270402345466e+02
1.731280881793994642e+00 5.789415381412914030e+02
1.731380903798835691e+00 5.789396698515123489e+02
1.731480925803676740e+00 5.789376229116135164e+02
1.731580947808517790e+00 5.789353980616181161e+02
1.731680969813358839e+00 5.789329960408396119e+02
1.731780991818199666e+00 5.789304175878606884e+02
1.731881013823040938e+00 5.789276634405130153e+02
1.731981035827881987e+00 5.789247343358595117e+02
1.732081057832723037e+00 5.789216310101725185e+02
1.732181079837564308e+00 5.789183541989176547e+02
1.732281101842405358e+00 5.789149046367321034e+02
1.732381123847246407e+00 5.789112830574067630e+02
1.732481145852087234e+00 5.789074901938670337e+02
1.732581167856928284e+00 5.789035267781551966e+02
1.732681189861769333e+00 5.788993935414092675e+02
1.732781211866610604e+00 5.788950912138469675e+02
1.732881233871451654e+00 5.788906205247465095e+02
1.732981255876292703e+00 5.788859822024280675e+02
1.733081277881133975e+00 5.788811769742349043e+02
1.733181299885974802e+00 5.788762055665176831e+02
1.733281321890815851e+00 5.788710687046147996e+02
1.733381343895656901e+00 5.788657671128341917e+02
1.733481365900497950e+00 5.788603015144376513e+02
1.733581387905339000e+00 5.788546726316221793e+02
1.733681409910180271e+00 5.788488811855012273e+02
1.733781431915021320e+00 5.788429278960906004e+02
1.733881453919862148e+00 5.788368134822891307e+02
1.733981475924703197e+00 5.788305386618613966e+02
1.734081497929544469e+00 5.788241041514226026e+02
1.734181519934385518e+00 5.788175106664205032e+02
1.734281541939226567e+00 5.788107589211201685e+02
1.734381563944067617e+00 5.788038496285851124e+02
1.734481585948908666e+00 5.787967835006627411e+02
1.734581607953749494e+00 5.787895612479691181e+02
1.734681629958590765e+00 5.787821835798706616e+02
1.734781651963431814e+00 5.787746512044687961e+02
1.734881673968272864e+00 5.787669648285852873e+02
1.734981695973114135e+00 5.787591251577458706e+02
1.735081717977955185e+00 5.787511328961638810e+02
1.735181739982796012e+00 5.787429887467262688e+02
1.735281761987637061e+00 5.787346934109768881e+02
1.735381783992478111e+00 5.787262475891038775e+02
1.735481805997319160e+00 5.787176519799212429e+02
1.735581828002160432e+00 5.787089072808558967e+02
1.735681850007001481e+00 5.787000141879332205e+02
1.735781872011842530e+00 5.786909733957619437e+02
1.735881894016683358e+00 5.786817855975186831e+02
1.735981916021524629e+00 5.786724514849361185e+02
1.736081938026365679e+00 5.786629717482865090e+02
1.736181960031206728e+00 5.786533470763679361e+02
1.736281982036047777e+00 5.786435781564912304e+02
1.736382004040888827e+00 5.786336656744667835e+02
1.736482026045730098e+00 5.786236103145876086e+02
1.736582048050570926e+00 5.786134127596201324e+02
1.736682070055411975e+00 5.786030736907880510e+02
1.736782092060253024e+00 5.785925937877600518e+02
1.736882114065094296e+00 5.785819737286360578e+02
1.736982136069935345e+00 5.785712141899349490e+02
1.737082158074776395e+00 5.785603158465822844e+02
1.737182180079617444e+00 5.785492793718951816e+02
1.737282202084458271e+00 5.785381054375723124e+02
1.737382224089299321e+00 5.785267947136808289e+02
1.737482246094140592e+00 5.785153478686435164e+02
1.737582268098981642e+00 5.785037655692266299e+02
1.737682290103822691e+00 5.784920484805282967e+02
1.737782312108663962e+00 5.784801972659674902e+02
1.737882334113505012e+00 5.784682125872695906e+02
1.737982356118345839e+00 5.784560951044591093e+02
1.738082378123186889e+00 5.784438454758426360e+02
1.738182400128027938e+00 5.784314643580038364e+02
1.738282422132868987e+00 5.784189524057863991e+02
1.738382444137710259e+00 5.784063102722868734e+02
1.738482466142551308e+00 5.783935386088431869e+02
1.738582488147392358e+00 5.783806380650219126e+02
1.738682510152233185e+00 5.783676092886094011e+02
1.738782532157074456e+00 5.783544529256023452e+02
1.738882554161915506e+00 5.783411696201933410e+02
1.738982576166756555e+00 5.783277600147666817e+02
1.739082598171597605e+00 5.783142247498824418e+02
1.739182620176438654e+00 5.783005644642698826e+02
1.739282642181279925e+00 5.782867797948169937e+02
1.739382664186120753e+00 5.782728713765611701e+02
1.739482686190961802e+00 5.782588398426794356e+02
1.739582708195802851e+00 5.782446858244774148e+02
1.739682730200644123e+00 5.782304099513839901e+02
1.739782752205485172e+00 5.782160128509380002e+02
1.739882774210326222e+00 5.782014951487827830e+02
1.739982796215167271e+00 5.781868574686546935e+02
1.740082818220008098e+00 5.781721004323760553e+02
1.740182840224849148e+00 5.781572246598459515e+02
1.740282862229690419e+00 5.781422307690321531e+02
1.740382884234531469e+00 5.781271193759637299e+02
1.740482906239372518e+00 5.781118910947202494e+02
1.740582928244213790e+00 5.780965465374268888e+02
1.740682950249054839e+00 5.780810863142446578e+02
1.740782972253895666e+00 5.780655110333640323e+02
1.740882994258736716e+00 5.780498213009959727e+02
1.740983016263577765e+00 5.780340177213665811e+02
1.741083038268418814e+00 5.780181008967065281e+02
1.741183060273260086e+00 5.780020714272480973e+02
1.741283082278101135e+00 5.779859299112143844e+02
1.741383104282942185e+00 5.779696769448150917e+02
1.741483126287783012e+00 5.779533131222392512e+02
1.741583148292624283e+00 5.779368390356468126e+02
1.741683170297465333e+00 5.779202552751650046e+02
1.741783192302306382e+00 5.779035624288795816e+02
1.741883214307147432e+00 5.778867610828308443e+02
1.741983236311988481e+00 5.778698518210060229e+02
1.742083258316829752e+00 5.778528352253348430e+02
1.742183280321670580e+00 5.778357118756812270e+02
1.742283302326511629e+00 5.778184823498402238e+02
1.742383324331352679e+00 5.778011472235318706e+02
1.742483346336193950e+00 5.777837070703959625e+02
1.742583368341034999e+00 5.777661624619859140e+02
1.742683390345876049e+00 5.777485139677643247e+02
1.742783412350717098e+00 5.777307621550976364e+02
1.742883434355557926e+00 5.777129075892537458e+02
1.742983456360398975e+00 5.776949508333933636e+02
1.743083478365240246e+00 5.776768924485695607e+02
1.743183500370081296e+00 5.776587329937182176e+02
1.743283522374922345e+00 5.776404730256605262e+02
1.743383544379763617e+00 5.776221130990928714e+02
1.743483566384604666e+00 5.776036537665870583e+02
1.743583588389445493e+00 5.775850955785837186e+02
1.743683610394286543e+00 5.775664390833894686e+02
1.743783632399127592e+00 5.775476848271740664e+02
1.743883654403968642e+00 5.775288333539660925e+02
1.743983676408809913e+00 5.775098852056502210e+02
1.744083698413650962e+00 5.774908409219639225e+02
1.744183720418492012e+00 5.774717010404941675e+02
1.744283742423332839e+00 5.774524660966742431e+02
1.744383764428174111e+00 5.774331366237828433e+02
1.744483786433015160e+00 5.774137131529384988e+02
1.744583808437856209e+00 5.773941962130993488e+02
1.744683830442697259e+00 5.773745863310599589e+02
1.744783852447538308e+00 5.773548840314490462e+02
1.744883874452379580e+00 5.773350898367285708e+02
1.744983896457220407e+00 5.773152042671888466e+02
1.745083918462061456e+00 5.772952278409501332e+02
1.745183940466902506e+00 5.772751610739582020e+02
1.745283962471743777e+00 5.772550044799849047e+02
1.745383984476584827e+00 5.772347585706252175e+02
1.745484006481425876e+00 5.772144238552962179e+02
1.745584028486266925e+00 5.771940008412369707e+02
1.745684050491107753e+00 5.771734900335051179e+02
1.745784072495948802e+00 5.771528919349786975e+02
1.745884094500790074e+00 5.771322070463531873e+02
1.745984116505631123e+00 5.771114358661429833e+02
1.746084138510472172e+00 5.770905788906782163e+02
1.746184160515313444e+00 5.770696366141063436e+02
1.746284182520154493e+00 5.770486095283902159e+02
1.746384204524995321e+00 5.770274981233096696e+02
1.746484226529836370e+00 5.770063028864609578e+02
1.746584248534677419e+00 5.769850243032561821e+02
1.746684270539518469e+00 5.769636628569224968e+02
1.746784292544359740e+00 5.769422190285063152e+02
1.746884314549200790e+00 5.769206932968686488e+02
1.746984336554041839e+00 5.768990861386902225e+02
1.747084358558882666e+00 5.768773980284689742e+02
1.747184380563723938e+00 5.768556294385225556e+02
1.747284402568564987e+00 5.768337808389876500e+02
1.747384424573406037e+00 5.768118526978249747e+02
1.747484446578247086e+00 5.767898454808137103e+02
1.747584468583088135e+00 5.767677596515604819e+02
1.747684490587929407e+00 5.767455956714942431e+02
1.747784512592770234e+00 5.767233539998718470e+02
1.747884534597611284e+00 5.767010350937782732e+02
1.747984556602452333e+00 5.766786394081289018e+02
1.748084578607293604e+00 5.766561673956707637e+02
1.748184600612134654e+00 5.766336195069845871e+02
1.748284622616975703e+00 5.766109961904871852e+02
1.748384644621816753e+00 5.765882978924349800e+02
1.748484666626657580e+00 5.765655250569233203e+02
1.748584688631498629e+00 5.765426781258925075e+02
1.748684710636339901e+00 5.765197575391272267e+02
1.748784732641180950e+00 5.764967637342613216e+02
1.748884754646021999e+00 5.764736971467799549e+02
1.748984776650863271e+00 5.764505582100230185e+02
1.749084798655704320e+00 5.764273473551866118e+02
1.749184820660545148e+00 5.764040650113280435e+02
1.749284842665386197e+00 5.763807116053685604e+02
1.749384864670227246e+00 5.763572875620952800e+02
1.749484886675068296e+00 5.763337933041680117e+02
1.749584908679909567e+00 5.763102292521198251e+02
1.749684930684750617e+00 5.762865958243606883e+02
1.749784952689591666e+00 5.762628934371842888e+02
1.749884974694432493e+00 5.762391225047683747e+02
1.749984996699273765e+00 5.762152834391818033e+02
1.750085018704114814e+00 5.761913766503862462e+02
1.750185040708955864e+00 5.761674025462424424e+02
1.750285062713796913e+00 5.761433615325125857e+02
1.750385084718637962e+00 5.761192540128677138e+02
1.750485106723479234e+00 5.760950803888882774e+02
1.750585128728320061e+00 5.760708410600723255e+02
1.750685150733161111e+00 5.760465364238384609e+02
1.750785172738002160e+00 5.760221668755316387e+02
1.750885194742843431e+00 5.759977328084269175e+02
1.750985216747684481e+00 5.759732346137365084e+02
1.751085238752525530e+00 5.759486726806137540e+02
1.751185260757366580e+00 5.759240473961564248e+02
1.751285282762207407e+00 5.758993591454167245e+02
1.751385304767048456e+00 5.758746083114032217e+02
1.751485326771889728e+00 5.758497952750872173e+02
1.751585348776730777e+00 5.758249204154088829e+02
1.751685370781571827e+00 5.757999841092829456e+02
1.751785392786413098e+00 5.757749867316045993e+02
1.751885414791254147e+00 5.757499286552549620e+02
1.751985436796094975e+00 5.757248102511073284e+02
1.752085458800936024e+00 5.756996318880346735e+02
1.752185480805777074e+00 5.756743939329135173e+02
1.752285502810618123e+00 5.756490967506326797e+02
1.752385524815459394e+00 5.756237407040978269e+02
1.752485546820300444e+00 5.755983261542386344e+02
1.752585568825141271e+00 5.755728534600166313e+02
1.752685590829982321e+00 5.755473229784300884e+02
1.752785612834823592e+00 5.755217350645222041e+02
1.752885634839664641e+00 5.754960900713870160e+02
1.752985656844505691e+00 5.754703883501761084e+02
1.753085678849346740e+00 5.754446302501082755e+02
1.753185700854187790e+00 5.754188161184736146e+02
1.753285722859028617e+00 5.753929463006421656e+02
1.753385744863869888e+00 5.753670211400714152e+02
1.753485766868710938e+00 5.753410409783132309e+02
1.753585788873551987e+00 5.753150061550212513e+02
1.753685810878393259e+00 5.752889170079592986e+02
1.753785832883234308e+00 5.752627738730084275e+02
1.753885854888075357e+00 5.752365770841745416e+02
1.753985876892916185e+00 5.752103269735974891e+02
1.754085898897757234e+00 5.751840238715572013e+02
1.754185920902598284e+00 5.751576681064822196e+02
1.754285942907439555e+00 5.751312600049589037e+02
1.754385964912280604e+00 5.751047998917387076e+02
1.754485986917121654e+00 5.750782880897460245e+02
1.754586008921962925e+00 5.750517249200878496e+02
1.754686030926803753e+00 5.750251107020602603e+02
1.754786052931644802e+00 5.749984457531593307e+02
1.754886074936485851e+00 5.749717303890867015e+02
1.754986096941326901e+00 5.749449649237612903e+02
1.755086118946167950e+00 5.749181496693259987e+02
1.755186140951009222e+00 5.748912849361560120e+02
1.755286162955850271e+00 5.748643710328716452e+02
1.755386184960691098e+00 5.748374082663407307e+02
1.755486206965532148e+00 5.748103969416932841e+02
1.755586228970373419e+00 5.747833373623280977e+02
1.755686250975214469e+00 5.747562298299216081e+02
1.755786272980055518e+00 5.747290746444383558e+02
1.755886294984896567e+00 5.747018721041398521e+02
1.755986316989737617e+00 5.746746225055925379e+02
1.756086338994578444e+00 5.746473261436790381e+02
1.756186360999419716e+00 5.746199833116071432e+02
1.756286383004260765e+00 5.745925943009187904e+02
1.756386405009101814e+00 5.745651594014998409e+02
1.756486427013943086e+00 5.745376789015892882e+02
1.756586449018784135e+00 5.745101530877914229e+02
1.756686471023625185e+00 5.744825822450818578e+02
1.756786493028466012e+00 5.744549666568190105e+02
1.756886515033307061e+00 5.744273066047562679e+02
1.756986537038148111e+00 5.743996023690483526e+02
1.757086559042989382e+00 5.743718542282638282e+02
1.757186581047830432e+00 5.743440624593926032e+02
1.757286603052671481e+00 5.743162273378595728e+02
1.757386625057512752e+00 5.742883491375316680e+02
1.757486647062353580e+00 5.742604281307297924e+02
1.757586669067194629e+00 5.742324645882396226e+02
1.757686691072035678e+00 5.742044587793195660e+02
1.757786713076876728e+00 5.741764109717130395e+02
1.757886735081717777e+00 5.741483214316588146e+02
1.757986757086559049e+00 5.741201904239012492e+02
1.758086779091400098e+00 5.740920182117015429e+02
1.758186801096240925e+00 5.740638050568454673e+02
1.758286823101081975e+00 5.740355512196579184e+02
1.758386845105923246e+00 5.740072569590113289e+02
1.758486867110764296e+00 5.739789225323381743e+02
1.758586889115605345e+00 5.739505481956385893e+02
1.758686911120446394e+00 5.739221342034944655e+02
1.758786933125287444e+00 5.738936808090787736e+02
1.758886955130128271e+00 5.738651882641670454e+02
1.758986977134969543e+00 5.738366568191474926e+02
1.759086999139810592e+00 5.738080867230331705e+02
1.759187021144651641e+00 5.737794782234720969e+02
1.759287043149492913e+00 5.737508315667591887e+02
1.759387065154333962e+00 5.737221469978467212e+02
1.759487087159175012e+00 5.736934247603558106e+02
1.759587109164015839e+00 5.736646650965880099e+02
1.759687131168856888e+00 5.736358682475348587e+02
1.759787153173697938e+00 5.736070344528916394e+02
1.759887175178539209e+00 5.735781639510676087e+02
1.759987197183380259e+00 5.735492569791957749e+02
1.760087219188221308e+00 5.735203137731476772e+02
1.760187241193062579e+00 5.734913345675412302e+02
1.760287263197903407e+00 5.734623195957553889e+02
1.760387285202744456e+00 5.734332690899393583e+02
1.760487307207585506e+00 5.734041832810243022e+02
1.760587329212426555e+00 5.733750623987365316e+02
1.760687351217267604e+00 5.733459066716073949e+02
1.760787373222108876e+00 5.733167163269860112e+02
1.760887395226949925e+00 5.732874915910499567e+02
1.760987417231790753e+00 5.732582326888174293e+02
1.761087439236631802e+00 5.732289398441591857e+02
1.761187461241473073e+00 5.731996132798101371e+02
1.761287483246314123e+00 5.731702532173794680e+02
1.761387505251155172e+00 5.731408598773659833e+02
1.761487527255996222e+00 5.731114334791674310e+02
1.761587549260837271e+00 5.730819742410905064e+02
1.761687571265678098e+00 5.730524823803674508e+02
1.761787593270519370e+00 5.730229581131633267e+02
1.761887615275360419e+00 5.729934016545913664e+02
1.761987637280201469e+00 5.729638132187217252e+02
1.762087659285042740e+00 5.729341930185976253e+02
1.762187681289883789e+00 5.729045412662409262e+02
1.762287703294724839e+00 5.728748581726706561e+02
1.762387725299565666e+00 5.728451439479106284e+02
1.762487747304406716e+00 5.728153988010043349e+02
1.762587769309247765e+00 5.727856229400239272e+02
1.762687791314089036e+00 5.727558165720841998e+02
1.762787813318930086e+00 5.727259799033545278e+02
1.762887835323771135e+00 5.726961131390692117e+02
1.762987857328612407e+00 5.726662164835424846e+02
1.763087879333453234e+00 5.726362901401782892e+02
1.763187901338294283e+00 5.726063343114814188e+02
1.763287923343135333e+00 5.725763491990735474e+02
1.763387945347976382e+00 5.725463350037002783e+02
1.763487967352817432e+00 5.725162919252471738e+02
1.763587989357658703e+00 5.724862201627501008e+02
1.763688011362499752e+00 5.724561199144069406e+02
1.763788033367340580e+00 5.724259913775906625e+02
1.763888055372181629e+00 5.723958347488609206e+02
1.763988077377022901e+00 5.723656502239768997e+02
1.764088099381863950e+00 5.723354379979066380e+02
1.764188121386704999e+00 5.723051982648435114e+02
1.764288143391546049e+00 5.722749312182147605e+02
1.764388165396387098e+00 5.722446370506947915e+02
1.764488187401227925e+00 5.722143159542177955e+02
1.764588209406069197e+00 5.721839681199886627e+02
1.764688231410910246e+00 5.721535937384956014e+02
1.764788253415751296e+00 5.721231929995236669e+02
1.764888275420592567e+00 5.720927660921628330e+02
1.764988297425433617e+00 5.720623132048251591e+02
1.765088319430274666e+00 5.720318345252529753e+02
1.765188341435115493e+00 5.720013302405324112e+02
1.765288363439956543e+00 5.719708005371055606e+02
1.765388385444797592e+00 5.719402456007824185e+02
1.765488407449638864e+00 5.719096656167516812e+02
1.765588429454479913e+00 5.718790607695954122e+02
1.765688451459320962e+00 5.718484312432971137e+02
1.765788473464162234e+00 5.718177772212583250e+02
1.765888495469003061e+00 5.717870988863064667e+02
1.765988517473844110e+00 5.717563964207101890e+02
1.766088539478685160e+00 5.717256700061884658e+02
1.766188561483526209e+00 5.716949198239235557e+02
1.766288583488367259e+00 5.716641460545733935e+02
1.766388605493208530e+00 5.716333488782844370e+02
1.766488627498049580e+00 5.716025284747000796e+02
1.766588649502890407e+00 5.715716850229763395e+02
1.766688671507731456e+00 5.715408187017914088e+02
1.766788693512572728e+00 5.715099296893580458e+02
1.766888715517413777e+00 5.714790181634355122e+02
1.766988737522254826e+00 5.714480843013406002e+02
1.767088759527095876e+00 5.714171282799618439e+02
1.767188781531936925e+00 5.713861502757672497e+02
1.767288803536777753e+00 5.713551504648190758e+02
1.767388825541619024e+00 5.713241290227844047e+02
1.767488847546460073e+00 5.712930861249485588e+02
1.767588869551301123e+00 5.712620219462223758e+02
1.767688891556142394e+00 5.712309366611577843e+02
1.767788913560983444e+00 5.711998304439591720e+02
1.767888935565824493e+00 5.711687034684922537e+02
1.767988957570665320e+00 5.711375559082979407e+02
1.768088979575506370e+00 5.711063879366035962e+02
1.768189001580347419e+00 5.710751997263330395e+02
1.768289023585188691e+00 5.710439914501190515e+02
1.768389045590029740e+00 5.710127632803155393e+02
1.768489067594870789e+00 5.709815153890070860e+02
1.768589089599712061e+00 5.709502479480208876e+02
1.768689111604552888e+00 5.709189611289394861e+02
1.768789133609393938e+00 5.708876551031094095e+02
1.768889155614234987e+00 5.708563300416549282e+02
1.768989177619076036e+00 5.708249861154869222e+02
1.769089199623917086e+00 5.707936234953167514e+02
1.769189221628758357e+00 5.707622423516640993e+02
1.769289243633599407e+00 5.707308428548709571e+02
1.769389265638440234e+00 5.706994251751111733e+02
1.769489287643281283e+00 5.706679894824007988e+02
1.769589309648122555e+00 5.706365359466117297e+02
1.769689331652963604e+00 5.706050647374786422e+02
1.769789353657804654e+00 5.705735760246129757e+02
1.769889375662645703e+00 5.705420699775136200e+02
1.769989397667486530e+00 5.705105467655749862e+02
1.770089419672327580e+00 5.704790065581012186e+02
1.770189441677168851e+00 5.704474495243142655e+02
1.770289463682009901e+00 5.704158758333659307e+02
1.770389485686850950e+00 5.703842856543475364e+02
1.770489507691692221e+00 5.703526791563011784e+02
1.770589529696533271e+00 5.703210565082310950e+02
1.770689551701374098e+00 5.702894178791103741e+02
1.770789573706215148e+00 5.702577634378963012e+02
1.770889595711056197e+00 5.702260933535374079e+02
1.770989617715897246e+00 5.701944077949851817e+02
1.771089639720738518e+00 5.701627069312042977e+02
1.771189661725579567e+00 5.701309909311805768e+02
1.771289683730420617e+00 5.700992599639342870e+02
1.771389705735261444e+00 5.700675141985290111e+02
1.771489727740102715e+00 5.700357538040809686e+02
1.771589749744943765e+00 5.700039789497707261e+02
1.771689771749784814e+00 5.699721898048497906e+02
1.771789793754625864e+00 5.699403865386545931e+02
1.771889815759466913e+00 5.699085693206143333e+02
1.771989837764308184e+00 5.698767383202598467e+02
1.772089859769149012e+00 5.698448937072346325e+02
1.772189881773990061e+00 5.698130356513041761e+02
1.772289903778831111e+00 5.697811643223656120e+02
1.772389925783672382e+00 5.697492798904570463e+02
1.772489947788513431e+00 5.697173825257672206e+02
1.772589969793354481e+00 5.696854723986444924e+02
1.772689991798195530e+00 5.696535496796064990e+02
1.772790013803036357e+00 5.696216145393506167e+02
1.772890035807877407e+00 5.695896671487597587e+02
1.772990057812718678e+00 5.695577076789159037e+02
1.773090079817559728e+00 5.695257363011063489e+02
1.773190101822400777e+00 5.694937531868325777e+02
1.773290123827242049e+00 5.694617585078211732e+02
1.773390145832083098e+00 5.694297524360321177e+02
1.773490167836923925e+00 5.693977351436658410e+02
1.773590189841764975e+00 5.693657068031753852e+02
1.773690211846606024e+00 5.693336675872697015e+02
1.773790233851447073e+00 5.693016176689289978e+02
1.773890255856288345e+00 5.692695572214087179e+02
1.773990277861129394e+00 5.692374864182493184e+02
1.774090299865970444e+00 5.692054054332846817e+02
1.774190321870811271e+00 5.691733144406504152e+02
1.774290343875652542e+00 5.691412136147930596e+02
1.774390365880493592e+00 5.691091031304758872e+02
1.774490387885334641e+00 5.690769831627902704e+02
1.774590409890175691e+00 5.690448538871619348e+02
1.774690431895016740e+00 5.690127154793583486e+02
1.774790453899858012e+00 5.689805681154980448e+02
1.774890475904698839e+00 5.689484119720584658e+02
1.774990497909539888e+00 5.689162472258827847e+02
1.775090519914380938e+00 5.688840740541882042e+02
1.775190541919222209e+00 5.688518926345731188e+02
1.775290563924063258e+00 5.688197031450266650e+02
1.775390585928904308e+00 5.687875057639326997e+02
1.775490607933745357e+00 5.687553006700795777e+02
1.775590629938586185e+00 5.687230880426697013e+02
1.775690651943427234e+00 5.686908680613199749e+02
1.775790673948268505e+00 5.686586409060757887e+02
1.775890695953109555e+00 5.686264067574162482e+02
1.775990717957950604e+00 5.685941657962586078e+02
1.776090739962791876e+00 5.685619182039690713e+02
1.776190761967632925e+00 5.685296641623657479e+02
1.776290783972473752e+00 5.684974038537293382e+02
1.776390805977314802e+00 5.684651374608068863e+02
1.776490827982155851e+00 5.684328651668201928e+02
1.776590849986996901e+00 5.684005871554717260e+02
1.776690871991838172e+00 5.683683036109511022e+02
1.776790893996679221e+00 5.683360147179400883e+02
1.776890916001520271e+00 5.683037206616235153e+02
1.776990938006361098e+00 5.682714216276891648e+02
1.777090960011202370e+00 5.682391178023395923e+02
1.777190982016043419e+00 5.682068093722936055e+02
1.777291004020884468e+00 5.681744965247961545e+02
1.777391026025725518e+00 5.681421794476218565e+02
1.777491048030566567e+00 5.681098583290807937e+02
1.777591070035407839e+00 5.680775333580262441e+02
1.777691092040248666e+00 5.680452047238576370e+02
1.777791114045089715e+00 5.680128726165286253e+02
1.777891136049930765e+00 5.679805372265501546e+02
1.777991158054772036e+00 5.679481987449991038e+02
1.778091180059613086e+00 5.679158573635201037e+02
1.778191202064454135e+00 5.678835132743329268e+02
1.778291224069295184e+00 5.678511666702364664e+02
1.778391246074136012e+00 5.678188177446144209e+02
1.778491268078977061e+00 5.677864666914415466e+02
1.778591290083818333e+00 5.677541137052858176e+02
1.778691312088659382e+00 5.677217589813143377e+02
1.778791334093500431e+00 5.676894027152994795e+02
1.778891356098341703e+00 5.676570451036212717e+02
1.778991378103182752e+00 5.676246863432745613e+02
1.779091400108023580e+00 5.675923266318691276e+02
1.779191422112864629e+00 5.675599661676396863e+02
1.779291444117705678e+00 5.675276051494457761e+02
1.779391466122546728e+00 5.674952437767766469e+02
1.779491488127387999e+00 5.674628822497580813e+02
1.779591510132229049e+00 5.674305207691528494e+02
1.779691532137070098e+00 5.673981595363673023e+02
1.779791554141910925e+00 5.673657987534525091e+02
1.779891576146752197e+00 5.673334386231106237e+02
1.779991598151593246e+00 5.673010793486972716e+02
1.780091620156434296e+00 5.672687211342250748e+02
1.780191642161275345e+00 5.672363641843669484e+02
1.780291664166116394e+00 5.672040087044603069e+02
1.780391686170957666e+00 5.671716549005091110e+02
1.780491708175798493e+00 5.671393029791883009e+02
1.780591730180639543e+00 5.671069531478455019e+02
1.780691752185480592e+00 5.670746056145056855e+02
1.780791774190321863e+00 5.670422605878716240e+02
1.780891796195162913e+00 5.670099182773298025e+02
1.780991818200003962e+00 5.669775788929511009e+02
1.781091840204845012e+00 5.669452426454926126e+02
1.781191862209685839e+00 5.669129097464026472e+02
1.781291884214526888e+00 5.668805804078212986e+02
1.781391906219368160e+00 5.668482548425835148e+02
1.781491928224209209e+00 5.668159332642210302e+02
1.781591950229050259e+00 5.667836158869640713e+02
1.781691972233891530e+00 5.667513029257449944e+02
1.781791994238732579e+00 5.667189945961980584e+02
1.781892016243573407e+00 5.666866911146631764e+02
1.781992038248414456e+00 5.666543926981862569e+02
1.782092060253255505e+00 5.666220995645228413e+02
1.782192082258096555e+00 5.665898119321358308e+02
1.782292104262937826e+00 5.665575300202020799e+02
1.782392126267778876e+00 5.665252540486092130e+02
1.782492148272619925e+00 5.664929842379600586e+02
1.782592170277460752e+00 5.664607208095719670e+02
1.782692192282302024e+00 5.664284639854779471e+02
1.782792214287143073e+00 5.663962139884304179e+02
1.782892236291984123e+00 5.663639710418972300e+02
1.782992258296825172e+00 5.663317353700670083e+02
1.783092280301666221e+00 5.662995071978471060e+02
1.783192302306507493e+00 5.662672867508658783e+02
1.783292324311348320e+00 5.662350742554718863e+02
1.783392346316189370e+00 5.662028699387345796e+02
1.783492368321030419e+00 5.661706740284455464e+02
1.783592390325871690e+00 5.661384867531179452e+02
1.783692412330712740e+00 5.661063083419869599e+02
1.783792434335553789e+00 5.660741390250086624e+02
1.783892456340394839e+00 5.660419790328626277e+02
1.783992478345235666e+00 5.660098285969479548e+02
1.784092500350076715e+00 5.659776879493872457e+02
1.784192522354917987e+00 5.659455573230223990e+02
1.784292544359759036e+00 5.659134369514180207e+02
1.784392566364600086e+00 5.658813270688555122e+02
1.784492588369441357e+00 5.658492279103387546e+02
1.784592610374282406e+00 5.658171397115887657e+02
1.784692632379123234e+00 5.657850627090446096e+02
1.784792654383964283e+00 5.657529971398618045e+02
1.784892676388805333e+00 5.657209432419132327e+02
1.784992698393646382e+00 5.656889012537842518e+02
1.785092720398487653e+00 5.656568714147756509e+02
1.785192742403328703e+00 5.656248539648992164e+02
1.785292764408169752e+00 5.655928491448777322e+02
1.785392786413010580e+00 5.655608571961436155e+02
1.785492808417851851e+00 5.655288783608361882e+02
1.785592830422692900e+00 5.654969128818019044e+02
1.785692852427533950e+00 5.654649610025899165e+02
1.785792874432374999e+00 5.654330229674517341e+02
1.785892896437216049e+00 5.654010990213400873e+02
1.785992918442057320e+00 5.653691894099059709e+02
1.786092940446898147e+00 5.653372943794943239e+02
1.786192962451739197e+00 5.653054141771457353e+02
1.786292984456580246e+00 5.652735490505917824e+02
1.786393006461421518e+00 5.652416992482515070e+02
1.786493028466262567e+00 5.652098650192322111e+02
1.786593050471103616e+00 5.651780466133238860e+02
1.786693072475944666e+00 5.651462442809956883e+02
1.786793094480785493e+00 5.651144582733977586e+02
1.786893116485626543e+00 5.650826888423528089e+02
1.786993138490467814e+00 5.650509362403573732e+02
1.787093160495308863e+00 5.650192007205752134e+02
1.787193182500149913e+00 5.649874825368366373e+02
1.787293204504991184e+00 5.649557819436339514e+02
1.787393226509832012e+00 5.649240991961187319e+02
1.787493248514673061e+00 5.648924345500977324e+02
1.787593270519514110e+00 5.648607882620285636e+02
1.787693292524355160e+00 5.648291605890184428e+02
1.787793314529196209e+00 5.647975517888178274e+02
1.787893336534037481e+00 5.647659621198172317e+02
1.787993358538878530e+00 5.647343918410444985e+02
1.788093380543719357e+00 5.647028412121599104e+02
1.788193402548560407e+00 5.646713104934502780e+02
1.788293424553401678e+00 5.646397999458284858e+02
1.788393446558242728e+00 5.646083098308246235e+02
1.788493468563083777e+00 5.645768404105857599e+02
1.788593490567924826e+00 5.645453919478694615e+02
1.788693512572765876e+00 5.645139647060381094e+02
1.788793534577606703e+00 5.644825589490556013e+02
1.788893556582447975e+00 5.644511749414826909e+02
1.788993578587289024e+00 5.644198129484719857e+02
1.789093600592130073e+00 5.643884732357616940e+02
1.789193622596971345e+00 5.643571560696717597e+02
1.789293644601812394e+00 5.643258617170987463e+02
1.789393666606653444e+00 5.642945904455099253e+02
1.789493688611494271e+00 5.642633425229387285e+02
1.789593710616335320e+00 5.642321182179781545e+02
1.789693732621176370e+00 5.642009177997763345e+02
1.789793754626017641e+00 5.641697415380306211e+02
1.789893776630858691e+00 5.641385897029815624e+02
1.789993798635699740e+00 5.641074625654066494e+02
1.790093820640541011e+00 5.640763603966167921e+02
1.790193842645381839e+00 5.640452834684472236e+02
1.790293864650222888e+00 5.640142320532532949e+02
1.790393886655063937e+00 5.639832064239036526e+02
1.790493908659904987e+00 5.639522068537754649e+02
1.790593930664746036e+00 5.639212336167456670e+02
1.790693952669587308e+00 5.638902869871865278e+02
1.790793974674428357e+00 5.638593672399573506e+02
1.790893996679269184e+00 5.638284746504010627e+02
1.790994018684110234e+00 5.637976094943339831e+02
1.791094040688951505e+00 5.637667720480405933e+02
1.791194062693792555e+00 5.637359625882675118e+02
1.791294084698633604e+00 5.637051813922157635e+02
1.791394106703474653e+00 5.636744287375337308e+02
1.791494128708315703e+00 5.636437049023096506e+02
1.791594150713156530e+00 5.636130101650655888e+02
1.791694172717997802e+00 5.635823448047495958e+02
1.791794194722838851e+00 5.635517091007289991e+02
1.791894216727679900e+00 5.635211033327809673e+02
1.791994238732521172e+00 5.634905277810881898e+02
1.792094260737362221e+00 5.634599827262281906e+02
1.792194282742203271e+00 5.634294684491683256e+02
1.792294304747044098e+00 5.633989852312562334e+02
1.792394326751885147e+00 5.633685333542123317e+02
1.792494348756726197e+00 5.633381131001226549e+02
1.792594370761567468e+00 5.633077247514312376e+02
1.792694392766408518e+00 5.632773685909305641e+02
1.792794414771249567e+00 5.632470449017542933e+02
1.792894436776090838e+00 5.632167539673690726e+02
1.792994458780931666e+00 5.631864960715664665e+02
1.793094480785772715e+00 5.631562714984546574e+02
1.793194502790613765e+00 5.631260805324479861e+02
1.793294524795454814e+00 5.630959234582627460e+02
1.793394546800295863e+00 5.630658005609047905e+02
1.793494568805137135e+00 5.630357121256616892e+02
1.793594590809978184e+00 5.630056584380959066e+02
1.793694612814819012e+00 5.629756397840333193e+02
1.793794634819660061e+00 5.629456564495555995e+02
1.793894656824501332e+00 5.629157087209925976e+02
1.793994678829342382e+00 5.628857968849119970e+02
1.794094700834183431e+00 5.628559212281084001e+02
1.794194722839024481e+00 5.628260820375980984e+02
1.794294744843865530e+00 5.627962796006062263e+02
1.794394766848706357e+00 5.627665142045608491e+02
1.794494788853547629e+00 5.627367861370803439e+02
1.794594810858388678e+00 5.627070956859662374e+02
1.794694832863229728e+00 5.626774431391916096e+02
1.794794854868070999e+00 5.626478287848954096e+02
1.794894876872912048e+00 5.626182529113672217e+02
1.794994898877753098e+00 5.625887158070430587e+02
1.795094920882593925e+00 5.625592177604912649e+02
1.795194942887434975e+00 5.625297590604062634e+02
1.795294964892276024e+00 5.625003399955954819e+02
1.795394986897117295e+00 5.624709608549710538e+02
1.795495008901958345e+00 5.624416219275402682e+02
1.795595030906799394e+00 5.624123235023940879e+02
1.795695052911640666e+00 5.623830658686982815e+02
1.795795074916481493e+00 5.623538493156819413e+02
1.795895096921322542e+00 5.623246741326286156e+02
1.795995118926163592e+00 5.622955406088639165e+02
1.796095140931004641e+00 5.622664490337479037e+02
1.796195162935845691e+00 5.622373996966621235e+02
1.796295184940686962e+00 5.622083928870007412e+02
1.796395206945528011e+00 5.621794288941584909e+02
1.796495228950368839e+00 5.621505080075215801e+02
1.796595250955209888e+00 5.621216305164559799e+02
1.796695272960051160e+00 5.620927967102970797e+02
1.796795294964892209e+00 5.620640068783372953e+02
1.796895316969733258e+00 5.620352613098199299e+02
1.796995338974574308e+00 5.620065602939208702e+02
1.797095360979415357e+00 5.619779041197452898e+02
1.797195382984256184e+00 5.619492930763105960e+02
1.797295404989097456e+00 5.619207274525382445e+02
1.797395426993938505e+00 5.618922075372428253e+02
1.797495448998779555e+00 5.618637336191197846e+02
1.797595471003620826e+00 5.618353059867343973e+02
1.797695493008461876e+00 5.618069249285102842e+02
1.797795515013302925e+00 5.617785907327179302e+02
1.797895537018143752e+00 5.617503036874658164e+02
1.797995559022984802e+00 5.617220640806850724e+02
1.798095581027825851e+00 5.616938722001199267e+02
1.798195603032667123e+00 5.616657283333157693e+02
1.798295625037508172e+00 5.616376327676092615e+02
1.798395647042349221e+00 5.616095857901133286e+02
1.798495669047190493e+00 5.615815876877088613e+02
1.798595691052031320e+00 5.615536387470307318e+02
1.798695713056872370e+00 5.615257392544560844e+02
1.798795735061713419e+00 5.614978894960947855e+02
1.798895757066554468e+00 5.614700897577746446e+02
1.798995779071395518e+00 5.614423403250319780e+02
1.799095801076236789e+00 5.614146414830968297e+02
1.799195823081077839e+00 5.613869935168838765e+02
1.799295845085918666e+00 5.613593967109787854e+02
1.799395867090759715e+00 5.613318513496270725e+02
1.799495889095600987e+00 5.613043577167197782e+02
1.799595911100442036e+00 5.612769160957850545e+02
1.799695933105283085e+00 5.612495267699715669e+02
1.799795955110124135e+00 5.612221900220408770e+02
1.799895977114965184e+00 5.611949061343510721e+02
1.799995999119806012e+00 5.611676753888466465e+02
1.800096021124647283e+00 5.611404980670466784e+02
1.800196043129488332e+00 5.611133744500297098e+02
1.800296065134329382e+00 5.610863048184251056e+02
1.800396087139170653e+00 5.610592894523973655e+02
1.800496109144011703e+00 5.610323286316345275e+02
1.800596131148852752e+00 5.610054226353382774e+02
1.800696153153693579e+00 5.609785717422064408e+02
1.800796175158534629e+00 5.609517762304245707e+02
1.800896197163375678e+00 5.609250363776515087e+02
1.800996219168216950e+00 5.608983524610073346e+02
1.801096241173057999e+00 5.608717247570607469e+02
1.801196263177899048e+00 5.608451535418162166e+02
1.801296285182740320e+00 5.608186390907009127e+02
1.801396307187581147e+00 5.607921816785507190e+02
1.801496329192422197e+00 5.607657815796030718e+02
1.801596351197263246e+00 5.607394390674749047e+02
1.801696373202104295e+00 5.607131544151595790e+02
1.801796395206945345e+00 5.606869278950068747e+02
1.801896417211786616e+00 5.606607597787137820e+02
1.801996439216627666e+00 5.606346503373090400e+02
1.802096461221468493e+00 5.606085998411444962e+02
1.802196483226309542e+00 5.605826085598772579e+02
1.802296505231150814e+00 5.605566767624591193e+02
1.802396527235991863e+00 5.605308047171246244e+02
1.802496549240832913e+00 5.605049926913750369e+02
1.802596571245673962e+00 5.604792409519687908e+02
1.802696593250515011e+00 5.604535497649064837e+02
1.802796615255355839e+00 5.604279193954172342e+02
1.802896637260197110e+00 5.604023501079481093e+02
1.802996659265038160e+00 5.603768421661471848e+02
1.803096681269879209e+00 5.603513958328560420e+02
1.803196703274720480e+00 5.603260113700906686e+02
1.803296725279561530e+00 5.603006890390325907e+02
1.803396747284402579e+00 5.602754291000128433e+02
1.803496769289243407e+00 5.602502318125024203e+02
1.803596791294084456e+00 5.602250974350954493e+02
1.803696813298925505e+00 5.602000262254980498e+02
1.803796835303766777e+00 5.601750184405143500e+02
1.803896857308607826e+00 5.601500743360337538e+02
1.803996879313448876e+00 5.601251941670187762e+02
1.804096901318290147e+00 5.601003781874890137e+02
1.804196923323130974e+00 5.600756266505111398e+02
1.804296945327972024e+00 5.600509398081835570e+02
1.804396967332813073e+00 5.600263179116236643e+02
1.804496989337654123e+00 5.600017612109559195e+02
1.804597011342495172e+00 5.599772699552972881e+02
1.804697033347336443e+00 5.599528443927432590e+02
1.804797055352177271e+00 5.599284847703582955e+02
1.804897077357018320e+00 5.599041913341569625e+02
1.804997099361859370e+00 5.598799643290966515e+02
1.805097121366700641e+00 5.598558039990598445e+02
1.805197143371541690e+00 5.598317105868432009e+02
1.805297165376382740e+00 5.598076843341442554e+02
1.805397187381223789e+00 5.597837254815468668e+02
1.805497209386064617e+00 5.597598342685093940e+02
1.805597231390905666e+00 5.597360109333520768e+02
1.805697253395746937e+00 5.597122557132412339e+02
1.805797275400587987e+00 5.596885688441782349e+02
1.805897297405429036e+00 5.596649505609856305e+02
1.805997319410270308e+00 5.596414010972952155e+02
1.806097341415111357e+00 5.596179206855332495e+02
1.806197363419952184e+00 5.595945095569064733e+02
1.806297385424793234e+00 5.595711679413921047e+02
1.806397407429634283e+00 5.595478960677227178e+02
1.806497429434475332e+00 5.595246941633732831e+02
1.806597451439316604e+00 5.595015624545476385e+02
1.806697473444157653e+00 5.594785011661668932e+02
1.806797495448998703e+00 5.594555105218546487e+02
1.806897517453839530e+00 5.594325907439254024e+02
1.806997539458680802e+00 5.594097420533701097e+02
1.807097561463521851e+00 5.593869646698444740e+02
1.807197583468362900e+00 5.593642588116555316e+02
1.807297605473203950e+00 5.593416246957476687e+02
1.807397627478044999e+00 5.593190625376913658e+02
1.807497649482886271e+00 5.592965725516695557e+02
1.807597671487727098e+00 5.592741549504629575e+02
1.807697693492568147e+00 5.592518099454405274e+02
1.807797715497409197e+00 5.592295377465434285e+02
1.807897737502250468e+00 5.592073385622749129e+02
1.807997759507091518e+00 5.591852125996845189e+02
1.808097781511932567e+00 5.591631600643584079e+02
1.808197803516773616e+00 5.591411811604040167e+02
1.808297825521614444e+00 5.591192760904384613e+02
1.808397847526455493e+00 5.590974450555754629e+02
1.808497869531296764e+00 5.590756882554132972e+02
1.808597891536137814e+00 5.590540058880214929e+02
1.808697913540978863e+00 5.590323981499278716e+02
1.808797935545820135e+00 5.590108652361066106e+02
1.808897957550661184e+00 5.589894073399657373e+02
1.808997979555502011e+00 5.589680246533336003e+02
1.809098001560343061e+00 5.589467173664476149e+02
1.809198023565184110e+00 5.589254856679403929e+02
1.809298045570025160e+00 5.589043297448292833e+02
1.809398067574866431e+00 5.588832497825007977e+02
1.809498089579707480e+00 5.588622459647016285e+02
1.809598111584548530e+00 5.588413184735245522e+02
1.809698133589389357e+00 5.588204674893958099e+02
1.809798155594230629e+00 5.587996931910633975e+02
1.809898177599071678e+00 5.587789957555844467e+02
1.809998199603912727e+00 5.587583753583144244e+02
1.810098221608753777e+00 5.587378321728934907e+02
1.810198243613594826e+00 5.587173663712335383e+02
1.810298265618436098e+00 5.586969781235089840e+02
1.810398287623276925e+00 5.586766675981411936e+02
1.810498309628117974e+00 5.586564349617901826e+02
1.810598331632959024e+00 5.586362803793401781e+02
1.810698353637800295e+00 5.586162040138874545e+02
1.810798375642641345e+00 5.585962060267304423e+02
1.810898397647482394e+00 5.585762865773560861e+02
1.810998419652323443e+00 5.585564458234293852e+02
1.811098441657164271e+00 5.585366839207808880e+02
1.811198463662005320e+00 5.585170010233943003e+02
1.811298485666846592e+00 5.584973972833969356e+02
1.811398507671687641e+00 5.584778728510458450e+02
1.811498529676528690e+00 5.584584278747182680e+02
1.811598551681369962e+00 5.584390625008987854e+02
1.811698573686211011e+00 5.584197768741673826e+02
1.811798595691051839e+00 5.584005711371913776e+02
1.811898617695892888e+00 5.583814454307090500e+02
1.811998639700733937e+00 5.583623998935222517e+02
1.812098661705574987e+00 5.583434346624848104e+02
1.812198683710416258e+00 5.583245498724884328e+02
1.812298705715257308e+00 5.583057456564550876e+02
1.812398727720098357e+00 5.582870221453241584e+02
1.812498749724939184e+00 5.582683794680411893e+02
1.812598771729780456e+00 5.582498177515493580e+02
1.812698793734621505e+00 5.582313371207744694e+02
1.812798815739462555e+00 5.582129376986175657e+02
1.812898837744303604e+00 5.581946196059434442e+02
1.812998859749144653e+00 5.581763829615682653e+02
1.813098881753985925e+00 5.581582278822518219e+02
1.813198903758826752e+00 5.581401544826836698e+02
1.813298925763667802e+00 5.581221628754742596e+02
1.813398947768508851e+00 5.581042531711465244e+02
1.813498969773350122e+00 5.580864254781207592e+02
1.813598991778191172e+00 5.580686799027090501e+02
1.813699013783032221e+00 5.580510165491018597e+02
1.813799035787873271e+00 5.580334355193580222e+02
1.813899057792714098e+00 5.580159369133982636e+02
1.813999079797555147e+00 5.579985208289890579e+02
1.814099101802396419e+00 5.579811873617379661e+02
1.814199123807237468e+00 5.579639366050806757e+02
1.814299145812078518e+00 5.579467686502725883e+02
1.814399167816919789e+00 5.579296835863782462e+02
1.814499189821760838e+00 5.579126815002629201e+02
1.814599211826601666e+00 5.578957624765807850e+02
1.814699233831442715e+00 5.578789265977661671e+02
1.814799255836283765e+00 5.578621739440263809e+02
1.814899277841124814e+00 5.578455045933274050e+02
1.814999299845966085e+00 5.578289186213899029e+02
1.815099321850807135e+00 5.578124161016766038e+02
1.815199343855648184e+00 5.577959971053844583e+02
1.815299365860489011e+00 5.577796617014329286e+02
1.815399387865330283e+00 5.577634099564600092e+02
1.815499409870171332e+00 5.577472419348076755e+02
1.815599431875012382e+00 5.577311576985177908e+02
1.815699453879853431e+00 5.577151573073193731e+02
1.815799475884694480e+00 5.576992408186213197e+02
1.815899497889535752e+00 5.576834082875060403e+02
1.815999519894376579e+00 5.576676597667169517e+02
1.816099541899217629e+00 5.576519953066519975e+02
1.816199563904058678e+00 5.576364149553555762e+02
1.816299585908899950e+00 5.576209187585091058e+02
1.816399607913740999e+00 5.576055067594236334e+02
1.816499629918582048e+00 5.575901789990316502e+02
1.816599651923423098e+00 5.575749355158787921e+02
1.816699673928263925e+00 5.575597763461141767e+02
1.816799695933104974e+00 5.575447015234852870e+02
1.816899717937946246e+00 5.575297110793292177e+02
1.816999739942787295e+00 5.575148050425639212e+02
1.817099761947628345e+00 5.574999834396819551e+02
1.817199783952469616e+00 5.574852462947408185e+02
1.817299805957310666e+00 5.574705936293577224e+02
1.817399827962151493e+00 5.574560254627014046e+02
1.817499849966992542e+00 5.574415418114840577e+02
1.817599871971833592e+00 5.574271426899554172e+02
1.817699893976674641e+00 5.574128281098944626e+02
1.817799915981515912e+00 5.573985980806030511e+02
1.817899937986356962e+00 5.573844526088986413e+02
1.817999959991198011e+00 5.573703916991075857e+02
1.818099981996038839e+00 5.573564153530580825e+02
1.818200004000880110e+00 5.573425235700749454e+02
1.818300026005721159e+00 5.573287163469701682e+02
1.818400048010562209e+00 5.573149936780389453e+02
1.818500070015403258e+00 5.573013555550521687e+02
1.818600092020244308e+00 5.572878019672509708e+02
1.818700114025085579e+00 5.572743329013389939e+02
1.818800136029926406e+00 5.572609483414782972e+02
1.818900158034767456e+00 5.572476482692812851e+02
1.819000180039608505e+00 5.572344326638062739e+02
1.819100202044449777e+00 5.572213015015507835e+02
1.819200224049290826e+00 5.572082547564472179e+02
1.819300246054131875e+00 5.571952923998544520e+02
1.819400268058972925e+00 5.571824144005560129e+02
1.819500290063813752e+00 5.571696207247512120e+02
1.819600312068654802e+00 5.571569113360523033e+02
1.819700334073496073e+00 5.571442861954778891e+02
1.819800356078337122e+00 5.571317452614480317e+02
1.819900378083178172e+00 5.571192884897795921e+02
1.820000400088019443e+00 5.571069158336803184e+02
1.820100422092860493e+00 5.570946272437469133e+02
1.820200444097701320e+00 5.570824226679559388e+02
1.820300466102542369e+00 5.570703020516624520e+02
1.820400488107383419e+00 5.570582653375946620e+02
1.820500510112224468e+00 5.570463124658482457e+02
1.820600532117065740e+00 5.570344433738848693e+02
1.820700554121906789e+00 5.570226579965252540e+02
1.820800576126747838e+00 5.570109562659464473e+02
1.820900598131588666e+00 5.569993381116762521e+02
1.821000620136429937e+00 5.569878034605924313e+02
1.821100642141270987e+00 5.569763522369158864e+02
1.821200664146112036e+00 5.569649843622089520e+02
1.821300686150953085e+00 5.569536997553699393e+02
1.821400708155794135e+00 5.569424983326315441e+02
1.821500730160635406e+00 5.569313800075569816e+02
1.821600752165476234e+00 5.569203446910360071e+02
1.821700774170317283e+00 5.569093922912825292e+02
1.821800796175158332e+00 5.568985227138305163e+02
1.821900818179999604e+00 5.568877358615332014e+02
1.822000840184840653e+00 5.568770316345576248e+02
1.822100862189681703e+00 5.568664099303849753e+02
1.822200884194522530e+00 5.568558706438044510e+02
1.822300906199363579e+00 5.568454136669139416e+02
1.822400928204204629e+00 5.568350388891152534e+02
1.822500950209045900e+00 5.568247461971142229e+02
1.822600972213886950e+00 5.568145354749160560e+02
1.822700994218727999e+00 5.568044066038255551e+02
1.822801016223569270e+00 5.567943594624430261e+02
1.822901038228410098e+00 5.567843939266653024e+02
1.823001060233251147e+00 5.567745098696811965e+02
1.823101082238092197e+00 5.567647071619704775e+02
1.823201104242933246e+00 5.567549856713053487e+02
1.823301126247774295e+00 5.567453452627436263e+02
1.823401148252615567e+00 5.567357857986337422e+02
1.823501170257456616e+00 5.567263071386083766e+02
1.823601192262297443e+00 5.567169091395863916e+02
1.823701214267138493e+00 5.567075916557714663e+02
1.823801236271979764e+00 5.566983545386503920e+02
1.823901258276820814e+00 5.566891976369931854e+02
1.824001280281661863e+00 5.566801207968519520e+02
1.824101302286502913e+00 5.566711238615621369e+02
1.824201324291343962e+00 5.566622066717399093e+02
1.824301346296184789e+00 5.566533690652826181e+02
1.824401368301026061e+00 5.566446108773701553e+02
1.824501390305867110e+00 5.566359319404625694e+02
1.824601412310708159e+00 5.566273320843029069e+02
1.824701434315549431e+00 5.566188111359155073e+02
1.824801456320390480e+00 5.566103689196070263e+02
1.824901478325231530e+00 5.566020052569670042e+02
1.825001500330072357e+00 5.565937199668678659e+02
1.825101522334913406e+00 5.565855128654667396e+02
1.825201544339754456e+00 5.565773837662061396e+02
1.825301566344595727e+00 5.565693324798132835e+02
1.825401588349436777e+00 5.565613588143032757e+02
1.825501610354277826e+00 5.565534625749795623e+02
1.825601632359119098e+00 5.565456435644354087e+02
1.825701654363959925e+00 5.565379015825544684e+02
1.825801676368800974e+00 5.565302364265130564e+02
1.825901698373642024e+00 5.565226478907823093e+02
1.826001720378483073e+00 5.565151357671294363e+02
1.826101742383324122e+00 5.565076998446195375e+02
1.826201764388165394e+00 5.565003399096171961e+02
1.826301786393006443e+00 5.564930557457909117e+02
1.826401808397847271e+00 5.564858471341115091e+02
1.826501830402688320e+00 5.564787138528582773e+02
1.826601852407529591e+00 5.564716556776203333e+02
1.826701874412370641e+00 5.564646723812974187e+02
1.826801896417211690e+00 5.564577637341054697e+02
1.826901918422052740e+00 5.564509295035777541e+02
1.827001940426893789e+00 5.564441694545680548e+02
1.827101962431734616e+00 5.564374833492547623e+02
1.827201984436575888e+00 5.564308709471431484e+02
1.827302006441416937e+00 5.564243320050687771e+02
1.827402028446257987e+00 5.564178662772017105e+02
1.827502050451099258e+00 5.564114735150496927e+02
1.827602072455940307e+00 5.564051534674607637e+02
1.827702094460781357e+00 5.563989058806305366e+02
1.827802116465622184e+00 5.563927304981011730e+02
1.827902138470463234e+00 5.563866270607705928e+02
1.828002160475304283e+00 5.563805953068929284e+02
1.828102182480145554e+00 5.563746349720842090e+02
1.828202204484986604e+00 5.563687457893272494e+02
1.828302226489827653e+00 5.563629274889758562e+02
1.828402248494668925e+00 5.563571797987600576e+02
1.828502270499509752e+00 5.563515024437890588e+02
1.828602292504350801e+00 5.563458951465584050e+02
1.828702314509191851e+00 5.563403576269538462e+02
1.828802336514032900e+00 5.563348896022575900e+02
1.828902358518873950e+00 5.563294907871521673e+02
1.829002380523715221e+00 5.563241608937264573e+02
1.829102402528556270e+00 5.563188996314820542e+02
1.829202424533397098e+00 5.563137067073375874e+02
1.829302446538238147e+00 5.563085818256359971e+02
1.829402468543079419e+00 5.563035246881487410e+02
1.829502490547920468e+00 5.562985349940838660e+02
1.829602512552761517e+00 5.562936124400896460e+02
1.829702534557602567e+00 5.562887567202642458e+02
1.829802556562443616e+00 5.562839675261576531e+02
1.829902578567284444e+00 5.562792445467831612e+02
1.830002600572125715e+00 5.562745874686204388e+02
1.830102622576966764e+00 5.562699959756231465e+02
1.830202644581807814e+00 5.562654697492266678e+02
1.830302666586649085e+00 5.562610084683544756e+02
1.830402688591490135e+00 5.562566118094258627e+02
1.830502710596331184e+00 5.562522794463612854e+02
1.830602732601172011e+00 5.562480110505928224e+02
1.830702754606013061e+00 5.562438062910688359e+02
1.830802776610854110e+00 5.562396648342630670e+02
1.830902798615695382e+00 5.562355863441823658e+02
1.831002820620536431e+00 5.562315704823738542e+02
1.831102842625377480e+00 5.562276169079328838e+02
1.831202864630218752e+00 5.562237252775126990e+02
1.831302886635059579e+00 5.562198952453304628e+02
1.831402908639900629e+00 5.562161264631766926e+02
1.831502930644741678e+00 5.562124185804237868e+02
1.831602952649582727e+00 5.562087712440339828e+02
1.831702974654423777e+00 5.562051840985694753e+02
1.831802996659265048e+00 5.562016567861992371e+02
1.831903018664106098e+00 5.561981889467083420e+02
1.832003040668946925e+00 5.561947802175097877e+02
1.832103062673787974e+00 5.561914302336489300e+02
1.832203084678629246e+00 5.561881386278174659e+02
1.832303106683470295e+00 5.561849050303585500e+02
1.832403128688311345e+00 5.561817290692795268e+02
1.832503150693152394e+00 5.561786103702597757e+02
1.832603172697993443e+00 5.561755485566624202e+02
1.832703194702834271e+00 5.561725432495411496e+02
1.832803216707675542e+00 5.561695940676529517e+02
1.832903238712516591e+00 5.561667006274668665e+02
1.833003260717357641e+00 5.561638625431738774e+02
1.833103282722198912e+00 5.561610794266993025e+02
1.833203304727039962e+00 5.561583508877098438e+02
1.833303326731881011e+00 5.561556765336274566e+02
1.833403348736721838e+00 5.561530559696382170e+02
1.833503370741562888e+00 5.561504887987033499e+02
1.833603392746403937e+00 5.561479746215704836e+02
1.833703414751245209e+00 5.561455130367837683e+02
1.833803436756086258e+00 5.561431036406963813e+02
1.833903458760927307e+00 5.561407460274820096e+02
1.834003480765768579e+00 5.561384397891426943e+02
1.834103502770609406e+00 5.561361845155250876e+02
1.834203524775450456e+00 5.561339797943284111e+02
1.834303546780291505e+00 5.561318252111184393e+02
1.834403568785132554e+00 5.561297203493379584e+02
1.834503590789973604e+00 5.561276647903192725e+02
1.834603612794814875e+00 5.561256581132952306e+02
1.834703634799655925e+00 5.561236998954135515e+02
1.834803656804496752e+00 5.561217897117461462e+02
1.834903678809337801e+00 5.561199271353044651e+02
1.835003700814179073e+00 5.561181117370496167e+02
1.835103722819020122e+00 5.561163430859057826e+02
1.835203744823861172e+00 5.561146207487730635e+02
1.835303766828702221e+00 5.561129442905399856e+02
1.835403788833543270e+00 5.561113132740966876e+02
1.835503810838384098e+00 5.561097272603487909e+02
1.835603832843225369e+00 5.561081858082268354e+02
1.835703854848066419e+00 5.561066884747042423e+02
1.835803876852907468e+00 5.561052348148085684e+02
1.835903898857748739e+00 5.561038243816334443e+02
1.836003920862589789e+00 5.561024567263547169e+02
1.836103942867430838e+00 5.561011313982421598e+02
1.836203964872271666e+00 5.560998479446750480e+02
1.836303986877112715e+00 5.560986059111535269e+02
1.836404008881953764e+00 5.560974048413152104e+02
1.836504030886795036e+00 5.560962442769466634e+02
1.836604052891636085e+00 5.560951237579998860e+02
1.836704074896477135e+00 5.560940428226056156e+02
1.836804096901318406e+00 5.560930010070865137e+02
1.836904118906159233e+00 5.560919978459743334e+02
1.837004140911000283e+00 5.560910328720202642e+02
1.837104162915841332e+00 5.560901056162158511e+02
1.837204184920682382e+00 5.560892156078015205e+02
1.837304206925523431e+00 5.560883623742840882e+02
1.837404228930364702e+00 5.560875454414525620e+02
1.837504250935205752e+00 5.560867643333917840e+02
1.837604272940046579e+00 5.560860185724988014e+02
1.837704294944887629e+00 5.560853076794961680e+02
1.837804316949728900e+00 5.560846311734494520e+02
1.837904338954569949e+00 5.560839885717812194e+02
1.838004360959410999e+00 5.560833793902876323e+02
1.838104382964252048e+00 5.560828031431534555e+02
1.838204404969093098e+00 5.560822593429677454e+02
1.838304426973933925e+00 5.560817475007396524e+02
1.838404448978775196e+00 5.560812671259151330e+02
1.838504470983616246e+00 5.560808177263916150e+02
1.838604492988457295e+00 5.560803988085348237e+02
1.838704514993298567e+00 5.560800098771960620e+02
1.838804536998139616e+00 5.560796504357258527e+02
1.838904559002980665e+00 5.560793199859933793e+02
1.839004581007821493e+00 5.560790180284008102e+02
1.839104603012662542e+00 5.560787440619000108e+02
1.839204625017503592e+00 5.560784975840109610e+02
1.839304647022344863e+00 5.560782780908353971e+02
1.839404669027185912e+00 5.560780850770770485e+02
1.839504691032026962e+00 5.560779180360564169e+02
1.839604713036867789e+00 5.560777764597282840e+02
1.839704735041709061e+00 5.560776598386989917e+02
1.839804757046550110e+00 5.560775676622429273e+02
1.839904779051391159e+00 5.560774994183216222e+02
1.840004801056232209e+00 5.560774545935978495e+02
