2.400020006001800432e+00 5.384589747845872125e+02
2.400120036010803481e+00 5.384803905609635422e+02
2.400220066019806087e+00 5.385017316350767942e+02
2.400320096028808692e+00 5.385229973225495996e+02
2.400420126037811297e+00 5.385441869408856519e+02
2.400520156046814346e+00 5.385652998094966506e+02
2.400620186055816951e+00 5.385863352497243568e+02
2.400720216064819557e+00 5.386072925848621935e+02
2.400820246073822162e+00 5.386281711401823031e+02
2.400920276082824767e+00 5.386489702429545332e+02
2.401020306091827816e+00 5.386696892224729254e+02
2.401120336100830421e+00 5.386903274100764065e+02
2.401220366109833027e+00 5.387108841391739134e+02
2.401320396118836076e+00 5.387313587452653110e+02
2.401420426127838681e+00 5.387517505659657218e+02
2.401520456136841286e+00 5.387720589410274670e+02
2.401620486145843891e+00 5.387922832123634862e+02
2.401720516154846496e+00 5.388124227240693926e+02
2.401820546163849102e+00 5.388324768224467789e+02
2.401920576172852151e+00 5.388524448560250448e+02
2.402020606181854756e+00 5.388723261755837939e+02
2.402120636190857361e+00 5.388921201341773894e+02
2.402220666199860410e+00 5.389118260871523489e+02
2.402320696208862572e+00 5.389314433921764476e+02
2.402420726217865621e+00 5.389509714092544073e+02
2.402520756226868226e+00 5.389704095007548403e+02
2.402620786235870831e+00 5.389897570314283257e+02
2.402720816244873436e+00 5.390090133684329885e+02
2.402820846253876486e+00 5.390281778813537130e+02
2.402920876262879091e+00 5.390472499422257897e+02
2.403020906271881696e+00 5.390662289255549240e+02
2.403120936280884301e+00 5.390851142083403147e+02
2.403220966289886906e+00 5.391039051700953451e+02
2.403320996298889511e+00 5.391226011928699791e+02
2.403421026307892561e+00 5.391412016612712250e+02
2.403521056316895166e+00 5.391597059624840540e+02
2.403621086325898215e+00 5.391781134862951603e+02
2.403721116334900820e+00 5.391964236251106968e+02
2.403821146343903425e+00 5.392146357739801488e+02
2.403921176352906031e+00 5.392327493306158885e+02
2.404021206361908636e+00 5.392507636954139798e+02
2.404121236370911241e+00 5.392686782714763467e+02
2.404221266379914290e+00 5.392864924646295322e+02
2.404321296388916895e+00 5.393042056834466393e+02
2.404421326397919501e+00 5.393218173392687049e+02
2.404521356406922550e+00 5.393393268462232299e+02
2.404621386415924711e+00 5.393567336212445298e+02
2.404721416424927760e+00 5.393740370840968126e+02
2.404821446433930365e+00 5.393912366573908912e+02
2.404921476442932970e+00 5.394083317666069206e+02
2.405021506451935576e+00 5.394253218401128152e+02
2.405121536460938625e+00 5.394422063091842574e+02
2.405221566469941230e+00 5.394589846080262987e+02
2.405321596478943835e+00 5.394756561737906395e+02
2.405421626487946440e+00 5.394922204465960931e+02
2.405521656496949046e+00 5.395086768695497312e+02
2.405621686505951651e+00 5.395250248887631415e+02
2.405721716514954700e+00 5.395412639533753918e+02
2.405821746523957305e+00 5.395573935155686058e+02
2.405921776532959910e+00 5.395734130305913823e+02
2.406021806541962960e+00 5.395893219567720962e+02
2.406121836550965565e+00 5.396051197555445924e+02
2.406221866559968170e+00 5.396208058914603498e+02
2.406321896568970775e+00 5.396363798322136063e+02
2.406421926577973380e+00 5.396518410486534094e+02
2.406521956586975985e+00 5.396671890148082866e+02
2.406621986595979035e+00 5.396824232078997738e+02
2.406722016604981640e+00 5.396975431083644708e+02
2.406822046613984689e+00 5.397125481998706391e+02
2.406922076622986850e+00 5.397274379693343462e+02
2.407022106631989899e+00 5.397422119069411792e+02
2.407122136640992505e+00 5.397568695061614790e+02
2.407222166649995110e+00 5.397714102637693259e+02
2.407322196658997715e+00 5.397858336798606160e+02
2.407422226668000764e+00 5.398001392578673858e+02
2.407522256677003369e+00 5.398143265045807766e+02
2.407622286686005975e+00 5.398283949301626308e+02
2.407722316695008580e+00 5.398423440481682292e+02
2.407822346704011185e+00 5.398561733755570913e+02
2.407922376713013790e+00 5.398698824327163948e+02
2.408022406722016839e+00 5.398834707434738220e+02
2.408122436731019445e+00 5.398969378351144996e+02
2.408222466740022050e+00 5.399102832384007797e+02
2.408322496749025099e+00 5.399235064875847456e+02
2.408422526758027704e+00 5.399366071204266291e+02
2.408522556767030309e+00 5.399495846782114086e+02
2.408622586776032914e+00 5.399624387057648391e+02
2.408722616785035520e+00 5.399751687514686864e+02
2.408822646794038125e+00 5.399877743672767565e+02
2.408922676803041174e+00 5.400002551087326310e+02
2.409022706812043779e+00 5.400126105349821728e+02
2.409122736821046384e+00 5.400248402087923978e+02
2.409222766830048990e+00 5.400369436965648902e+02
2.409322796839052039e+00 5.400489205683504679e+02
2.409422826848054200e+00 5.400607703978683958e+02
2.409522856857057249e+00 5.400724927625157079e+02
2.409622886866059854e+00 5.400840872433878985e+02
2.409722916875062904e+00 5.400955534252888128e+02
2.409822946884065509e+00 5.401068908967489506e+02
2.409922976893068114e+00 5.401180992500385400e+02
2.410023006902070719e+00 5.401291780811819763e+02
2.410123036911073324e+00 5.401401269899733961e+02
2.410223066920075929e+00 5.401509455799891839e+02
2.410323096929078979e+00 5.401616334586027506e+02
2.410423126938081584e+00 5.401721902369988584e+02
2.410523156947084189e+00 5.401826155301884000e+02
2.410623186956087238e+00 5.401929089570189717e+02
2.410723216965089843e+00 5.402030701401918122e+02
2.410823246974092449e+00 5.402130987062739678e+02
2.410923276983095054e+00 5.402229942857110245e+02
2.411023306992097659e+00 5.402327565128414335e+02
2.411123337001100264e+00 5.402423850259085611e+02
2.411223367010103313e+00 5.402518794670742182e+02
2.411323397019105919e+00 5.402612394824320745e+02
2.411423427028108524e+00 5.402704647220186871e+02
2.411523457037111129e+00 5.402795548398270284e+02
2.411623487046114178e+00 5.402885094938201291e+02
2.411723517055116339e+00 5.402973283459402865e+02
2.411823547064119388e+00 5.403060110621249805e+02
2.411923577073121994e+00 5.403145573123144914e+02
2.412023607082124599e+00 5.403229667704686108e+02
2.412123637091127648e+00 5.403312391145748279e+02
2.412223667100130253e+00 5.403393740266612895e+02
2.412323697109132858e+00 5.403473711928074863e+02
2.412423727118135464e+00 5.403552303031572137e+02
2.412523757127138069e+00 5.403629510519278938e+02
2.412623787136141118e+00 5.403705331374226262e+02
2.412723817145143723e+00 5.403779762620415568e+02
2.412823847154146328e+00 5.403852801322908590e+02
2.412923877163149378e+00 5.403924444587961489e+02
2.413023907172151983e+00 5.403994689563093061e+02
2.413123937181154588e+00 5.404063533437231399e+02
2.413223967190157193e+00 5.404130973440775279e+02
2.413323997199159798e+00 5.404197006845730584e+02
2.413424027208162403e+00 5.404261630965773975e+02
2.413524057217165453e+00 5.404324843156387033e+02
2.413624087226168058e+00 5.404386640814929024e+02
2.413724117235170663e+00 5.404447021380731258e+02
2.413824147244173268e+00 5.404505982335215322e+02
2.413924177253176317e+00 5.404563521201949925e+02
2.414024207262178479e+00 5.404619635546769132e+02
2.414124237271181528e+00 5.404674322977862175e+02
2.414224267280184133e+00 5.404727581145830300e+02
2.414324297289186738e+00 5.404779407743819775e+02
2.414424327298189787e+00 5.404829800507557138e+02
2.414524357307192393e+00 5.404878757215482210e+02
2.414624387316194998e+00 5.404926275688785609e+02
2.414724417325197603e+00 5.404972353791534943e+02
2.414824447334200208e+00 5.405016989430707781e+02
2.414924477343202813e+00 5.405060180556297382e+02
2.415024507352205863e+00 5.405101925161394547e+02
2.415124537361208468e+00 5.405142221282235369e+02
2.415224567370211073e+00 5.405181066998295591e+02
2.415324597379214122e+00 5.405218460432370193e+02
2.415424627388216727e+00 5.405254399750617722e+02
2.415524657397219332e+00 5.405288883162644424e+02
2.415624687406221938e+00 5.405321908921579279e+02
2.415724717415224543e+00 5.405353475324124020e+02
2.415824747424227592e+00 5.405383580710630440e+02
2.415924777433230197e+00 5.405412223465152692e+02
2.416024807442232802e+00 5.405439402015518908e+02
2.416124837451235408e+00 5.405465114833393727e+02
2.416224867460238457e+00 5.405489360434321497e+02
2.416324897469240618e+00 5.405512137377797899e+02
2.416424927478243667e+00 5.405533444267313143e+02
2.416524957487246272e+00 5.405553279750423599e+02
2.416624987496248878e+00 5.405571642518793851e+02
2.416725017505251927e+00 5.405588531308242182e+02
2.416825047514254532e+00 5.405603944898805366e+02
2.416925077523257137e+00 5.405617882114771646e+02
2.417025107532259742e+00 5.405630341824734160e+02
2.417125137541262347e+00 5.405641322941647786e+02
2.417225167550264953e+00 5.405650824422846199e+02
2.417325197559268002e+00 5.405658845270111215e+02
2.417425227568270607e+00 5.405665384529695530e+02
2.417525257577273212e+00 5.405670441292370469e+02
2.417625287586276261e+00 5.405674014693462368e+02
2.417725317595278867e+00 5.405676103912887811e+02
2.417825347604281472e+00 5.405676708175186604e+02
2.417925377613284077e+00 5.405675826749555881e+02
2.418025407622286682e+00 5.405673458949886481e+02
2.418125437631289287e+00 5.405669604134781139e+02
2.418225467640292337e+00 5.405664261707607920e+02
2.418325497649294942e+00 5.405657431116485441e+02
2.418425527658297547e+00 5.405649111854356761e+02
2.418525557667300596e+00 5.405639303458976883e+02
2.418625587676302757e+00 5.405628005512951404e+02
2.418725617685305807e+00 5.405615217643753567e+02
2.418825647694308412e+00 5.405600939523749275e+02
2.418925677703311017e+00 5.405585170870201637e+02
2.419025707712314066e+00 5.405567911445302798e+02
2.419125737721316671e+00 5.405549161056173944e+02
2.419225767730319276e+00 5.405528919554899403e+02
2.419325797739321882e+00 5.405507186838518692e+02
2.419425827748324487e+00 5.405483962849039017e+02
2.419525857757327092e+00 5.405459247573452330e+02
2.419625887766330141e+00 5.405433041043744424e+02
2.419725917775332746e+00 5.405405343336886972e+02
2.419825947784335352e+00 5.405376154574854581e+02
2.419925977793338401e+00 5.405345474924617974e+02
2.420026007802341006e+00 5.405313304598145123e+02
2.420126037811343611e+00 5.405279643852420577e+02
2.420226067820346216e+00 5.405244492989419314e+02
2.420326097829348821e+00 5.405207852356106741e+02
2.420426127838351427e+00 5.405169722344446654e+02
2.420526157847354476e+00 5.405130103391378498e+02
2.420626187856357081e+00 5.405088995978829871e+02
2.420726217865359686e+00 5.405046400633679013e+02
2.420826247874362736e+00 5.405002317927772992e+02
2.420926277883364897e+00 5.404956748477890187e+02
2.421026307892367946e+00 5.404909692945745974e+02
2.421126337901370551e+00 5.404861152037955208e+02
2.421226367910373156e+00 5.404811126506042456e+02
2.421326397919375761e+00 5.404759617146396522e+02
2.421426427928378811e+00 5.404706624800261352e+02
2.421526457937381416e+00 5.404652150353728075e+02
2.421626487946384021e+00 5.404596194737680435e+02
2.421726517955386626e+00 5.404538758927797062e+02
2.421826547964389231e+00 5.404479843944511686e+02
2.421926577973392281e+00 5.404419450852994942e+02
2.422026607982394886e+00 5.404357580763100941e+02
2.422126637991397491e+00 5.404294234829378638e+02
2.422226668000400540e+00 5.404229414250987702e+02
2.422326698009403145e+00 5.404163120271712160e+02
2.422426728018405750e+00 5.404095354179900141e+02
2.422526758027408356e+00 5.404026117308413859e+02
2.422626788036410961e+00 5.403955411034628469e+02
2.422726818045413566e+00 5.403883236780349080e+02
2.422826848054416615e+00 5.403809596011811891e+02
2.422926878063419220e+00 5.403734490239604611e+02
2.423026908072421826e+00 5.403657921018643719e+02
2.423126938081424875e+00 5.403579889948117625e+02
2.423226968090427036e+00 5.403500398671440053e+02
2.423326998099430085e+00 5.403419448876218212e+02
2.423427028108432690e+00 5.403337042294167532e+02
2.423527058117435296e+00 5.403253180701090059e+02
2.423627088126437901e+00 5.403167865916806250e+02
2.423727118135440950e+00 5.403081099805101530e+02
2.423827148144443555e+00 5.402992884273680829e+02
2.423927178153446160e+00 5.402903221274079897e+02
2.424027208162448765e+00 5.402812112801648254e+02
2.424127238171451371e+00 5.402719560895458244e+02
2.424227268180453976e+00 5.402625567638241364e+02
2.424327298189457025e+00 5.402530135156350752e+02
2.424427328198459630e+00 5.402433265619655458e+02
2.424527358207462679e+00 5.402334961241515430e+02
2.424627388216465285e+00 5.402235224278679198e+02
2.424727418225467890e+00 5.402134057031230441e+02
2.424827448234470495e+00 5.402031461842522049e+02
2.424927478243473100e+00 5.401927441099078351e+02
2.425027508252475705e+00 5.401821997230551915e+02
2.425127538261478755e+00 5.401715132709618956e+02
2.425227568270481360e+00 5.401606850051925903e+02
2.425327598279483965e+00 5.401497151815996176e+02
2.425427628288487014e+00 5.401386040603148331e+02
2.425527658297489175e+00 5.401273519057428985e+02
2.425627688306492225e+00 5.401159589865501403e+02
2.425727718315494830e+00 5.401044255756598886e+02
2.425827748324497435e+00 5.400927519502417908e+02
2.425927778333500040e+00 5.400809383917016930e+02
2.426027808342503089e+00 5.400689851856745918e+02
2.426127838351505694e+00 5.400568926220158801e+02
2.426227868360508300e+00 5.400446609947915704e+02
2.426327898369510905e+00 5.400322906022680627e+02
2.426427928378513510e+00 5.400197817469031634e+02
2.426527958387516115e+00 5.400071347353376723e+02
2.426627988396519164e+00 5.399943498783841278e+02
2.426728018405521770e+00 5.399814274910182803e+02
2.426828048414524375e+00 5.399683678923663592e+02
2.426928078423527424e+00 5.399551714056992751e+02
2.427028108432530029e+00 5.399418383584180674e+02
2.427128138441532634e+00 5.399283690820445827e+02
2.427228168450535239e+00 5.399147639122137434e+02
2.427328198459537845e+00 5.399010231886586553e+02
2.427428228468540894e+00 5.398871472552016257e+02
2.427528258477543499e+00 5.398731364597441598e+02
2.427628288486546104e+00 5.398589911542533173e+02
2.427728318495549154e+00 5.398447116947530731e+02
2.427828348504551315e+00 5.398302984413109016e+02
2.427928378513554364e+00 5.398157517580275453e+02
2.428028408522556969e+00 5.398010720130239406e+02
2.428128438531559574e+00 5.397862595784301902e+02
2.428228468540562179e+00 5.397713148303740809e+02
2.428328498549565229e+00 5.397562381489684640e+02
2.428428528558567834e+00 5.397410299182977269e+02
2.428528558567570439e+00 5.397256905264079023e+02
2.428628588576573044e+00 5.397102203652922299e+02
2.428728618585575649e+00 5.396946198308792191e+02
2.428828648594578254e+00 5.396788893230205986e+02
2.428928678603581304e+00 5.396630292454764231e+02
2.429028708612583909e+00 5.396470400059031363e+02
2.429128738621586514e+00 5.396309220158418611e+02
2.429228768630589563e+00 5.396146756907023700e+02
2.429328798639592168e+00 5.395983014497505792e+02
2.429428828648594774e+00 5.395817997160975210e+02
2.429528858657597379e+00 5.395651709166813816e+02
2.429628888666599984e+00 5.395484154822568144e+02
2.429728918675602589e+00 5.395315338473787961e+02
2.429828948684605638e+00 5.395145264503909175e+02
2.429928978693608244e+00 5.394973937334093534e+02
2.430029008702610849e+00 5.394801361423086519e+02
2.430129038711613454e+00 5.394627541267088873e+02
2.430229068720616503e+00 5.394452481399591761e+02
2.430329098729619108e+00 5.394276186391228975e+02
2.430429128738621714e+00 5.394098660849648468e+02
2.430529158747624319e+00 5.393919909419342957e+02
2.430629188756627368e+00 5.393739936781521465e+02
2.430729218765629973e+00 5.393558747653904675e+02
2.430829248774632578e+00 5.393376346790656726e+02
2.430929278783635183e+00 5.393192738982147603e+02
2.431029308792637789e+00 5.393007929054842862e+02
2.431129338801640394e+00 5.392821921871143331e+02
2.431229368810643443e+00 5.392634722329220267e+02
2.431329398819646048e+00 5.392446335362834589e+02
2.431429428828648653e+00 5.392256765941220920e+02
2.431529458837651703e+00 5.392066019068890910e+02
2.431629488846654308e+00 5.391874099785485441e+02
2.431729518855656913e+00 5.391681013165600689e+02
2.431829548864659518e+00 5.391486764318633504e+02
2.431929578873662123e+00 5.391291358388607478e+02
2.432029608882664728e+00 5.391094800554009225e+02
2.432129638891667778e+00 5.390897096027608768e+02
2.432229668900670383e+00 5.390698250056317420e+02
2.432329698909672988e+00 5.390498267920984290e+02
2.432429728918675593e+00 5.390297154936240531e+02
2.432529758927678643e+00 5.390094916450317442e+02
2.432629788936680804e+00 5.389891557844889576e+02
2.432729818945683853e+00 5.389687084534882615e+02
2.432829848954686458e+00 5.389481501968294879e+02
2.432929878963689063e+00 5.389274815626032478e+02
2.433029908972692112e+00 5.389067031021722869e+02
2.433129938981694718e+00 5.388858153701535230e+02
2.433229968990697323e+00 5.388648189244006517e+02
2.433329998999699928e+00 5.388437143259840241e+02
2.433430029008702533e+00 5.388225021391742757e+02
2.433530059017705582e+00 5.388011829314233410e+02
2.433630089026708188e+00 5.387797572733460356e+02
2.433730119035710793e+00 5.387582257387001619e+02
2.433830149044713842e+00 5.387365889043700236e+02
2.433930179053716447e+00 5.387148473503451669e+02
2.434030209062719052e+00 5.386930016597037820e+02
2.434130239071721657e+00 5.386710524185915574e+02
2.434230269080724263e+00 5.386490002162039445e+02
2.434330299089726868e+00 5.386268456447660355e+02
2.434430329098729917e+00 5.386045892995141458e+02
2.434530359107732522e+00 5.385822317786753501e+02
2.434630389116735127e+00 5.385597736834481566e+02
2.434730419125737733e+00 5.385372156179839749e+02
2.434830449134740782e+00 5.385145581893657436e+02
2.434930479143742943e+00 5.384918020075888307e+02
2.435030509152745992e+00 5.384689476855418206e+02
2.435130539161748597e+00 5.384459958389847998e+02
2.435230569170751203e+00 5.384229470865308258e+02
2.435330599179754252e+00 5.383998020496248955e+02
2.435430629188756857e+00 5.383765613525237086e+02
2.435530659197759462e+00 5.383532256222757724e+02
2.435630689206762067e+00 5.383297954886998014e+02
2.435730719215764672e+00 5.383062715843653905e+02
2.435830749224767278e+00 5.382826545445715283e+02
2.435930779233770327e+00 5.382589450073260195e+02
2.436030809242772932e+00 5.382351436133251354e+02
2.436130839251775537e+00 5.382112510059318993e+02
2.436230869260778586e+00 5.381872678311550544e+02
2.436330899269781192e+00 5.381631947376286007e+02
2.436430929278783797e+00 5.381390323765905350e+02
2.436530959287786402e+00 5.381147814018609097e+02
2.436630989296789007e+00 5.380904424698209141e+02
2.436731019305792056e+00 5.380660162393915016e+02
2.436831049314794662e+00 5.380415033720115616e+02
2.436931079323797267e+00 5.380169045316166603e+02
2.437031109332799872e+00 5.379922203846166440e+02
2.437131139341802921e+00 5.379674515998754032e+02
2.437231169350805082e+00 5.379425988486868846e+02
2.437331199359808132e+00 5.379176628047549684e+02
2.437431229368810737e+00 5.378926441441703901e+02
2.437531259377813342e+00 5.378675435453890259e+02
2.437631289386816391e+00 5.378423616892094969e+02
2.437731319395818996e+00 5.378170992587520232e+02
2.437831349404821601e+00 5.377917569394345492e+02
2.437931379413824207e+00 5.377663354189503480e+02
2.438031409422826812e+00 5.377408353872480120e+02
2.438131439431829417e+00 5.377152575365057601e+02
2.438231469440832466e+00 5.376896025611105188e+02
2.438331499449835071e+00 5.376638711576356400e+02
2.438431529458837677e+00 5.376380640248163445e+02
2.438531559467840726e+00 5.376121818635293721e+02
2.438631589476843331e+00 5.375862253767676293e+02
2.438731619485845936e+00 5.375601952696182479e+02
2.438831649494848541e+00 5.375340922492425761e+02
2.438931679503851147e+00 5.375079170248457103e+02
2.439031709512853752e+00 5.374816703076613749e+02
2.439131739521856801e+00 5.374553528109240688e+02
2.439231769530859406e+00 5.374289652498472378e+02
2.439331799539862011e+00 5.374025083415986046e+02
2.439431829548865061e+00 5.373759828052798184e+02
2.439531859557867222e+00 5.373493893618992843e+02
2.439631889566870271e+00 5.373227287343516991e+02
2.439731919575872876e+00 5.372960016473920177e+02
2.439831949584875481e+00 5.372692088276140794e+02
2.439931979593878530e+00 5.372423510034255969e+02
2.440032009602881136e+00 5.372154289050232592e+02
2.440132039611883741e+00 5.371884432643730634e+02
2.440232069620886346e+00 5.371613948151818931e+02
2.440332099629888951e+00 5.371342842928752361e+02
2.440432129638891556e+00 5.371071124345745602e+02
2.440532159647894606e+00 5.370798799790717339e+02
2.440632189656897211e+00 5.370525876668059482e+02
2.440732219665899816e+00 5.370252362398379091e+02
2.440832249674902865e+00 5.369978264418281242e+02
2.440932279683905470e+00 5.369703590180110950e+02
2.441032309692908076e+00 5.369428347151712160e+02
2.441132339701910681e+00 5.369152542816191271e+02
2.441232369710913286e+00 5.368876184671662486e+02
2.441332399719915891e+00 5.368599280231026114e+02
2.441432429728918940e+00 5.368321837021685496e+02
2.441532459737921545e+00 5.368043862585349189e+02
2.441632489746924151e+00 5.367765364477745607e+02
2.441732519755927200e+00 5.367486350268408160e+02
2.441832549764929361e+00 5.367206827540402401e+02
2.441932579773932410e+00 5.366926803890102065e+02
2.442032609782935015e+00 5.366646286926927587e+02
2.442132639791937621e+00 5.366365284273106226e+02
2.442232669800940670e+00 5.366083803563429910e+02
2.442332699809943275e+00 5.365801852444984661e+02
2.442432729818945880e+00 5.365519438576934590e+02
2.442532759827948485e+00 5.365236569630241092e+02
2.442632789836951090e+00 5.364953253287444568e+02
2.442732819845953696e+00 5.364669497242383613e+02
2.442832849854956745e+00 5.364385309199981293e+02
2.442932879863959350e+00 5.364100696875959784e+02
2.443032909872961955e+00 5.363815667996616412e+02
2.443132939881965005e+00 5.363530230298556489e+02
2.443232969890967610e+00 5.363244391528463666e+02
2.443332999899970215e+00 5.362958159442811166e+02
2.443433029908972820e+00 5.362671541807656013e+02
2.443533059917975425e+00 5.362384546398357088e+02
2.443633089926978030e+00 5.362097180999329566e+02
2.443733119935981080e+00 5.361809453403799353e+02
2.443833149944983685e+00 5.361521371413551833e+02
2.443933179953986290e+00 5.361232942838666986e+02
2.444033209962989339e+00 5.360944175497276092e+02
2.444133239971991500e+00 5.360655077215313895e+02
2.444233269980994550e+00 5.360365655826251441e+02
2.444333299989997155e+00 5.360075919170855059e+02
2.444433329998999760e+00 5.359785875096928294e+02
2.444533360008002365e+00 5.359495531459064068e+02
2.444633390017005414e+00 5.359204896118370698e+02
2.444733420026008019e+00 5.358913976942254749e+02
2.444833450035010625e+00 5.358622781804131137e+02
2.444933480044013230e+00 5.358331318583191205e+02
2.445033510053015835e+00 5.358039595164123057e+02
2.445133540062018884e+00 5.357747619436910327e+02
2.445233570071021489e+00 5.357455399296512724e+02
2.445333600080024095e+00 5.357162942642653434e+02
2.445433630089027144e+00 5.356870257379561053e+02
2.445533660098029749e+00 5.356577351415687644e+02
2.445633690107032354e+00 5.356284232663490457e+02
2.445733720116034959e+00 5.355990909039147709e+02
2.445833750125037565e+00 5.355697388462328945e+02
2.445933780134040170e+00 5.355403678855924454e+02
2.446033810143043219e+00 5.355109788145791754e+02
2.446133840152045824e+00 5.354815724260504339e+02
2.446233870161048429e+00 5.354521495131085658e+02
2.446333900170051479e+00 5.354227108690787418e+02
2.446433930179053640e+00 5.353932572874789457e+02
2.446533960188056689e+00 5.353637895619976916e+02
2.446633990197059294e+00 5.353343084864678758e+02
2.446734020206061899e+00 5.353048148548396057e+02
2.446834050215064504e+00 5.352753094611583720e+02
2.446934080224067554e+00 5.352457930995359447e+02
2.447034110233070159e+00 5.352162665641260446e+02
2.447134140242072764e+00 5.351867306491004683e+02
2.447234170251075369e+00 5.351571861486214630e+02
2.447334200260077974e+00 5.351276338568175106e+02
2.447434230269080579e+00 5.350980745677576351e+02
2.447534260278083629e+00 5.350685090754259363e+02
2.447634290287086234e+00 5.350389381736962378e+02
2.447734320296088839e+00 5.350093626563077578e+02
2.447834350305091888e+00 5.349797833168368015e+02
2.447934380314094494e+00 5.349502009486751604e+02
2.448034410323097099e+00 5.349206163450016902e+02
2.448134440332099704e+00 5.348910302987590057e+02
2.448234470341102309e+00 5.348614436026279009e+02
2.448334500350105358e+00 5.348318570490000639e+02
2.448434530359107963e+00 5.348022714299563631e+02
2.448534560368110569e+00 5.347726875372378572e+02
2.448634590377113618e+00 5.347431061622233983e+02
2.448734620386115779e+00 5.347135280959029160e+02
2.448834650395118828e+00 5.346839541288534292e+02
2.448934680404121433e+00 5.346543850512124436e+02
2.449034710413124039e+00 5.346248216526535089e+02
2.449134740422126644e+00 5.345952647223618897e+02
2.449234770431129693e+00 5.345657150490080767e+02
2.449334800440132298e+00 5.345361734207248219e+02
2.449434830449134903e+00 5.345066406250782620e+02
2.449534860458137508e+00 5.344771174490476824e+02
2.449634890467140114e+00 5.344476046789977772e+02
2.449734920476142719e+00 5.344181031006537523e+02
2.449834950485145768e+00 5.343886134990776782e+02
2.449934980494148373e+00 5.343591366586420008e+02
2.450035010503150978e+00 5.343296733630061226e+02
2.450135040512154028e+00 5.343002243950917318e+02
2.450235070521156633e+00 5.342707905370556318e+02
2.450335100530159238e+00 5.342413725702685952e+02
2.450435130539161843e+00 5.342119712752886471e+02
2.450535160548164448e+00 5.341825874318360547e+02
2.450635190557167054e+00 5.341532218187694525e+02
2.450735220566170103e+00 5.341238752140610586e+02
2.450835250575172708e+00 5.340945483947728007e+02
2.450935280584175313e+00 5.340652421370311913e+02
2.451035310593177918e+00 5.340359572160025436e+02
2.451135340602180968e+00 5.340066944058694389e+02
2.451235370611183573e+00 5.339774544798061697e+02
2.451335400620186178e+00 5.339482382099531605e+02
2.451435430629188783e+00 5.339190463673949125e+02
2.451535460638191832e+00 5.338898797221343102e+02
2.451635490647194437e+00 5.338607390430688611e+02
2.451735520656197043e+00 5.338316250979655706e+02
2.451835550665199648e+00 5.338025386534392283e+02
2.451935580674202253e+00 5.337734804749266004e+02
2.452035610683204858e+00 5.337444513266619879e+02
2.452135640692207907e+00 5.337154519716550567e+02
2.452235670701210513e+00 5.336864831716654862e+02
2.452335700710213118e+00 5.336575456871811411e+02
2.452435730719216167e+00 5.336286402773903319e+02
2.452535760728218772e+00 5.335997677001631700e+02
2.452635790737221377e+00 5.335709287120242834e+02
2.452735820746223983e+00 5.335421240681312156e+02
2.452835850755226588e+00 5.335133545222481644e+02
2.452935880764229193e+00 5.334846208267269958e+02
2.453035910773232242e+00 5.334559237324799597e+02
2.453135940782234847e+00 5.334272639889572929e+02
2.453235970791237452e+00 5.333986423441253919e+02
2.453336000800240058e+00 5.333700595444406645e+02
2.453436030809243107e+00 5.333415163348307715e+02
2.453536060818245268e+00 5.333130134586675695e+02
2.453636090827248317e+00 5.332845516577444869e+02
2.453736120836250922e+00 5.332561316722558331e+02
2.453836150845253528e+00 5.332277542407725832e+02
2.453936180854256577e+00 5.331994201002180489e+02
2.454036210863259182e+00 5.331711299858496886e+02
2.454136240872261787e+00 5.331428846312295491e+02
2.454236270881264392e+00 5.331146847682074394e+02
2.454336300890266997e+00 5.330865311268963751e+02
2.454436330899270047e+00 5.330584244356496129e+02
2.454536360908272652e+00 5.330303654210387094e+02
2.454636390917275257e+00 5.330023548078296471e+02
2.454736420926278306e+00 5.329743933189650988e+02
2.454836450935280912e+00 5.329464816755369156e+02
2.454936480944283517e+00 5.329186205967657770e+02
2.455036510953286122e+00 5.328908107999820913e+02
2.455136540962288727e+00 5.328630530005980290e+02
2.455236570971291332e+00 5.328353479120919474e+02
2.455336600980294381e+00 5.328076962459823562e+02
2.455436630989296987e+00 5.327800987118080229e+02
2.455536660998299592e+00 5.327525560171048937e+02
2.455636691007302197e+00 5.327250688673875629e+02
2.455736721016305246e+00 5.326976379661221017e+02
2.455836751025307407e+00 5.326702640147123020e+02
2.455936781034310457e+00 5.326429477124701179e+02
2.456036811043313062e+00 5.326156897566020234e+02
2.456136841052315667e+00 5.325884908421816135e+02
2.456236871061318716e+00 5.325613516621330064e+02
2.456336901070321321e+00 5.325342729072069687e+02
2.456436931079323926e+00 5.325072552659610210e+02
2.456536961088326532e+00 5.324802994247394281e+02
2.456636991097329137e+00 5.324534060676506897e+02
2.456737021106331742e+00 5.324265758765486680e+02
2.456837051115334791e+00 5.323998095310107601e+02
2.456937081124337396e+00 5.323731077083175478e+02
2.457037111133340446e+00 5.323464710834332436e+02
2.457137141142343051e+00 5.323199003289847724e+02
2.457237171151345656e+00 5.322933961152414213e+02
2.457337201160348261e+00 5.322669591100952857e+02
2.457437231169350866e+00 5.322405899790400099e+02
2.457537261178353472e+00 5.322142893851527106e+02
2.457637291187356521e+00 5.321880579890732861e+02
2.457737321196359126e+00 5.321618964489837253e+02
2.457837351205361731e+00 5.321358054205892358e+02
2.457937381214364336e+00 5.321097855571001674e+02
2.458037411223367386e+00 5.320838375092096157e+02
2.458137441232369547e+00 5.320579619250761425e+02
2.458237471241372596e+00 5.320321594503039933e+02
2.458337501250375201e+00 5.320064307279245668e+02
2.458437531259377806e+00 5.319807763983754967e+02
2.458537561268380855e+00 5.319551970994838257e+02
2.458637591277383461e+00 5.319296934664457694e+02
2.458737621286386066e+00 5.319042661318085266e+02
2.458837651295388671e+00 5.318789157254520887e+02
2.458937681304391276e+00 5.318536428745684361e+02
2.459037711313393881e+00 5.318284482036473264e+02
2.459137741322396931e+00 5.318033323344533301e+02
2.459237771331399536e+00 5.317782958860108238e+02
2.459337801340402141e+00 5.317533394745835267e+02
2.459437831349405190e+00 5.317284637136590391e+02
2.459537861358407795e+00 5.317036692139284924e+02
2.459637891367410401e+00 5.316789565832700646e+02
2.459737921376413006e+00 5.316543264267313589e+02
2.459837951385415611e+00 5.316297793465107588e+02
2.459937981394418660e+00 5.316053159419412850e+02
2.460038011403421265e+00 5.315809368094719503e+02
2.460138041412423870e+00 5.315566425426511614e+02
2.460238071421426476e+00 5.315324337321101211e+02
2.460338101430429525e+00 5.315083109655436147e+02
2.460438131439431686e+00 5.314842748276967086e+02
2.460538161448434735e+00 5.314603259003446283e+02
2.460638191457437340e+00 5.314364647622758184e+02
2.460738221466439946e+00 5.314126919892802334e+02
2.460838251475442995e+00 5.313890081541254631e+02
2.460938281484445600e+00 5.313654138265474103e+02
2.461038311493448205e+00 5.313419095732292590e+02
2.461138341502450810e+00 5.313184959577873769e+02
2.461238371511453416e+00 5.312951735407546039e+02
2.461338401520456021e+00 5.312719428795650174e+02
2.461438431529459070e+00 5.312488045285375620e+02
2.461538461538461675e+00 5.312257590388607014e+02
2.461638491547464280e+00 5.312028069585761614e+02
2.461738521556467330e+00 5.311799488325655147e+02
2.461838551565469935e+00 5.311571852025315366e+02
2.461938581574472540e+00 5.311345166069862671e+02
2.462038611583475145e+00 5.311119435812342999e+02
2.462138641592477750e+00 5.310894666573572067e+02
2.462238671601480355e+00 5.310670863642004633e+02
2.462338701610483405e+00 5.310448032273582157e+02
2.462438731619486010e+00 5.310226177691571365e+02
2.462538761628488615e+00 5.310005305086450562e+02
2.462638791637491664e+00 5.309785419615718638e+02
2.462738821646493825e+00 5.309566526403806392e+02
2.462838851655496875e+00 5.309348630541901457e+02
2.462938881664499480e+00 5.309131737087819829e+02
2.463038911673502085e+00 5.308915851065860352e+02
2.463138941682505134e+00 5.308700977466681934e+02
2.463238971691507739e+00 5.308487121247145524e+02
2.463339001700510345e+00 5.308274287330208381e+02
2.463439031709512950e+00 5.308062480604752409e+02
2.463539061718515555e+00 5.307851705925503438e+02
2.463639091727518160e+00 5.307641968112836821e+02
2.463739121736521209e+00 5.307433271952711493e+02
2.463839151745523814e+00 5.307225622196500581e+02
2.463939181754526420e+00 5.307019023560869755e+02
2.464039211763529469e+00 5.306813480727671504e+02
2.464139241772532074e+00 5.306608998343788244e+02
2.464239271781534679e+00 5.306405581021048192e+02
2.464339301790537284e+00 5.306203233336073026e+02
2.464439331799539890e+00 5.306001959830165333e+02
2.464539361808542495e+00 5.305801765009199471e+02
2.464639391817545544e+00 5.305602653343485144e+02
2.464739421826548149e+00 5.305404629267673045e+02
2.464839451835550754e+00 5.305207697180625246e+02
2.464939481844553804e+00 5.305011861445293562e+02
2.465039511853555965e+00 5.304817126388637689e+02
2.465139541862559014e+00 5.304623496301471732e+02
2.465239571871561619e+00 5.304430975438395990e+02
2.465339601880564224e+00 5.304239568017650299e+02
2.465439631889566829e+00 5.304049278221046961e+02
2.465539661898569879e+00 5.303860110193822948e+02
2.465639691907572484e+00 5.303672068044566004e+02
2.465739721916575089e+00 5.303485155845105510e+02
2.465839751925577694e+00 5.303299377630391973e+02
2.465939781934580299e+00 5.303114737398428815e+02
2.466039811943583349e+00 5.302931239110131401e+02
2.466139841952585954e+00 5.302748886689282699e+02
2.466239871961588559e+00 5.302567684022387766e+02
2.466339901970591608e+00 5.302387634958603257e+02
2.466439931979594213e+00 5.302208743309635111e+02
2.466539961988596819e+00 5.302031012849663512e+02
2.466639991997599424e+00 5.301854447315222387e+02
2.466740022006602029e+00 5.301679050405138014e+02
2.466840052015604634e+00 5.301504825780419878e+02
2.466940082024607683e+00 5.301331777064200423e+02
2.467040112033610288e+00 5.301159907841605445e+02
2.467140142042612894e+00 5.300989221659718851e+02
2.467240172051615943e+00 5.300819722027471244e+02
2.467340202060618104e+00 5.300651412415569439e+02
2.467440232069621153e+00 5.300484296256418020e+02
2.467540262078623758e+00 5.300318376944023839e+02
2.467640292087626364e+00 5.300153657833930083e+02
2.467740322096628969e+00 5.299990142243161699e+02
2.467840352105632018e+00 5.299827833450109438e+02
2.467940382114634623e+00 5.299666734694505976e+02
2.468040412123637228e+00 5.299506849177304275e+02
2.468140442132639834e+00 5.299348180060630966e+02
2.468240472141642439e+00 5.299190730467748836e+02
2.468340502150645044e+00 5.299034503482926084e+02
2.468440532159648093e+00 5.298879502151422685e+02
2.468540562168650698e+00 5.298725729479390338e+02
2.468640592177653303e+00 5.298573188433853147e+02
2.468740622186656353e+00 5.298421881942600749e+02
2.468840652195658958e+00 5.298271812894156483e+02
2.468940682204661563e+00 5.298122984137702360e+02
2.469040712213664168e+00 5.297975398483039271e+02
2.469140742222666773e+00 5.297829058700513087e+02
2.469240772231669823e+00 5.297683967520972601e+02
2.469340802240672428e+00 5.297540127635722911e+02
2.469440832249675033e+00 5.297397541696446979e+02
2.469540862258678082e+00 5.297256212315182893e+02
2.469640892267680243e+00 5.297116142064268161e+02
2.469740922276683293e+00 5.296977333476287413e+02
2.469840952285685898e+00 5.296839789044028066e+02
2.469940982294688503e+00 5.296703511220441669e+02
2.470041012303691108e+00 5.296568502418591606e+02
2.470141042312694157e+00 5.296434765011620129e+02
2.470241072321696763e+00 5.296302301332710840e+02
2.470341102330699368e+00 5.296171113675039805e+02
2.470441132339701973e+00 5.296041204291742588e+02
2.470541162348704578e+00 5.295912575395881277e+02
2.470641192357707183e+00 5.295785229160420613e+02
2.470741222366710232e+00 5.295659167718165463e+02
2.470841252375712838e+00 5.295534393161765365e+02
2.470941282384715443e+00 5.295410907543650865e+02
2.471041312393718492e+00 5.295288712876030104e+02
2.471141342402721097e+00 5.295167811130861537e+02
2.471241372411723702e+00 5.295048204239815277e+02
2.471341402420726308e+00 5.294929894094246947e+02
2.471441432429728913e+00 5.294812882545191997e+02
2.471541462438731518e+00 5.294697171403332732e+02
2.471641492447734567e+00 5.294582762438983536e+02
2.471741522456737172e+00 5.294469657382066998e+02
2.471841552465740222e+00 5.294357857922105950e+02
2.471941582474742383e+00 5.294247365708193911e+02
2.472041612483745432e+00 5.294138182349007593e+02
2.472141642492748037e+00 5.294030309412751194e+02
2.472241672501750642e+00 5.293923748427199598e+02
2.472341702510753247e+00 5.293818500879646081e+02
2.472441732519756297e+00 5.293714568216903444e+02
2.472541762528758902e+00 5.293611951845322210e+02
2.472641792537761507e+00 5.293510653130741730e+02
2.472741822546764112e+00 5.293410673398533390e+02
2.472841852555766717e+00 5.293312013933568778e+02
2.472941882564769323e+00 5.293214675980212860e+02
2.473041912573772372e+00 5.293118660742355814e+02
2.473141942582774977e+00 5.293023969383391432e+02
2.473241972591777582e+00 5.292930603026221661e+02
2.473342002600780631e+00 5.292838562753257747e+02
2.473442032609783237e+00 5.292747849606462296e+02
2.473542062618785842e+00 5.292658464587299250e+02
2.473642092627788447e+00 5.292570408656797554e+02
2.473742122636791052e+00 5.292483682735517050e+02
2.473842152645793657e+00 5.292398287703596225e+02
2.473942182654796706e+00 5.292314224400744251e+02
2.474042212663799312e+00 5.292231493626258043e+02
2.474142242672801917e+00 5.292150096139054085e+02
2.474242272681804522e+00 5.292070032657662750e+02
2.474342302690807571e+00 5.291991303860269227e+02
2.474442332699809732e+00 5.291913910384723749e+02
2.474542362708812782e+00 5.291837852828554105e+02
2.474642392717815387e+00 5.291763131749007698e+02
2.474742422726818436e+00 5.291689747663075423e+02
2.474842452735821041e+00 5.291617701047495075e+02
2.474942482744823646e+00 5.291546992338803648e+02
2.475042512753826252e+00 5.291477621933365754e+02
2.475142542762828857e+00 5.291409590187373624e+02
2.475242572771831462e+00 5.291342897416927826e+02
2.475342602780834511e+00 5.291277543898025897e+02
2.475442632789837116e+00 5.291213529866621457e+02
2.475542662798839721e+00 5.291150855518653771e+02
2.475642692807842771e+00 5.291089521010094359e+02
2.475742722816845376e+00 5.291029526456961776e+02
2.475842752825847981e+00 5.290970871935396644e+02
2.475942782834850586e+00 5.290913557481663929e+02
2.476042812843853191e+00 5.290857583092232517e+02
2.476142842852855797e+00 5.290802948723802501e+02
2.476242872861858846e+00 5.290749654293348385e+02
2.476342902870861451e+00 5.290697699678175923e+02
2.476442932879864056e+00 5.290647084715953952e+02
2.476542962888866661e+00 5.290597809204790565e+02
2.476642992897869711e+00 5.290549872903267214e+02
2.476743022906871872e+00 5.290503275530486462e+02
2.476843052915874921e+00 5.290458016766148148e+02
2.476943082924877526e+00 5.290414096250570992e+02
2.477043112933880131e+00 5.290371513584793774e+02
2.477143142942883181e+00 5.290330268330592389e+02
2.477243172951885786e+00 5.290290360010562836e+02
2.477343202960888391e+00 5.290251788108176925e+02
2.477443232969890996e+00 5.290214552067843670e+02
2.477543262978893601e+00 5.290178651294972951e+02
2.477643292987896650e+00 5.290144085156033498e+02
2.477743322996899256e+00 5.290110852978649518e+02
2.477843353005901861e+00 5.290078954051615483e+02
2.477943383014904910e+00 5.290048387625013220e+02
2.478043413023907515e+00 5.290019152910269895e+02
2.478143443032910120e+00 5.289991249080210309e+02
2.478243473041912726e+00 5.289964675269148984e+02
2.478343503050915331e+00 5.289939430572967467e+02
2.478443533059917936e+00 5.289915514049166632e+02
2.478543563068920985e+00 5.289892924716982634e+02
2.478643593077923590e+00 5.289871661557418747e+02
2.478743623086926195e+00 5.289851723513361321e+02
2.478843653095928801e+00 5.289833109489645722e+02
2.478943683104931850e+00 5.289815818353139321e+02
2.479043713113934011e+00 5.289799848932832447e+02
2.479143743122937060e+00 5.289785200019906597e+02
2.479243773131939665e+00 5.289771870367842439e+02
2.479343803140942271e+00 5.289759858692488024e+02
2.479443833149945320e+00 5.289749163672163377e+02
2.479543863158947925e+00 5.289739783947736669e+02
2.479643893167950530e+00 5.289731718122729944e+02
2.479743923176953135e+00 5.289724964763387334e+02
2.479843953185955741e+00 5.289719522398805793e+02
2.479943983194958346e+00 5.289715389520995359e+02
2.480044013203961395e+00 5.289712564584993970e+02
2.480144043212964000e+00 5.289711046008959556e+02
2.480244073221966605e+00 5.289710832174275765e+02
2.480344103230969655e+00 5.289711921425633818e+02
2.480444133239972260e+00 5.289714312071164386e+02
2.480544163248974865e+00 5.289718002382508075e+02
2.480644193257977470e+00 5.289722990594935936e+02
2.480744223266980075e+00 5.289729274907452918e+02
2.480844253275983124e+00 5.289736853482904735e+02
2.480944283284985730e+00 5.289745724448081319e+02
2.481044313293988335e+00 5.289755885893836194e+02
2.481144343302990940e+00 5.289767335875172876e+02
2.481244373311993989e+00 5.289780072411388119e+02
2.481344403320996150e+00 5.289794093486141264e+02
2.481444433329999200e+00 5.289809397047631592e+02
2.481544463339001805e+00 5.289825981008638109e+02
2.481644493348004410e+00 5.289843843246695769e+02
2.481744523357007459e+00 5.289862981604175047e+02
2.481844553366010064e+00 5.289883393888428600e+02
2.481944583375012670e+00 5.289905077871881076e+02
2.482044613384015275e+00 5.289928031292170090e+02
2.482144643393017880e+00 5.289952251852266727e+02
2.482244673402020485e+00 5.289977737220596055e+02
2.482344703411023534e+00 5.290004485031140575e+02
2.482444733420026139e+00 5.290032492883606210e+02
2.482544763429028745e+00 5.290061758343515521e+02
2.482644793438031794e+00 5.290092278942348685e+02
2.482744823447034399e+00 5.290124052177657177e+02
2.482844853456037004e+00 5.290157075513222935e+02
2.482944883465039609e+00 5.290191346379162951e+02
2.483044913474042215e+00 5.290226862172072515e+02
2.483144943483044820e+00 5.290263620255145725e+02
2.483244973492047869e+00 5.290301617958326688e+02
2.483345003501050474e+00 5.290340852578433442e+02
2.483445033510053079e+00 5.290381321379308019e+02
2.483545063519056129e+00 5.290423021591924453e+02
2.483645093528058290e+00 5.290465950414562712e+02
2.483745123537061339e+00 5.290510105012916711e+02
2.483845153546063944e+00 5.290555482520264832e+02
2.483945183555066549e+00 5.290602080037583619e+02
2.484045213564069599e+00 5.290649894633703525e+02
2.484145243573072204e+00 5.290698923345460116e+02
2.484245273582074809e+00 5.290749163177822538e+02
2.484345303591077414e+00 5.290800611104043583e+02
2.484445333600080019e+00 5.290853264065823396e+02
2.484545363609082624e+00 5.290907118973431125e+02
2.484645393618085674e+00 5.290962172705861803e+02
2.484745423627088279e+00 5.291018422111012569e+02
2.484845453636090884e+00 5.291075864005781568e+02
2.484945483645093933e+00 5.291134495176277142e+02
2.485045513654096538e+00 5.291194312377915594e+02
2.485145543663099144e+00 5.291255312335621284e+02
2.485245573672101749e+00 5.291317491743956225e+02
2.485345603681104354e+00 5.291380847267280387e+02
2.485445633690106959e+00 5.291445375539910856e+02
2.485545663699110008e+00 5.291511073166267352e+02
2.485645693708112614e+00 5.291577936721058677e+02
2.485745723717115219e+00 5.291645962749410046e+02
2.485845753726118268e+00 5.291715147767040435e+02
2.485945783735120429e+00 5.291785488260437660e+02
2.486045813744123478e+00 5.291856980686970928e+02
2.486145843753126083e+00 5.291929621475121621e+02
2.486245873762128689e+00 5.292003407024591297e+02
2.486345903771131294e+00 5.292078333706491549e+02
2.486445933780134343e+00 5.292154397863513395e+02
2.486545963789136948e+00 5.292231595810080762e+02
2.486645993798139553e+00 5.292309923832528966e+02
2.486746023807142159e+00 5.292389378189261606e+02
2.486846053816144764e+00 5.292469955110935871e+02
2.486946083825147813e+00 5.292551650800619427e+02
2.487046113834150418e+00 5.292634461433958677e+02
2.487146143843153023e+00 5.292718383159369751e+02
2.487246173852156073e+00 5.292803412098191984e+02
2.487346203861158678e+00 5.292889544344867545e+02
2.487446233870161283e+00 5.292976775967122194e+02
2.487546263879163888e+00 5.293065103006124446e+02
2.487646293888166493e+00 5.293154521476685659e+02
2.487746323897169098e+00 5.293245027367413513e+02
2.487846353906172148e+00 5.293336616640906414e+02
2.487946383915174753e+00 5.293429285233920609e+02
2.488046413924177358e+00 5.293523029057548683e+02
2.488146443933180407e+00 5.293617843997409409e+02
2.488246473942182568e+00 5.293713725913827375e+02
2.488346503951185618e+00 5.293810670642005789e+02
2.488446533960188223e+00 5.293908673992210652e+02
2.488546563969190828e+00 5.294007731749961749e+02
2.488646593978193433e+00 5.294107839676202047e+02
2.488746623987196482e+00 5.294208993507502328e+02
2.488846653996199088e+00 5.294311188956227170e+02
2.488946684005201693e+00 5.294414421710728220e+02
2.489046714014204298e+00 5.294518687435539732e+02
2.489146744023206903e+00 5.294623981771537728e+02
2.489246774032209508e+00 5.294730300336168511e+02
2.489346804041212557e+00 5.294837638723601003e+02
2.489446834050215163e+00 5.294945992504940477e+02
2.489546864059218212e+00 5.295055357228405910e+02
2.489646894068220817e+00 5.295165728419515290e+02
2.489746924077223422e+00 5.295277101581291390e+02
2.489846954086226027e+00 5.295389472194457312e+02
2.489946984095228633e+00 5.295502835717597918e+02
2.490047014104231238e+00 5.295617187587390617e+02
2.490147044113234287e+00 5.295732523218779306e+02
2.490247074122236892e+00 5.295848838005168773e+02
2.490347104131239497e+00 5.295966127318614554e+02
2.490447134140242547e+00 5.296084386510051445e+02
2.490547164149244708e+00 5.296203610909442432e+02
2.490647194158247757e+00 5.296323795826001515e+02
2.490747224167250362e+00 5.296444936548396072e+02
2.490847254176252967e+00 5.296567028344929895e+02
2.490947284185255572e+00 5.296690066463753510e+02
2.491047314194258622e+00 5.296814046133048350e+02
2.491147344203261227e+00 5.296938962561239350e+02
2.491247374212263832e+00 5.297064810937200718e+02
2.491347404221266437e+00 5.297191586430429879e+02
2.491447434230269042e+00 5.297319284191279394e+02
2.491547464239271648e+00 5.297447899351135447e+02
2.491647494248274697e+00 5.297577427022645224e+02
2.491747524257277302e+00 5.297707862299880617e+02
2.491847554266279907e+00 5.297839200258579240e+02
2.491947584275282956e+00 5.297971435956336563e+02
2.492047614284285562e+00 5.298104564432783263e+02
2.492147644293288167e+00 5.298238580709843291e+02
2.492247674302290772e+00 5.298373479791894169e+02
2.492347704311293377e+00 5.298509256665984140e+02
2.492447734320296426e+00 5.298645906302039066e+02
2.492547764329299032e+00 5.298783423653082991e+02
2.492647794338301637e+00 5.298921803655408667e+02
2.492747824347304686e+00 5.299061041228839031e+02
2.492847854356306847e+00 5.299201131276877277e+02
2.492947884365309896e+00 5.299342068686945595e+02
2.493047914374312501e+00 5.299483848330604587e+02
2.493147944383315107e+00 5.299626465063730620e+02
2.493247974392317712e+00 5.299769913726743198e+02
2.493348004401320761e+00 5.299914189144807324e+02
2.493448034410323366e+00 5.300059286128059739e+02
2.493548064419325971e+00 5.300205199471797641e+02
2.493648094428328577e+00 5.300351923956696965e+02
2.493748124437331182e+00 5.300499454349029520e+02
2.493848154446333787e+00 5.300647785400866496e+02
2.493948184455336836e+00 5.300796911850286506e+02
2.494048214464339441e+00 5.300946828421599548e+02
2.494148244473342046e+00 5.301097529825556194e+02
2.494248274482345096e+00 5.301249010759534031e+02
2.494348304491347701e+00 5.301401265907793459e+02
2.494448334500350306e+00 5.301554289941670959e+02
2.494548364509352911e+00 5.301708077519766675e+02
2.494648394518355516e+00 5.301862623288203622e+02
2.494748424527358122e+00 5.302017921880806171e+02
2.494848454536361171e+00 5.302173967919335382e+02
2.494948484545363776e+00 5.302330756013685686e+02
2.495048514554366381e+00 5.302488280762107706e+02
2.495148544563368986e+00 5.302646536751427675e+02
2.495248574572372036e+00 5.302805518557249798e+02
2.495348604581374641e+00 5.302965220744185899e+02
2.495448634590377246e+00 5.303125637866056650e+02
2.495548664599379851e+00 5.303286764466103023e+02
2.495648694608382900e+00 5.303448595077236405e+02
2.495748724617385506e+00 5.303611124222211402e+02
2.495848754626388111e+00 5.303774346413853209e+02
2.495948784635390716e+00 5.303938256155292947e+02
2.496048814644393321e+00 5.304102847940157517e+02
2.496148844653395926e+00 5.304268116252812888e+02
2.496248874662398975e+00 5.304434055568546000e+02
2.496348904671401581e+00 5.304600660353821695e+02
2.496448934680404186e+00 5.304767925066454382e+02
2.496548964689407235e+00 5.304935844155862696e+02
2.496648994698409840e+00 5.305104412063274140e+02
2.496749024707412445e+00 5.305273623221922890e+02
2.496849054716415051e+00 5.305443472057297640e+02
2.496949084725417656e+00 5.305613952987331459e+02
2.497049114734420261e+00 5.305785060422639390e+02
2.497149144743423310e+00 5.305956788766718546e+02
2.497249174752425915e+00 5.306129132416172069e+02
2.497349204761428521e+00 5.306302085760933096e+02
2.497449234770431126e+00 5.306475643184472801e+02
2.497549264779434175e+00 5.306649799064011859e+02
2.497649294788436336e+00 5.306824547770752361e+02
2.497749324797439385e+00 5.306999883670088138e+02
2.497849354806441990e+00 5.307175801121816221e+02
2.497949384815444596e+00 5.307352294480351702e+02
2.498049414824447645e+00 5.307529358094966483e+02
2.498149444833450250e+00 5.307706986309982540e+02
2.498249474842452855e+00 5.307885173464994750e+02
2.498349504851455460e+00 5.308063913895086898e+02
2.498449534860458066e+00 5.308243201931055637e+02
2.498549564869461115e+00 5.308423031899626494e+02
2.498649594878463720e+00 5.308603398123656234e+02
2.498749624887466325e+00 5.308784294922370464e+02
2.498849654896469374e+00 5.308965716611551215e+02
2.498949684905471980e+00 5.309147657503781375e+02
2.499049714914474585e+00 5.309330111908650451e+02
2.499149744923477190e+00 5.309513074132963766e+02
2.499249774932479795e+00 5.309696538480970958e+02
2.499349804941482400e+00 5.309880499254568349e+02
2.499449834950485450e+00 5.310064950753516086e+02
2.499549864959488055e+00 5.310249887275670062e+02
2.499649894968490660e+00 5.310435303117168360e+02
2.499749924977493265e+00 5.310621192572684777e+02
2.499849954986496314e+00 5.310807549935595944e+02
2.499949984995498475e+00 5.310994369498245078e+02
2.500050015004501525e+00 5.311181645552107966e+02
2.500150045013504574e+00 5.311369372388053307e+02
2.500250075022507179e+00 5.474116395042916565e+02
2.500350105031509784e+00 5.474868987410576437e+02
2.500450135040512389e+00 5.475625367865482076e+02
2.500550165049514995e+00 5.476385531017227777e+02
2.500650195058517600e+00 5.477149471373027154e+02
2.500750225067520649e+00 5.477917183337790448e+02
2.500850255076523254e+00 5.478688661214221156e+02
2.500950285085525859e+00 5.479463899202896755e+02
2.501050315094528464e+00 5.480242891402392615e+02
2.501150345103531070e+00 5.481025631809351353e+02
2.501250375112533675e+00 5.481812114318611293e+02
2.501350405121536724e+00 5.482602332723299696e+02
2.501450435130539329e+00 5.483396280714954401e+02
2.501550465139541934e+00 5.484193951883617046e+02
2.501650495148544540e+00 5.484995339717975185e+02
2.501750525157547145e+00 5.485800437605464595e+02
2.501850555166549750e+00 5.486609238832411393e+02
2.501950585175553243e+00 5.487421736584126393e+02
2.502050615184555404e+00 5.488237923945068815e+02
2.502150645193558454e+00 5.489057793898972477e+02
2.502250675202560615e+00 5.489881339328957210e+02
2.502350705211563664e+00 5.490708553017694840e+02
2.502450735220565825e+00 5.491539427647560387e+02
2.502550765229569318e+00 5.492373955800742351e+02
2.502650795238571924e+00 5.493212129959418917e+02
2.502750825247574529e+00 5.494053942505913710e+02
2.502850855256577134e+00 5.494899385722827674e+02
2.502950885265579739e+00 5.495748451793226650e+02
2.503050915274582788e+00 5.496601132800788037e+02
2.503150945283585393e+00 5.497457420729958812e+02
2.503250975292587999e+00 5.498317307466146531e+02
2.503351005301590604e+00 5.499180784795878481e+02
2.503451035310593209e+00 5.500047844406960849e+02
2.503551065319595814e+00 5.500918477888700409e+02
2.503651095328598863e+00 5.501792676732044356e+02
2.503751125337601469e+00 5.502670432329782670e+02
2.503851155346604074e+00 5.503551735976736836e+02
2.503951185355606679e+00 5.504436578869942878e+02
2.504051215364609284e+00 5.505324952108858270e+02
2.504151245373611889e+00 5.506216846695555205e+02
2.504251275382615383e+00 5.507112253534902493e+02
2.504351305391617544e+00 5.508011163434803166e+02
2.504451335400620593e+00 5.508913567106370692e+02
2.504551365409622754e+00 5.509819455164166584e+02
2.504651395418625803e+00 5.510728818126376609e+02
2.504751425427627964e+00 5.511641646415071136e+02
2.504851455436631458e+00 5.512557930356393854e+02
2.504951485445634063e+00 5.513477660180786870e+02
2.505051515454636668e+00 5.514400826023239688e+02
2.505151545463639273e+00 5.515327417923487019e+02
2.505251575472641878e+00 5.516257425826249801e+02
2.505351605481644484e+00 5.517190839581498949e+02
2.505451635490647533e+00 5.518127648944645216e+02
2.505551665499650138e+00 5.519067843576808627e+02
2.505651695508652743e+00 5.520011413045067457e+02
2.505751725517655348e+00 5.520958346822691283e+02
2.505851755526657954e+00 5.521908634289391102e+02
2.505951785535661003e+00 5.522862264731579671e+02
2.506051815544663608e+00 5.523819227342637532e+02
2.506151845553666213e+00 5.524779511223132431e+02
2.506251875562668818e+00 5.525743105381135365e+02
2.506351905571671423e+00 5.526709998732449094e+02
2.506451935580674029e+00 5.527680180100878715e+02
2.506551965589677522e+00 5.528653638218527249e+02
2.506651995598679683e+00 5.529630361726038927e+02
2.506752025607682732e+00 5.530610339172899330e+02
2.506852055616684893e+00 5.531593559017703683e+02
2.506952085625687943e+00 5.532580009628435391e+02
2.507052115634690104e+00 5.533569679282775269e+02
2.507152145643693597e+00 5.534562556168356195e+02
2.507252175652696202e+00 5.535558628383088262e+02
2.507352205661698807e+00 5.536557883935425934e+02
2.507452235670701413e+00 5.537560310744695471e+02
2.507552265679704018e+00 5.538565896641350719e+02
2.507652295688706623e+00 5.539574629367334637e+02
2.507752325697709672e+00 5.540586496576323725e+02
2.507852355706712277e+00 5.541601485834087271e+02
2.507952385715714883e+00 5.542619584618782937e+02
2.508052415724717488e+00 5.543640780321248940e+02
2.508152445733720093e+00 5.544665060245353061e+02
2.508252475742722698e+00 5.545692411608297334e+02
2.508352505751725747e+00 5.546722821540954556e+02
2.508452535760728352e+00 5.547756277088162733e+02
2.508552565769730958e+00 5.548792765209096842e+02
2.508652595778733563e+00 5.549832272777563276e+02
2.508752625787736168e+00 5.550874786582367051e+02
2.508852655796739661e+00 5.551920293327601712e+02
2.508952685805741822e+00 5.552968779633048371e+02
2.509052715814744872e+00 5.554020232034470155e+02
2.509152745823747033e+00 5.555074636983986238e+02
2.509252775832750082e+00 5.556131980850398122e+02
2.509352805841752243e+00 5.557192249919563665e+02
2.509452835850755736e+00 5.558255430394724499e+02
2.509552865859758342e+00 5.559321508396882336e+02
2.509652895868760947e+00 5.560390469965152533e+02
2.509752925877763552e+00 5.561462301057116520e+02
2.509852955886766157e+00 5.562536987549194691e+02
2.509952985895768762e+00 5.563614515237015894e+02
2.510053015904771812e+00 5.564694869835766440e+02
2.510153045913774417e+00 5.565778036980597108e+02
2.510253075922777022e+00 5.566864002226952834e+02
2.510353105931779627e+00 5.567952751050991083e+02
2.510453135940782232e+00 5.569044268849941091e+02
2.510553165949784837e+00 5.570138540942469945e+02
2.510653195958787887e+00 5.571235552569114589e+02
2.510753225967790492e+00 5.572335288892622884e+02
2.510853255976793097e+00 5.573437734998348105e+02
2.510953285985795702e+00 5.574542875894671852e+02
2.511053315994798307e+00 5.575650696513368985e+02
2.511153346003800912e+00 5.576761181710021447e+02
2.511253376012803962e+00 5.577874316264402523e+02
2.511353406021807011e+00 5.578990084880894074e+02
2.511453436030809172e+00 5.580108472188871929e+02
2.511553466039812221e+00 5.581229462743135628e+02
2.511653496048814382e+00 5.582353041024300637e+02
2.511753526057817876e+00 5.583479191439216720e+02
2.511853556066820481e+00 5.584607898321386301e+02
2.511953586075823086e+00 5.585739145931352141e+02
2.512053616084825691e+00 5.586872918457166861e+02
2.512153646093828296e+00 5.588009200014769249e+02
2.512253676102830902e+00 5.589147974648420814e+02
2.512353706111833951e+00 5.590289226331138934e+02
2.512453736120836556e+00 5.591432938965118637e+02
2.512553766129839161e+00 5.592579096382163470e+02
2.512653796138841766e+00 5.593727682344119785e+02
2.512753826147844372e+00 5.594878680543300788e+02
2.512853856156846977e+00 5.596032074602942430e+02
2.512953886165850026e+00 5.597187848077625176e+02
2.513053916174852631e+00 5.598345984453717392e+02
2.513153946183855236e+00 5.599506467149834634e+02
2.513253976192857841e+00 5.600669279517259156e+02
2.513354006201860447e+00 5.601834404840416255e+02
2.513454036210863052e+00 5.603001826337297189e+02
2.513554066219866101e+00 5.604171527159928701e+02
2.513654096228869150e+00 5.605343490394826631e+02
2.513754126237871311e+00 5.606517699063440432e+02
2.513854156246874361e+00 5.607694136122620421e+02
2.513954186255876522e+00 5.608872784465070254e+02
2.514054216264879571e+00 5.610053626919838052e+02
2.514154246273882620e+00 5.611236646252717719e+02
2.514254276282885225e+00 5.612421825166801455e+02
2.514354306291887831e+00 5.613609146302859472e+02
2.514454336300890436e+00 5.614798592239885693e+02
2.514554366309893041e+00 5.615990145495519528e+02
2.514654396318896090e+00 5.617183788526540411e+02
2.514754426327898695e+00 5.618379503729350972e+02
2.514854456336901301e+00 5.619577273440437466e+02
2.514954486345903906e+00 5.620777079936855216e+02
2.515054516354906511e+00 5.621978905436725427e+02
2.515154546363909116e+00 5.623182732099697887e+02
2.515254576372912165e+00 5.624388542027448921e+02
2.515354606381914770e+00 5.625596317264169102e+02
2.515454636390917376e+00 5.626806039797047561e+02
2.515554666399919981e+00 5.628017691556758564e+02
2.515654696408922586e+00 5.629231254417974242e+02
2.515754726417925191e+00 5.630446710199842073e+02
2.515854756426928240e+00 5.631664040666472602e+02
2.515954786435931290e+00 5.632883227527478311e+02
2.516054816444933451e+00 5.634104252438409048e+02
2.516154846453936500e+00 5.635327097001328411e+02
2.516254876462938661e+00 5.636551742765252584e+02
2.516354906471941710e+00 5.637778171226700579e+02
2.516454936480944760e+00 5.639006363830164901e+02
2.516554966489947365e+00 5.640236301968650423e+02
2.516654996498949970e+00 5.641467966984166651e+02
2.516755026507952575e+00 5.642701340168249544e+02
2.516855056516955180e+00 5.643936402762466287e+02
2.516955086525957785e+00 5.645173135958921193e+02
2.517055116534960835e+00 5.646411520900812775e+02
2.517155146543963440e+00 5.647651538682890759e+02
2.517255176552966045e+00 5.648893170352027937e+02
2.517355206561968650e+00 5.650136396907704466e+02
2.517455236570971255e+00 5.651381199302574032e+02
2.517555266579974305e+00 5.652627558442924283e+02
2.517655296588976910e+00 5.653875455189264585e+02
2.517755326597979515e+00 5.655124870356819429e+02
2.517855356606982120e+00 5.656375784716045700e+02
2.517955386615984725e+00 5.657628178993210213e+02
2.518055416624987330e+00 5.658882033870861505e+02
2.518155446633990380e+00 5.660137329988406236e+02
2.518255476642993429e+00 5.661394047942624184e+02
2.518355506651995590e+00 5.662652168288198027e+02
2.518455536660998639e+00 5.663911671538264727e+02
2.518555566670000800e+00 5.665172538164949856e+02
2.518655596679003850e+00 5.666434748599892828e+02
2.518755626688006899e+00 5.667698283234794872e+02
2.518855656697009504e+00 5.668963122421974958e+02
2.518955686706012109e+00 5.670229246474882530e+02
2.519055716715014714e+00 5.671496635668667068e+02
2.519155746724017320e+00 5.672765270240712425e+02
2.519255776733019925e+00 5.674035130391180246e+02
2.519355806742022974e+00 5.675306196283565896e+02
2.519455836751025579e+00 5.676578448045238474e+02
2.519555866760028184e+00 5.677851865767984236e+02
2.519655896769030790e+00 5.679126429508585261e+02
2.519755926778033395e+00 5.680402119289335587e+02
2.519855956787036000e+00 5.681678915098618745e+02
2.519955986796039049e+00 5.682956796891447766e+02
2.520056016805041654e+00 5.684235744590023387e+02
2.520156046814044259e+00 5.685515738084287705e+02
2.520256076823046865e+00 5.686796757232492610e+02
2.520356106832049470e+00 5.688078781861744346e+02
2.520456136841052075e+00 5.689361791768565126e+02
2.520556166850055568e+00 5.690645766719460426e+02
2.520656196859057729e+00 5.691930686451454449e+02
2.520756226868060779e+00 5.693216530672692670e+02
2.520856256877062940e+00 5.694503279062952288e+02
2.520956286886065989e+00 5.695790911274258406e+02
2.521056316895069038e+00 5.697079406931418362e+02
2.521156346904071643e+00 5.698368745632576520e+02
2.521256376913074249e+00 5.699658906949791799e+02
2.521356406922076854e+00 5.700949870429631119e+02
2.521456436931079459e+00 5.702241615593683264e+02
2.521556466940082064e+00 5.703534121939164834e+02
2.521656496949085113e+00 5.704827368939475036e+02
2.521756526958087719e+00 5.706121336044770942e+02
2.521856556967090324e+00 5.707416002682523413e+02
2.521956586976092929e+00 5.708711348258095768e+02
2.522056616985095534e+00 5.710007352155331546e+02
2.522156646994098139e+00 5.711303993737087694e+02
2.522256677003101188e+00 5.712601252345857574e+02
2.522356707012103794e+00 5.713899107304273457e+02
2.522456737021106399e+00 5.715197537915761359e+02
2.522556767030109004e+00 5.716496523465051496e+02
2.522656797039111609e+00 5.717796043218781961e+02
2.522756827048114214e+00 5.719096076426067157e+02
2.522856857057117708e+00 5.720396602319066233e+02
2.522956887066119869e+00 5.721697600113582212e+02
2.523056917075122918e+00 5.722999049009602004e+02
2.523156947084125079e+00 5.724300928191896674e+02
2.523256977093128128e+00 5.725603216830602378e+02
2.523357007102130289e+00 5.726905894081780843e+02
2.523457037111133783e+00 5.728208939088011675e+02
2.523557067120136388e+00 5.729512330978955106e+02
2.523657097129138993e+00 5.730816048871946577e+02
2.523757127138141598e+00 5.732120071872569724e+02
2.523857157147144203e+00 5.733424379075221395e+02
2.523957187156147253e+00 5.734728949563713059e+02
2.524057217165149858e+00 5.736033762411844918e+02
2.524157247174152463e+00 5.737338796683969804e+02
2.524257277183155068e+00 5.738644031435585475e+02
2.524357307192157673e+00 5.739949445713915566e+02
2.524457337201160279e+00 5.741255018558492793e+02
2.524557367210163328e+00 5.742560729001727395e+02
2.524657397219165933e+00 5.743866556069492617e+02
2.524757427228168538e+00 5.745172478781710197e+02
2.524857457237171143e+00 5.746478476152931307e+02
2.524957487246173748e+00 5.747784527192907262e+02
2.525057517255176354e+00 5.749090610907179553e+02
2.525157547264179847e+00 5.750396706297659648e+02
2.525257577273182008e+00 5.751702792363200842e+02
2.525357607282185057e+00 5.753008848100192836e+02
2.525457637291187218e+00 5.754314852503136990e+02
2.525557667300190268e+00 5.755620784565221584e+02
2.525657697309192429e+00 5.756926623278909574e+02
2.525757727318195922e+00 5.758232347636516124e+02
2.525857757327198527e+00 5.759537936630792956e+02
2.525957787336201132e+00 5.760843369255493371e+02
2.526057817345203738e+00 5.762148624505980479e+02
2.526157847354206343e+00 5.763453681379776299e+02
2.526257877363208948e+00 5.764758518877169990e+02
2.526357907372211997e+00 5.766063116001776052e+02
2.526457937381214602e+00 5.767367451761119810e+02
2.526557967390217208e+00 5.768671505167228588e+02
2.526657997399219813e+00 5.769975255237186502e+02
2.526758027408222418e+00 5.771278680993743819e+02
2.526858057417225467e+00 5.772581761465862655e+02
2.526958087426228072e+00 5.773884475689324063e+02
2.527058117435230677e+00 5.775186802707281686e+02
2.527158147444233283e+00 5.776488721570859752e+02
2.527258177453235888e+00 5.777790211339712414e+02
2.527358207462238493e+00 5.779091251082616054e+02
2.527458237471241986e+00 5.780391819878029764e+02
2.527558267480244147e+00 5.781691896814687652e+02
2.527658297489247197e+00 5.782991460992152497e+02
2.527758327498249358e+00 5.784290491521420563e+02
2.527858357507252407e+00 5.785588967525470707e+02
2.527958387516254568e+00 5.786886868139843045e+02
2.528058417525258061e+00 5.788184172513214207e+02
2.528158447534260667e+00 5.789480859807980551e+02
2.528258477543263272e+00 5.790776909200811815e+02
2.528358507552265877e+00 5.792072299883243431e+02
2.528458537561268482e+00 5.793367011062219945e+02
2.528558567570271087e+00 5.794661021960694143e+02
2.528658597579274137e+00 5.795954311818175029e+02
2.528758627588276742e+00 5.797246859891317854e+02
2.528858657597279347e+00 5.798538645454461857e+02
2.528958687606281952e+00 5.799829647800238490e+02
2.529058717615284557e+00 5.801119846240092102e+02
2.529158747624287162e+00 5.802409220104892711e+02
2.529258777633290212e+00 5.803697748745460103e+02
2.529358807642292817e+00 5.804985411533161823e+02
2.529458837651295422e+00 5.806272187860453187e+02
2.529558867660298027e+00 5.807558057141450263e+02
2.529658897669300632e+00 5.808842998812496035e+02
2.529758927678304126e+00 5.810126992332706095e+02
2.529858957687306287e+00 5.811410017184554135e+02
2.529958987696309336e+00 5.812692052874410820e+02
2.530059017705311497e+00 5.813973078933103125e+02
2.530159047714314546e+00 5.815253074916489595e+02
2.530259077723316707e+00 5.816532020405991261e+02
2.530359107732320201e+00 5.817809895009169168e+02
2.530459137741322806e+00 5.819086678360276892e+02
2.530559167750325411e+00 5.820362350120794872e+02
2.530659197759328016e+00 5.821636889980006799e+02
2.530759227768330621e+00 5.822910277655550999e+02
2.530859257777333227e+00 5.824182492893942253e+02
2.530959287786336276e+00 5.825453515471148194e+02
2.531059317795338881e+00 5.826723325193142955e+02
2.531159347804341486e+00 5.827991901896427862e+02
2.531259377813344091e+00 5.829259225448595316e+02
2.531359407822346697e+00 5.830525275748871081e+02
2.531459437831349302e+00 5.831790032728669075e+02
2.531559467840352351e+00 5.833053476352110920e+02
2.531659497849354956e+00 5.834315586616583005e+02
2.531759527858357561e+00 5.835576343553275365e+02
2.531859557867360166e+00 5.836835727227720554e+02
2.531959587876362772e+00 5.838093717740332522e+02
2.532059617885365377e+00 5.839350295226938670e+02
2.532159647894368426e+00 5.840605439859309627e+02
2.532259677903371475e+00 5.841859131845714046e+02
2.532359707912373636e+00 5.843111351431437015e+02
2.532459737921376686e+00 5.844362078899308699e+02
2.532559767930378847e+00 5.845611294570235259e+02
2.532659797939382340e+00 5.846858978803745686e+02
2.532759827948384945e+00 5.848105111998487473e+02
2.532859857957387550e+00 5.849349674592781412e+02
2.532959887966390156e+00 5.850592647065133178e+02
2.533059917975392761e+00 5.851834009934749474e+02
2.533159947984395366e+00 5.853073743762078038e+02
2.533259977993398415e+00 5.854311829149307869e+02
2.533360008002401020e+00 5.855548246740906961e+02
2.533460038011403626e+00 5.856782977224115712e+02
2.533560068020406231e+00 5.858016001329488063e+02
2.533660098029408836e+00 5.859247299831395139e+02
2.533760128038411441e+00 5.860476853548522058e+02
2.533860158047414490e+00 5.861704643344407941e+02
2.533960188056417095e+00 5.862930650127922263e+02
2.534060218065419701e+00 5.864154854853818506e+02
2.534160248074422306e+00 5.865377238523179813e+02
2.534260278083424911e+00 5.866597782183978325e+02
2.534360308092427516e+00 5.867816466931548121e+02
2.534460338101430565e+00 5.869033273909084301e+02
2.534560368110433615e+00 5.870248184308163673e+02
2.534660398119435776e+00 5.871461179369229058e+02
2.534760428128438825e+00 5.872672240382078144e+02
2.534860458137440986e+00 5.873881348686358024e+02
2.534960488146444035e+00 5.875088485672094976e+02
2.535060518155447085e+00 5.876293632780124199e+02
2.535160548164449690e+00 5.877496771502617321e+02
2.535260578173452295e+00 5.878697883383576936e+02
2.535360608182454900e+00 5.879896950019282258e+02
2.535460638191457505e+00 5.881093953058816624e+02
2.535560668200460555e+00 5.882288874204514286e+02
2.535660698209463160e+00 5.883481695212470868e+02
2.535760728218465765e+00 5.884672397892977642e+02
2.535860758227468370e+00 5.885860964111062685e+02
2.535960788236470975e+00 5.887047375786891052e+02
2.536060818245473580e+00 5.888231614896292285e+02
2.536160848254476630e+00 5.889413663471209475e+02
2.536260878263479235e+00 5.890593503600157419e+02
2.536360908272481840e+00 5.891771117428709204e+02
2.536460938281484445e+00 5.892946487159948674e+02
2.536560968290487050e+00 5.894119595054929732e+02
2.536660998299489655e+00 5.895290423433154956e+02
2.536761028308492705e+00 5.896458954673004200e+02
2.536861058317495754e+00 5.897625171212217765e+02
2.536961088326497915e+00 5.898789055548331817e+02
2.537061118335500964e+00 5.899950590239143366e+02
2.537161148344503125e+00 5.901109757903153650e+02
2.537261178353506175e+00 5.902266541220003546e+02
2.537361208362509224e+00 5.903420922930953338e+02
2.537461238371511829e+00 5.904572885839289711e+02
2.537561268380514434e+00 5.905722412810786182e+02
2.537661298389517039e+00 5.906869486774135112e+02
2.537761328398519645e+00 5.908014090721401317e+02
2.537861358407522250e+00 5.909156207708416559e+02
2.537961388416525299e+00 5.910295820855267266e+02
2.538061418425527904e+00 5.911432913346670830e+02
2.538161448434530509e+00 5.912567468432450823e+02
2.538261478443533115e+00 5.913699469427929216e+02
2.538361508452535720e+00 5.914828899714364070e+02
2.538461538461538769e+00 5.915955742739361085e+02
2.538561568470541374e+00 5.917079982017307884e+02
2.538661598479543979e+00 5.918201601129790106e+02
2.538761628488546584e+00 5.919320583725981351e+02
2.538861658497549190e+00 5.920436913523080875e+02
2.538961688506551795e+00 5.921550574306721728e+02
2.539061718515554844e+00 5.922661549931353875e+02
2.539161748524557893e+00 5.923769824320684165e+02
2.539261778533560054e+00 5.924875381468048090e+02
2.539361808542563104e+00 5.925978205436838380e+02
2.539461838551565265e+00 5.927078280360868803e+02
2.539561868560568314e+00 5.928175590444798218e+02
2.539661898569571363e+00 5.929270119964526202e+02
2.539761928578573968e+00 5.930361853267543211e+02
2.539861958587576574e+00 5.931450774773372814e+02
2.539961988596579179e+00 5.932536868973915034e+02
2.540062018605581784e+00 5.933620120433852207e+02
2.540162048614584389e+00 5.934700513791025287e+02
2.540262078623587438e+00 5.935778033756807872e+02
2.540362108632590044e+00 5.936852665116481376e+02
2.540462138641592649e+00 5.937924392729612464e+02
2.540562168650595254e+00 5.938993201530427086e+02
2.540662198659597859e+00 5.940059076528165178e+02
2.540762228668600464e+00 5.941122002807460376e+02
2.540862258677603513e+00 5.942181965528694718e+02
2.540962288686606119e+00 5.943238949928366992e+02
2.541062318695608724e+00 5.944292941319434931e+02
2.541162348704611329e+00 5.945343925091689243e+02
2.541262378713613934e+00 5.946391886712093537e+02
2.541362408722616983e+00 5.947436811725139023e+02
2.541462438731620033e+00 5.948478685753190121e+02
2.541562468740622194e+00 5.949517494496838026e+02
2.541662498749625243e+00 5.950553223735221309e+02
2.541762528758627404e+00 5.951585859326387435e+02
2.541862558767630453e+00 5.952615387207621325e+02
2.541962588776633503e+00 5.953641793395772766e+02
2.542062618785636108e+00 5.954665063987603162e+02
2.542162648794638713e+00 5.955685185160098172e+02
2.542262678803641318e+00 5.956702143170804220e+02
2.542362708812643923e+00 5.957715924358140001e+02
2.542462738821646528e+00 5.958726515141739810e+02
2.542562768830649578e+00 5.959733902022740040e+02
2.542662798839652183e+00 5.960738071584121371e+02
2.542762828848654788e+00 5.961739010491003228e+02
2.542862858857657393e+00 5.962736705490967779e+02
2.542962888866659998e+00 5.963731143414349845e+02
2.543062918875662604e+00 5.964722311174558627e+02
2.543162948884665653e+00 5.965710195768363064e+02
2.543262978893668258e+00 5.966694784276198789e+02
2.543363008902670863e+00 5.967676063862463707e+02
2.543463038911673468e+00 5.968654021775811316e+02
2.543563068920676074e+00 5.969628645349426961e+02
2.543663098929678679e+00 5.970599922001337063e+02
2.543763128938682172e+00 5.971567839234679695e+02
2.543863158947684333e+00 5.972532384637986524e+02
2.543963188956687382e+00 5.973493545885457934e+02
2.544063218965689543e+00 5.974451310737247240e+02
2.544163248974692593e+00 5.975405667039739228e+02
2.544263278983695642e+00 5.976356602725795710e+02
2.544363308992698247e+00 5.977304105815048842e+02
2.544463339001700852e+00 5.978248164414133043e+02
2.544563369010703457e+00 5.979188766716991950e+02
2.544663399019706063e+00 5.980125901005092146e+02
2.544763429028708668e+00 5.981059555647711932e+02
2.544863459037711717e+00 5.981989719102166418e+02
2.544963489046714322e+00 5.982916379914072422e+02
2.545063519055716927e+00 5.983839526717594026e+02
2.545163549064719533e+00 5.984759148235675639e+02
2.545263579073722138e+00 5.985675233280304610e+02
2.545363609082724743e+00 5.986587770752723827e+02
2.545463639091727792e+00 5.987496749643680687e+02
2.545563669100730397e+00 5.988402159033652197e+02
2.545663699109733003e+00 5.989303988093085991e+02
2.545763729118735608e+00 5.990202226082593597e+02
2.545863759127738213e+00 5.991096862353224424e+02
2.545963789136740818e+00 5.991987886346637424e+02
2.546063819145744311e+00 5.992875287595339842e+02
2.546163849154746472e+00 5.993759055722905487e+02
2.546263879163749522e+00 5.994639180444171416e+02
2.546363909172751683e+00 5.995515651565452799e+02
2.546463939181754732e+00 5.996388458984741874e+02
2.546563969190756893e+00 5.997257592691923946e+02
2.546663999199760386e+00 5.998123042768963842e+02
2.546764029208762992e+00 5.998984799390086664e+02
2.546864059217765597e+00 5.999842852822015402e+02
2.546964089226768202e+00 6.000697193424100533e+02
2.547064119235770807e+00 6.001547811648561037e+02
2.547164149244773856e+00 6.002394698040623098e+02
2.547264179253776462e+00 6.003237843238750884e+02
2.547364209262779067e+00 6.004077237974761374e+02
2.547464239271781672e+00 6.004912873074049458e+02
2.547564269280784277e+00 6.005744739455730041e+02
2.547664299289786882e+00 6.006572828132815403e+02
2.547764329298789931e+00 6.007397130212391403e+02
2.547864359307792537e+00 6.008217636895756186e+02
2.547964389316795142e+00 6.009034339478589573e+02
2.548064419325797747e+00 6.009847229351115629e+02
2.548164449334800352e+00 6.010656297998239097e+02
2.548264479343802957e+00 6.011461536999719328e+02
2.548364509352806451e+00 6.012262938030278292e+02
2.548464539361808612e+00 6.013060492859788155e+02
2.548564569370811661e+00 6.013854193353367918e+02
2.548664599379813822e+00 6.014644031471556218e+02
2.548764629388816871e+00 6.015429999270419330e+02
2.548864659397819032e+00 6.016212088901701236e+02
2.548964689406822526e+00 6.016990292612936173e+02
2.549064719415825131e+00 6.017764602747580511e+02
2.549164749424827736e+00 6.018535011745119618e+02
2.549264779433830341e+00 6.019301512141219064e+02
2.549364809442832946e+00 6.020064096567800789e+02
2.549464839451835552e+00 6.020822757753178394e+02
2.549564869460838601e+00 6.021577488522148087e+02
2.549664899469841206e+00 6.022328281796125111e+02
2.549764929478843811e+00 6.023075130593218773e+02
2.549864959487846416e+00 6.023818028028324534e+02
2.549964989496849022e+00 6.024556967313246787e+02
2.550065019505852071e+00 6.025291941756780716e+02
2.550165049514854676e+00 6.026022944764793010e+02
2.550265079523857281e+00 6.026749969840318499e+02
2.550365109532859886e+00 6.027473010583637461e+02
2.550465139541862492e+00 6.028192060692364294e+02
2.550565169550865097e+00 6.028907113961513460e+02
2.550665199559868590e+00 6.029618164283574515e+02
2.550765229568870751e+00 6.030325205648597375e+02
2.550865259577873800e+00 6.031028232144243475e+02
2.550965289586875961e+00 6.031727237955853980e+02
2.551065319595879011e+00 6.032422217366521409e+02
2.551165349604881172e+00 6.033113164757128288e+02
2.551265379613884665e+00 6.033800074606421049e+02
2.551365409622887270e+00 6.034482941491052088e+02
2.551465439631889875e+00 6.035161760085624110e+02
2.551565469640892481e+00 6.035836525162752650e+02
2.551665499649895086e+00 6.036507231593081997e+02
2.551765529658897691e+00 6.037173874345352260e+02
2.551865559667900740e+00 6.037836448486428935e+02
2.551965589676903345e+00 6.038494949181298352e+02
2.552065619685905951e+00 6.039149371693165449e+02
2.552165649694908556e+00 6.039799711383418526e+02
2.552265679703911161e+00 6.040445963711686090e+02
2.552365709712913766e+00 6.041088124235849364e+02
2.552465739721916815e+00 6.041726188612053647e+02
2.552565769730919421e+00 6.042360152594734473e+02
2.552665799739922026e+00 6.042990012036601684e+02
2.552765829748924631e+00 6.043615762888696281e+02
2.552865859757927236e+00 6.044237401200338127e+02
2.552965889766929841e+00 6.044854923119169143e+02
2.553065919775932890e+00 6.045468324891123757e+02
2.553165949784935940e+00 6.046077602860451634e+02
2.553265979793938101e+00 6.046682753469674481e+02
2.553366009802941150e+00 6.047283773259622421e+02
2.553466039811943311e+00 6.047880658869364652e+02
2.553566069820946804e+00 6.048473407036233311e+02
2.553666099829949410e+00 6.049062014595787105e+02
2.553766129838952015e+00 6.049646478481786289e+02
2.553866159847954620e+00 6.050226795726175624e+02
2.553966189856957225e+00 6.050802963459045714e+02
2.554066219865959830e+00 6.051374978908590947e+02
2.554166249874962880e+00 6.051942839401111769e+02
2.554266279883965485e+00 6.052506542360913500e+02
2.554366309892968090e+00 6.053066085310323388e+02
2.554466339901970695e+00 6.053621465869615577e+02
2.554566369910973300e+00 6.054172681756962220e+02
2.554666399919975905e+00 6.054719730788389143e+02
2.554766429928978955e+00 6.055262610877726956e+02
2.554866459937981560e+00 6.055801320036533752e+02
2.554966489946984165e+00 6.056335856374055311e+02
2.555066519955986770e+00 6.056866218097145520e+02
2.555166549964989375e+00 6.057392403510215217e+02
2.555266579973991981e+00 6.057914411015141241e+02
2.555366609982995030e+00 6.058432239111205035e+02
2.555466639991998079e+00 6.058945886395027856e+02
2.555566670001000240e+00 6.059455351560478675e+02
2.555666700010003289e+00 6.059960633398577556e+02
2.555766730019005450e+00 6.060461730797446762e+02
2.555866760028008500e+00 6.060958642742182292e+02
2.555966790037011549e+00 6.061451368314793626e+02
2.556066820046014154e+00 6.061939906694095725e+02
2.556166850055016759e+00 6.062424257155616942e+02
2.556266880064019364e+00 6.062904419071489883e+02
2.556366910073021970e+00 6.063380391910347953e+02
2.556466940082025019e+00 6.063852175237238953e+02
2.556566970091027624e+00 6.064319768713484109e+02
2.556667000100030229e+00 6.064783172096603039e+02
2.556767030109032834e+00 6.065242385240154590e+02
2.556867060118035440e+00 6.065697408093661807e+02
2.556967090127038045e+00 6.066148240702459589e+02
2.557067120136041094e+00 6.066594883207577595e+02
2.557167150145043699e+00 6.067037335845634516e+02
2.557267180154046304e+00 6.067475598948664128e+02
2.557367210163048910e+00 6.067909672944031172e+02
2.557467240172051515e+00 6.068339558354265364e+02
2.557567270181054120e+00 6.068765255796918154e+02
2.557667300190057169e+00 6.069186765984443355e+02
2.557767330199060218e+00 6.069604089724041387e+02
2.557867360208062379e+00 6.070017227917489890e+02
2.557967390217065429e+00 6.070426181561055046e+02
2.558067420226067590e+00 6.070830951745259654e+02
2.558167450235070639e+00 6.071231539654771723e+02
2.558267480244073688e+00 6.071627946568253265e+02
2.558367510253076293e+00 6.072020173858156795e+02
2.558467540262078899e+00 6.072408222990612785e+02
2.558567570271081504e+00 6.072792095525207969e+02
2.558667600280084109e+00 6.073171793114869388e+02
2.558767630289086714e+00 6.073547317505624505e+02
2.558867660298089763e+00 6.073918670536506852e+02
2.558967690307092369e+00 6.074285854139299090e+02
2.559067720316094974e+00 6.074648870338390907e+02
2.559167750325097579e+00 6.075007721250601662e+02
2.559267780334100184e+00 6.075362409084962110e+02
2.559367810343103233e+00 6.075712936142549552e+02
2.559467840352105839e+00 6.076059304816282065e+02
2.559567870361108444e+00 6.076401517590722960e+02
2.559667900370111049e+00 6.076739577041892062e+02
2.559767930379113654e+00 6.077073485837045155e+02
2.559867960388116259e+00 6.077403246734497770e+02
2.559967990397119308e+00 6.077728862583378486e+02
2.560068020406122358e+00 6.078050336323469764e+02
2.560168050415124519e+00 6.078367670984946471e+02
2.560268080424127568e+00 6.078680869688184885e+02
2.560368110433129729e+00 6.078989935643555782e+02
2.560468140442132778e+00 6.079294872151176605e+02
2.560568170451135828e+00 6.079595682600704549e+02
2.560668200460138433e+00 6.079892370471103504e+02
2.560768230469141038e+00 6.080184939330436009e+02
2.560868260478143643e+00 6.080473392835598361e+02
2.560968290487146248e+00 6.080757734732106883e+02
2.561068320496148853e+00 6.081037968853875100e+02
2.561168350505151903e+00 6.081314099122928383e+02
2.561268380514154508e+00 6.081586129549216366e+02
2.561368410523157113e+00 6.081854064230337826e+02
2.561468440532159718e+00 6.082117907351291706e+02
2.561568470541162323e+00 6.082377663184250878e+02
2.561668500550164929e+00 6.082633336088280203e+02
2.561768530559167978e+00 6.082884930509114838e+02
2.561868560568170583e+00 6.083132450978858969e+02
2.561968590577173188e+00 6.083375902115776626e+02
2.562068620586175793e+00 6.083615288623988135e+02
2.562168650595178399e+00 6.083850615293240480e+02
2.562268680604181448e+00 6.084081886998607160e+02
2.562368710613184497e+00 6.084309108700234674e+02
2.562468740622186658e+00 6.084532285443078763e+02
2.562568770631189707e+00 6.084751422356612238e+02
2.562668800640191868e+00 6.084966524654554405e+02
2.562768830649194918e+00 6.085177597634594804e+02
2.562868860658197967e+00 6.085384646678115814e+02
2.562968890667200572e+00 6.085587677249893659e+02
2.563068920676203177e+00 6.085786694897816460e+02
2.563168950685205782e+00 6.085981705252609117e+02
2.563268980694208388e+00 6.086172714027532038e+02
2.563369010703210993e+00 6.086359727018069634e+02
2.563469040712214042e+00 6.086542750101662023e+02
2.563569070721216647e+00 6.086721789237401481e+02
2.563669100730219252e+00 6.086896850465710713e+02
2.563769130739221858e+00 6.087067939908063181e+02
2.563869160748224463e+00 6.087235063766665917e+02
2.563969190757227068e+00 6.087398228324148022e+02
2.564069220766230117e+00 6.087557439943274176e+02
2.564169250775232722e+00 6.087712705066594481e+02
2.564269280784235328e+00 6.087864030216154561e+02
2.564369310793237933e+00 6.088011421993185195e+02
2.564469340802240538e+00 6.088154887077756712e+02
2.564569370811243143e+00 6.088294432228485675e+02
2.564669400820246636e+00 6.088430064282183594e+02
2.564769430829248797e+00 6.088561790153570428e+02
2.564869460838251847e+00 6.088689616834892604e+02
2.564969490847254008e+00 6.088813551395651302e+02
2.565069520856257057e+00 6.088933600982210237e+02
2.565169550865260106e+00 6.089049772817522808e+02
2.565269580874262711e+00 6.089162074200747838e+02
2.565369610883265317e+00 6.089270512506932391e+02
2.565469640892267922e+00 6.089375095186670706e+02
2.565569670901270527e+00 6.089475829765756316e+02
2.565669700910273132e+00 6.089572723844831899e+02
2.565769730919276181e+00 6.089665785099062987e+02
2.565869760928278787e+00 6.089755021277757123e+02
2.565969790937281392e+00 6.089840440204058041e+02
2.566069820946283997e+00 6.089922049774534116e+02
2.566169850955286602e+00 6.089999857958881648e+02
2.566269880964289207e+00 6.090073872799529227e+02
2.566369910973292257e+00 6.090144102411286440e+02
2.566469940982294862e+00 6.090210554981001678e+02
2.566569970991297467e+00 6.090273238767168777e+02
2.566670001000300072e+00 6.090332162099596189e+02
2.566770031009302677e+00 6.090387333379013626e+02
2.566870061018305282e+00 6.090438761076709397e+02
2.566970091027308776e+00 6.090486453734170027e+02
2.567070121036310937e+00 6.090530419962699398e+02
2.567170151045313986e+00 6.090570668443045861e+02
2.567270181054316147e+00 6.090607207925024795e+02
2.567370211063319196e+00 6.090640047227155947e+02
2.567470241072321357e+00 6.090669195236256428e+02
2.567570271081324851e+00 6.090694660907075786e+02
2.567670301090327456e+00 6.090716453261917422e+02
2.567770331099330061e+00 6.090734581390252060e+02
2.567870361108332666e+00 6.090749054448300512e+02
2.567970391117335272e+00 6.090759881658709674e+02
2.568070421126338321e+00 6.090767072310095500e+02
2.568170451135340926e+00 6.090770635756683760e+02
2.568270481144343531e+00 6.090770581417922358e+02
2.568370511153346136e+00 6.090766918778069794e+02
2.568470541162348741e+00 6.090759657385802939e+02
2.568570571171351347e+00 6.090748806853835049e+02
2.568670601180354396e+00 6.090734376858473524e+02
2.568770631189357001e+00 6.090716377139270890e+02
2.568870661198359606e+00 6.090694817498585962e+02
2.568970691207362211e+00 6.090669707801195045e+02
2.569070721216364817e+00 6.090641057973872421e+02
2.569170751225367422e+00 6.090608878004996996e+02
2.569270781234370915e+00 6.090573177944136205e+02
2.569370811243373076e+00 6.090533967901632195e+02
2.569470841252376125e+00 6.090491258048191412e+02
2.569570871261378286e+00 6.090445058614468508e+02
2.569670901270381336e+00 6.090395379890659342e+02
2.569770931279383497e+00 6.090342232226082615e+02
2.569870961288386990e+00 6.090285626028744446e+02
2.569970991297389595e+00 6.090225571764948427e+02
2.570071021306392201e+00 6.090162079958840877e+02
2.570171051315394806e+00 6.090095161192016349e+02
2.570271081324397411e+00 6.090024826103083342e+02
2.570371111333400016e+00 6.089951085387231160e+02
2.570471141342403065e+00 6.089873949795821773e+02
2.570571171351405670e+00 6.089793430135941890e+02
2.570671201360408276e+00 6.089709537269982320e+02
2.570771231369410881e+00 6.089622282115219605e+02
2.570871261378413486e+00 6.089531675643361268e+02
2.570971291387416535e+00 6.089437728880138820e+02
2.571071321396419140e+00 6.089340452904838230e+02
2.571171351405421746e+00 6.089239858849904294e+02
2.571271381414424351e+00 6.089135957900482481e+02
2.571371411423426956e+00 6.089028761293972138e+02
2.571471441432429561e+00 6.088918280319627456e+02
2.571571471441433054e+00 6.088804526318056105e+02
2.571671501450435215e+00 6.088687510680828154e+02
2.571771531459438265e+00 6.088567244850032694e+02
2.571871561468440426e+00 6.088443740317792390e+02
2.571971591477443475e+00 6.088317008625863309e+02
2.572071621486445636e+00 6.088187061365156296e+02
2.572171651495449129e+00 6.088053910175319743e+02
2.572271681504451735e+00 6.087917566744276883e+02
2.572371711513454340e+00 6.087778042807777865e+02
2.572471741522456945e+00 6.087635350148947282e+02
2.572571771531459550e+00 6.087489500597833967e+02
2.572671801540462155e+00 6.087340506030972165e+02
2.572771831549465205e+00 6.087188378370909732e+02
2.572871861558467810e+00 6.087033129585776123e+02
2.572971891567470415e+00 6.086874771688806049e+02
2.573071921576473020e+00 6.086713316737893820e+02
2.573171951585475625e+00 6.086548776835145418e+02
2.573271981594478230e+00 6.086381164126410113e+02
2.573372011603481280e+00 6.086210490800826847e+02
2.573472041612483885e+00 6.086036769090364942e+02
2.573572071621486490e+00 6.085860011269365941e+02
2.573672101630489095e+00 6.085680229654076356e+02
2.573772131639491700e+00 6.085497436602208836e+02
2.573872161648495194e+00 6.085311644512444218e+02
2.573972191657497355e+00 6.085122865824001792e+02
2.574072221666500404e+00 6.084931113016164090e+02
2.574172251675502565e+00 6.084736398607803949e+02
2.574272281684505614e+00 6.084538735156928624e+02
2.574372311693507775e+00 6.084338135260227318e+02
2.574472341702511269e+00 6.084134611552577780e+02
2.574572371711513874e+00 6.083928176706601789e+02
2.574672401720516479e+00 6.083718843432184258e+02
2.574772431729519084e+00 6.083506624476018487e+02
2.574872461738521690e+00 6.083291532621126407e+02
2.574972491747524295e+00 6.083073580686399282e+02
2.575072521756527344e+00 6.082852781526111130e+02
2.575172551765529949e+00 6.082629148029470798e+02
2.575272581774532554e+00 6.082402693120143340e+02
2.575372611783535159e+00 6.082173429755762299e+02
2.575472641792537765e+00 6.081941370927503385e+02
2.575572671801540370e+00 6.081706529659542184e+02
2.575672701810543419e+00 6.081468919008650573e+02
2.575772731819546024e+00 6.081228552063682855e+02
2.575872761828548629e+00 6.080985441945123284e+02
2.575972791837551235e+00 6.080739601804594940e+02
2.576072821846553840e+00 6.080491044824402707e+02
2.576172851855556445e+00 6.080239784217042143e+02
2.576272881864559494e+00 6.079985833224752696e+02
2.576372911873562543e+00 6.079729205118990194e+02
2.576472941882564704e+00 6.079469913200025530e+02
2.576572971891567754e+00 6.079207970796398968e+02
2.576673001900569915e+00 6.078943391264490401e+02
2.576773031909573408e+00 6.078676187988015727e+02
2.576873061918576013e+00 6.078406374377570955e+02
2.576973091927578619e+00 6.078133963870149046e+02
2.577073121936581224e+00 6.077858969928655597e+02
2.577173151945583829e+00 6.077581406041429091e+02
2.577273181954586434e+00 6.077301285721792965e+02
2.577373211963589483e+00 6.077018622507541750e+02
2.577473241972592088e+00 6.076733429960479498e+02
2.577573271981594694e+00 6.076445721665962765e+02
2.577673301990597299e+00 6.076155511232370827e+02
2.577773331999599904e+00 6.075862812290693000e+02
2.577873362008602509e+00 6.075567638493994309e+02
2.577973392017605558e+00 6.075270003516975521e+02
2.578073422026608164e+00 6.074969921055480881e+02
2.578173452035610769e+00 6.074667404826008124e+02
2.578273482044613374e+00 6.074362468565270774e+02
2.578373512053615979e+00 6.074055126029661551e+02
2.578473542062618584e+00 6.073745390994838544e+02
2.578573572071621633e+00 6.073433277255189751e+02
2.578673602080624683e+00 6.073118798623407883e+02
2.578773632089626844e+00 6.072801968929961731e+02
2.578873662098629893e+00 6.072482802022667556e+02
2.578973692107632054e+00 6.072161311766175231e+02
2.579073722116635103e+00 6.071837512041512355e+02
2.579173752125638153e+00 6.071511416745599945e+02
2.579273782134640758e+00 6.071183039790772682e+02
2.579373812143643363e+00 6.070852395104307107e+02
2.579473842152645968e+00 6.070519496627949820e+02
2.579573872161648573e+00 6.070184358317434317e+02
2.579673902170651623e+00 6.069846994142008043e+02
2.579773932179654228e+00 6.069507418083958328e+02
2.579873962188656833e+00 6.069165644138131483e+02
2.579973992197659438e+00 6.068821686311461008e+02
2.580074022206662043e+00 6.068475558622510562e+02
2.580174052215664648e+00 6.068127275100962379e+02
2.580274082224667698e+00 6.067776849787180709e+02
2.580374112233670303e+00 6.067424296731711593e+02
2.580474142242672908e+00 6.067069629994834941e+02
2.580574172251675513e+00 6.066712863646067717e+02
2.580674202260678118e+00 6.066354011763708058e+02
2.580774232269680724e+00 6.065993088434353240e+02
2.580874262278683773e+00 6.065630107752439244e+02
2.580974292287686822e+00 6.065265083819755318e+02
2.581074322296688983e+00 6.064898030744998323e+02
2.581174352305692032e+00 6.064528962643266823e+02
2.581274382314694193e+00 6.064157893635633627e+02
2.581374412323697243e+00 6.063784837848642155e+02
2.581474442332700292e+00 6.063409809413856237e+02
2.581574472341702897e+00 6.063032822467395135e+02
2.581674502350705502e+00 6.062653891149434457e+02
2.581774532359708108e+00 6.062273029603800296e+02
2.581874562368710713e+00 6.061890251977459911e+02
2.581974592377713318e+00 6.061505572420040835e+02
2.582074622386716367e+00 6.061119005083423872e+02
2.582174652395718972e+00 6.060730564121231509e+02
2.582274682404721577e+00 6.060340263688383402e+02
2.582374712413724183e+00 6.059948117940621160e+02
2.582474742422726788e+00 6.059554141034075201e+02
2.582574772431729393e+00 6.059158347124772490e+02
2.582674802440732442e+00 6.058760750368194294e+02
2.582774832449735047e+00 6.058361364918806657e+02
2.582874862458737653e+00 6.057960204929619294e+02
2.582974892467740258e+00 6.057557284551705834e+02
2.583074922476742863e+00 6.057152617933759302e+02
2.583174952485745912e+00 6.056746219221643059e+02
2.583274982494748961e+00 6.056338102557914453e+02
2.583375012503751122e+00 6.055928282081383713e+02
2.583475042512754172e+00 6.055516771926670572e+02
2.583575072521756333e+00 6.055103586223732464e+02
2.583675102530759382e+00 6.054688739097423422e+02
2.583775132539762431e+00 6.054272244667046152e+02
2.583875162548765037e+00 6.053854117045884777e+02
2.583975192557767642e+00 6.053434370340784199e+02
2.584075222566770247e+00 6.053013018651674884e+02
2.584175252575772852e+00 6.052590076071152225e+02
2.584275282584775457e+00 6.052165556684007015e+02
2.584375312593778506e+00 6.051739474566791159e+02
2.584475342602781112e+00 6.051311843787374301e+02
2.584575372611783717e+00 6.050882678404512944e+02
2.584675402620786322e+00 6.050451992467376385e+02
2.584775432629788927e+00 6.050019800015140845e+02
2.584875462638791532e+00 6.049586115076535862e+02
2.584975492647794582e+00 6.049150951669394090e+02
2.585075522656797187e+00 6.048714323800245438e+02
2.585175552665799792e+00 6.048276245463836176e+02
2.585275582674802397e+00 6.047836730642749217e+02
2.585375612683805002e+00 6.047395793306922087e+02
2.585475642692807607e+00 6.046953447413241065e+02
2.585575672701811101e+00 6.046509706905103485e+02
2.585675702710813262e+00 6.046064585711978907e+02
2.585775732719816311e+00 6.045618097749002118e+02
2.585875762728818472e+00 6.045170256916518383e+02
2.585975792737821521e+00 6.044721077099684408e+02
2.586075822746824571e+00 6.044270572168016997e+02
2.586175852755827176e+00 6.043818755975003114e+02
2.586275882764829781e+00 6.043365642357628076e+02
2.586375912773832386e+00 6.042911245136004936e+02
2.586475942782834991e+00 6.042455578112928833e+02
2.586575972791837597e+00 6.041998655073466580e+02
2.586676002800840646e+00 6.041540489784525789e+02
2.586776032809843251e+00 6.041081095994461521e+02
2.586876062818845856e+00 6.040620487432647678e+02
2.586976092827848461e+00 6.040158677809059782e+02
2.587076122836851066e+00 6.039695680813887293e+02
2.587176152845853672e+00 6.039231510117089101e+02
2.587276182854856721e+00 6.038766179368019493e+02
2.587376212863859326e+00 6.038299702194999554e+02
2.587476242872861931e+00 6.037832092204914716e+02
2.587576272881864536e+00 6.037363362982817989e+02
2.587676302890867142e+00 6.036893528091524104e+02
2.587776332899869747e+00 6.036422601071205918e+02
2.587876362908873240e+00 6.035950595438996515e+02
2.587976392917875401e+00 6.035477524688587891e+02
2.588076422926878450e+00 6.035003402289848964e+02
2.588176452935880612e+00 6.034528241688408343e+02
2.588276482944883661e+00 6.034052056305283713e+02
2.588376512953885822e+00 6.033574859536474833e+02
2.588476542962889315e+00 6.033096664752575862e+02
2.588576572971891920e+00 6.032617485298394513e+02
2.588676602980894526e+00 6.032137334492556420e+02
2.588776632989897131e+00 6.031656225627125423e+02
2.588876662998899736e+00 6.031174171967228403e+02
2.588976693007902785e+00 6.030691186750643737e+02
2.589076723016905390e+00 6.030207283187464782e+02
2.589176753025907995e+00 6.029722474459674686e+02
2.589276783034910601e+00 6.029236773720814426e+02
2.589376813043913206e+00 6.028750194095579218e+02
2.589476843052915811e+00 6.028262748679447895e+02
2.589576873061918860e+00 6.027774450538324800e+02
2.589676903070921465e+00 6.027285312708157790e+02
2.589776933079924071e+00 6.026795348194577855e+02
2.589876963088926676e+00 6.026304569972523950e+02
2.589976993097929281e+00 6.025812990985898523e+02
2.590077023106931886e+00 6.025320624147163926e+02
2.590177053115935379e+00 6.024827482337047968e+02
2.590277083124937541e+00 6.024333578404101672e+02
2.590377113133940590e+00 6.023838925164425291e+02
2.590477143142942751e+00 6.023343535401259032e+02
2.590577173151945800e+00 6.022847421864636317e+02
2.590677203160947961e+00 6.022350597271056358e+02
2.590777233169951455e+00 6.021853074303112408e+02
2.590877263178954060e+00 6.021354865609152966e+02
2.590977293187956665e+00 6.020855983802922538e+02
2.591077323196959270e+00 6.020356441463262627e+02
2.591177353205961875e+00 6.019856251133697924e+02
2.591277383214964480e+00 6.019355425322163455e+02
2.591377413223967530e+00 6.018853976500615772e+02
2.591477443232970135e+00 6.018351917104743052e+02
2.591577473241972740e+00 6.017849259533595614e+02
2.591677503250975345e+00 6.017346016149263050e+02
2.591777533259977950e+00 6.016842199276554766e+02
2.591877563268981000e+00 6.016337821202660052e+02
2.591977593277983605e+00 6.015832894176825221e+02
2.592077623286986210e+00 6.015327430410033003e+02
2.592177653295988815e+00 6.014821442074676270e+02
2.592277683304991420e+00 6.014314941304245394e+02
2.592377713313994025e+00 6.013807940193003105e+02
2.592477743322997519e+00 6.013300450795655934e+02
2.592577773331999680e+00 6.012792485127077953e+02
2.592677803341002729e+00 6.012284055161958349e+02
2.592777833350004890e+00 6.011775172834521754e+02
2.592877863359007939e+00 6.011265850038199687e+02
2.592977893368010101e+00 6.010756098625338382e+02
2.593077923377013594e+00 6.010245930406896377e+02
2.593177953386016199e+00 6.009735357152123925e+02
2.593277983395018804e+00 6.009224390588292408e+02
2.593378013404021409e+00 6.008713042400370341e+02
2.593478043413024015e+00 6.008201324230757336e+02
2.593578073422026620e+00 6.007689247678964648e+02
2.593678103431029669e+00 6.007176824301337774e+02
2.593778133440032274e+00 6.006664065610766556e+02
2.593878163449034879e+00 6.006150983076399825e+02
2.593978193458037484e+00 6.005637588123365731e+02
2.594078223467040090e+00 6.005123892132473884e+02
2.594178253476042695e+00 6.004609906439959559e+02
2.594278283485045744e+00 6.004095642337188110e+02
2.594378313494048349e+00 6.003581111070386669e+02
2.594478343503050954e+00 6.003066323840374707e+02
2.594578373512053560e+00 6.002551291802282094e+02
2.594678403521056165e+00 6.002036026065294436e+02
2.594778433530059658e+00 6.001520537692385915e+02
2.594878463539061819e+00 6.001004837700043026e+02
2.594978493548064868e+00 6.000488937058005376e+02
2.595078523557067030e+00 5.999972846689036032e+02
2.595178553566070079e+00 5.999456577468621390e+02
2.595278583575072240e+00 5.998940140224734705e+02
2.595378613584075733e+00 5.998423545737599625e+02
2.595478643593078338e+00 5.997906804739413928e+02
2.595578673602080944e+00 5.997389927914130112e+02
2.595678703611083549e+00 5.996872925897171172e+02
2.595778733620086154e+00 5.996355809275225965e+02
2.595878763629088759e+00 5.995838588585988873e+02
2.595978793638091808e+00 5.995321274317930147e+02
2.596078823647094413e+00 5.994803876910051486e+02
2.596178853656097019e+00 5.994286406751659797e+02
2.596278883665099624e+00 5.993768874182131867e+02
2.596378913674102229e+00 5.993251289490681302e+02
2.596478943683104834e+00 5.992733662916148205e+02
2.596578973692107883e+00 5.992216004646753618e+02
2.596679003701110489e+00 5.991698324819897152e+02
2.596779033710113094e+00 5.991180633521927348e+02
2.596879063719115699e+00 5.990662940787916568e+02
2.596979093728118304e+00 5.990145256601470010e+02
2.597079123737120909e+00 5.989627590894504010e+02
2.597179153746123959e+00 5.989109953546998213e+02
2.597279183755127008e+00 5.988592354386871648e+02
2.597379213764129169e+00 5.988074803189692830e+02
2.597479243773132218e+00 5.987557309678525144e+02
2.597579273782134379e+00 5.987039883523714252e+02
2.597679303791137873e+00 5.986522534342698236e+02
2.597779333800140478e+00 5.986005271699789319e+02
2.597879363809143083e+00 5.985488105106014700e+02
2.597979393818145688e+00 5.984971044018900557e+02
2.598079423827148293e+00 5.984454097842289002e+02
2.598179453836150898e+00 5.983937275926168695e+02
2.598279483845153948e+00 5.983420587566470203e+02
2.598379513854156553e+00 5.982904042004896610e+02
2.598479543863159158e+00 5.982387648428746161e+02
2.598579573872161763e+00 5.981871415970736052e+02
2.598679603881164368e+00 5.981355353708831899e+02
2.598779633890166973e+00 5.980839470666060151e+02
2.598879663899170023e+00 5.980323775810370535e+02
2.598979693908172628e+00 5.979808278054450739e+02
2.599079723917175233e+00 5.979292986255557025e+02
2.599179753926177838e+00 5.978777909215372119e+02
2.599279783935180443e+00 5.978263055679841500e+02
2.599379813944183049e+00 5.977748434339000596e+02
2.599479843953186098e+00 5.977234053826855416e+02
2.599579873962189147e+00 5.976719922721199509e+02
2.599679903971191308e+00 5.976206049543484369e+02
2.599779933980194357e+00 5.975692442758669358e+02
2.599879963989196519e+00 5.975179110775071649e+02
2.599979993998199568e+00 5.974666061944253670e+02
2.600080024007202617e+00 5.974153304560837796e+02
2.600180054016205222e+00 5.973640846862413127e+02
2.600280084025207827e+00 5.973128697029386558e+02
2.600380114034210433e+00 5.972616863184847489e+02
2.600480144043213038e+00 5.972105353394450731e+02
2.600580174052216087e+00 5.971594175666286901e+02
2.600680204061218692e+00 5.971083337950750547e+02
2.600780234070221297e+00 5.970572848140438964e+02
2.600880264079223902e+00 5.970062714070023731e+02
2.600980294088226508e+00 5.969552943516126788e+02
2.601080324097229113e+00 5.969043544197227220e+02
2.601180354106232162e+00 5.968534523773528235e+02
2.601280384115234767e+00 5.968025889846884411e+02
2.601380414124237372e+00 5.967517649960653898e+02
2.601480444133239978e+00 5.967009811599629074e+02
2.601580474142242583e+00 5.966502382189918308e+02
2.601680504151245188e+00 5.965995369098867513e+02
2.601780534160248237e+00 5.965488779634933962e+02
2.601880564169251286e+00 5.964982621047633984e+02
2.601980594178253448e+00 5.964476900527412226e+02
2.602080624187256497e+00 5.963971625205593909e+02
2.602180654196258658e+00 5.963466802154269999e+02
2.602280684205261707e+00 5.962962438386227859e+02
2.602380714214264756e+00 5.962458540854877356e+02
2.602480744223267362e+00 5.961955116454169001e+02
2.602580774232269967e+00 5.961452172018493911e+02
2.602680804241272572e+00 5.960949714322673572e+02
2.602780834250275177e+00 5.960447750081813183e+02
2.602880864259277782e+00 5.959946285951306209e+02
2.602980894268280831e+00 5.959445328526733192e+02
2.603080924277283437e+00 5.958944884343793547e+02
2.603180954286286042e+00 5.958444959878263489e+02
2.603280984295288647e+00 5.957945561545932378e+02
2.603381014304291252e+00 5.957446695702567467e+02
2.603481044313294301e+00 5.956948368643825233e+02
2.603581074322296907e+00 5.956450586605236595e+02
2.603681104331299512e+00 5.955953355762138699e+02
2.603781134340302117e+00 5.955456682229644230e+02
2.603881164349304722e+00 5.954960572062601614e+02
2.603981194358307327e+00 5.954465031255534768e+02
2.604081224367310377e+00 5.953970065742630595e+02
2.604181254376313426e+00 5.953475681397710559e+02
2.604281284385315587e+00 5.952981884034156792e+02
2.604381314394318636e+00 5.952488679404939376e+02
2.604481344403320797e+00 5.951996073202549269e+02
2.604581374412323846e+00 5.951504071058994896e+02
2.604681404421326896e+00 5.951012678545771450e+02
2.604781434430329501e+00 5.950521901173855213e+02
2.604881464439332106e+00 5.950031744393659210e+02
2.604981494448334711e+00 5.949542213595054818e+02
2.605081524457337316e+00 5.949053314107347887e+02
2.605181554466339922e+00 5.948565051199254867e+02
2.605281584475342971e+00 5.948077430078909629e+02
2.605381614484345576e+00 5.947590455893872559e+02
2.605481644493348181e+00 5.947104133731101001e+02
2.605581674502350786e+00 5.946618468616978816e+02
2.605681704511353391e+00 5.946133465517302739e+02
2.605781734520355997e+00 5.945649129337284648e+02
2.605881764529359046e+00 5.945165464921590228e+02
2.605981794538361651e+00 5.944682477054310539e+02
2.606081824547364256e+00 5.944200170459009769e+02
2.606181854556366861e+00 5.943718549798710455e+02
2.606281884565369467e+00 5.943237619675946917e+02
2.606381914574372516e+00 5.942757384632761841e+02
2.606481944583375565e+00 5.942277849150732436e+02
2.606581974592377726e+00 5.941799017651009081e+02
2.606682004601380775e+00 5.941320894494326694e+02
2.606782034610382937e+00 5.940843483981058171e+02
2.606882064619385986e+00 5.940366790351223472e+02
2.606982094628389035e+00 5.939890817784543060e+02
2.607082124637391640e+00 5.939415570400475417e+02
2.607182154646394245e+00 5.938941052258240916e+02
2.607282184655396851e+00 5.938467267356884349e+02
2.607382214664399456e+00 5.937994219635322679e+02
2.607482244673402061e+00 5.937521912972368909e+02
2.607582274682405110e+00 5.937050351186803709e+02
2.607682304691407715e+00 5.936579538037431121e+02
2.607782334700410320e+00 5.936109477223120621e+02
2.607882364709412926e+00 5.935640172382856008e+02
2.607982394718415531e+00 5.935171627095835447e+02
2.608082424727418136e+00 5.934703844881483974e+02
2.608182454736421185e+00 5.934236829199564909e+02
2.608282484745423790e+00 5.933770583450209415e+02
2.608382514754426396e+00 5.933305110974000627e+02
2.608482544763429001e+00 5.932840415052061189e+02
2.608582574772431606e+00 5.932376498906098732e+02
2.608682604781434211e+00 5.931913365698502503e+02
2.608782634790437704e+00 5.931451018532424087e+02
2.608882664799439866e+00 5.930989460451835384e+02
2.608982694808442915e+00 5.930528694441645712e+02
2.609082724817445076e+00 5.930068723427757504e+02
2.609182754826448125e+00 5.929609550277183416e+02
2.609282784835451174e+00 5.929151177798112258e+02
2.609382814844453780e+00 5.928693608740007903e+02
2.609482844853456385e+00 5.928236845793715020e+02
2.609582874862458990e+00 5.927780891591548880e+02
2.609682904871461595e+00 5.927325748707394268e+02
2.609782934880464200e+00 5.926871419656814624e+02
2.609882964889467249e+00 5.926417906897144121e+02
2.609982994898469855e+00 5.925965212827609321e+02
2.610083024907472460e+00 5.925513339789424663e+02
2.610183054916475065e+00 5.925062290065924344e+02
2.610283084925477670e+00 5.924612065882633942e+02
2.610383114934480275e+00 5.924162669407434123e+02
2.610483144943483325e+00 5.923714102750659549e+02
2.610583174952485930e+00 5.923266367965203472e+02
2.610683204961488535e+00 5.922819467046654154e+02
2.610783234970491140e+00 5.922373401933441528e+02
2.610883264979493745e+00 5.921928174506913365e+02
2.610983294988496350e+00 5.921483786591510352e+02
2.611083324997499844e+00 5.921040239954869548e+02
2.611183355006502005e+00 5.920597536307974451e+02
2.611283385015505054e+00 5.920155677305274367e+02
2.611383415024507215e+00 5.919714664544839025e+02
2.611483445033510264e+00 5.919274499568487045e+02
2.611583475042512426e+00 5.918835183861928044e+02
2.611683505051515919e+00 5.918396718854917253e+02
2.611783535060518524e+00 5.917959105921381706e+02
2.611883565069521129e+00 5.917522346379594183e+02
2.611983595078523734e+00 5.917086441492294853e+02
2.612083625087526340e+00 5.916651392466874313e+02
2.612183655096529389e+00 5.916217200455505463e+02
2.612283685105531994e+00 5.915783866555295845e+02
2.612383715114534599e+00 5.915351391808482049e+02
2.612483745123537204e+00 5.914919777202541127e+02
2.612583775132539810e+00 5.914489023670389543e+02
2.612683805141542415e+00 5.914059132090540061e+02
2.612783835150545464e+00 5.913630103287255224e+02
2.612883865159548069e+00 5.913201938030734937e+02
2.612983895168550674e+00 5.912774637037269940e+02
2.613083925177553279e+00 5.912348200969428262e+02
2.613183955186555885e+00 5.911922630436223471e+02
2.613283985195558490e+00 5.911497925993284071e+02
2.613384015204561983e+00 5.911074088143056997e+02
2.613484045213564144e+00 5.910651117334958826e+02
2.613584075222567193e+00 5.910229013965578133e+02
2.613684105231569355e+00 5.909807778378849434e+02
2.613784135240572404e+00 5.909387410866245318e+02
2.613884165249574565e+00 5.908967911666964028e+02
2.613984195258578058e+00 5.908549280968117046e+02
2.614084225267580663e+00 5.908131518904929180e+02
2.614184255276583269e+00 5.907714625560920467e+02
2.614284285285585874e+00 5.907298600968107394e+02
2.614384315294588479e+00 5.906883445107209809e+02
2.614484345303591084e+00 5.906469157907831686e+02
2.614584375312594133e+00 5.906055739248685086e+02
2.614684405321596739e+00 5.905643188957776601e+02
2.614784435330599344e+00 5.905231506812623365e+02
2.614884465339601949e+00 5.904820692540442906e+02
2.614984495348604554e+00 5.904410745818381656e+02
2.615084525357607159e+00 5.904001666273725277e+02
2.615184555366610208e+00 5.903593453484088514e+02
2.615284585375612814e+00 5.903186106977655072e+02
2.615384615384615419e+00 5.902779626233379986e+02
2.615484645393618024e+00 5.902374010681212440e+02
2.615584675402620629e+00 5.901969259702306090e+02
2.615684705411624122e+00 5.901565372629256672e+02
2.615784735420626284e+00 5.901162348746304360e+02
2.615884765429629333e+00 5.900760187289582746e+02
2.615984795438631494e+00 5.900358887447314373e+02
2.616084825447634543e+00 5.899958448360069951e+02
2.616184855456636704e+00 5.899558869120983218e+02
2.616284885465640198e+00 5.899160148775971493e+02
2.616384915474642803e+00 5.898762286323991475e+02
2.616484945483645408e+00 5.898365280717245014e+02
2.616584975492648013e+00 5.897969130861458780e+02
2.616685005501650618e+00 5.897573835616067299e+02
2.616785035510653223e+00 5.897179393794496036e+02
2.616885065519656273e+00 5.896785804164389901e+02
2.616985095528658878e+00 5.896393065447831532e+02
2.617085125537661483e+00 5.896001176321632329e+02
2.617185155546664088e+00 5.895610135417527999e+02
2.617285185555666693e+00 5.895219941322466184e+02
2.617385215564669299e+00 5.894830592578821324e+02
2.617485245573672348e+00 5.894442087684678881e+02
2.617585275582674953e+00 5.894054425094059297e+02
2.617685305591677558e+00 5.893667603217177202e+02
2.617785335600680163e+00 5.893281620420716536e+02
2.617885365609682768e+00 5.892896475028040868e+02
2.617985395618685374e+00 5.892512165319506039e+02
2.618085425627688423e+00 5.892128689532687531e+02
2.618185455636691472e+00 5.891746045862637402e+02
2.618285485645693633e+00 5.891364232462160544e+02
2.618385515654696682e+00 5.890983247442063657e+02
2.618485545663698844e+00 5.890603088871436057e+02
2.618585575672702337e+00 5.890223754777904333e+02
2.618685605681704942e+00 5.889845243147899509e+02
2.618785635690707547e+00 5.889467551926929900e+02
2.618885665699710152e+00 5.889090679019853951e+02
2.618985695708712758e+00 5.888714622291130354e+02
2.619085725717715363e+00 5.888339379565127274e+02
2.619185755726718412e+00 5.887964948626363366e+02
2.619285785735721017e+00 5.887591327219790855e+02
2.619385815744723622e+00 5.887218513051091122e+02
2.619485845753726228e+00 5.886846503786917992e+02
2.619585875762728833e+00 5.886475297055199007e+02
2.619685905771731438e+00 5.886104890445431010e+02
2.619785935780734487e+00 5.885735281508913204e+02
2.619885965789737092e+00 5.885366467759081388e+02
2.619985995798739697e+00 5.884998446671746706e+02
2.620086025807742303e+00 5.884631215685418510e+02
2.620186055816744908e+00 5.884264772201565847e+02
2.620286085825747513e+00 5.883899113584911902e+02
2.620386115834750562e+00 5.883534237163722764e+02
2.620486145843753611e+00 5.883170140230095058e+02
2.620586175852755773e+00 5.882806820040244702e+02
2.620686205861758822e+00 5.882444273814808184e+02
2.620786235870760983e+00 5.882082498739115408e+02
2.620886265879764032e+00 5.881721491963508015e+02
2.620986295888767081e+00 5.881361250603603139e+02
2.621086325897769687e+00 5.881001771740628783e+02
2.621186355906772292e+00 5.880643052421678476e+02
2.621286385915774897e+00 5.880285089660042104e+02
2.621386415924777502e+00 5.879927880435477618e+02
2.621486445933780551e+00 5.879571421694537321e+02
2.621586475942783157e+00 5.879215710350847530e+02
2.621686505951785762e+00 5.878860743285416675e+02
2.621786535960788367e+00 5.878506517346936562e+02
2.621886565969790972e+00 5.878153029352098429e+02
2.621986595978793577e+00 5.877800276085868063e+02
2.622086625987796626e+00 5.877448254301816633e+02
2.622186655996799232e+00 5.877096960722424228e+02
2.622286686005801837e+00 5.876746392039377724e+02
2.622386716014804442e+00 5.876396544913869775e+02
2.622486746023807047e+00 5.876047415976941011e+02
2.622586776032809652e+00 5.875699001829739245e+02
2.622686806041812702e+00 5.875351299043877589e+02
2.622786836050815751e+00 5.875004304161724349e+02
2.622886866059817912e+00 5.874658013696703165e+02
2.622986896068820961e+00 5.874312424133631794e+02
2.623086926077823122e+00 5.873967531929002917e+02
2.623186956086826171e+00 5.873623333511332021e+02
2.623286986095829221e+00 5.873279825281451849e+02
2.623387016104831826e+00 5.872937003612818216e+02
2.623487046113834431e+00 5.872594864851859029e+02
2.623587076122837036e+00 5.872253405318251680e+02
2.623687106131839641e+00 5.871912621305274342e+02
2.623787136140842247e+00 5.871572509080098143e+02
2.623887166149845296e+00 5.871233064884123678e+02
2.623987196158847901e+00 5.870894284933287963e+02
2.624087226167850506e+00 5.870556165418386172e+02
2.624187256176853111e+00 5.870218702505397914e+02
2.624287286185855717e+00 5.869881892335811244e+02
2.624387316194858766e+00 5.869545731026923931e+02
2.624487346203861371e+00 5.869210214672181110e+02
2.624587376212863976e+00 5.868875339341501558e+02
2.624687406221866581e+00 5.868541101081594888e+02
2.624787436230869186e+00 5.868207495916274183e+02
2.624887466239871792e+00 5.867874519846794783e+02
2.624987496248874841e+00 5.867542168852177156e+02
2.625087526257877890e+00 5.867210438889524085e+02
2.625187556266880051e+00 5.866879325894351496e+02
2.625287586275883100e+00 5.866548825780905645e+02
2.625387616284885262e+00 5.866218934442512136e+02
2.625487646293888311e+00 5.865889647751872644e+02
2.625587676302891360e+00 5.865560961561402564e+02
2.625687706311893965e+00 5.865232871703575483e+02
2.625787736320896570e+00 5.864905373991221040e+02
2.625887766329899176e+00 5.864578464217868259e+02
2.625987796338901781e+00 5.864252138158088883e+02
2.626087826347904386e+00 5.863926391567796372e+02
2.626187856356907435e+00 5.863601220184584690e+02
2.626287886365910040e+00 5.863276619728069363e+02
2.626387916374912646e+00 5.862952585900212625e+02
2.626487946383915251e+00 5.862629114385631510e+02
2.626587976392917856e+00 5.862306200851950280e+02
2.626688006401920461e+00 5.861983840950133526e+02
2.626788036410923510e+00 5.861662030314796539e+02
2.626888066419926115e+00 5.861340764564557730e+02
2.626988096428928721e+00 5.861020039302349005e+02
2.627088126437931326e+00 5.860699850115746585e+02
2.627188156446933931e+00 5.860380192577323442e+02
2.627288186455936980e+00 5.860061062244956247e+02
2.627388216464940029e+00 5.859742454662180080e+02
2.627488246473942191e+00 5.859424365358484010e+02
2.627588276482945240e+00 5.859106789849691950e+02
2.627688306491947401e+00 5.858789723638238911e+02
2.627788336500950450e+00 5.858473162213551859e+02
2.627888366509953499e+00 5.858157101052333928e+02
2.627988396518956105e+00 5.857841535618944135e+02
2.628088426527958710e+00 5.857526461365691830e+02
2.628188456536961315e+00 5.857211873733174343e+02
2.628288486545963920e+00 5.856897768150629418e+02
2.628388516554966525e+00 5.856584140036245572e+02
2.628488546563969575e+00 5.856270984797492929e+02
2.628588576572972180e+00 5.855958297831471100e+02
2.628688606581974785e+00 5.855646074525211588e+02
2.628788636590977390e+00 5.855334310256048411e+02
2.628888666599979995e+00 5.855023000391909136e+02
2.628988696608982600e+00 5.854712140291674132e+02
2.629088726617985650e+00 5.854401725305488071e+02
2.629188756626988255e+00 5.854091750775108949e+02
2.629288786635990860e+00 5.853782212034216172e+02
2.629388816644993465e+00 5.853473104408755034e+02
2.629488846653996070e+00 5.853164423217261856e+02
2.629588876662998675e+00 5.852856163771197089e+02
2.629688906672002169e+00 5.852548321375277283e+02
2.629788936681004330e+00 5.852240891327791132e+02
2.629888966690007379e+00 5.851933868920934856e+02
2.629988996699009540e+00 5.851627249441150980e+02
2.630089026708012589e+00 5.851321028169438705e+02
2.630189056717015639e+00 5.851015200381700652e+02
2.630289086726018244e+00 5.850709761349045266e+02
2.630389116735020849e+00 5.850404706338146070e+02
2.630489146744023454e+00 5.850100030611537250e+02
2.630589176753026059e+00 5.849795729427964943e+02
2.630689206762028665e+00 5.849491798042698747e+02
2.630789236771031714e+00 5.849188231707869363e+02
2.630889266780034319e+00 5.848885025672769871e+02
2.630989296789036924e+00 5.848582175184210428e+02
2.631089326798039529e+00 5.848279675486828637e+02
2.631189356807042135e+00 5.847977521823411280e+02
2.631289386816044740e+00 5.847675709435219460e+02
2.631389416825047789e+00 5.847374233562319432e+02
2.631489446834050394e+00 5.847073089443898652e+02
2.631589476843052999e+00 5.846772272318580690e+02
2.631689506852055604e+00 5.846471777424761740e+02
2.631789536861058210e+00 5.846171600000920989e+02
2.631889566870060815e+00 5.845871735285955992e+02
2.631989596879064308e+00 5.845572178519477120e+02
2.632089626888066469e+00 5.845272924942140662e+02
2.632189656897069518e+00 5.844973969795989888e+02
2.632289686906071680e+00 5.844675308324723346e+02
2.632389716915074729e+00 5.844376935774058666e+02
2.632489746924076890e+00 5.844078847392030411e+02
2.632589776933080383e+00 5.843781038429293631e+02
2.632689806942082988e+00 5.843483504139480829e+02
2.632789836951085594e+00 5.843186239779461175e+02
2.632889866960088199e+00 5.842889240609706576e+02
2.632989896969090804e+00 5.842592501894561110e+02
2.633089926978093853e+00 5.842296018902591186e+02
2.633189956987096458e+00 5.841999786906874306e+02
2.633289986996099064e+00 5.841703801185324210e+02
2.633390017005101669e+00 5.841408057020987599e+02
2.633490047014104274e+00 5.841112549702367005e+02
2.633590077023106879e+00 5.840817274523717515e+02
2.633690107032109928e+00 5.840522226785375324e+02
2.633790137041112533e+00 5.840227401794041953e+02
2.633890167050115139e+00 5.839932794863105983e+02
2.633990197059117744e+00 5.839638401312939777e+02
2.634090227068120349e+00 5.839344216471210984e+02
2.634190257077122954e+00 5.839050235673192901e+02
2.634290287086126447e+00 5.838756454262050966e+02
2.634390317095128609e+00 5.838462867589155394e+02
2.634490347104131658e+00 5.838169471014385863e+02
2.634590377113133819e+00 5.837876259906427094e+02
2.634690407122136868e+00 5.837583229643059894e+02
2.634790437131139029e+00 5.837290375611490845e+02
2.634890467140142523e+00 5.836997693208611508e+02
2.634990497149145128e+00 5.836705177841316754e+02
2.635090527158147733e+00 5.836412824926795793e+02
2.635190557167150338e+00 5.836120629892835723e+02
2.635290587176152943e+00 5.835828588178104610e+02
2.635390617185155548e+00 5.835536695232441389e+02
2.635490647194158598e+00 5.835244946517160542e+02
2.635590677203161203e+00 5.834953337505343143e+02
2.635690707212163808e+00 5.834661863682108560e+02
2.635790737221166413e+00 5.834370520544923693e+02
2.635890767230169018e+00 5.834079303603875815e+02
2.635990797239172068e+00 5.833788208381971572e+02
2.636090827248174673e+00 5.833497230415410968e+02
2.636190857257177278e+00 5.833206365253890908e+02
2.636290887266179883e+00 5.832915608460864405e+02
2.636390917275182488e+00 5.832624955613828206e+02
2.636490947284185093e+00 5.832334402304626337e+02
2.636590977293188587e+00 5.832043944139697942e+02
2.636691007302190748e+00 5.831753576740383096e+02
2.636791037311193797e+00 5.831463295743178605e+02
2.636891067320195958e+00 5.831173096800030180e+02
2.636991097329199008e+00 5.830882975578608693e+02
2.637091127338201169e+00 5.830592927762562567e+02
2.637191157347204662e+00 5.830302949051813357e+02
2.637291187356207267e+00 5.830013035162826327e+02
2.637391217365209872e+00 5.829723181828866245e+02
2.637491247374212477e+00 5.829433384800272506e+02
2.637591277383215083e+00 5.829143639844734253e+02
2.637691307392217688e+00 5.828853942747543897e+02
2.637791337401220737e+00 5.828564289311888160e+02
2.637891367410223342e+00 5.828274675359065213e+02
2.637991397419225947e+00 5.827985096728805274e+02
2.638091427428228553e+00 5.827695549279471834e+02
2.638191457437231158e+00 5.827406028888383389e+02
2.638291487446233763e+00 5.827116531452024901e+02
2.638391517455236812e+00 5.826827052886317233e+02
2.638491547464239417e+00 5.826537589126884313e+02
2.638591577473242022e+00 5.826248136129296427e+02
2.638691607482244628e+00 5.825958689869332829e+02
2.638791637491247233e+00 5.825669246343221630e+02
2.638891667500250726e+00 5.825379801567898994e+02
2.638991697509252887e+00 5.825090351581260393e+02
2.639091727518255937e+00 5.824800892442386839e+02
2.639191757527258098e+00 5.824511420231833654e+02
2.639291787536261147e+00 5.824221931051819183e+02
2.639391817545263308e+00 5.823932421026519251e+02
2.639491847554266801e+00 5.823642886302282022e+02
2.639591877563269406e+00 5.823353323047870163e+02
2.639691907572272012e+00 5.823063727454704122e+02
2.639791937581274617e+00 5.822774095737098605e+02
2.639891967590277222e+00 5.822484424132496770e+02
2.639991997599279827e+00 5.822194708901705553e+02
