2.500050011002420192e+00 5.192953629785056364e+02
2.500150033007261463e+00 5.191813399446340327e+02
2.500250055012102735e+00 5.190674471572376660e+02
2.500350077016943562e+00 5.189536865816252202e+02
2.500450099021784833e+00 5.188400601812634250e+02
2.500550121026625661e+00 5.187265699177235092e+02
2.500650143031466488e+00 5.186132177506267453e+02
2.500750165036307759e+00 5.185000056375870372e+02
2.500850187041148587e+00 5.183869355341571463e+02
2.500950209045989858e+00 5.182740093937750316e+02
2.501050231050831130e+00 5.181612291677063240e+02
2.501150253055672401e+00 5.180485968049908934e+02
2.501250275060513228e+00 5.179361142523882791e+02
2.501350297065354056e+00 5.178237834543214149e+02
2.501450319070195327e+00 5.177116063528242194e+02
2.501550341075036155e+00 5.175995848874837293e+02
2.501650363079877426e+00 5.174877209953895090e+02
2.501750385084718253e+00 5.173760166110744194e+02
2.501850407089559525e+00 5.172644736664638003e+02
2.501950429094400796e+00 5.171530940908202183e+02
2.502050451099241180e+00 5.170418798106867371e+02
2.502150473104082895e+00 5.169308327498355311e+02
2.502250495108923722e+00 5.168199548292130885e+02
2.502350517113764994e+00 5.167092479668833676e+02
2.502450539118605821e+00 5.165987140779778883e+02
2.502550561123447093e+00 5.164883550746380934e+02
2.502650583128287920e+00 5.163781728659623695e+02
2.502750605133128747e+00 5.162681693579531839e+02
2.502850627137970463e+00 5.161583464534627410e+02
2.502950649142810846e+00 5.160487060521387548e+02
2.503050671147652562e+00 5.159392500503703332e+02
2.503150693152493389e+00 5.158299803412354549e+02
2.503250715157334660e+00 5.157208988144473096e+02
2.503350737162175488e+00 5.156120073563004098e+02
2.503450759167016315e+00 5.155033078496171584e+02
2.503550781171857587e+00 5.153948021736952114e+02
2.503650803176698414e+00 5.152864922042534772e+02
2.503750825181540129e+00 5.151783798133803884e+02
2.503850847186380513e+00 5.150704668694783095e+02
2.503950869191222228e+00 5.149627552372146511e+02
2.504050891196063056e+00 5.148552467774647994e+02
2.504150913200903883e+00 5.147479433472630035e+02
2.504250935205745154e+00 5.146408467997465550e+02
2.504350957210585982e+00 5.145339589841059933e+02
2.504450979215427253e+00 5.144272817455311042e+02
2.504551001220268081e+00 5.143208169251598747e+02
2.504651023225109796e+00 5.142145663600254011e+02
2.504751045229950179e+00 5.141085318830027973e+02
2.504851067234791451e+00 5.140027153227605368e+02
2.504951089239632722e+00 5.138971185037042915e+02
2.505051111244473550e+00 5.137917432459297515e+02
2.505151133249314821e+00 5.136865913651672599e+02
2.505251155254155648e+00 5.135816646727316765e+02
2.505351177258996920e+00 5.134769649754711054e+02
2.505451199263837747e+00 5.133724940757160766e+02
2.505551221268678574e+00 5.132682537712283874e+02
2.505651243273519846e+00 5.131642458551476693e+02
2.505751265278361117e+00 5.130604721159445489e+02
2.505851287283202389e+00 5.129569343373660786e+02
2.505951309288043216e+00 5.128536342983876466e+02
2.506051331292884488e+00 5.127505737731619320e+02
2.506151353297725315e+00 5.126477545309671768e+02
2.506251375302566142e+00 5.125451783361581874e+02
2.506351397307407414e+00 5.124428469481165394e+02
2.506451419312248241e+00 5.123407621211999867e+02
2.506551441317089512e+00 5.122389256046914170e+02
2.506651463321930784e+00 5.121373391427522392e+02
2.506751485326772055e+00 5.120360044743692924e+02
2.506851507331612883e+00 5.119349233333084044e+02
2.506951529336453710e+00 5.118340974480630052e+02
2.507051551341294982e+00 5.117335285418064359e+02
2.507151573346135809e+00 5.116332183323419827e+02
2.507251595350977080e+00 5.115331685320546171e+02
2.507351617355817908e+00 5.114333808478617698e+02
2.507451639360659179e+00 5.113338569811659795e+02
2.507551661365500451e+00 5.112345986278043597e+02
2.507651683370340834e+00 5.111356074780030099e+02
2.507751705375182549e+00 5.110368852163278461e+02
2.507851727380023377e+00 5.109384335216342947e+02
2.507951749384864648e+00 5.108402540670244321e+02
2.508051771389705475e+00 5.107423485197950299e+02
2.508151793394546747e+00 5.106447185413932175e+02
2.508251815399387574e+00 5.105473657873662887e+02
2.508351837404228402e+00 5.104502919073174212e+02
2.508451859409070117e+00 5.103534985448568477e+02
2.508551881413910500e+00 5.102569873375564384e+02
2.508651903418752216e+00 5.101607599169008154e+02
2.508751925423593043e+00 5.100648179082451747e+02
2.508851947428434315e+00 5.099691629307636731e+02
2.508951969433275142e+00 5.098737965974083863e+02
2.509051991438115969e+00 5.097787205148595149e+02
2.509152013442957241e+00 5.096839362834830354e+02
2.509252035447798068e+00 5.095894454972814742e+02
2.509352057452639784e+00 5.094952497438513319e+02
2.509452079457480167e+00 5.094013506043385178e+02
2.509552101462321883e+00 5.093077496533900899e+02
2.509652123467162710e+00 5.092144484591118498e+02
2.509752145472003537e+00 5.091214485830233230e+02
2.509852167476844809e+00 5.090287515800141023e+02
2.509952189481685636e+00 5.089363589982976919e+02
2.510052211486526907e+00 5.088442723793682489e+02
2.510152233491367735e+00 5.087524932579576671e+02
2.510252255496209450e+00 5.086610231619918068e+02
2.510352277501049834e+00 5.085698636125448502e+02
2.510452299505891105e+00 5.084790161237996244e+02
2.510552321510732376e+00 5.083884822030008763e+02
2.510652343515573204e+00 5.082982633504149703e+02
2.510752365520414475e+00 5.082083610592855507e+02
2.510852387525255303e+00 5.081187768157934670e+02
2.510952409530096574e+00 5.080295120990110718e+02
2.511052431534937401e+00 5.079405683808636809e+02
2.511152453539778229e+00 5.078519471260843261e+02
2.511252475544619500e+00 5.077636497921751015e+02
2.511352497549460772e+00 5.076756778293640195e+02
2.511452519554302043e+00 5.075880326805639697e+02
2.511552541559142870e+00 5.075007157813323033e+02
2.511652563563984142e+00 5.074137285598304175e+02
2.511752585568824969e+00 5.073270724367798152e+02
2.511852607573665797e+00 5.072407488254276018e+02
2.511952629578507068e+00 5.071547591315009527e+02
2.512052651583347895e+00 5.070691047531697109e+02
2.512152673588189167e+00 5.069837870810069944e+02
2.512252695593030438e+00 5.068988074979478142e+02
2.512352717597871710e+00 5.068141673792513870e+02
2.512452739602712537e+00 5.067298680924621976e+02
2.512552761607553364e+00 5.066459109973696400e+02
2.512652783612394636e+00 5.065622974459710690e+02
2.512752805617235463e+00 5.064790287824325787e+02
2.512852827622076735e+00 5.063961063430502918e+02
2.512952849626917562e+00 5.063135314562146050e+02
2.513052871631758833e+00 5.062313054423692051e+02
2.513152893636600105e+00 5.061494296139769062e+02
2.513252915641440488e+00 5.060679052754799727e+02
2.513352937646282204e+00 5.059867337232649334e+02
2.513452959651123031e+00 5.059059162456248941e+02
2.513552981655964302e+00 5.058254541227220784e+02
2.513653003660805130e+00 5.057453486265537776e+02
2.513753025665646401e+00 5.056656010209145506e+02
2.513853047670487229e+00 5.055862125613617195e+02
2.513953069675328056e+00 5.055071844951772277e+02
2.514053091680169771e+00 5.054285180613369448e+02
2.514153113685010155e+00 5.053502144904701368e+02
2.514253135689851870e+00 5.052722750048289981e+02
2.514353157694692698e+00 5.051947008182515333e+02
2.514453179699533969e+00 5.051174931361285303e+02
2.514553201704374796e+00 5.050406531553690570e+02
2.514653223709215624e+00 5.049641820643665255e+02
2.514753245714056895e+00 5.048880810429639610e+02
2.514853267718897722e+00 5.048123512624239311e+02
2.514953289723739438e+00 5.047369938853920530e+02
2.515053311728579821e+00 5.046620100658656725e+02
2.515153333733421537e+00 5.045874009491602123e+02
2.515253355738262364e+00 5.045131676718799554e+02
2.515353377743103191e+00 5.044393113618818347e+02
2.515453399747944463e+00 5.043658331382458186e+02
2.515553421752785290e+00 5.042927341112438171e+02
2.515653443757626562e+00 5.042200153823062578e+02
2.515753465762467389e+00 5.041476780439938352e+02
2.515853487767309105e+00 5.040757231799649389e+02
2.515953509772149488e+00 5.040041518649451291e+02
2.516053531776990759e+00 5.039329651646977482e+02
2.516153553781832031e+00 5.038621641359931687e+02
2.516253575786672858e+00 5.037917498265788367e+02
2.516353597791514130e+00 5.037217232751515894e+02
2.516453619796354957e+00 5.036520855113271296e+02
2.516553641801196228e+00 5.035828375556101264e+02
2.516653663806037056e+00 5.035139804193682380e+02
2.516753685810877883e+00 5.034455151048001653e+02
2.516853707815719154e+00 5.033774426049118347e+02
2.516953729820560426e+00 5.033097639034848498e+02
2.517053751825401697e+00 5.032424799750506850e+02
2.517153773830242525e+00 5.031755917848630588e+02
2.517253795835083796e+00 5.031091002888713888e+02
2.517353817839924623e+00 5.030430064336934493e+02
2.517453839844765451e+00 5.029773111565888257e+02
2.517553861849606722e+00 5.029120153854341311e+02
2.517653883854447550e+00 5.028471200386935607e+02
2.517753905859288821e+00 5.027826260253984287e+02
2.517853927864130092e+00 5.027185342451174961e+02
2.517953949868971364e+00 5.026548455879338917e+02
2.518053971873812191e+00 5.025915609344205564e+02
2.518153993878653019e+00 5.025286811556137536e+02
2.518254015883494290e+00 5.024662071129913556e+02
2.518354037888335117e+00 5.024041396584480026e+02
2.518454059893176389e+00 5.023424796342706600e+02
2.518554081898017216e+00 5.022812278731149718e+02
2.518654103902858488e+00 5.022203851979854790e+02
2.518754125907699759e+00 5.021599524222079367e+02
2.518854147912540142e+00 5.020999303494103856e+02
2.518954169917381858e+00 5.020403197735006415e+02
2.519054191922222685e+00 5.019811214786415690e+02
2.519154213927063957e+00 5.019223362392334025e+02
2.519254235931904784e+00 5.018639648198898158e+02
2.519354257936746055e+00 5.018060079754156959e+02
2.519454279941586883e+00 5.017484664507923640e+02
2.519554301946427710e+00 5.016913409811481301e+02
2.519654323951269426e+00 5.016346322917468683e+02
2.519754345956109809e+00 5.015783410979616974e+02
2.519854367960951524e+00 5.015224681052588949e+02
2.519954389965792352e+00 5.014670140091769213e+02
2.520054411970633623e+00 5.014119794953092537e+02
2.520154433975474451e+00 5.013573652392835811e+02
2.520254455980315278e+00 5.013031719067448080e+02
2.520354477985156549e+00 5.012494001533362393e+02
2.520454499989997377e+00 5.011960506246823002e+02
2.520554521994839092e+00 5.011431239563704594e+02
2.520654543999679476e+00 5.010906207739342904e+02
2.520754566004521191e+00 5.010385416928365885e+02
2.520854588009362018e+00 5.009868873184532845e+02
2.520954610014202846e+00 5.009356582460565050e+02
2.521054632019044117e+00 5.008848550607976904e+02
2.521154654023884945e+00 5.008344783376945202e+02
2.521254676028726216e+00 5.007845286416120416e+02
2.521354698033567043e+00 5.007350065272505049e+02
2.521454720038408759e+00 5.006859125391300722e+02
2.521554742043249142e+00 5.006372472115739356e+02
2.521654764048090414e+00 5.005890110686976868e+02
2.521754786052931685e+00 5.005412046243914688e+02
2.521854808057772512e+00 5.004938283823113920e+02
2.521954830062613784e+00 5.004468828358612313e+02
2.522054852067454611e+00 5.004003684681834443e+02
2.522154874072295883e+00 5.003542857521423457e+02
2.522254896077136710e+00 5.003086351503167180e+02
2.522354918081977537e+00 5.002634171149832127e+02
2.522454940086818809e+00 5.002186320881081656e+02
2.522554962091660080e+00 5.001742805013338398e+02
2.522654984096501352e+00 5.001303627759673986e+02
2.522755006101342179e+00 5.000868793229727771e+02
2.522855028106183450e+00 5.000438305429557317e+02
2.522955050111024278e+00 5.000012168261574175e+02
2.523055072115865105e+00 4.999590385524442127e+02
2.523155094120706377e+00 4.999172960912948156e+02
2.523255116125547204e+00 4.998759898017939918e+02
2.523355138130388475e+00 4.998351200326249000e+02
2.523455160135229747e+00 4.997946871220555067e+02
2.523555182140071018e+00 4.997546913979352894e+02
2.523655204144911846e+00 4.997151331776841516e+02
2.523755226149752673e+00 4.996760127682856023e+02
2.523855248154593944e+00 4.996373304662806163e+02
2.523955270159434772e+00 4.995990865577581985e+02
2.524055292164276043e+00 4.995612813183507228e+02
2.524155314169116870e+00 4.995239150132251211e+02
2.524255336173958142e+00 4.994869878970795867e+02
2.524355358178799413e+00 4.994505002141366958e+02
2.524455380183639797e+00 4.994144521981359617e+02
2.524555402188481512e+00 4.993788440723317308e+02
2.524655424193322339e+00 4.993436760494851114e+02
2.524755446198163611e+00 4.993089483318630073e+02
2.524855468203004438e+00 4.992746611112307278e+02
2.524955490207845710e+00 4.992408145688495438e+02
2.525055512212686537e+00 4.992074088754721402e+02
2.525155534217527364e+00 4.991744441913411379e+02
2.525255556222369080e+00 4.991419206661843191e+02
2.525355578227209463e+00 4.991098384392113871e+02
2.525455600232051179e+00 4.990781976391145349e+02
2.525555622236892006e+00 4.990469983840633859e+02
2.525655644241733278e+00 4.990162407817042549e+02
2.525755666246574105e+00 4.989859249291597507e+02
2.525855688251414932e+00 4.989560509130265018e+02
2.525955710256256204e+00 4.989266188093737355e+02
2.526055732261097031e+00 4.988976286837449265e+02
2.526155754265938747e+00 4.988690805911557504e+02
2.526255776270779130e+00 4.988409745760950500e+02
2.526355798275620845e+00 4.988133106725240395e+02
2.526455820280461673e+00 4.987860889038806249e+02
2.526555842285302500e+00 4.987593092830757655e+02
2.526655864290143771e+00 4.987329718124980218e+02
2.526755886294984599e+00 4.987070764840150332e+02
2.526855908299825870e+00 4.986816232789730066e+02
2.526955930304666698e+00 4.986566121682031394e+02
2.527055952309508413e+00 4.986320431120204830e+02
2.527155974314348796e+00 4.986079160602299680e+02
2.527255996319190068e+00 4.985842309521269726e+02
2.527356018324031339e+00 4.985609877165034618e+02
2.527456040328872167e+00 4.985381862716496357e+02
2.527556062333713438e+00 4.985158265253596710e+02
2.527656084338554265e+00 4.984939083749368365e+02
2.527756106343395537e+00 4.984724317071958239e+02
2.527856128348236364e+00 4.984513963984693419e+02
2.527956150353077192e+00 4.984308023146157893e+02
2.528056172357918463e+00 4.984106493110211318e+02
2.528156194362759734e+00 4.983909372326071434e+02
2.528256216367601006e+00 4.983716659138387399e+02
2.528356238372441833e+00 4.983528351787280712e+02
2.528456260377282661e+00 4.983344448408435596e+02
2.528556282382123932e+00 4.983164947033178009e+02
2.528656304386964759e+00 4.982989845588532489e+02
2.528756326391806031e+00 4.982819141897311397e+02
2.528856348396646858e+00 4.982652833678198476e+02
2.528956370401488130e+00 4.982490918545848899e+02
2.529056392406329401e+00 4.982333394010940992e+02
2.529156414411169784e+00 4.982180257480314367e+02
2.529256436416011500e+00 4.982031506257026763e+02
2.529356458420852327e+00 4.981887137540488766e+02
2.529456480425693599e+00 4.981747148426522926e+02
2.529556502430534426e+00 4.981611535907509847e+02
2.529656524435375697e+00 4.981480296872468330e+02
2.529756546440216525e+00 4.981353428107180434e+02
2.529856568445057352e+00 4.981230926294300616e+02
2.529956590449899068e+00 4.981112788013471118e+02
2.530056612454739451e+00 4.980999009741447026e+02
2.530156634459581166e+00 4.980889587852212799e+02
2.530256656464421994e+00 4.980784518617117556e+02
2.530356678469263265e+00 4.980683798204995014e+02
2.530456700474104093e+00 4.980587422682307874e+02
2.530556722478944920e+00 4.980495388013267757e+02
2.530656744483786191e+00 4.980407690059988113e+02
2.530756766488627019e+00 4.980324324582614963e+02
2.530856788493468734e+00 4.980245287239482082e+02
2.530956810498309117e+00 4.980170573587252534e+02
2.531056832503150833e+00 4.980100179081057377e+02
2.531156854507991660e+00 4.980034099074678693e+02
2.531256876512832488e+00 4.979972328820682606e+02
2.531356898517673759e+00 4.979914863470589808e+02
2.531456920522514586e+00 4.979861698075023924e+02
2.531556942527355858e+00 4.979812827583905346e+02
2.531656964532196685e+00 4.979768246846587090e+02
2.531756986537038401e+00 4.979727950612053746e+02
2.531857008541878784e+00 4.979691933529082917e+02
2.531957030546720055e+00 4.979660190146412901e+02
2.532057052551561327e+00 4.979632714912956430e+02
2.532157074556402154e+00 4.979609502177945615e+02
2.532257096561243426e+00 4.979590546191152498e+02
2.532357118566084253e+00 4.979575841103045377e+02
2.532457140570925525e+00 4.979565380965015038e+02
2.532557162575766352e+00 4.979559159729545854e+02
2.532657184580607179e+00 4.979557171250426677e+02
2.532757206585448451e+00 4.979559409282949218e+02
2.532857228590289722e+00 4.979565867484105297e+02
2.532957250595130994e+00 4.979576539412809097e+02
2.533057272599971821e+00 4.979591418530096121e+02
2.533157294604813092e+00 4.979610498199337485e+02
2.533257316609653920e+00 4.979633771686457635e+02
2.533357338614494747e+00 4.979661232160154896e+02
2.533457360619336018e+00 4.979692872692128844e+02
2.533557382624176846e+00 4.979728686257285517e+02
2.533657404629018117e+00 4.979768665733987518e+02
2.533757426633859389e+00 4.979812803904256953e+02
2.533857448638700660e+00 4.979861093454060210e+02
2.533957470643541487e+00 4.979913526973477360e+02
2.534057492648382315e+00 4.979970096956995462e+02
2.534157514653223586e+00 4.980030795803714909e+02
2.534257536658064414e+00 4.980095615817613748e+02
2.534357558662905685e+00 4.980164549207792106e+02
2.534457580667746512e+00 4.980237588088723442e+02
2.534557602672587784e+00 4.980314724480497262e+02
2.534657624677429055e+00 4.980395950309075488e+02
2.534757646682269439e+00 4.980481257406585200e+02
2.534857668687111154e+00 4.980570637511523273e+02
2.534957690691951981e+00 4.980664082269061055e+02
2.535057712696793253e+00 4.980761583231313239e+02
2.535157734701634080e+00 4.980863131857571489e+02
2.535257756706475352e+00 4.980968719514623899e+02
2.535357778711316179e+00 4.981078337476984075e+02
2.535457800716157006e+00 4.981191976927222527e+02
2.535557822720998722e+00 4.981309628956179267e+02
2.535657844725839105e+00 4.981431284563320787e+02
2.535757866730680821e+00 4.981556934656965723e+02
2.535857888735521648e+00 4.981686570054604317e+02
2.535957910740362919e+00 4.981820181483194574e+02
2.536057932745203747e+00 4.981957759579432263e+02
2.536157954750044574e+00 4.982099294890066403e+02
2.536257976754885846e+00 4.982244777872194845e+02
2.536357998759726673e+00 4.982394198893562702e+02
2.536458020764568388e+00 4.982547548232873851e+02
2.536558042769408772e+00 4.982704816080093337e+02
2.536658064774250487e+00 4.982865992536754902e+02
2.536758086779091315e+00 4.983031067616274754e+02
2.536858108783932142e+00 4.983200031244277852e+02
2.536958130788773413e+00 4.983372873258903155e+02
2.537058152793614241e+00 4.983549583411120238e+02
2.537158174798455512e+00 4.983730151365070355e+02
2.537258196803296340e+00 4.983914566698380781e+02
2.537358218808138055e+00 4.984102818902481431e+02
2.537458240812978438e+00 4.984294897382956719e+02
2.537558262817819710e+00 4.984490791459870138e+02
2.537658284822660981e+00 4.984690490368095652e+02
2.537758306827501809e+00 4.984893983257670129e+02
2.537858328832343080e+00 4.985101259194094609e+02
2.537958350837183907e+00 4.985312307158740168e+02
2.538058372842025179e+00 4.985527116049133269e+02
2.538158394846866006e+00 4.985745674679351964e+02
2.538258416851706833e+00 4.985967971780329435e+02
2.538358438856548105e+00 4.986193996000242805e+02
2.538458460861389376e+00 4.986423735904868977e+02
2.538558482866230648e+00 4.986657179977909209e+02
2.538658504871071475e+00 4.986894316621384178e+02
2.538758526875912747e+00 4.987135134155977312e+02
2.538858548880753574e+00 4.987379620821399158e+02
2.538958570885594401e+00 4.987627764776782442e+02
2.539058592890435673e+00 4.987879554100999258e+02
2.539158614895276500e+00 4.988134976793096484e+02
2.539258636900117772e+00 4.988394020772604449e+02
2.539358658904959043e+00 4.988656673879962682e+02
2.539458680909800314e+00 4.988922923876888831e+02
2.539558702914641142e+00 4.989192758446733365e+02
2.539658724919481969e+00 4.989466165194905329e+02
2.539758746924323241e+00 4.989743131649216821e+02
2.539858768929164068e+00 4.990023645260295098e+02
2.539958790934005339e+00 4.990307693401974802e+02
2.540058812938846167e+00 4.990595263371675969e+02
2.540158834943687438e+00 4.990886342390806476e+02
2.540258856948528710e+00 4.991180917605158811e+02
2.540358878953369093e+00 4.991478976085308545e+02
2.540458900958210808e+00 4.991780504827011669e+02
2.540558922963051636e+00 4.992085490751617272e+02
2.540658944967892907e+00 4.992393920706469430e+02
2.540758966972733734e+00 4.992705781465306814e+02
2.540858988977575006e+00 4.993021059728677074e+02
2.540959010982415833e+00 4.993339742124357485e+02
2.541059032987256661e+00 4.993661815207759105e+02
2.541159054992098376e+00 4.993987265462342293e+02
2.541259076996938759e+00 4.994316079300040769e+02
2.541359099001780475e+00 4.994648243061689072e+02
2.541459121006621302e+00 4.994983743017417055e+02
2.541559143011462574e+00 4.995322565367101788e+02
2.541659165016303401e+00 4.995664696240787634e+02
2.541759187021144228e+00 4.996010121699112574e+02
2.541859209025985500e+00 4.996358827733726571e+02
2.541959231030826327e+00 4.996710800267732111e+02
2.542059253035668043e+00 4.997066025156148044e+02
2.542159275040508426e+00 4.997424488186294411e+02
2.542259297045350142e+00 4.997786175078257429e+02
2.542359319050190969e+00 4.998151071485337411e+02
2.542459341055031796e+00 4.998519162994471117e+02
2.542559363059873068e+00 4.998890435126693319e+02
2.542659385064713895e+00 4.999264873337572794e+02
2.542759407069555166e+00 4.999642463017647174e+02
2.542859429074395994e+00 5.000023189492910660e+02
2.542959451079237709e+00 5.000407038025234669e+02
2.543059473084078093e+00 5.000793993812809504e+02
2.543159495088919364e+00 5.001184041990638889e+02
2.543259517093760635e+00 5.001577167630973690e+02
2.543359539098601463e+00 5.001973355743762681e+02
2.543459561103442734e+00 5.002372591277124343e+02
2.543559583108283562e+00 5.002774859117824349e+02
2.543659605113124833e+00 5.003180144091693933e+02
2.543759627117965660e+00 5.003588430964143754e+02
2.543859649122806488e+00 5.003999704440606706e+02
2.543959671127647759e+00 5.004413949167011424e+02
2.544059693132489031e+00 5.004831149730250104e+02
2.544159715137330302e+00 5.005251290658654284e+02
2.544259737142171129e+00 5.005674356422466644e+02
2.544359759147012401e+00 5.006100331434321333e+02
2.544459781151853228e+00 5.006529200049711790e+02
2.544559803156694056e+00 5.006960946567485848e+02
2.544659825161535327e+00 5.007395555230298214e+02
2.544759847166376154e+00 5.007833010225125463e+02
2.544859869171217426e+00 5.008273295683725337e+02
2.544959891176058697e+00 5.008716395683129576e+02
2.545059913180899969e+00 5.009162294246136184e+02
2.545159935185740796e+00 5.009610975341782364e+02
2.545259957190581623e+00 5.010062422885853834e+02
2.545359979195422895e+00 5.010516620741354359e+02
2.545460001200263722e+00 5.010973552719033250e+02
2.545560023205104994e+00 5.011433202577813404e+02
2.545660045209945821e+00 5.011895554025367687e+02
2.545760067214787092e+00 5.012360590718560616e+02
2.545860089219628364e+00 5.012828296263957100e+02
2.545960111224468747e+00 5.013298654218338584e+02
2.546060133229310463e+00 5.013771648089185646e+02
2.546160155234151290e+00 5.014247261335189023e+02
2.546260177238992561e+00 5.014725477366745281e+02
2.546360199243833389e+00 5.015206279546478640e+02
2.546460221248674660e+00 5.015689651189728124e+02
2.546560243253515488e+00 5.016175575565060853e+02
2.546660265258356315e+00 5.016664035894791027e+02
2.546760287263198030e+00 5.017155015355471619e+02
2.546860309268038414e+00 5.017648497078425862e+02
2.546960331272880129e+00 5.018144464150237809e+02
2.547060353277720957e+00 5.018642899613291206e+02
2.547160375282562228e+00 5.019143786466259485e+02
2.547260397287403055e+00 5.019647107664630994e+02
2.547360419292243883e+00 5.020152846121239918e+02
2.547460441297085154e+00 5.020660984706761951e+02
2.547560463301925981e+00 5.021171506250248626e+02
2.547660485306767697e+00 5.021684393539641178e+02
2.547760507311608080e+00 5.022199629322298051e+02
2.547860529316449796e+00 5.022717196305508196e+02
2.547960551321290623e+00 5.023237077157024828e+02
2.548060573326131451e+00 5.023759254505587819e+02
2.548160595330972722e+00 5.024283710941439836e+02
2.548260617335813549e+00 5.024810429016863509e+02
2.548360639340654821e+00 5.025339391246704963e+02
2.548460661345495648e+00 5.025870580108910417e+02
2.548560683350337364e+00 5.026403978045044596e+02
2.548660705355177747e+00 5.026939567460823355e+02
2.548760727360019018e+00 5.027477330726652553e+02
2.548860749364860290e+00 5.028017250178156132e+02
2.548960771369701117e+00 5.028559308116703050e+02
2.549060793374542389e+00 5.029103486809950141e+02
2.549160815379383216e+00 5.029649768492382123e+02
2.549260837384224487e+00 5.030198135365827170e+02
2.549360859389065315e+00 5.030748569600011137e+02
2.549460881393906142e+00 5.031301053333096434e+02
2.549560903398747413e+00 5.031855568672207824e+02
2.549660925403588685e+00 5.032412097693975284e+02
2.549760947408429956e+00 5.032970622445084246e+02
2.549860969413270784e+00 5.033531124942801966e+02
2.549960991418112055e+00 5.034093587175526636e+02
2.550061013422952882e+00 5.034657991103329095e+02
2.550161035427793710e+00 5.035224318658490574e+02
2.550261057432634981e+00 5.035792551746050663e+02
2.550361079437475809e+00 5.036362672244355849e+02
2.550461101442317080e+00 5.036934662005589871e+02
2.550561123447158351e+00 5.037508502856331347e+02
2.550661145451999623e+00 5.038084176598092085e+02
2.550761167456840450e+00 5.038661665007867327e+02
2.550861189461681278e+00 5.039240949838693950e+02
2.550961211466522549e+00 5.039822012820166606e+02
2.551061233471363376e+00 5.040404835659025480e+02
2.551161255476204648e+00 5.040989400039665043e+02
2.551261277481045475e+00 5.041575687624717830e+02
2.551361299485886747e+00 5.042163680055577402e+02
2.551461321490728018e+00 5.042753358952968483e+02
2.551561343495568401e+00 5.043344705917485840e+02
2.551661365500410117e+00 5.043937702530150773e+02
2.551761387505250944e+00 5.044532330352940335e+02
2.551861409510092216e+00 5.045128570929389298e+02
2.551961431514933043e+00 5.045726405785082989e+02
2.552061453519774314e+00 5.046325816428247890e+02
2.552161475524615142e+00 5.046926784350301887e+02
2.552261497529455969e+00 5.047529291026386318e+02
2.552361519534297685e+00 5.048133317915935550e+02
2.552461541539138068e+00 5.048738846463226650e+02
2.552561563543979783e+00 5.049345858097940436e+02
2.552661585548820611e+00 5.049954334235694660e+02
2.552761607553661882e+00 5.050564256278623816e+02
2.552861629558502710e+00 5.051175605615915742e+02
2.552961651563343537e+00 5.051788363624377780e+02
2.553061673568184808e+00 5.052402511668979059e+02
2.553161695573025636e+00 5.053018031103425756e+02
2.553261717577867351e+00 5.053634903270684617e+02
2.553361739582707735e+00 5.054253109503574706e+02
2.553461761587549450e+00 5.054872631125296607e+02
2.553561783592390277e+00 5.055493449449994614e+02
2.553661805597231105e+00 5.056115545783318908e+02
2.553761827602072376e+00 5.056738901422980348e+02
2.553861849606913204e+00 5.057363497659289351e+02
2.553961871611754475e+00 5.057989315775744217e+02
2.554061893616595302e+00 5.058616337049544427e+02
2.554161915621437018e+00 5.059244542752183520e+02
2.554261937626277401e+00 5.059873914149989105e+02
2.554361959631118673e+00 5.060504432504682768e+02
2.554461981635959944e+00 5.061136079073911560e+02
2.554562003640800771e+00 5.061768835111862472e+02
2.554662025645642043e+00 5.062402681869746743e+02
2.554762047650482870e+00 5.063037600596401830e+02
2.554862069655324142e+00 5.063673572538834264e+02
2.554962091660164969e+00 5.064310578942767052e+02
2.555062113665005796e+00 5.064948601053213224e+02
2.555162135669847068e+00 5.065587620114991410e+02
2.555262157674688339e+00 5.066227617373342014e+02
2.555362179679529611e+00 5.066868574074430285e+02
2.555462201684370438e+00 5.067510471465900537e+02
2.555562223689211709e+00 5.068153290797474710e+02
2.555662245694052537e+00 5.068797013321450322e+02
2.555762267698893364e+00 5.069441620293302435e+02
2.555862289703734636e+00 5.070087092972202072e+02
2.555962311708575463e+00 5.070733412621580101e+02
2.556062333713416734e+00 5.071380560509683164e+02
2.556162355718258006e+00 5.072028517910121082e+02
2.556262377723099277e+00 5.072677266102420504e+02
2.556362399727940105e+00 5.073326786372576294e+02
2.556462421732780932e+00 5.073977060013599498e+02
2.556562443737622203e+00 5.074628068326064181e+02
2.556662465742463031e+00 5.075279792618675856e+02
2.556762487747304302e+00 5.075932214208787627e+02
2.556862509752145129e+00 5.076585314422983402e+02
2.556962531756986401e+00 5.077239074597607669e+02
2.557062553761827672e+00 5.077893476079313473e+02
2.557162575766668056e+00 5.078548500225608677e+02
2.557262597771509771e+00 5.079204128405424967e+02
2.557362619776350598e+00 5.079860341999618640e+02
2.557462641781191870e+00 5.080517122401566326e+02
2.557562663786032697e+00 5.081174451017684532e+02
2.557662685790873969e+00 5.081832309267960568e+02
2.557762707795714796e+00 5.082490678586532908e+02
2.557862729800555623e+00 5.083149540422196537e+02
2.557962751805397339e+00 5.083808876238975927e+02
2.558062773810237722e+00 5.084468667516645723e+02
2.558162795815079438e+00 5.085128895751282130e+02
2.558262817819920265e+00 5.085789542455799506e+02
2.558362839824761537e+00 5.086450589160491518e+02
2.558462861829602364e+00 5.087112017413572858e+02
2.558562883834443191e+00 5.087773808781701632e+02
2.558662905839284463e+00 5.088435944850550641e+02
2.558762927844125290e+00 5.089098407225304186e+02
2.558862949848967006e+00 5.089761177531219118e+02
2.558962971853807389e+00 5.090424237414151776e+02
2.559062993858649104e+00 5.091087568541090604e+02
2.559163015863489932e+00 5.091751152600695036e+02
2.559263037868330759e+00 5.092414971303817879e+02
2.559363059873172030e+00 5.093079006384054992e+02
2.559463081878012858e+00 5.093743239598248351e+02
2.559563103882854129e+00 5.094407652727039704e+02
2.559663125887694957e+00 5.095072227575394095e+02
2.559763147892536672e+00 5.095736945973116008e+02
2.559863169897377055e+00 5.096401789775388806e+02
2.559963191902218327e+00 5.097066740863289738e+02
2.560063213907059598e+00 5.097731781144324827e+02
2.560163235911900426e+00 5.098396892552946156e+02
2.560263257916741697e+00 5.099062057051081638e+02
2.560363279921582524e+00 5.099727256628638088e+02
2.560463301926423796e+00 5.100392473304044074e+02
2.560563323931264623e+00 5.101057689124759804e+02
2.560663345936105451e+00 5.101722886167795536e+02
2.560763367940946722e+00 5.102388046540220330e+02
2.560863389945787993e+00 5.103053152379700350e+02
2.560963411950629265e+00 5.103718185854985450e+02
2.561063433955470092e+00 5.104383129166443496e+02
2.561163455960311364e+00 5.105047964546566845e+02
2.561263477965152191e+00 5.105712674260479389e+02
2.561363499969993018e+00 5.106377240606448140e+02
2.561463521974834290e+00 5.107041645916407901e+02
2.561563543979675117e+00 5.107705872556442728e+02
2.561663565984516389e+00 5.108369902927296380e+02
2.561763587989357660e+00 5.109033719464908927e+02
2.561863609994198931e+00 5.109697304640873767e+02
2.561963631999039759e+00 5.110360640962984462e+02
2.562063654003880586e+00 5.111023710975688346e+02
2.562163676008721858e+00 5.111686497260639044e+02
2.562263698013562685e+00 5.112348982437158043e+02
2.562363720018403956e+00 5.113011149162736046e+02
2.562463742023244784e+00 5.113672980133540023e+02
2.562563764028086055e+00 5.114334458084900916e+02
2.562663786032927327e+00 5.114995565791814442e+02
2.562763808037767710e+00 5.115656286069414591e+02
2.562863830042609425e+00 5.116316601773478396e+02
2.562963852047450253e+00 5.116976495800911380e+02
2.563063874052291524e+00 5.117635951090248341e+02
2.563163896057132352e+00 5.118294950622089914e+02
2.563263918061973179e+00 5.118953477419653950e+02
2.563363940066814450e+00 5.119611514549212643e+02
2.563463962071655278e+00 5.120269045120585361e+02
2.563563984076496993e+00 5.120926052287616130e+02
2.563664006081337376e+00 5.121582519248665903e+02
2.563764028086179092e+00 5.122238429247063323e+02
2.563864050091019919e+00 5.122893765571602671e+02
2.563964072095860747e+00 5.123548511556999756e+02
2.564064094100702018e+00 5.124202650584375078e+02
2.564164116105542846e+00 5.124856166081729043e+02
2.564264138110384117e+00 5.125509041524379654e+02
2.564364160115224944e+00 5.126161260435468421e+02
2.564464182120066660e+00 5.126812806386395778e+02
2.564564204124907043e+00 5.127463662997312213e+02
2.564664226129748315e+00 5.128113813937541181e+02
2.564764248134589586e+00 5.128763242926079329e+02
2.564864270139430413e+00 5.129411933732020543e+02
2.564964292144271685e+00 5.130059870175036849e+02
2.565064314149112512e+00 5.130707036125820650e+02
2.565164336153953784e+00 5.131353415506547435e+02
2.565264358158794611e+00 5.131998992291307786e+02
2.565364380163635438e+00 5.132643750506578044e+02
2.565464402168476710e+00 5.133287674231650044e+02
2.565564424173317981e+00 5.133930747599099504e+02
2.565664446178159253e+00 5.134572954795194164e+02
2.565764468183000080e+00 5.135214280060381498e+02
2.565864490187841351e+00 5.135854707689672978e+02
2.565964512192682179e+00 5.136494222033142023e+02
2.566064534197523006e+00 5.137132807496316218e+02
2.566164556202364277e+00 5.137770448540632060e+02
2.566264578207205105e+00 5.138407129683853327e+02
2.566364600212046376e+00 5.139042835500515594e+02
2.566464622216887648e+00 5.139677550622354829e+02
2.566564644221728919e+00 5.140311259738725767e+02
2.566664666226569746e+00 5.140943947597019132e+02
2.566764688231410574e+00 5.141575599003102752e+02
2.566864710236251845e+00 5.142206198821735370e+02
2.566964732241092673e+00 5.142835731976971374e+02
2.567064754245933944e+00 5.143464183452613270e+02
2.567164776250774771e+00 5.144091538292580026e+02
2.567264798255616043e+00 5.144717781601352726e+02
2.567364820260457314e+00 5.145342898544371337e+02
2.567464842265297698e+00 5.145966874348447391e+02
2.567564864270139413e+00 5.146589694302172120e+02
2.567664886274980240e+00 5.147211343756308679e+02
2.567764908279821512e+00 5.147831808124220743e+02
2.567864930284662339e+00 5.148451072882238577e+02
2.567964952289503611e+00 5.149069123570076272e+02
2.568064974294344438e+00 5.149685945791236463e+02
2.568164996299185265e+00 5.150301525213380955e+02
2.568265018304026981e+00 5.150915847568739991e+02
2.568365040308867364e+00 5.151528898654495379e+02
2.568465062313709080e+00 5.152140664333162476e+02
2.568565084318549907e+00 5.152751130532986963e+02
2.568665106323391178e+00 5.153360283248316591e+02
2.568765128328232006e+00 5.153968108539989998e+02
2.568865150333072833e+00 5.154574592535709598e+02
2.568965172337914105e+00 5.155179721430413338e+02
2.569065194342754932e+00 5.155783481486669189e+02
2.569165216347596647e+00 5.156385859035015073e+02
2.569265238352437031e+00 5.156986840474362452e+02
2.569365260357278746e+00 5.157586412272328289e+02
2.569465282362119574e+00 5.158184560965624996e+02
2.569565304366960401e+00 5.158781273160427645e+02
2.569665326371801672e+00 5.159376535532700245e+02
2.569765348376642500e+00 5.159970334828594787e+02
2.569865370381483771e+00 5.160562657864777520e+02
2.569965392386324599e+00 5.161153491528785935e+02
2.570065414391166314e+00 5.161742822779406197e+02
2.570165436396006697e+00 5.162330638646972147e+02
2.570265458400847969e+00 5.162916926233771164e+02
2.570365480405689240e+00 5.163501672714331789e+02
2.570465502410530068e+00 5.164084865335800032e+02
2.570565524415371339e+00 5.164666491418274745e+02
2.570665546420212166e+00 5.165246538355129360e+02
2.570765568425053438e+00 5.165824993613352945e+02
2.570865590429894265e+00 5.166401844733885582e+02
2.570965612434735093e+00 5.166977079331957157e+02
2.571065634439576364e+00 5.167550685097380665e+02
2.571165656444417635e+00 5.168122649794918289e+02
2.571265678449258907e+00 5.168692961264570158e+02
2.571365700454099734e+00 5.169261607421912004e+02
2.571465722458941006e+00 5.169828576258403245e+02
2.571565744463781833e+00 5.170393855841718960e+02
2.571665766468622660e+00 5.170957434316027275e+02
2.571765788473463932e+00 5.171519299902333842e+02
2.571865810478304759e+00 5.172079440898770599e+02
2.571965832483146031e+00 5.172637845680893633e+02
2.572065854487987302e+00 5.173194502702017417e+02
2.572165876492828573e+00 5.173749400493478561e+02
2.572265898497669401e+00 5.174302527664948457e+02
2.572365920502510228e+00 5.174853872904716354e+02
2.572465942507351500e+00 5.175403424980000864e+02
2.572565964512192327e+00 5.175951172737231900e+02
2.572665986517033598e+00 5.176497105102321257e+02
2.572766008521874426e+00 5.177041211080963876e+02
2.572866030526715697e+00 5.177583479758914109e+02
2.572966052531556969e+00 5.178123900302260836e+02
2.573066074536397352e+00 5.178662461957715095e+02
2.573166096541239067e+00 5.179199154052868153e+02
2.573266118546079895e+00 5.179733965996474581e+02
2.573366140550921166e+00 5.180266887278702370e+02
2.573466162555761994e+00 5.180797907471433064e+02
2.573566184560603265e+00 5.181327016228494813e+02
2.573666206565444092e+00 5.181854203285918175e+02
2.573766228570284920e+00 5.182379458462220327e+02
2.573866250575126635e+00 5.182902771658650636e+02
2.573966272579967018e+00 5.183424132859427118e+02
2.574066294584808734e+00 5.183943532131994516e+02
2.574166316589649561e+00 5.184460959627291459e+02
2.574266338594490833e+00 5.184976405579969878e+02
2.574366360599331660e+00 5.185489860308636025e+02
2.574466382604172487e+00 5.186001314216108540e+02
2.574566404609013759e+00 5.186510757789640138e+02
2.574666426613854586e+00 5.187018181601151809e+02
2.574766448618696302e+00 5.187523576307479516e+02
2.574866470623536685e+00 5.188026932650558365e+02
2.574966492628378401e+00 5.188528241457713648e+02
2.575066514633219228e+00 5.189027493641830233e+02
2.575166536638060055e+00 5.189524680201584488e+02
2.575266558642901327e+00 5.190019792221685293e+02
2.575366580647742154e+00 5.190512820873050259e+02
2.575466602652583425e+00 5.191003757413050153e+02
2.575566624657424253e+00 5.191492593185703299e+02
2.575666646662265968e+00 5.191979319621880222e+02
2.575766668667106352e+00 5.192463928239495772e+02
2.575866690671947623e+00 5.192946410643747868e+02
2.575966712676788894e+00 5.193426758527269840e+02
2.576066734681629722e+00 5.193904963670358939e+02
2.576166756686470993e+00 5.194381017941142318e+02
2.576266778691311821e+00 5.194854913295782808e+02
2.576366800696153092e+00 5.195326641778672183e+02
2.576466822700993919e+00 5.195796195522589187e+02
2.576566844705834747e+00 5.196263566748898484e+02
2.576666866710676018e+00 5.196728747767732557e+02
2.576766888715517290e+00 5.197191730978144051e+02
2.576866910720358561e+00 5.197652508868314953e+02
2.576966932725199388e+00 5.198111074015674831e+02
2.577066954730040660e+00 5.198567419087132748e+02
2.577166976734881487e+00 5.199021536839173905e+02
2.577266998739722315e+00 5.199473420118063132e+02
2.577367020744563586e+00 5.199923061860008602e+02
2.577467042749404413e+00 5.200370455091266422e+02
2.577567064754245685e+00 5.200815592928358910e+02
2.577667086759086956e+00 5.201258468578166685e+02
2.577767108763928228e+00 5.201699075338127614e+02
2.577867130768769055e+00 5.202137406596328901e+02
2.577967152773609882e+00 5.202573455831677620e+02
2.578067174778451154e+00 5.203007216614061008e+02
2.578167196783291981e+00 5.203438682604412406e+02
2.578267218788133253e+00 5.203867847554922719e+02
2.578367240792974080e+00 5.204294705309104074e+02
2.578467262797815351e+00 5.204719249801976275e+02
2.578567284802656623e+00 5.205141475060130460e+02
2.578667306807497006e+00 5.205561375201904184e+02
2.578767328812338722e+00 5.205978944437453038e+02
2.578867350817179549e+00 5.206394177068907538e+02
2.578967372822020820e+00 5.206807067490449299e+02
2.579067394826861648e+00 5.207217610188446315e+02
2.579167416831702919e+00 5.207625799741541641e+02
2.579267438836543747e+00 5.208031630820767077e+02
2.579367460841384574e+00 5.208435098189650034e+02
2.579467482846226289e+00 5.208836196704289705e+02
2.579567504851066673e+00 5.209234921313473023e+02
2.579667526855908388e+00 5.209631267058756521e+02
2.579767548860749216e+00 5.210025229074550452e+02
2.579867570865590487e+00 5.210416802588226801e+02
2.579967592870431314e+00 5.210805982920171573e+02
2.580067614875272142e+00 5.211192765483888252e+02
2.580167636880113413e+00 5.211577145786062601e+02
2.580267658884954241e+00 5.211959119426660436e+02
2.580367680889795956e+00 5.212338682098954905e+02
2.580467702894636339e+00 5.212715829589642453e+02
2.580567724899478055e+00 5.213090557778872380e+02
2.580667746904318882e+00 5.213462862640343474e+02
2.580767768909159710e+00 5.213832740241321062e+02
2.580867790914000981e+00 5.214200186742746155e+02
2.580967812918841808e+00 5.214565198399236579e+02
2.581067834923683080e+00 5.214927771559185885e+02
2.581167856928523907e+00 5.215287902664769035e+02
2.581267878933365623e+00 5.215645588252027665e+02
2.581367900938206006e+00 5.216000824950885999e+02
2.581467922943047277e+00 5.216353609485181551e+02
2.581567944947888549e+00 5.216703938672744698e+02
2.581667966952729376e+00 5.217051809425399824e+02
2.581767988957570648e+00 5.217397218748980094e+02
2.581868010962411475e+00 5.217740163743411586e+02
2.581968032967252746e+00 5.218080641602678043e+02
2.582068054972093574e+00 5.218418649614886817e+02
2.582168076976934401e+00 5.218754185162252952e+02
2.582268098981775672e+00 5.219087245721152613e+02
2.582368120986616944e+00 5.219417828862107172e+02
2.582468142991458215e+00 5.219745932249809357e+02
2.582568164996299043e+00 5.220071553643114157e+02
2.582668187001140314e+00 5.220394690895077474e+02
2.582768209005981142e+00 5.220715341952911785e+02
2.582868231010821969e+00 5.221033504858024799e+02
2.582968253015663240e+00 5.221349177746001260e+02
2.583068275020504068e+00 5.221662358846583629e+02
2.583168297025345339e+00 5.221973046483678900e+02
2.583268319030186611e+00 5.222281239075347230e+02
2.583368341035027882e+00 5.222586935133774659e+02
2.583468363039868709e+00 5.222890133265259465e+02
2.583568385044709537e+00 5.223190832170200792e+02
2.583668407049550808e+00 5.223489030643053184e+02
2.583768429054391635e+00 5.223784727572317479e+02
2.583868451059232907e+00 5.224077921940515807e+02
2.583968473064073734e+00 5.224368612824139291e+02
2.584068495068915006e+00 5.224656799393623032e+02
2.584168517073756277e+00 5.224942480913308600e+02
2.584268539078596660e+00 5.225225656741400826e+02
2.584368561083438376e+00 5.225506326329930289e+02
2.584468583088279203e+00 5.225784489224689651e+02
2.584568605093120475e+00 5.226060145065207507e+02
2.584668627097961302e+00 5.226333293584677904e+02
2.584768649102802573e+00 5.226603934609897806e+02
2.584868671107643401e+00 5.226872068061243226e+02
2.584968693112484228e+00 5.227137693952566906e+02
2.585068715117325944e+00 5.227400812391167619e+02
2.585168737122166327e+00 5.227661423577695814e+02
2.585268759127008042e+00 5.227919527806111546e+02
2.585368781131848870e+00 5.228175125463583299e+02
2.585468803136690141e+00 5.228428217030439100e+02
2.585568825141530969e+00 5.228678803080068747e+02
2.585668847146371796e+00 5.228926884278861280e+02
2.585768869151213067e+00 5.229172461386095847e+02
2.585868891156053895e+00 5.229415535253881444e+02
2.585968913160895610e+00 5.229656106827051190e+02
2.586068935165735994e+00 5.229894177143083880e+02
2.586168957170577709e+00 5.230129747331986891e+02
2.586268979175418536e+00 5.230362818616225695e+02
2.586369001180259364e+00 5.230593392310607896e+02
2.586469023185100635e+00 5.230821469822171821e+02
2.586569045189941463e+00 5.231047052650102387e+02
2.586669067194782734e+00 5.231270142385611734e+02
2.586769089199623561e+00 5.231490740711822127e+02
2.586869111204465277e+00 5.231708849403660224e+02
2.586969133209305660e+00 5.231924470327735435e+02
2.587069155214146932e+00 5.232137605442220547e+02
2.587169177218988203e+00 5.232348256796739179e+02
2.587269199223829030e+00 5.232556426532214573e+02
2.587369221228670302e+00 5.232762116880780923e+02
2.587469243233511129e+00 5.232965330165621936e+02
2.587569265238352401e+00 5.233166068800835546e+02
2.587669287243193228e+00 5.233364335291328189e+02
2.587769309248034055e+00 5.233560132232645401e+02
2.587869331252875327e+00 5.233753462310845634e+02
2.587969353257716598e+00 5.233944328302354734e+02
2.588069375262557870e+00 5.234132733073817008e+02
2.588169397267398697e+00 5.234318679581945162e+02
2.588269419272239968e+00 5.234502170873358864e+02
2.588369441277080796e+00 5.234683210084466509e+02
2.588469463281921623e+00 5.234861800441253763e+02
2.588569485286762895e+00 5.235037945259172147e+02
2.588669507291603722e+00 5.235211647942949185e+02
2.588769529296444993e+00 5.235382911986416730e+02
2.588869551301286265e+00 5.235551740972381367e+02
2.588969573306127536e+00 5.235718138572406133e+02
2.589069595310968364e+00 5.235882108546671816e+02
2.589169617315809191e+00 5.236043654743791649e+02
2.589269639320650462e+00 5.236202781100621451e+02
2.589369661325491290e+00 5.236359491642087960e+02
2.589469683330332561e+00 5.236513790481019441e+02
2.589569705335173389e+00 5.236665681817928544e+02
2.589669727340014660e+00 5.236815169940847454e+02
2.589769749344855931e+00 5.236962259225135767e+02
2.589869771349696315e+00 5.237106954133269028e+02
2.589969793354538030e+00 5.237249259214668200e+02
2.590069815359378858e+00 5.237389179105464336e+02
2.590169837364220129e+00 5.237526718528346237e+02
2.590269859369060956e+00 5.237661882292322844e+02
2.590369881373902228e+00 5.237794675292503825e+02
2.590469903378743055e+00 5.237925102509941553e+02
2.590569925383583882e+00 5.238053169011365071e+02
2.590669947388425598e+00 5.238178879949001612e+02
2.590769969393265981e+00 5.238302240560343535e+02
2.590869991398107697e+00 5.238423256167942554e+02
2.590970013402948524e+00 5.238541932179180094e+02
2.591070035407789796e+00 5.238658274086030815e+02
2.591170057412630623e+00 5.238772287464859119e+02
2.591270079417471450e+00 5.238883977976190636e+02
2.591370101422312722e+00 5.238993351364458704e+02
2.591470123427153549e+00 5.239100413457787226e+02
2.591570145431995265e+00 5.239205170167754204e+02
2.591670167436835648e+00 5.239307627489146171e+02
2.591770189441677363e+00 5.239407791499728546e+02
2.591870211446518191e+00 5.239505668359989841e+02
2.591970233451359018e+00 5.239601264312909734e+02
2.592070255456200290e+00 5.239694585683701007e+02
2.592170277461041117e+00 5.239785638879563976e+02
2.592270299465882388e+00 5.239874430389423878e+02
2.592370321470723216e+00 5.239960966783705771e+02
2.592470343475564931e+00 5.240045254714036673e+02
2.592570365480405314e+00 5.240127300913014778e+02
2.592670387485246586e+00 5.240207112193933199e+02
2.592770409490087857e+00 5.240284695450537811e+02
2.592870431494928685e+00 5.240360057656728259e+02
2.592970453499769956e+00 5.240433205866312392e+02
2.593070475504610783e+00 5.240504147212730004e+02
2.593170497509452055e+00 5.240572888908783398e+02
2.593270519514292882e+00 5.240639438246344071e+02
2.593370541519133710e+00 5.240703802596107153e+02
2.593470563523974981e+00 5.240765989407278767e+02
2.593570585528816252e+00 5.240826006207310002e+02
2.593670607533657524e+00 5.240883860601620654e+02
2.593770629538498351e+00 5.240939560273299094e+02
2.593870651543339623e+00 5.240993112982811226e+02
2.593970673548180450e+00 5.241044526567729918e+02
2.594070695553021277e+00 5.241093808942420083e+02
2.594170717557862549e+00 5.241140968097751056e+02
2.594270739562703376e+00 5.241186012100803282e+02
2.594370761567544648e+00 5.241228949094568179e+02
2.594470783572385919e+00 5.241269787297646872e+02
2.594570805577227190e+00 5.241308535003939824e+02
2.594670827582068018e+00 5.241345200582352390e+02
2.594770849586908845e+00 5.241379792476466264e+02
2.594870871591750117e+00 5.241412319204266623e+02
2.594970893596590944e+00 5.241442789357795391e+02
2.595070915601432215e+00 5.241471211602852236e+02
2.595170937606273043e+00 5.241497594678671703e+02
2.595270959611114314e+00 5.241521947397618533e+02
2.595370981615955586e+00 5.241544278644861379e+02
2.595471003620795969e+00 5.241564597378037433e+02
2.595571025625637684e+00 5.241582912626945472e+02
2.595671047630478512e+00 5.241599233493216161e+02
2.595771069635319783e+00 5.241613569149983505e+02
2.595871091640160611e+00 5.241625928841554014e+02
2.595971113645001882e+00 5.241636321883069058e+02
2.596071135649842709e+00 5.241644757660185405e+02
2.596171157654683537e+00 5.241651245628719380e+02
2.596271179659525252e+00 5.241655795314335364e+02
2.596371201664365636e+00 5.241658416312185409e+02
2.596471223669207351e+00 5.241659118286576131e+02
2.596571245674048178e+00 5.241657910970616285e+02
2.596671267678889450e+00 5.241654804165896167e+02
2.596771289683730277e+00 5.241649807742101075e+02
2.596871311688571105e+00 5.241642931636719140e+02
2.596971333693412376e+00 5.241634185854619545e+02
2.597071355698253203e+00 5.241623580467766033e+02
2.597171377703094919e+00 5.241611125614820139e+02
2.597271399707935302e+00 5.241596831500806957e+02
2.597371421712777018e+00 5.241580708396753607e+02
2.597471443717617845e+00 5.241562766639307256e+02
2.597571465722458672e+00 5.241543016630414513e+02
2.597671487727299944e+00 5.241521468836932627e+02
2.597771509732140771e+00 5.241498133790264546e+02
2.597871531736982043e+00 5.241473022085992852e+02
2.597971553741822870e+00 5.241446144383536421e+02
2.598071575746663697e+00 5.241417511405736605e+02
2.598171597751504969e+00 5.241387133938522993e+02
2.598271619756346240e+00 5.241355022830526877e+02
2.598371641761187512e+00 5.241321188992700399e+02
2.598471663766028339e+00 5.241285643397959575e+02
2.598571685770869610e+00 5.241248397080773884e+02
2.598671707775710438e+00 5.241209461136826349e+02
2.598771729780551265e+00 5.241168846722597436e+02
2.598871751785392537e+00 5.241126565055010360e+02
2.598971773790233364e+00 5.241082627411022941e+02
2.599071795795074635e+00 5.241037045127251304e+02
2.599171817799915907e+00 5.240989829599593577e+02
2.599271839804757178e+00 5.240940992282831985e+02
2.599371861809598006e+00 5.240890544690226989e+02
2.599471883814438833e+00 5.240838498393156897e+02
2.599571905819280104e+00 5.240784865020692678e+02
2.599671927824120932e+00 5.240729656259230751e+02
2.599771949828962203e+00 5.240672883852082578e+02
2.599871971833803030e+00 5.240614559599068798e+02
2.599971993838644302e+00 5.240554695356138382e+02
2.600072015843485573e+00 5.240493303034955943e+02
2.600172037848325957e+00 5.240430394602502702e+02
2.600272059853167672e+00 5.240365982080679714e+02
2.600372081858008499e+00 5.240300077545892918e+02
2.600472103862849771e+00 5.240232693128639312e+02
2.600572125867690598e+00 5.240163841013136334e+02
2.600672147872531870e+00 5.240093533436867119e+02
2.600772169877372697e+00 5.240021782690203054e+02
2.600872191882213524e+00 5.239948601115975180e+02
2.600972213887055240e+00 5.239874001109062647e+02
2.601072235891895623e+00 5.239797995115987987e+02
2.601172257896737339e+00 5.239720595634507845e+02
2.601272279901578166e+00 5.239641815213171867e+02
2.601372301906419438e+00 5.239561666450914572e+02
2.601472323911260265e+00 5.239480161996659717e+02
2.601572345916101092e+00 5.239397314548861004e+02
2.601672367920942364e+00 5.239313136855114408e+02
2.601772389925783191e+00 5.239227641711714796e+02
2.601872411930624907e+00 5.239140841963246658e+02
2.601972433935465290e+00 5.239052750502142999e+02
2.602072455940307005e+00 5.238963380268278343e+02
2.602172477945147833e+00 5.238872744248526487e+02
2.602272499949988660e+00 5.238780855476339866e+02
2.602372521954829931e+00 5.238687727031308441e+02
2.602472543959670759e+00 5.238593372038762936e+02
2.602572565964512030e+00 5.238497803669289397e+02
2.602672587969352858e+00 5.238401035138352881e+02
2.602772609974194573e+00 5.238303079705827940e+02
2.602872631979034956e+00 5.238203950675573424e+02
2.602972653983876228e+00 5.238103661394995925e+02
2.603072675988717499e+00 5.238002225254620043e+02
2.603172697993558327e+00 5.237899655687649556e+02
2.603272719998399598e+00 5.237795966169512667e+02
2.603372742003240425e+00 5.237691170217455010e+02
2.603472764008081697e+00 5.237585281390061027e+02
2.603572786012922524e+00 5.237478313286839011e+02
2.603672808017763352e+00 5.237370279547780001e+02
2.603772830022604623e+00 5.237261193852900760e+02
2.603872852027445894e+00 5.237151069921787894e+02
2.603972874032287166e+00 5.237039921513213585e+02
2.604072896037127993e+00 5.236927762424600132e+02
2.604172918041969265e+00 5.236814606491650466e+02
2.604272940046810092e+00 5.236700467587866115e+02
2.604372962051650919e+00 5.236585359624098146e+02
2.604472984056492191e+00 5.236469296548108332e+02
2.604573006061333018e+00 5.236352292344123498e+02
2.604673028066174290e+00 5.236234361032361448e+02
2.604773050071015561e+00 5.236115516668604641e+02
2.604873072075856832e+00 5.235995773343752262e+02
2.604973094080697660e+00 5.235875145183333643e+02
2.605073116085538487e+00 5.235753646347091035e+02
2.605173138090379759e+00 5.235631291028508940e+02
2.605273160095220586e+00 5.235508093454361642e+02
2.605373182100061857e+00 5.235384067884256183e+02
2.605473204104902685e+00 5.235259228610188984e+02
2.605573226109743956e+00 5.235133589956062679e+02
2.605673248114585228e+00 5.235007166277268880e+02
2.605773270119425611e+00 5.234879971960186822e+02
2.605873292124267326e+00 5.234752021421758172e+02
2.605973314129108154e+00 5.234623329109008409e+02
2.606073336133949425e+00 5.234493909498607991e+02
2.606173358138790253e+00 5.234363777096380090e+02
2.606273380143631524e+00 5.234232946436885641e+02
2.606373402148472351e+00 5.234101432082919700e+02
2.606473424153313179e+00 5.233969248625066939e+02
2.606573446158154894e+00 5.233836410681251436e+02
2.606673468162995277e+00 5.233702932896247830e+02
2.606773490167836993e+00 5.233568829941253853e+02
2.606873512172677820e+00 5.233434116513399204e+02
2.606973534177519092e+00 5.233298807335280571e+02
2.607073556182359919e+00 5.233162917154521665e+02
2.607173578187200746e+00 5.233026460743290045e+02
2.607273600192042018e+00 5.232889452897832143e+02
2.607373622196882845e+00 5.232751908438026476e+02
2.607473644201724561e+00 5.232613842206897061e+02
2.607573666206564944e+00 5.232475269070155264e+02
2.607673688211406660e+00 5.232336203915727992e+02
2.607773710216247487e+00 5.232196661653317733e+02
2.607873732221088314e+00 5.232056657213900053e+02
2.607973754225929586e+00 5.231916205549283632e+02
2.608073776230770413e+00 5.231775321631624820e+02
2.608173798235611685e+00 5.231634020452970617e+02
2.608273820240452512e+00 5.231492317024792555e+02
2.608373842245294227e+00 5.231350226377514900e+02
2.608473864250134611e+00 5.231207763560038302e+02
2.608573886254975882e+00 5.231064943639300964e+02
2.608673908259817154e+00 5.230921781699767052e+02
2.608773930264657981e+00 5.230778292842996962e+02
2.608873952269499252e+00 5.230634492187155047e+02
2.608973974274340080e+00 5.230490394866560564e+02
2.609073996279181351e+00 5.230346016031203362e+02
2.609174018284022178e+00 5.230201370846275495e+02
2.609274040288863006e+00 5.230056474491700556e+02
2.609374062293704277e+00 5.229911342161698258e+02
2.609474084298545549e+00 5.229765989064255791e+02
2.609574106303386820e+00 5.229620430420717412e+02
2.609674128308227647e+00 5.229474681465269441e+02
2.609774150313068919e+00 5.229328757444509392e+02
2.609874172317909746e+00 5.229182673616943475e+02
2.609974194322750574e+00 5.229036445252546628e+02
2.610074216327591845e+00 5.228890087632274799e+02
2.610174238332432672e+00 5.228743616047595424e+02
2.610274260337273944e+00 5.228597045800046317e+02
2.610374282342115215e+00 5.228450392200718397e+02
2.610474304346956487e+00 5.228303670569837323e+02
2.610574326351797314e+00 5.228156896236263265e+02
2.610674348356638141e+00 5.228010084537033890e+02
2.610774370361479413e+00 5.227863250816899381e+02
2.610874392366320240e+00 5.227716410427843812e+02
2.610974414371161512e+00 5.227569578728617898e+02
2.611074436376002339e+00 5.227422771084292208e+02
2.611174458380843610e+00 5.227276002865769442e+02
2.611274480385684882e+00 5.227129289449325142e+02
2.611374502390525265e+00 5.226982646216127932e+02
2.611474524395366981e+00 5.226836088551795001e+02
2.611574546400207808e+00 5.226689631845916892e+02
2.611674568405049079e+00 5.226543291491575474e+02
2.611774590409889907e+00 5.226397082884898282e+02
2.611874612414731178e+00 5.226251021424610599e+02
2.611974634419572006e+00 5.226105122511503396e+02
2.612074656424412833e+00 5.225959401548043388e+02
2.612174678429254548e+00 5.225813873937870540e+02
2.612274700434094932e+00 5.225668555085334219e+02
2.612374722438936647e+00 5.225523460395043003e+02
2.612474744443777475e+00 5.225378605271395145e+02
2.612574766448618746e+00 5.225234005118113600e+02
2.612674788453459573e+00 5.225089675337790140e+02
2.612774810458300401e+00 5.224945631331406730e+02
2.612874832463141672e+00 5.224801888497896698e+02
2.612974854467982500e+00 5.224658462233676346e+02
2.613074876472824215e+00 5.224515367932169738e+02
2.613174898477664598e+00 5.224372620983372144e+02
2.613274920482506314e+00 5.224230236773375964e+02
2.613374942487347141e+00 5.224088230683904612e+02
2.613474964492187969e+00 5.223946618091883920e+02
2.613574986497029240e+00 5.223805414368946458e+02
2.613675008501870067e+00 5.223664634881002939e+02
2.613775030506711339e+00 5.223524294987768144e+02
2.613875052511552166e+00 5.223384410042322088e+02
2.613975074516393882e+00 5.223244995390634813e+02
2.614075096521234265e+00 5.223106066371123006e+02
2.614175118526075536e+00 5.222967638314195256e+02
2.614275140530916808e+00 5.222829726541798436e+02
2.614375162535757635e+00 5.222692346366958418e+02
2.614475184540598907e+00 5.222555513093334412e+02
2.614575206545439734e+00 5.222419242014775591e+02
2.614675228550281005e+00 5.222283548414841334e+02
2.614775250555121833e+00 5.222148447566387404e+02
2.614875272559962660e+00 5.222013954731091872e+02
2.614975294564803932e+00 5.221880085159012879e+02
2.615075316569645203e+00 5.221746854088144119e+02
2.615175338574486474e+00 5.221614276743969185e+02
2.615275360579327302e+00 5.221482368339002278e+02
2.615375382584168573e+00 5.221351144072361876e+02
2.615475404589009401e+00 5.221220619129306897e+02
2.615575426593850228e+00 5.221090808680804685e+02
2.615675448598691499e+00 5.220961727883096728e+02
2.615775470603532327e+00 5.220833391877225722e+02
2.615875492608373598e+00 5.220705815788634254e+02
2.615975514613214870e+00 5.220579014726681635e+02
2.616075536618056141e+00 5.220453003784243720e+02
2.616175558622896968e+00 5.220327798037249067e+02
2.616275580627737796e+00 5.220203412544249204e+02
2.616375602632579067e+00 5.220079862345986612e+02
2.616475624637419894e+00 5.219957162464949079e+02
2.616575646642261166e+00 5.219835327904936548e+02
2.616675668647101993e+00 5.219714373650646166e+02
2.616775690651943265e+00 5.219594314667202752e+02
2.616875712656784536e+00 5.219475165899759759e+02
2.616975734661624919e+00 5.219356942273050208e+02
2.617075756666466635e+00 5.219239658690974011e+02
2.617175778671307462e+00 5.219123330036135258e+02
2.617275800676148734e+00 5.219007971169462508e+02
2.617375822680989561e+00 5.218893596929736987e+02
2.617475844685830833e+00 5.218780222133199231e+02
2.617575866690671660e+00 5.218667861573101163e+02
2.617675888695512487e+00 5.218556530019295678e+02
2.617775910700354203e+00 5.218446242217818281e+02
2.617875932705194586e+00 5.218337012890442566e+02
2.617975954710036302e+00 5.218228856734294823e+02
2.618075976714877129e+00 5.218121788421402698e+02
2.618175998719718400e+00 5.218015822598301838e+02
2.618276020724559228e+00 5.217910973885589101e+02
2.618376042729400055e+00 5.217807256877545115e+02
2.618476064734241326e+00 5.217704686141692036e+02
2.618576086739082154e+00 5.217603276218394512e+02
2.618676108743923869e+00 5.217503041620434487e+02
2.618776130748764253e+00 5.217403996832601933e+02
2.618876152753605968e+00 5.217306156311312861e+02
2.618976174758446795e+00 5.217209534484169353e+02
2.619076196763287623e+00 5.217114145749551426e+02
2.619176218768128894e+00 5.217020004476243003e+02
2.619276240772969722e+00 5.216927125002985122e+02
2.619376262777810993e+00 5.216835521638106457e+02
2.619476284782651820e+00 5.216745208659122000e+02
2.619576306787493536e+00 5.216656200312295368e+02
2.619676328792333919e+00 5.216568510812284103e+02
2.619776350797175191e+00 5.216482154341705382e+02
2.619876372802016462e+00 5.216397145050774498e+02
2.619976394806857289e+00 5.216313497056879669e+02
2.620076416811698561e+00 5.216231224444198915e+02
2.620176438816539388e+00 5.216150341263318069e+02
2.620276460821380660e+00 5.216070861530822640e+02
2.620376482826221487e+00 5.215992799228911281e+02
2.620476504831062314e+00 5.215916168305030851e+02
2.620576526835903586e+00 5.215840982671447819e+02
2.620676548840744857e+00 5.215767256204908335e+02
2.620776570845586129e+00 5.215695002746207365e+02
2.620876592850426956e+00 5.215624236099854443e+02
2.620976614855268227e+00 5.215554970033651898e+02
2.621076636860109055e+00 5.215487218278349246e+02
2.621176658864949882e+00 5.215420994527227094e+02
2.621276680869791154e+00 5.215356312435764039e+02
2.621376702874631981e+00 5.215293185621221710e+02
2.621476724879473252e+00 5.215231627662302571e+02
2.621576746884314524e+00 5.215171652098753157e+02
2.621676768889155795e+00 5.215113272431019595e+02
2.621776790893996623e+00 5.215056502119846300e+02
2.621876812898837450e+00 5.215001354585938316e+02
2.621976834903678721e+00 5.214947843209577059e+02
2.622076856908519549e+00 5.214895981330284940e+02
2.622176878913360820e+00 5.214845782246394492e+02
2.622276900918201648e+00 5.214797259214790301e+02
2.622376922923042919e+00 5.214750425450441753e+02
2.622476944927884190e+00 5.214705294126129047e+02
2.622576966932724574e+00 5.214661878372043020e+02
2.622676988937566289e+00 5.214620191275447496e+02
2.622777010942407117e+00 5.214580245880312077e+02
2.622877032947248388e+00 5.214542055186973357e+02
2.622977054952089215e+00 5.214505632151788177e+02
2.623077076956930487e+00 5.214470989686776647e+02
2.623177098961771314e+00 5.214438140659265173e+02
2.623277120966612141e+00 5.214407097891580634e+02
2.623377142971453857e+00 5.214377874160659303e+02
2.623477164976294240e+00 5.214350482197744441e+02
2.623577186981135956e+00 5.214324934688022495e+02
2.623677208985976783e+00 5.214301244270296820e+02
2.623777230990818055e+00 5.214279423536652303e+02
2.623877252995658882e+00 5.214259485032114299e+02
2.623977275000499709e+00 5.214241441254321217e+02
2.624077297005340981e+00 5.214225304653198236e+02
2.624177319010181808e+00 5.214211087630612838e+02
2.624277341015023524e+00 5.214198802540062161e+02
2.624377363019863907e+00 5.214188461686344453e+02
2.624477385024705622e+00 5.214180077325239608e+02
2.624577407029546450e+00 5.214173661663172652e+02
2.624677429034387277e+00 5.214169226856906789e+02
2.624777451039228549e+00 5.214166785013221670e+02
2.624877473044069376e+00 5.214166348188598477e+02
2.624977495048910647e+00 5.214167928388902737e+02
2.625077517053751475e+00 5.214171537569077373e+02
2.625177539058593190e+00 5.214177187632826644e+02
2.625277561063433573e+00 5.214184890432304655e+02
2.625377583068274845e+00 5.214194657767808394e+02
2.625477605073116116e+00 5.214206501387495791e+02
2.625577627077956944e+00 5.214220432987032154e+02
2.625677649082798215e+00 5.214236464209350288e+02
2.625777671087639042e+00 5.214254606644299201e+02
2.625877693092480314e+00 5.214274871828381492e+02
2.625977715097321141e+00 5.214297271244428202e+02
2.626077737102161969e+00 5.214321816321331653e+02
2.626177759107003240e+00 5.214348518433748723e+02
2.626277781111844511e+00 5.214377388901787072e+02
2.626377803116685783e+00 5.214408438990740251e+02
2.626477825121526610e+00 5.214441679910808034e+02
2.626577847126367882e+00 5.214477122816786050e+02
2.626677869131208709e+00 5.214514778807807716e+02
2.626777891136049536e+00 5.214554658927049786e+02
2.626877913140890808e+00 5.214596774161453823e+02
2.626977935145731635e+00 5.214641135441461302e+02
2.627077957150572907e+00 5.214687753640729397e+02
2.627177979155414178e+00 5.214736639575869503e+02
2.627278001160255450e+00 5.214787804006156193e+02
2.627378023165096277e+00 5.214841257633285068e+02
2.627478045169937104e+00 5.214897011101082853e+02
2.627578067174778376e+00 5.214955074995266386e+02
2.627678089179619203e+00 5.215015459843150438e+02
2.627778111184460474e+00 5.215078176113418067e+02
2.627878133189301302e+00 5.215143234215847770e+02
2.627978155194142573e+00 5.215210644501052002e+02
2.628078177198983845e+00 5.215280417260245258e+02
2.628178199203824228e+00 5.215352562724955305e+02
2.628278221208665943e+00 5.215427091066808316e+02
2.628378243213506771e+00 5.215504012397268525e+02
2.628478265218348042e+00 5.215583336767375613e+02
2.628578287223188870e+00 5.215665074167530975e+02
2.628678309228030141e+00 5.215749234527237377e+02
2.628778331232870968e+00 5.215835827714856805e+02
2.628878353237711796e+00 5.215924863537387637e+02
2.628978375242553511e+00 5.216016351740217942e+02
2.629078397247393895e+00 5.216110302006889015e+02
2.629178419252235610e+00 5.216206723958874818e+02
2.629278441257076437e+00 5.216305627155344382e+02
2.629378463261917709e+00 5.216407021092936702e+02
2.629478485266758536e+00 5.216510915205542460e+02
2.629578507271599364e+00 5.216617318864076651e+02
2.629678529276440635e+00 5.216726241376238704e+02
2.629778551281281462e+00 5.216837691986335130e+02
2.629878573286123178e+00 5.216951679875026002e+02
2.629978595290963561e+00 5.217068214159129411e+02
2.630078617295805277e+00 5.217187303891398642e+02
2.630178639300646104e+00 5.217308958060320947e+02
2.630278661305486931e+00 5.217433185589903815e+02
2.630378683310328203e+00 5.217559995339469197e+02
2.630478705315169030e+00 5.217689396103462514e+02
2.630578727320010302e+00 5.217821396611228693e+02
2.630678749324851129e+00 5.217956005526827994e+02
2.630778771329692844e+00 5.218093231448838196e+02
2.630878793334533228e+00 5.218233082910153371e+02
2.630978815339374499e+00 5.218375568377796299e+02
2.631078837344215771e+00 5.218520696252721791e+02
2.631178859349056598e+00 5.218668474869634792e+02
2.631278881353897869e+00 5.218818912496806206e+02
2.631378903358738697e+00 5.218972017335877354e+02
2.631478925363579968e+00 5.219127797521686034e+02
2.631578947368420796e+00 5.219286261122082351e+02
2.631678969373261623e+00 5.219447416137767277e+02
2.631778991378102894e+00 5.219611270502091429e+02
2.631879013382944166e+00 5.219777832080893631e+02
2.631979035387785437e+00 5.219947108672341756e+02
2.632079057392626265e+00 5.220119108006736042e+02
2.632179079397467536e+00 5.220293837746376084e+02
2.632279101402308363e+00 5.220471305485373250e+02
2.632379123407149191e+00 5.220651518749490378e+02
2.632479145411990462e+00 5.220834484995996263e+02
2.632579167416831289e+00 5.221020211613488300e+02
2.632679189421672561e+00 5.221208705921757200e+02
2.632779211426513832e+00 5.221399975171608503e+02
2.632879233431354216e+00 5.221594026544736380e+02
2.632979255436195931e+00 5.221790867153564477e+02
2.633079277441036758e+00 5.221990504041098120e+02
2.633179299445878030e+00 5.222192944180778795e+02
2.633279321450718857e+00 5.222398194476343178e+02
2.633379343455560129e+00 5.222606261761693531e+02
2.633479365460400956e+00 5.222817152800737404e+02
2.633579387465241783e+00 5.223030874287273946e+02
2.633679409470083499e+00 5.223247432844846116e+02
2.633779431474923882e+00 5.223466835026617900e+02
2.633879453479765598e+00 5.223689087315251527e+02
2.633979475484606425e+00 5.223914196122750582e+02
2.634079497489447697e+00 5.224142167790382700e+02
2.634179519494288524e+00 5.224373008588519269e+02
2.634279541499129351e+00 5.224606724716520603e+02
2.634379563503970623e+00 5.224843322302643855e+02
2.634479585508811450e+00 5.225082807403894094e+02
2.634579607513653166e+00 5.225325186005946989e+02
2.634679629518493549e+00 5.225570464022993065e+02
2.634779651523335264e+00 5.225818647297664938e+02
2.634879673528176092e+00 5.226069741600922498e+02
2.634979695533016919e+00 5.226323752631944899e+02
2.635079717537858190e+00 5.226580686018029382e+02
2.635179739542699018e+00 5.226840547314484411e+02
2.635279761547540289e+00 5.227103342004548949e+02
2.635379783552381117e+00 5.227369075499286737e+02
2.635479805557222832e+00 5.227637753137493064e+02
2.635579827562063215e+00 5.227909380185599275e+02
2.635679849566904487e+00 5.228183961837598872e+02
2.635779871571745758e+00 5.228461503214947470e+02
2.635879893576586586e+00 5.228742009366486627e+02
2.635979915581427857e+00 5.229025485268356306e+02
2.636079937586268684e+00 5.229311935823926660e+02
2.636179959591109956e+00 5.229601365863705951e+02
2.636279981595950783e+00 5.229893780145266646e+02
2.636380003600791611e+00 5.230189183353188582e+02
2.636480025605632882e+00 5.230487580098972558e+02
2.636580047610474153e+00 5.230788974920978944e+02
2.636680069615315425e+00 5.231093372284357201e+02
2.636780091620156252e+00 5.231400776580990168e+02
2.636880113624997524e+00 5.231711192129421306e+02
2.636980135629838351e+00 5.232024623174798990e+02
2.637080157634679178e+00 5.232341073888828760e+02
2.637180179639520450e+00 5.232660548369711933e+02
2.637280201644361277e+00 5.232983050642077387e+02
2.637380223649202549e+00 5.233308584656962239e+02
2.637480245654043820e+00 5.233637154291732259e+02
2.637580267658885091e+00 5.233968763350063682e+02
2.637680289663725919e+00 5.234303415561878410e+02
2.637780311668566746e+00 5.234641114583314447e+02
2.637880333673408018e+00 5.234981863996670199e+02
2.637980355678248845e+00 5.235325667310391964e+02
2.638080377683090116e+00 5.235672527959029594e+02
2.638180399687930944e+00 5.236022449303185340e+02
2.638280421692772215e+00 5.236375434629508163e+02
2.638380443697613487e+00 5.236731487150649400e+02
2.638480465702453870e+00 5.237090610005254803e+02
2.638580487707295585e+00 5.237452806257908833e+02
2.638680509712136413e+00 5.237818078899152852e+02
2.638780531716977684e+00 5.238186430845440782e+02
2.638880553721818512e+00 5.238557864939106139e+02
2.638980575726659783e+00 5.238932383948402958e+02
2.639080597731500610e+00 5.239309990567421664e+02
2.639180619736341438e+00 5.239690687416137962e+02
2.639280641741183153e+00 5.240074477040371903e+02
2.639380663746023536e+00 5.240461361911786753e+02
2.639480685750865252e+00 5.240851344427890126e+02
2.639580707755706079e+00 5.241244426912029439e+02
2.639680729760547351e+00 5.241640611613396459e+02
2.639780751765388178e+00 5.242039900707018205e+02
2.639880773770229005e+00 5.242442296293774007e+02
2.639980795775070277e+00 5.242847800400388678e+02
2.640080817779911104e+00 5.243256414979450710e+02
2.640180839784752820e+00 5.243668141909440692e+02
2.640280861789593203e+00 5.244082982994698341e+02
2.640380883794434919e+00 5.244500939965485031e+02
2.640480905799275746e+00 5.244922014477961056e+02
2.640580927804116573e+00 5.245346208114250430e+02
2.640680949808957845e+00 5.245773522382414740e+02
2.640780971813798672e+00 5.246203958716514535e+02
2.640880993818639944e+00 5.246637518476611604e+02
2.640981015823480771e+00 5.247074202948809898e+02
2.641081037828322486e+00 5.247514013345275998e+02
2.641181059833162870e+00 5.247956950804285725e+02
2.641281081838004141e+00 5.248403016390243465e+02
2.641381103842845413e+00 5.248852211093726510e+02
2.641481125847686240e+00 5.249304535831529392e+02
2.641581147852527511e+00 5.249759991446679805e+02
2.641681169857368339e+00 5.250218578708513633e+02
2.641781191862209610e+00 5.250680298312710192e+02
2.641881213867050437e+00 5.251145150881318386e+02
2.641981235871891265e+00 5.251613136962826047e+02
2.642081257876732536e+00 5.252084257032215646e+02
2.642181279881573808e+00 5.252558511491004083e+02
2.642281301886415079e+00 5.253035900667297255e+02
2.642381323891255906e+00 5.253516424815863957e+02
2.642481345896097178e+00 5.254000084118175664e+02
2.642581367900938005e+00 5.254486878682474753e+02
2.642681389905778833e+00 5.254976808543851803e+02
2.642781411910620104e+00 5.255469873664283114e+02
2.642881433915460931e+00 5.255966073932733025e+02
2.642981455920302203e+00 5.256465409165189158e+02
2.643081477925143474e+00 5.256967879104757913e+02
2.643181499929984746e+00 5.257473483421721312e+02
2.643281521934825573e+00 5.257982221713641593e+02
2.643381543939666400e+00 5.258494093505397586e+02
2.643481565944507672e+00 5.259009098249293856e+02
2.643581587949348499e+00 5.259527235325141419e+02
2.643681609954189771e+00 5.260048504040321404e+02
2.643781631959030598e+00 5.260572903629897610e+02
2.643881653963871869e+00 5.261100433256676752e+02
2.643981675968713141e+00 5.261631092011325563e+02
2.644081697973553524e+00 5.262164878912435597e+02
2.644181719978395240e+00 5.262701792906639184e+02
2.644281741983236067e+00 5.263241832868694701e+02
2.644381763988077338e+00 5.263784997601585474e+02
2.644481785992918166e+00 5.264331285836614143e+02
2.644581807997759437e+00 5.264880696233510662e+02
2.644681830002600265e+00 5.265433227380533481e+02
2.644781852007441092e+00 5.265988877794588916e+02
2.644881874012282807e+00 5.266547645921297089e+02
2.644981896017123191e+00 5.267109530135154500e+02
2.645081918021964906e+00 5.267674528739602238e+02
2.645181940026805734e+00 5.268242639967170362e+02
2.645281962031647005e+00 5.268813861979569992e+02
2.645381984036487832e+00 5.269388192867809266e+02
2.645482006041328660e+00 5.269965630652341133e+02
2.645582028046169931e+00 5.270546173283153166e+02
2.645682050051010759e+00 5.271129818639889208e+02
2.645782072055852474e+00 5.271716564532006259e+02
2.645882094060692857e+00 5.272306408698862015e+02
2.645982116065534573e+00 5.272899348809863795e+02
2.646082138070375400e+00 5.273495382464604972e+02
2.646182160075216228e+00 5.274094507192966148e+02
2.646282182080057499e+00 5.274696720455290233e+02
2.646382204084898326e+00 5.275302019642471123e+02
2.646482226089739598e+00 5.275910402076136734e+02
2.646582248094580425e+00 5.276521865008753593e+02
2.646682270099422141e+00 5.277136405623784867e+02
2.646782292104262524e+00 5.277754021035830192e+02
2.646882314109103795e+00 5.278374708290757553e+02
2.646982336113945067e+00 5.278998464365866994e+02
2.647082358118785894e+00 5.279625286170034997e+02
2.647182380123627166e+00 5.280255170543849772e+02
2.647282402128467993e+00 5.280888114259778376e+02
2.647382424133309264e+00 5.281524114022313370e+02
2.647482446138150092e+00 5.282163166468120608e+02
2.647582468142990919e+00 5.282805268166217729e+02
2.647682490147832191e+00 5.283450415618106035e+02
2.647782512152673462e+00 5.284098605257941017e+02
2.647882534157514733e+00 5.284749833452701751e+02
2.647982556162355561e+00 5.285404096502339826e+02
2.648082578167196832e+00 5.286061390639963520e+02
2.648182600172037660e+00 5.286721712031985589e+02
2.648282622176878487e+00 5.287385056778285843e+02
2.648382644181719758e+00 5.288051420912414642e+02
2.648482666186560586e+00 5.288720800401738416e+02
2.648582688191401857e+00 5.289393191147613607e+02
2.648682710196243129e+00 5.290068588985561746e+02
2.648782732201084400e+00 5.290746989685467270e+02
2.648882754205925227e+00 5.291428388951724173e+02
2.648982776210766055e+00 5.292112782423436101e+02
2.649082798215607326e+00 5.292800165674598247e+02
2.649182820220448153e+00 5.293490534214261061e+02
2.649282842225289425e+00 5.294183883486736022e+02
2.649382864230130252e+00 5.294880208871774130e+02
2.649482886234971524e+00 5.295579505684764854e+02
2.649582908239812795e+00 5.296281769176887337e+02
2.649682930244653178e+00 5.296986994535353688e+02
2.649782952249494894e+00 5.297695176883561317e+02
2.649882974254335721e+00 5.298406311281312355e+02
2.649982996259176993e+00 5.299120392724986459e+02
2.650083018264017820e+00 5.299837416147759086e+02
2.650183040268859092e+00 5.300557376419785669e+02
2.650283062273699919e+00 5.301280268348410800e+02
2.650383084278540746e+00 5.302006086678362635e+02
2.650483106283382462e+00 5.302734826091948435e+02
2.650583128288222845e+00 5.303466481209295580e+02
2.650683150293064561e+00 5.304201046588505051e+02
2.650783172297905388e+00 5.304938516725896989e+02
2.650883194302746659e+00 5.305678886056203964e+02
2.650983216307587487e+00 5.306422148952794942e+02
2.651083238312428314e+00 5.307168299727862859e+02
2.651183260317269585e+00 5.307917332632659964e+02
2.651283282322110413e+00 5.308669241857694487e+02
2.651383304326952128e+00 5.309424021532973939e+02
2.651483326331792512e+00 5.310181665728186999e+02
2.651583348336634227e+00 5.310942168452951364e+02
2.651683370341475054e+00 5.311705523657014965e+02
2.651783392346315882e+00 5.312471725230495849e+02
2.651883414351157153e+00 5.313240767004077725e+02
2.651983436355997981e+00 5.314012642749263478e+02
2.652083458360839252e+00 5.314787346178585494e+02
2.652183480365680079e+00 5.315564870945829625e+02
2.652283502370521795e+00 5.316345210646275063e+02
2.652383524375362178e+00 5.317128358816908076e+02
2.652483546380203450e+00 5.317914308936667567e+02
2.652583568385044721e+00 5.318703054426664494e+02
2.652683590389885548e+00 5.319494588650445621e+02
2.652783612394726820e+00 5.320288904914172008e+02
2.652883634399567647e+00 5.321085996466903225e+02
2.652983656404408919e+00 5.321885856500820182e+02
2.653083678409249746e+00 5.322688478151447953e+02
2.653183700414090573e+00 5.323493854497929760e+02
2.653283722418931845e+00 5.324301978563231614e+02
2.653383744423773116e+00 5.325112843314407201e+02
2.653483766428614388e+00 5.325926441662821844e+02
2.653583788433455215e+00 5.326742766464418537e+02
2.653683810438296486e+00 5.327561810519957817e+02
2.653783832443137314e+00 5.328383566575244004e+02
2.653883854447978141e+00 5.329208027321406007e+02
2.653983876452819413e+00 5.330035185395119015e+02
2.654083898457660240e+00 5.330865033378860289e+02
2.654183920462501511e+00 5.331697563801178603e+02
2.654283942467342783e+00 5.332532769136928437e+02
2.654383964472184054e+00 5.333370641807522361e+02
2.654483986477024882e+00 5.334211174181195929e+02
2.654584008481865709e+00 5.335054358573254376e+02
2.654684030486706980e+00 5.335900187246348878e+02
2.654784052491547808e+00 5.336748652410697105e+02
2.654884074496389079e+00 5.337599746224384489e+02
2.654984096501229907e+00 5.338453460793584782e+02
2.655084118506071178e+00 5.339309788172856770e+02
2.655184140510912449e+00 5.340168720365377339e+02
2.655284162515752833e+00 5.341030249323232511e+02
2.655384184520594548e+00 5.341894366947647086e+02
2.655484206525435376e+00 5.342761065089277963e+02
2.655584228530276647e+00 5.343630335548480161e+02
2.655684250535117474e+00 5.344502170075545564e+02
2.655784272539958746e+00 5.345376560370996231e+02
2.655884294544799573e+00 5.346253498085860656e+02
2.655984316549640400e+00 5.347132974821902280e+02
2.656084338554482116e+00 5.348014982131942361e+02
2.656184360559322499e+00 5.348899511520089618e+02
2.656284382564164215e+00 5.349786554442046054e+02
2.656384404569005042e+00 5.350676102305357063e+02
2.656484426573846314e+00 5.351568146469682006e+02
2.656584448578687141e+00 5.352462678247102303e+02
2.656684470583527968e+00 5.353359688902355629e+02
2.656784492588369240e+00 5.354259169653145136e+02
2.656884514593210067e+00 5.355161111670407763e+02
2.656984536598051783e+00 5.356065506078579119e+02
2.657084558602892166e+00 5.356972343955895894e+02
2.657184580607733881e+00 5.357881616334657338e+02
2.657284602612574709e+00 5.358793314201520843e+02
2.657384624617415536e+00 5.359707428497765704e+02
2.657484646622256808e+00 5.360623950119605752e+02
2.657584668627097635e+00 5.361542869918434917e+02
2.657684690631938906e+00 5.362464178701138735e+02
2.657784712636779734e+00 5.363387867230380834e+02
2.657884734641621449e+00 5.364313926224849638e+02
2.657984756646461832e+00 5.365242346359618750e+02
2.658084778651303104e+00 5.366173118266360689e+02
2.658184800656144375e+00 5.367106232533661796e+02
2.658284822660985203e+00 5.368041679707333742e+02
2.658384844665826474e+00 5.368979450290661362e+02
2.658484866670667301e+00 5.369919534744731209e+02
2.658584888675508573e+00 5.370861923488688490e+02
2.658684910680349400e+00 5.371806606900065617e+02
2.658784932685190228e+00 5.372753575315024364e+02
2.658884954690031499e+00 5.373702819028709428e+02
2.658984976694872771e+00 5.374654328295488313e+02
2.659084998699714042e+00 5.375608093329270787e+02
2.659185020704554869e+00 5.376564104303805607e+02
2.659285042709396141e+00 5.377522351352961323e+02
2.659385064714236968e+00 5.378482824571032097e+02
2.659485086719077795e+00 5.379445514013037837e+02
2.659585108723919067e+00 5.380410409695005001e+02
2.659685130728759894e+00 5.381377501594284922e+02
2.659785152733601166e+00 5.382346779649826658e+02
2.659885174738442437e+00 5.383318233762506679e+02
2.659985196743283709e+00 5.384291853795393763e+02
2.660085218748124536e+00 5.385267629574070725e+02
2.660185240752965363e+00 5.386245550886937963e+02
2.660285262757806635e+00 5.387225607485493128e+02
2.660385284762647462e+00 5.388207789084644901e+02
2.660485306767488733e+00 5.389192085363018805e+02
2.660585328772329561e+00 5.390178485963249386e+02
2.660685350777170832e+00 5.391166980492289440e+02
2.660785372782012104e+00 5.392157558521703322e+02
2.660885394786852487e+00 5.393150209587990958e+02
2.660985416791694202e+00 5.394144923192856140e+02
2.661085438796535030e+00 5.395141688803548732e+02
2.661185460801376301e+00 5.396140495853143193e+02
2.661285482806217129e+00 5.397141333740851223e+02
2.661385504811058400e+00 5.398144191832335537e+02
2.661485526815899227e+00 5.399149059460003173e+02
2.661585548820740055e+00 5.400155925923304494e+02
2.661685570825581770e+00 5.401164780489065151e+02
2.661785592830422154e+00 5.402175612391774848e+02
2.661885614835263869e+00 5.403188410833887474e+02
2.661985636840104696e+00 5.404203164986148522e+02
2.662085658844945968e+00 5.405219863987884992e+02
2.662185680849786795e+00 5.406238496947327121e+02
2.662285702854627623e+00 5.407259052941903974e+02
2.662385724859468894e+00 5.408281521018543572e+02
2.662485746864309721e+00 5.409305890194026460e+02
2.662585768869151437e+00 5.410332149455229001e+02
2.662685790873991820e+00 5.411360287759490575e+02
2.662785812878833536e+00 5.412390294034888711e+02
2.662885834883674363e+00 5.413422157180541490e+02
2.662985856888515190e+00 5.414455866066964518e+02
2.663085878893356462e+00 5.415491409536326728e+02
2.663185900898197289e+00 5.416528776402789163e+02
2.663285922903038561e+00 5.417567955452824435e+02
2.663385944907879388e+00 5.418608935445485031e+02
2.663485966912721103e+00 5.419651705112753461e+02
2.663585988917561487e+00 5.420696253159853768e+02
2.663686010922402758e+00 5.421742568265516411e+02
2.663786032927244030e+00 5.422790639082359121e+02
2.663886054932084857e+00 5.423840454237129052e+02
2.663986076936926128e+00 5.424892002331059757e+02
2.664086098941766956e+00 5.425945271940165640e+02
2.664186120946608227e+00 5.427000251615561410e+02
2.664286142951449055e+00 5.428056929883742896e+02
2.664386164956289882e+00 5.429115295246951973e+02
2.664486186961131153e+00 5.430175336183436912e+02
2.664586208965972425e+00 5.431237041147803666e+02
2.664686230970813696e+00 5.432300398571293272e+02
2.664786252975654524e+00 5.433365396862116086e+02
2.664886274980495795e+00 5.434432024405751918e+02
2.664986296985336622e+00 5.435500269565279723e+02
2.665086318990177450e+00 5.436570120681651588e+02
2.665186340995018721e+00 5.437641566074049706e+02
2.665286362999859548e+00 5.438714594040162638e+02
2.665386385004700820e+00 5.439789192856525233e+02
2.665486407009542091e+00 5.440865350778786933e+02
2.665586429014383363e+00 5.441943056042090348e+02
2.665686451019224190e+00 5.443022296861296354e+02
2.665786473024065018e+00 5.444103061431385413e+02
2.665886495028906289e+00 5.445185337927697447e+02
2.665986517033747116e+00 5.446269114506280857e+02
2.666086539038588388e+00 5.447354379304191525e+02
2.666186561043429215e+00 5.448441120439800898e+02
2.666286583048270487e+00 5.449529326013113177e+02
2.666386605053111758e+00 5.450618984106075686e+02
2.666486627057952141e+00 5.451710082782885820e+02
2.666586649062793857e+00 5.452802610090293456e+02
2.666686671067634684e+00 5.453896554057935191e+02
2.666786693072475956e+00 5.454991902698603781e+02
2.666886715077316783e+00 5.456088644008605115e+02
2.666986737082158054e+00 5.457186765968032205e+02
2.667086759086998882e+00 5.458286256541091461e+02
2.667186781091839709e+00 5.459387103676401694e+02
2.667286803096681425e+00 5.460489295307314705e+02
2.667386825101521808e+00 5.461592819352212018e+02
2.667486847106363523e+00 5.462697663714811824e+02
2.667586869111204351e+00 5.463803816284498680e+02
2.667686891116045178e+00 5.464911264936594080e+02
2.667786913120886449e+00 5.466019997532708885e+02
2.667886935125727277e+00 5.467130001921002531e+02
2.667986957130568548e+00 5.468241265936541140e+02
2.668086979135409376e+00 5.469353777401552179e+02
2.668187001140251091e+00 5.470467524125765522e+02
2.668287023145091474e+00 5.471582493906711306e+02
2.668387045149932746e+00 5.472698674530021208e+02
2.668487067154774017e+00 5.473816053769736527e+02
2.668587089159614845e+00 5.474934619388612873e+02
2.668687111164456116e+00 5.476054359138410064e+02
2.668787133169296943e+00 5.477175260760234323e+02
2.668887155174138215e+00 5.478297311984805447e+02
2.668987177178979042e+00 5.479420500532768301e+02
2.669087199183819870e+00 5.480544814115013423e+02
2.669187221188661141e+00 5.481670240432951005e+02
2.669287243193502412e+00 5.482796767178837172e+02
2.669387265198343684e+00 5.483924382036065026e+02
2.669487287203184511e+00 5.485053072679463639e+02
2.669587309208025783e+00 5.486182826775620924e+02
2.669687331212866610e+00 5.487313631983132609e+02
2.669787353217707437e+00 5.488445475952973993e+02
2.669887375222548709e+00 5.489578346328735279e+02
2.669987397227389536e+00 5.490712230746952400e+02
2.670087419232230808e+00 5.491847116837396925e+02
2.670187441237072079e+00 5.492982992223390966e+02
2.670287463241913350e+00 5.494119844522073208e+02
2.670387485246754178e+00 5.495257661344716098e+02
2.670487507251595005e+00 5.496396430297032794e+02
2.670587529256436277e+00 5.497536138979444331e+02
2.670687551261277104e+00 5.498676774987396811e+02
2.670787573266118375e+00 5.499818325911645616e+02
2.670887595270959203e+00 5.500960779338569182e+02
2.670987617275800474e+00 5.502104122850412296e+02
2.671087639280641746e+00 5.503248344025663528e+02
2.671187661285482129e+00 5.504393430439259873e+02
2.671287683290323844e+00 5.505539369662930085e+02
2.671387705295164672e+00 5.506686149265474342e+02
2.671487727300005943e+00 5.507833756813063246e+02
2.671587749304846771e+00 5.508982179869509537e+02
2.671687771309688042e+00 5.510131405996565945e+02
2.671787793314528869e+00 5.511281422754212826e+02
2.671887815319369697e+00 5.512432217700963974e+02
2.671987837324211412e+00 5.513583778394130377e+02
2.672087859329051795e+00 5.514736092390112390e+02
2.672187881333893511e+00 5.515889147244701007e+02
2.672287903338734338e+00 5.517042930513341616e+02
2.672387925343575610e+00 5.518197429751445497e+02
2.672487947348416437e+00 5.519352632514642210e+02
2.672587969353257265e+00 5.520508526359092230e+02
2.672687991358098536e+00 5.521665098841754116e+02
2.672788013362939363e+00 5.522822337520665315e+02
2.672888035367781079e+00 5.523980229955236609e+02
2.672988057372621462e+00 5.525138763706530654e+02
2.673088079377463178e+00 5.526297926337520039e+02
2.673188101382304005e+00 5.527457705413391977e+02
2.673288123387144832e+00 5.528618088501829106e+02
2.673388145391986104e+00 5.529779063173258464e+02
2.673488167396826931e+00 5.530940617001156170e+02
2.673588189401668203e+00 5.532102737562324819e+02
2.673688211406509030e+00 5.533265412437133364e+02
2.673788233411350745e+00 5.534428629209841120e+02
2.673888255416191129e+00 5.535592375468841055e+02
2.673988277421032400e+00 5.536756638806937190e+02
2.674088299425873672e+00 5.537921406821620849e+02
2.674188321430714499e+00 5.539086667115344653e+02
2.674288343435555770e+00 5.540252407295794228e+02
2.674388365440396598e+00 5.541418614976138315e+02
2.674488387445237869e+00 5.542585277775326631e+02
2.674588409450078696e+00 5.543752383318353623e+02
2.674688431454919524e+00 5.544919919236499481e+02
2.674788453459760795e+00 5.546087873167630278e+02
2.674888475464602067e+00 5.547256232756438976e+02
2.674988497469443338e+00 5.548424985654721695e+02
2.675088519474284166e+00 5.549594119521657376e+02
2.675188541479125437e+00 5.550763622024015831e+02
2.675288563483966264e+00 5.551933480836506760e+02
2.675388585488807092e+00 5.553103683641957105e+02
2.675488607493648363e+00 5.554274218131622547e+02
2.675588629498489190e+00 5.555445072005428528e+02
2.675688651503330462e+00 5.556616232972232865e+02
2.675788673508171733e+00 5.557787688750084953e+02
2.675888695513013005e+00 5.558959427066475882e+02
2.675988717517853832e+00 5.560131435658607870e+02
2.676088739522694659e+00 5.561303702273637555e+02
2.676188761527535931e+00 5.562476214668935199e+02
2.676288783532376758e+00 5.563648960612329120e+02
2.676388805537218030e+00 5.564821927882371710e+02
2.676488827542058857e+00 5.565995104268594105e+02
2.676588849546900128e+00 5.567168477571722178e+02
2.676688871551741400e+00 5.568342035603976683e+02
2.676788893556581783e+00 5.569515766189276746e+02
2.676888915561423499e+00 5.570689657163522952e+02
2.676988937566264326e+00 5.571863696374811070e+02
2.677088959571105597e+00 5.573037871683702633e+02
2.677188981575946425e+00 5.574212170963463677e+02
2.677289003580787696e+00 5.575386582100289843e+02
2.677389025585628524e+00 5.576561092993583770e+02
2.677489047590469351e+00 5.577735691556160873e+02
2.677589069595311067e+00 5.578910365714521049e+02
2.677689091600151450e+00 5.580085103409054454e+02
2.677789113604993165e+00 5.581259892594314351e+02
2.677889135609833993e+00 5.582434721239230839e+02
2.677989157614675264e+00 5.583609577327354145e+02
2.678089179619516091e+00 5.584784448857099051e+02
2.678189201624356919e+00 5.585959323841957485e+02
2.678289223629198190e+00 5.587134190310757731e+02
2.678389245634039018e+00 5.588309036307874749e+02
2.678489267638880733e+00 5.589483849893480283e+02
2.678589289643721116e+00 5.590658619143750911e+02
2.678689311648562832e+00 5.591833332151124978e+02
2.678789333653403659e+00 5.593007977024495858e+02
2.678889355658244487e+00 5.594182541889471167e+02
2.678989377663085758e+00 5.595357014888586491e+02
2.679089399667926585e+00 5.596531384181512294e+02
2.679189421672767857e+00 5.597705637945319950e+02
2.679289443677608684e+00 5.598879764374646584e+02
2.679389465682450400e+00 5.600053751681980430e+02
2.679489487687290783e+00 5.601227588097821126e+02
2.679589509692132054e+00 5.602401261870942335e+02
2.679689531696973326e+00 5.603574761268595239e+02
2.679789553701814153e+00 5.604748074576707495e+02
2.679889575706655425e+00 5.605921190100134481e+02
2.679989597711496252e+00 5.607094096162841197e+02
2.680089619716337523e+00 5.608266781108138730e+02
2.680189641721178351e+00 5.609439233298877525e+02
2.680289663726019178e+00 5.610611441117687264e+02
2.680389685730860450e+00 5.611783392967147392e+02
2.680489707735701721e+00 5.612955077270023594e+02
2.680589729740542992e+00 5.614126482469481516e+02
2.680689751745383820e+00 5.615297597029260714e+02
2.680789773750225091e+00 5.616468409433914530e+02
2.680889795755065919e+00 5.617638908188995401e+02
2.680989817759906746e+00 5.618809081821268592e+02
2.681089839764748017e+00 5.619978918878898639e+02
2.681189861769588845e+00 5.621148407931672182e+02
2.681289883774430116e+00 5.622317537571169623e+02
2.681389905779271388e+00 5.623486296410995919e+02
2.681489927784112659e+00 5.624654673086956791e+02
2.681589949788953486e+00 5.625822656257254266e+02
2.681689971793794314e+00 5.626990234602687906e+02
2.681789993798635585e+00 5.628157396826851482e+02
2.681890015803476413e+00 5.629324131656328518e+02
2.681990037808317684e+00 5.630490427840861685e+02
2.682090059813158511e+00 5.631656274153569939e+02
2.682190081817999783e+00 5.632821659391113371e+02
2.682290103822841054e+00 5.633986572373906938e+02
2.682390125827681437e+00 5.635151001946290990e+02
2.682490147832523153e+00 5.636314936976707486e+02
2.682590169837363980e+00 5.637478366357906907e+02
2.682690191842205252e+00 5.638641279007116509e+02
2.682790213847046079e+00 5.639803663866225634e+02
2.682890235851887351e+00 5.640965509901963060e+02
2.682990257856728178e+00 5.642126806106081176e+02
2.683090279861569005e+00 5.643287541495533333e+02
2.683190301866410721e+00 5.644447705112650056e+02
2.683290323871251104e+00 5.645607286025303893e+02
2.683390345876092820e+00 5.646766273327103818e+02
2.683490367880933647e+00 5.647924656137548709e+02
2.683590389885774918e+00 5.649082423602220615e+02
2.683690411890615746e+00 5.650239564892938233e+02
2.683790433895456573e+00 5.651396069207925166e+02
2.683890455900297844e+00 5.652551925771984997e+02
2.683990477905138672e+00 5.653707123836672963e+02
2.684090499909980387e+00 5.654861652680455109e+02
2.684190521914820771e+00 5.656015501608867453e+02
2.684290543919662486e+00 5.657168659954686518e+02
2.684390565924503314e+00 5.658321117078097586e+02
2.684490587929344141e+00 5.659472862366833397e+02
2.684590609934185412e+00 5.660623885236357182e+02
2.684690631939026240e+00 5.661774175130013873e+02
2.684790653943867511e+00 5.662923721519166520e+02
2.684890675948708338e+00 5.664072513903390700e+02
2.684990697953550054e+00 5.665220541810591612e+02
2.685090719958390437e+00 5.666367794797181432e+02
2.685190741963231709e+00 5.667514262448215732e+02
2.685290763968072980e+00 5.668659934377562877e+02
2.685390785972913807e+00 5.669804800228025670e+02
2.685490807977755079e+00 5.670948849671515291e+02
2.685590829982595906e+00 5.672092072409186585e+02
2.685690851987437178e+00 5.673234458171571077e+02
2.685790873992278005e+00 5.674375996718756596e+02
2.685890895997118832e+00 5.675516677840483908e+02
2.685990918001960104e+00 5.676656491356333163e+02
2.686090940006801375e+00 5.677795427115835309e+02
2.686190962011642647e+00 5.678933474998611928e+02
2.686290984016483474e+00 5.680070624914528707e+02
2.686391006021324745e+00 5.681206866803817093e+02
2.686491028026165573e+00 5.682342190637227759e+02
2.686591050031006400e+00 5.683476586416144301e+02
2.686691072035847672e+00 5.684610044172712833e+02
2.686791094040688499e+00 5.685742553970011386e+02
2.686891116045529770e+00 5.686874105902129486e+02
2.686991138050371042e+00 5.688004690094321631e+02
2.687091160055212313e+00 5.689134296703155087e+02
2.687191182060053141e+00 5.690262915916596285e+02
2.687291204064893968e+00 5.691390537954156343e+02
2.687391226069735239e+00 5.692517153067018398e+02
2.687491248074576067e+00 5.693642751538153561e+02
2.687591270079417338e+00 5.694767323682436881e+02
2.687691292084258166e+00 5.695890859846783769e+02
2.687791314089099437e+00 5.697013350410242083e+02
2.687891336093940708e+00 5.698134785784145606e+02
2.687991358098781092e+00 5.699255156412191354e+02
2.688091380103622807e+00 5.700374452770585094e+02
2.688191402108463635e+00 5.701492665368132293e+02
2.688291424113304906e+00 5.702609784746366586e+02
2.688391446118145733e+00 5.703725801479660049e+02
2.688491468122987005e+00 5.704840706175308469e+02
2.688591490127827832e+00 5.705954489473679132e+02
2.688691512132668660e+00 5.707067142048290407e+02
2.688791534137510375e+00 5.708178654605909514e+02
2.688891556142350758e+00 5.709289017886693500e+02
2.688991578147192474e+00 5.710398222664247214e+02
2.689091600152033301e+00 5.711506259745777925e+02
2.689191622156874573e+00 5.712613119972136246e+02
2.689291644161715400e+00 5.713718794217967343e+02
2.689391666166556227e+00 5.714823273391775729e+02
2.689491688171397499e+00 5.715926548436037820e+02
2.689591710176238326e+00 5.717028610327291744e+02
2.689691732181080042e+00 5.718129450076232843e+02
2.689791754185920425e+00 5.719229058727810298e+02
2.689891776190762140e+00 5.720327427361311265e+02
2.689991798195602968e+00 5.721424547090456372e+02
2.690091820200443795e+00 5.722520409063496345e+02
2.690191842205285067e+00 5.723615004463276819e+02
2.690291864210125894e+00 5.724708324507355428e+02
2.690391886214967165e+00 5.725800360448052970e+02
2.690491908219807993e+00 5.726891103572576185e+02
2.690591930224649708e+00 5.727980545203070051e+02
2.690691952229490091e+00 5.729068676696707598e+02
2.690791974234331363e+00 5.730155489445780859e+02
2.690891996239172634e+00 5.731240974877766803e+02
2.690992018244013462e+00 5.732325124455403511e+02
2.691092040248854733e+00 5.733407929676795902e+02
2.691192062253695561e+00 5.734489382075437334e+02
2.691292084258536832e+00 5.735569473220339205e+02
2.691392106263377659e+00 5.736648194716066200e+02
2.691492128268218487e+00 5.737725538202824964e+02
2.691592150273059758e+00 5.738801495356535725e+02
2.691692172277901030e+00 5.739876057888889136e+02
2.691792194282742301e+00 5.740949217547424723e+02
2.691892216287583128e+00 5.742020966115586589e+02
2.691992238292424400e+00 5.743091295412806403e+02
2.692092260297265227e+00 5.744160197294559111e+02
2.692192282302106054e+00 5.745227663652411820e+02
2.692292304306947326e+00 5.746293686414103377e+02
2.692392326311788153e+00 5.747358257543601212e+02
2.692492348316629425e+00 5.748421369041154776e+02
2.692592370321470696e+00 5.749483012943364884e+02
2.692692392326311968e+00 5.750543181323221233e+02
2.692792414331152795e+00 5.751601866290177441e+02
2.692892436335993622e+00 5.752659059990202195e+02
2.692992458340834894e+00 5.753714754605812232e+02
2.693092480345675721e+00 5.754768942356155321e+02
2.693192502350516992e+00 5.755821615497034145e+02
2.693292524355357820e+00 5.756872766320973369e+02
2.693392546360199091e+00 5.757922387157260573e+02
2.693492568365040363e+00 5.758970470371992860e+02
2.693592590369880746e+00 5.760017008368128018e+02
2.693692612374722462e+00 5.761061993585518621e+02
2.693792634379563289e+00 5.762105418500974565e+02
2.693892656384404560e+00 5.763147275628266470e+02
2.693992678389245388e+00 5.764187557518234826e+02
2.694092700394086659e+00 5.765226256758753607e+02
2.694192722398927486e+00 5.766263365974816679e+02
2.694292744403768314e+00 5.767298877828565082e+02
2.694392766408610029e+00 5.768332785019317726e+02
2.694492788413450413e+00 5.769365080283605494e+02
2.694592810418292128e+00 5.770395756395225817e+02
2.694692832423132955e+00 5.771424806165247219e+02
2.694792854427974227e+00 5.772452222442047969e+02
2.694892876432815054e+00 5.773477998111366105e+02
2.694992898437655882e+00 5.774502126096308530e+02
2.695092920442497153e+00 5.775524599357379429e+02
2.695192942447337980e+00 5.776545410892526888e+02
2.695292964452179696e+00 5.777564553737141750e+02
2.695392986457020079e+00 5.778582020964111052e+02
2.695493008461861795e+00 5.779597805683819161e+02
2.695593030466702622e+00 5.780611901044164824e+02
2.695693052471543449e+00 5.781624300230625977e+02
2.695793074476384721e+00 5.782634996466224493e+02
2.695893096481225548e+00 5.783643983011583032e+02
2.695993118486066820e+00 5.784651253164920490e+02
2.696093140490907647e+00 5.785656800262102024e+02
2.696193162495749363e+00 5.786660617676600395e+02
2.696293184500589746e+00 5.787662698819564184e+02
2.696393206505431017e+00 5.788663037139805283e+02
2.696493228510272289e+00 5.789661626123817086e+02
2.696593250515113116e+00 5.790658459295781313e+02
2.696693272519954387e+00 5.791653530217581647e+02
2.696793294524795215e+00 5.792646832488815107e+02
2.696893316529636486e+00 5.793638359746801143e+02
2.696993338534477314e+00 5.794628105666561169e+02
2.697093360539318141e+00 5.795616063960900419e+02
2.697193382544159412e+00 5.796602228380306769e+02
2.697293404549000684e+00 5.797586592713047366e+02
2.697393426553841955e+00 5.798569150785103830e+02
2.697493448558682783e+00 5.799549896460231366e+02
2.697593470563524054e+00 5.800528823639908751e+02
2.697693492568364881e+00 5.801505926263375841e+02
2.697793514573205709e+00 5.802481198307606292e+02
2.697893536578046980e+00 5.803454633787317789e+02
2.697993558582887808e+00 5.804426226754972049e+02
2.698093580587729079e+00 5.805395971300763449e+02
2.698193602592570350e+00 5.806363861552598564e+02
2.698293624597411622e+00 5.807329891676129137e+02
2.698393646602252449e+00 5.808294055874707738e+02
2.698493668607093277e+00 5.809256348389391178e+02
2.698593690611934548e+00 5.810216763498928003e+02
2.698693712616775375e+00 5.811175295519769861e+02
2.698793734621616647e+00 5.812131938806018070e+02
2.698893756626457474e+00 5.813086687749446355e+02
2.698993778631298746e+00 5.814039536779474702e+02
2.699093800636140017e+00 5.814990480363147753e+02
2.699193822640980400e+00 5.815939513005134813e+02
2.699293844645822116e+00 5.816886629247702558e+02
2.699393866650662943e+00 5.817831823670691165e+02
2.699493888655504215e+00 5.818775090891510899e+02
2.699593910660345042e+00 5.819716425565109148e+02
2.699693932665186313e+00 5.820655822383973828e+02
2.699793954670027141e+00 5.821593276078074268e+02
2.699893976674867968e+00 5.822528781414855530e+02
2.699993998679709684e+00 5.823462333199240675e+02
2.700094020684550067e+00 5.824393926273567104e+02
2.700194042689391782e+00 5.825323555517578598e+02
2.700294064694232610e+00 5.826251215848399170e+02
2.700394086699073881e+00 5.827176902220513739e+02
2.700494108703914709e+00 5.828100609625713560e+02
2.700594130708755536e+00 5.829022333093107591e+02
2.700694152713596807e+00 5.829942067689048599e+02
2.700794174718437635e+00 5.830859808517136571e+02
2.700894196723279350e+00 5.831775550718168688e+02
2.700994218728119733e+00 5.832689289470120002e+02
2.701094240732961449e+00 5.833601019988080907e+02
2.701194262737802276e+00 5.834510737524267370e+02
2.701294284742643104e+00 5.835418437367957267e+02
2.701394306747484375e+00 5.836324114845449458e+02
2.701494328752325202e+00 5.837227765320037634e+02
2.701594350757166474e+00 5.838129384191977351e+02
2.701694372762007301e+00 5.839028966898434874e+02
2.701794394766849017e+00 5.839926508913455336e+02
2.701894416771689400e+00 5.840822005747925232e+02
2.701994438776530671e+00 5.841715452949523524e+02
2.702094460781371943e+00 5.842606846102669351e+02
2.702194482786212770e+00 5.843496180828512934e+02
2.702294504791054042e+00 5.844383452784857127e+02
2.702394526795894869e+00 5.845268657666122181e+02
2.702494548800735696e+00 5.846151791203320727e+02
2.702594570805576968e+00 5.847032849163981609e+02
2.702694592810417795e+00 5.847911827352120326e+02
2.702794614815259067e+00 5.848788721608182186e+02
2.702894636820100338e+00 5.849663527809004790e+02
2.702994658824941610e+00 5.850536241867756644e+02
2.703094680829782437e+00 5.851406859733896226e+02
2.703194702834623264e+00 5.852275377393116287e+02
2.703294724839464536e+00 5.853141790867289274e+02
2.703394746844305363e+00 5.854006096214418449e+02
2.703494768849146634e+00 5.854868289528586729e+02
2.703594790853987462e+00 5.855728366939903253e+02
2.703694812858828733e+00 5.856586324614429486e+02
2.703794834863670005e+00 5.857442158754156480e+02
2.703894856868510388e+00 5.858295865596926433e+02
2.703994878873352103e+00 5.859147441416367883e+02
2.704094900878192931e+00 5.859996882521869566e+02
2.704194922883034202e+00 5.860844185258489460e+02
2.704294944887875030e+00 5.861689346006908181e+02
2.704394966892716301e+00 5.862532361183378953e+02
2.704494988897557128e+00 5.863373227239641210e+02
2.704595010902397956e+00 5.864211940662896723e+02
2.704695032907239671e+00 5.865048497975705004e+02
2.704795054912080055e+00 5.865882895735945795e+02
2.704895076916921770e+00 5.866715130536767902e+02
2.704995098921762597e+00 5.867545199006482335e+02
2.705095120926603869e+00 5.868373097808545253e+02
2.705195142931444696e+00 5.869198823641453373e+02
2.705295164936285524e+00 5.870022373238712134e+02
2.705395186941126795e+00 5.870843743368723153e+02
2.705495208945967622e+00 5.871662930834781946e+02
2.705595230950809338e+00 5.872479932474952875e+02
2.705695252955649721e+00 5.873294745162012305e+02
2.705795274960491437e+00 5.874107365803405401e+02
2.705895296965332264e+00 5.874917791341148359e+02
2.705995318970173091e+00 5.875726018751762467e+02
2.706095340975014363e+00 5.876532045046222947e+02
2.706195362979855190e+00 5.877335867269857772e+02
2.706295384984696462e+00 5.878137482502296507e+02
2.706395406989537289e+00 5.878936887857386182e+02
2.706495428994379004e+00 5.879734080483126490e+02
2.706595450999219388e+00 5.880529057561581112e+02
2.706695473004060659e+00 5.881321816308823145e+02
2.706795495008901931e+00 5.882112353974841881e+02
2.706895517013742758e+00 5.882900667843474594e+02
2.706995539018584029e+00 5.883686755232331507e+02
2.707095561023424857e+00 5.884470613492720759e+02
2.707195583028266128e+00 5.885252240009552906e+02
2.707295605033106956e+00 5.886031632201284083e+02
2.707395627037947783e+00 5.886808787519830730e+02
2.707495649042789054e+00 5.887583703450488883e+02
2.707595671047630326e+00 5.888356377511851178e+02
2.707695693052471597e+00 5.889126807255728409e+02
2.707795715057312425e+00 5.889894990267077901e+02
2.707895737062153696e+00 5.890660924163901200e+02
2.707995759066994523e+00 5.891424606597198590e+02
2.708095781071835351e+00 5.892186035250833811e+02
2.708195803076676622e+00 5.892945207841499951e+02
2.708295825081517449e+00 5.893702122118617126e+02
2.708395847086358721e+00 5.894456775864239262e+02
2.708495869091199992e+00 5.895209166892990424e+02
2.708595891096041264e+00 5.895959293051960231e+02
2.708695913100882091e+00 5.896707152220628814e+02
2.708795935105722918e+00 5.897452742310777012e+02
2.708895957110564190e+00 5.898196061266419292e+02
2.708995979115405017e+00 5.898937107063682106e+02
2.709096001120246289e+00 5.899675877710743634e+02
2.709196023125087116e+00 5.900412371247742840e+02
2.709296045129928387e+00 5.901146585746674873e+02
2.709396067134769659e+00 5.901878519311327409e+02
2.709496089139610042e+00 5.902608170077173781e+02
2.709596111144451758e+00 5.903335536211294539e+02
2.709696133149292585e+00 5.904060615912285357e+02
2.709796155154133857e+00 5.904783407410150176e+02
2.709896177158974684e+00 5.905503908966243216e+02
2.709996199163815955e+00 5.906222118873158706e+02
2.710096221168656783e+00 5.906938035454634246e+02
2.710196243173497610e+00 5.907651657065473501e+02
2.710296265178339326e+00 5.908362982091452977e+02
2.710396287183179709e+00 5.909072008949208339e+02
2.710496309188021424e+00 5.909778736086187791e+02
2.710596331192862252e+00 5.910483161980500881e+02
2.710696353197703523e+00 5.911185285140878705e+02
2.710796375202544350e+00 5.911885104106539757e+02
2.710896397207385178e+00 5.912582617447120583e+02
2.710996419212226449e+00 5.913277823762582557e+02
2.711096441217067277e+00 5.913970721683095917e+02
2.711196463221908992e+00 5.914661309868962462e+02
2.711296485226749375e+00 5.915349587010522328e+02
2.711396507231591091e+00 5.916035551828043708e+02
2.711496529236431918e+00 5.916719203071644415e+02
2.711596551241272746e+00 5.917400539521183873e+02
2.711696573246114017e+00 5.918079559986168761e+02
2.711796595250954844e+00 5.918756263305663197e+02
2.711896617255796116e+00 5.919430648348188697e+02
2.711996639260636943e+00 5.920102714011613898e+02
2.712096661265478659e+00 5.920772459223081796e+02
2.712196683270319042e+00 5.921439882938898336e+02
2.712296705275160313e+00 5.922104984144434638e+02
2.712396727280001585e+00 5.922767761854016726e+02
2.712496749284842412e+00 5.923428215110866404e+02
2.712596771289683684e+00 5.924086342986952332e+02
2.712696793294524511e+00 5.924742144582935452e+02
2.712796815299365782e+00 5.925395619028037117e+02
2.712896837304206610e+00 5.926046765479956093e+02
2.712996859309047437e+00 5.926695583124776476e+02
2.713096881313888709e+00 5.927342071176846048e+02
2.713196903318729980e+00 5.927986228878692145e+02
2.713296925323571251e+00 5.928628055500925029e+02
2.713396947328412079e+00 5.929267550342115101e+02
2.713496969333253350e+00 5.929904712728734921e+02
2.713596991338094178e+00 5.930539542014998915e+02
2.713697013342935005e+00 5.931172037582821304e+02
2.713797035347776276e+00 5.931802198841684231e+02
2.713897057352617104e+00 5.932430025228542263e+02
2.713997079357458375e+00 5.933055516207709843e+02
2.714097101362299647e+00 5.933678671270790801e+02
2.714197123367140918e+00 5.934299489936549890e+02
2.714297145371981745e+00 5.934917971750807055e+02
2.714397167376822573e+00 5.935534116286372637e+02
2.714497189381663844e+00 5.936147923142900709e+02
2.714597211386504672e+00 5.936759391946817459e+02
2.714697233391345943e+00 5.937368522351204092e+02
2.714797255396186770e+00 5.937975314035704741e+02
2.714897277401028042e+00 5.938579766706415057e+02
2.714997299405869313e+00 5.939181880095786710e+02
2.715097321410709696e+00 5.939781653962513701e+02
2.715197343415551412e+00 5.940379088091460744e+02
2.715297365420392239e+00 5.940974182293509784e+02
2.715397387425233511e+00 5.941566936405508841e+02
2.715497409430074338e+00 5.942157350290135582e+02
2.715597431434915610e+00 5.942745423835802967e+02
2.715697453439756437e+00 5.943331156956567156e+02
2.715797475444597264e+00 5.943914549592011554e+02
2.715897497449438980e+00 5.944495601707154719e+02
2.715997519454279363e+00 5.945074313292325314e+02
2.716097541459121079e+00 5.945650684363098435e+02
2.716197563463961906e+00 5.946224714960148958e+02
2.716297585468803177e+00 5.946796405149182192e+02
2.716397607473644005e+00 5.947365755020801998e+02
2.716497629478484832e+00 5.947932764690442582e+02
2.716597651483326104e+00 5.948497434298227518e+02
2.716697673488166931e+00 5.949059764008901539e+02
2.716797695493008646e+00 5.949619754011698660e+02
2.716897717497849030e+00 5.950177404520250093e+02
2.716997739502690745e+00 5.950732715772492156e+02
2.717097761507531573e+00 5.951285688030546908e+02
2.717197783512372400e+00 5.951836321580620961e+02
2.717297805517213671e+00 5.952384616732919085e+02
2.717397827522054499e+00 5.952930573821513462e+02
2.717497849526895770e+00 5.953474193204270932e+02
2.717597871531736597e+00 5.954015475262725658e+02
2.717697893536578313e+00 5.954554420401987045e+02
2.717797915541418696e+00 5.955091029050638554e+02
2.717897937546259968e+00 5.955625301660625155e+02
2.717997959551101239e+00 5.956157238707166925e+02
2.718097981555942066e+00 5.956686840688639677e+02
2.718198003560783338e+00 5.957214108126479459e+02
2.718298025565624165e+00 5.957739041565084790e+02
2.718398047570465437e+00 5.958261641571705240e+02
2.718498069575306264e+00 5.958781908736342530e+02
2.718598091580147091e+00 5.959299843671647068e+02
2.718698113584988363e+00 5.959815447012820187e+02
2.718798135589829634e+00 5.960328719417518641e+02
2.718898157594670906e+00 5.960839661565723873e+02
2.718998179599511733e+00 5.961348274159674929e+02
2.719098201604353005e+00 5.961854557923736593e+02
2.719198223609193832e+00 5.962358513604333439e+02
2.719298245614034659e+00 5.962860141969804317e+02
2.719398267618875931e+00 5.963359443810337552e+02
2.719498289623716758e+00 5.963856419937850433e+02
2.719598311628558029e+00 5.964351071185894853e+02
2.719698333633399301e+00 5.964843398409554993e+02
2.719798355638240572e+00 5.965333402485342731e+02
2.719898377643081400e+00 5.965821084311107825e+02
2.719998399647922227e+00 5.966306444805923093e+02
2.720098421652763498e+00 5.966789484909984367e+02
2.720198443657604326e+00 5.967270205584533187e+02
2.720298465662445597e+00 5.967748607811728334e+02
2.720398487667286425e+00 5.968224692594556018e+02
2.720498509672127696e+00 5.968698460956736653e+02
2.720598531676968967e+00 5.969169913942616859e+02
2.720698553681809351e+00 5.969639052617080779e+02
2.720798575686651066e+00 5.970105878065427305e+02
2.720898597691491894e+00 5.970570391393299587e+02
2.720998619696333165e+00 5.971032593726564528e+02
2.721098641701173992e+00 5.971492486211243431e+02
2.721198663706015264e+00 5.971950070013358527e+02
2.721298685710856091e+00 5.972405346318902275e+02
2.721398707715696919e+00 5.972858316333678204e+02
2.721498729720538634e+00 5.973308981283262256e+02
2.721598751725379017e+00 5.973757342412837943e+02
2.721698773730220733e+00 5.974203400987164514e+02
2.721798795735061560e+00 5.974647158290435982e+02
2.721898817739902832e+00 5.975088615626195860e+02
2.721998839744743659e+00 5.975527774317250760e+02
2.722098861749584486e+00 5.975964635705563524e+02
2.722198883754425758e+00 5.976399201152155456e+02
2.722298905759266585e+00 5.976831472037013100e+02
2.722398927764108301e+00 5.977261449759004108e+02
2.722498949768948684e+00 5.977689135735755599e+02
2.722598971773790399e+00 5.978114531403582532e+02
2.722698993778631227e+00 5.978537638217392214e+02
2.722799015783472054e+00 5.978958457650560376e+02
2.722899037788313326e+00 5.979376991194877746e+02
2.722999059793154153e+00 5.979793240360423852e+02
2.723099081797995424e+00 5.980207206675490852e+02
2.723199103802836252e+00 5.980618891686482357e+02
2.723299125807677967e+00 5.981028296957816792e+02
2.723399147812518351e+00 5.981435424071848956e+02
2.723499169817359622e+00 5.981840274628762018e+02
2.723599191822200893e+00 5.982242850246473154e+02
2.723699213827041721e+00 5.982643152560561930e+02
2.723799235831882992e+00 5.983041183224150927e+02
2.723899257836723820e+00 5.983436943907837531e+02
2.723999279841565091e+00 5.983830436299588200e+02
2.724099301846405918e+00 5.984221662104648658e+02
2.724199323851246746e+00 5.984610623045465445e+02
2.724299345856088017e+00 5.984997320861574508e+02
2.724399367860929289e+00 5.985381757309529576e+02
2.724499389865770560e+00 5.985763934162810074e+02
2.724599411870611387e+00 5.986143853211713122e+02
2.724699433875452659e+00 5.986521516263279636e+02
2.724799455880293486e+00 5.986896925141217025e+02
2.724899477885134313e+00 5.987270081685791183e+02
2.724999499889975585e+00 5.987640987753735544e+02
2.725099521894816412e+00 5.988009645218182868e+02
2.725199543899657684e+00 5.988376055968558376e+02
2.725299565904498955e+00 5.988740221910508126e+02
2.725399587909340227e+00 5.989102144965792149e+02
2.725499609914181054e+00 5.989461827072229880e+02
2.725599631919021881e+00 5.989819270183572826e+02
2.725699653923863153e+00 5.990174476269452271e+02
2.725799675928703980e+00 5.990527447315287191e+02
2.725899697933545252e+00 5.990878185322177387e+02
2.725999719938386079e+00 5.991226692306840960e+02
2.726099741943227350e+00 5.991572970301532450e+02
2.726199763948068622e+00 5.991917021353939390e+02
2.726299785952909005e+00 5.992258847527114085e+02
2.726399807957750721e+00 5.992598450899375848e+02
2.726499829962591548e+00 5.992935833564250743e+02
2.726599851967432819e+00 5.993270997630363581e+02
2.726699873972273647e+00 5.993603945221375398e+02
2.726799895977114918e+00 5.993934678475883402e+02
2.726899917981955745e+00 5.994263199547370959e+02
2.726999939986796573e+00 5.994589510604074576e+02
2.727099961991638288e+00 5.994913613828948655e+02
2.727199983996478672e+00 5.995235511419583645e+02
2.727300006001320387e+00 5.995555205588083254e+02
2.727400028006161214e+00 5.995872698561028074e+02
2.727500050011002486e+00 5.996187992579394859e+02
2.727600072015843313e+00 5.996501089898438295e+02
2.727700094020684141e+00 5.996811992787656891e+02
2.727800116025525412e+00 5.997120703530687251e+02
2.727900138030366239e+00 5.997427224425250643e+02
2.728000160035207955e+00 5.997731557783040444e+02
2.728100182040048338e+00 5.998033705929682355e+02
2.728200204044890054e+00 5.998333671204624125e+02
2.728300226049730881e+00 5.998631455961096890e+02
2.728400248054571708e+00 5.998927062566009454e+02
2.728500270059412980e+00 5.999220493399877796e+02
2.728600292064253807e+00 5.999511750856760273e+02
2.728700314069095079e+00 5.999800837344175761e+02
2.728800336073935906e+00 6.000087755283028628e+02
2.728900358078777622e+00 6.000372507107549609e+02
2.729000380083618005e+00 6.000655095265200316e+02
2.729100402088459276e+00 6.000935522216612981e+02
2.729200424093300548e+00 6.001213790435513147e+02
2.729300446098141375e+00 6.001489902408658281e+02
2.729400468102982646e+00 6.001763860635753645e+02
2.729500490107823474e+00 6.002035667629389764e+02
2.729600512112664745e+00 6.002305325914952618e+02
2.729700534117505573e+00 6.002572838030594085e+02
2.729800556122346400e+00 6.002838206527109151e+02
2.729900578127187671e+00 6.003101433967917728e+02
2.730000600132028943e+00 6.003362522928955514e+02
2.730100622136870214e+00 6.003621475998619417e+02
2.730200644141711042e+00 6.003878295777714129e+02
2.730300666146552313e+00 6.004132984879367996e+02
2.730400688151393140e+00 6.004385545928955707e+02
2.730500710156233968e+00 6.004635981564060785e+02
2.730600732161075239e+00 6.004884294434385765e+02
2.730700754165916067e+00 6.005130487201688538e+02
2.730800776170757338e+00 6.005374562539728913e+02
2.730900798175598609e+00 6.005616523134198133e+02
2.731000820180439881e+00 6.005856371682638155e+02
2.731100842185280708e+00 6.006094110894404139e+02
2.731200864190121536e+00 6.006329743490574629e+02
2.731300886194962807e+00 6.006563272203921997e+02
2.731400908199803634e+00 6.006794699778802169e+02
2.731500930204644906e+00 6.007024028971134157e+02
2.731600952209485733e+00 6.007251262548313662e+02
2.731700974214327005e+00 6.007476403289163045e+02
2.731800996219168276e+00 6.007699453983872218e+02
2.731901018224008659e+00 6.007920417433917919e+02
2.732001040228850375e+00 6.008139296452025064e+02
2.732101062233691202e+00 6.008356093862095122e+02
2.732201084238532474e+00 6.008570812499156091e+02
2.732301106243373301e+00 6.008783455209294289e+02
2.732401128248214572e+00 6.008994024849592961e+02
2.732501150253055400e+00 6.009202524288087943e+02
2.732601172257896227e+00 6.009408956403698312e+02
2.732701194262737943e+00 6.009613324086171815e+02
2.732801216267578326e+00 6.009815630236028028e+02
2.732901238272420041e+00 6.010015877764509469e+02
2.733001260277260869e+00 6.010214069593500881e+02
2.733101282282102140e+00 6.010410208655511042e+02
2.733201304286942968e+00 6.010604297893585226e+02
2.733301326291783795e+00 6.010796340261266550e+02
2.733401348296625066e+00 6.010986338722540268e+02
2.733501370301465894e+00 6.011174296251772375e+02
2.733601392306307609e+00 6.011360215833666416e+02
2.733701414311147992e+00 6.011544100463197537e+02
2.733801436315989708e+00 6.011725953145584072e+02
2.733901458320830535e+00 6.011905776896203406e+02
2.734001480325671363e+00 6.012083574740555605e+02
2.734101502330512634e+00 6.012259349714227028e+02
2.734201524335353461e+00 6.012433104862806204e+02
2.734301546340194733e+00 6.012604843241875869e+02
2.734401568345035560e+00 6.012774567916918613e+02
2.734501590349877276e+00 6.012942281963291862e+02
2.734601612354717659e+00 6.013107988466190363e+02
2.734701634359558930e+00 6.013271690520565471e+02
2.734801656364400202e+00 6.013433391231102405e+02
2.734901678369241029e+00 6.013593093712158861e+02
2.735001700374082301e+00 6.013750801087730906e+02
2.735101722378923128e+00 6.013906516491383627e+02
2.735201744383764400e+00 6.014060243066238627e+02
2.735301766388605227e+00 6.014211983964893307e+02
2.735401788393446054e+00 6.014361742349396991e+02
2.735501810398287326e+00 6.014509521391202043e+02
2.735601832403128597e+00 6.014655324271097925e+02
2.735701854407969869e+00 6.014799154179218021e+02
2.735801876412810696e+00 6.014941014314933909e+02
2.735901898417651967e+00 6.015080907886847399e+02
2.736001920422492795e+00 6.015218838112753019e+02
2.736101942427333622e+00 6.015354808219568667e+02
2.736201964432174893e+00 6.015488821443319694e+02
2.736301986437015721e+00 6.015620881029077509e+02
2.736402008441856992e+00 6.015750990230933439e+02
2.736502030446698264e+00 6.015879152311935059e+02
2.736602052451539535e+00 6.016005370544085054e+02
2.736702074456380362e+00 6.016129648208255958e+02
2.736802096461221190e+00 6.016251988594183331e+02
2.736902118466062461e+00 6.016372395000413462e+02
2.737002140470903289e+00 6.016490870734263581e+02
2.737102162475744560e+00 6.016607419111792296e+02
2.737202184480585387e+00 6.016722043457737072e+02
2.737302206485426215e+00 6.016834747105517636e+02
2.737402228490267930e+00 6.016945533397159807e+02
2.737502250495108314e+00 6.017054405683284131e+02
2.737602272499950029e+00 6.017161367323050172e+02
2.737702294504790856e+00 6.017266421684139459e+02
2.737802316509632128e+00 6.017369572142711149e+02
2.737902338514472955e+00 6.017470822083352004e+02
2.738002360519313783e+00 6.017570174899069571e+02
2.738102382524155054e+00 6.017667633991247840e+02
2.738202404528995881e+00 6.017763202769597228e+02
2.738302426533837597e+00 6.017856884652134113e+02
2.738402448538677980e+00 6.017948683065156956e+02
2.738502470543519696e+00 6.018038601443197422e+02
2.738602492548360523e+00 6.018126643228986268e+02
2.738702514553201350e+00 6.018212811873443115e+02
2.738802536558042622e+00 6.018297110835616195e+02
2.738902558562883449e+00 6.018379543582677798e+02
2.739002580567724721e+00 6.018460113589874254e+02
2.739102602572565548e+00 6.018538824340500923e+02
2.739202624577407263e+00 6.018615679325878318e+02
2.739302646582247647e+00 6.018690682045305493e+02
2.739402668587088918e+00 6.018763836006055499e+02
2.739502690591930190e+00 6.018835144723331041e+02
2.739602712596771017e+00 6.018904611720230378e+02
2.739702734601612288e+00 6.018972240527730264e+02
2.739802756606453116e+00 6.019038034684658669e+02
2.739902778611294387e+00 6.019101997737653846e+02
2.740002800616135215e+00 6.019164133241149557e+02
