1.400008001760387089e+00 5.385046533105730759e+02
1.400108023765228360e+00 5.384993025401875002e+02
1.400208045770069409e+00 5.384939721364057732e+02
1.400308067774910459e+00 5.384886623669657411e+02
1.400408089779751286e+00 5.384833734990954781e+02
1.400508111784592558e+00 5.384781057995020319e+02
1.400608133789433607e+00 5.384728595343605093e+02
1.400708155794274656e+00 5.384676349693029351e+02
1.400808177799115706e+00 5.384624323694082477e+02
1.400908199803956755e+00 5.384572519991913850e+02
1.401008221808798027e+00 5.384520941225931665e+02
1.401108243813638854e+00 5.384469590029681285e+02
1.401208265818479903e+00 5.384418469030762253e+02
1.401308287823320953e+00 5.384367580850706645e+02
1.401408309828162224e+00 5.384316928104869930e+02
1.401508331833003274e+00 5.384266513402347982e+02
1.401608353837844323e+00 5.384216339345839515e+02
1.401708375842685372e+00 5.384166408531576735e+02
1.401808397847526200e+00 5.384116723549191192e+02
1.401908419852367249e+00 5.384067286981637608e+02
1.402008441857208521e+00 5.384018101405051766e+02
1.402108463862049570e+00 5.383969169388700493e+02
1.402208485866890619e+00 5.383920493494822495e+02
1.402308507871731891e+00 5.383872076278564691e+02
1.402408529876572940e+00 5.383823920287860574e+02
1.402508551881413768e+00 5.383776028063336980e+02
1.402608573886254817e+00 5.383728402138208367e+02
1.402708595891095866e+00 5.383681045038175625e+02
1.402808617895936916e+00 5.383633959281321495e+02
1.402908639900778187e+00 5.383587147378013924e+02
1.403008661905619237e+00 5.383540611830811713e+02
1.403108683910460286e+00 5.383494355134345142e+02
1.403208705915301113e+00 5.383448379775232979e+02
1.403308727920142385e+00 5.383402688231973343e+02
1.403408749924983434e+00 5.383357282974861846e+02
1.403508771929824483e+00 5.383312166465855171e+02
1.403608793934665533e+00 5.383267341158513091e+02
1.403708815939506582e+00 5.383222809497883645e+02
1.403808837944347410e+00 5.383178573920395138e+02
1.403908859949188681e+00 5.383134636853776556e+02
1.404008881954029730e+00 5.383091000716946155e+02
1.404108903958870780e+00 5.383047667919911419e+02
1.404208925963712051e+00 5.383004640863711074e+02
1.404308947968553101e+00 5.382961921940257071e+02
1.404408969973394150e+00 5.382919513532278870e+02
1.404508991978234977e+00 5.382877418013238184e+02
1.404609013983076027e+00 5.382835637747185729e+02
1.404709035987917076e+00 5.382794175088731663e+02
1.404809057992758348e+00 5.382753032382885294e+02
1.404909079997599397e+00 5.382712211965007327e+02
1.405009102002440446e+00 5.382671716160698452e+02
1.405109124007281718e+00 5.382631547285714078e+02
1.405209146012122545e+00 5.382591707645859742e+02
1.405309168016963595e+00 5.382552199536914941e+02
1.405409190021804644e+00 5.382513025244520577e+02
1.405509212026645693e+00 5.382474187044108476e+02
1.405609234031486743e+00 5.382435687200808161e+02
1.405709256036328014e+00 5.382397527969334305e+02
1.405809278041169064e+00 5.382359711593921929e+02
1.405909300046009891e+00 5.382322240308228629e+02
1.406009322050850940e+00 5.382285116335237944e+02
1.406109344055692212e+00 5.382248341887185461e+02
1.406209366060533261e+00 5.382211919165449672e+02
1.406309388065374311e+00 5.382175850360489449e+02
1.406409410070215360e+00 5.382140137651729219e+02
1.406509432075056409e+00 5.382104783207498713e+02
1.406609454079897237e+00 5.382069789184938600e+02
1.406709476084738508e+00 5.382035157729890216e+02
1.406809498089579558e+00 5.382000890976844403e+02
1.406909520094420607e+00 5.381966991048840327e+02
1.407009542099261878e+00 5.381933460057380216e+02
1.407109564104102928e+00 5.381900300102357733e+02
1.407209586108943977e+00 5.381867513271938606e+02
1.407309608113784805e+00 5.381835101642529935e+02
1.407409630118625854e+00 5.381803067278659682e+02
1.407509652123466903e+00 5.381771412232913008e+02
1.407609674128308175e+00 5.381740138545825403e+02
1.407709696133149224e+00 5.381709248245844037e+02
1.407809718137990274e+00 5.381678743349203842e+02
1.407909740142831545e+00 5.381648625859870663e+02
1.408009762147672372e+00 5.381618897769462819e+02
1.408109784152513422e+00 5.381589561057166975e+02
1.408209806157354471e+00 5.381560617689647188e+02
1.408309828162195521e+00 5.381532069620990342e+02
1.408409850167036570e+00 5.381503918792611785e+02
1.408509872171877841e+00 5.381476167133182571e+02
1.408609894176718891e+00 5.381448816558563522e+02
1.408709916181559718e+00 5.381421868971708591e+02
1.408809938186400768e+00 5.381395326262594381e+02
1.408909960191242039e+00 5.381369190308172392e+02
1.409009982196083088e+00 5.381343462972258749e+02
1.409110004200924138e+00 5.381318146105472806e+02
1.409210026205765187e+00 5.381293241545183719e+02
1.409310048210606237e+00 5.381268751115399027e+02
1.409410070215447064e+00 5.381244676626726005e+02
1.409510092220288335e+00 5.381221019876289802e+02
1.409610114225129385e+00 5.381197782647652730e+02
1.409710136229970434e+00 5.381174966710758554e+02
1.409810158234811706e+00 5.381152573821849501e+02
1.409910180239652755e+00 5.381130605723407143e+02
1.410010202244493804e+00 5.381109064144083050e+02
1.410110224249334632e+00 5.381087950798622614e+02
1.410210246254175681e+00 5.381067267387797983e+02
1.410310268259016730e+00 5.381047015598350072e+02
1.410410290263858002e+00 5.381027197102923765e+02
1.410510312268699051e+00 5.381007813559983788e+02
1.410610334273540101e+00 5.380988866613762411e+02
1.410710356278381372e+00 5.380970357894208291e+02
1.410810378283222200e+00 5.380952289016887562e+02
1.410910400288063249e+00 5.380934661582952003e+02
1.411010422292904298e+00 5.380917477179060597e+02
1.411110444297745348e+00 5.380900737377322685e+02
1.411210466302586397e+00 5.380884443735233162e+02
1.411310488307427669e+00 5.380868597795614505e+02
1.411410510312268718e+00 5.380853201086554236e+02
1.411510532317109545e+00 5.380838255121345810e+02
1.411610554321950595e+00 5.380823761398430634e+02
1.411710576326791866e+00 5.380809721401326442e+02
1.411810598331632916e+00 5.380796136598604562e+02
1.411910620336473965e+00 5.380783008443781910e+02
1.412010642341315014e+00 5.380770338375310757e+02
1.412110664346156064e+00 5.380758127816486649e+02
1.412210686350996891e+00 5.380746378175429072e+02
1.412310708355838162e+00 5.380735090844989372e+02
1.412410730360679212e+00 5.380724267202715509e+02
1.412510752365520261e+00 5.380713908610799763e+02
1.412610774370361533e+00 5.380704016416026434e+02
1.412710796375202582e+00 5.380694591949709320e+02
1.412810818380043631e+00 5.380685636527646238e+02
1.412910840384884459e+00 5.380677151450074689e+02
1.413010862389725508e+00 5.380669138001603642e+02
1.413110884394566558e+00 5.380661597451186253e+02
1.413210906399407829e+00 5.380654531052048242e+02
1.413310928404248878e+00 5.380647940041656057e+02
1.413410950409089928e+00 5.380641825641663445e+02
1.413510972413931199e+00 5.380636189057856882e+02
1.413610994418772027e+00 5.380631031480135107e+02
1.413711016423613076e+00 5.380626354082418175e+02
1.413811038428454125e+00 5.380622158022647454e+02
1.413911060433295175e+00 5.380618444442712871e+02
1.414011082438136224e+00 5.380615214468421073e+02
1.414111104442977496e+00 5.380612469209455639e+02
1.414211126447818545e+00 5.380610209759306599e+02
1.414311148452659372e+00 5.380608437195278384e+02
1.414411170457500422e+00 5.380607152578395471e+02
1.414511192462341693e+00 5.380606356953403520e+02
1.414611214467182743e+00 5.380606051348707979e+02
1.414711236472023792e+00 5.380606236776328615e+02
1.414811258476864841e+00 5.380606914231885867e+02
1.414911280481705891e+00 5.380608084694544004e+02
1.415011302486546718e+00 5.380609749126972474e+02
1.415111324491387990e+00 5.380611908475332257e+02
1.415211346496229039e+00 5.380614563669197423e+02
1.415311368501070088e+00 5.380617715621568777e+02
1.415411390505911360e+00 5.380621365228810191e+02
1.415511412510752409e+00 5.380625513370615636e+02
1.415611434515593459e+00 5.380630160909985307e+02
1.415711456520434286e+00 5.380635308693191519e+02
1.415811478525275335e+00 5.380640957549738914e+02
1.415911500530116385e+00 5.380647108292354233e+02
1.416011522534957656e+00 5.380653761716919234e+02
1.416111544539798706e+00 5.380660918602483207e+02
1.416211566544639755e+00 5.380668579711195889e+02
1.416311588549481026e+00 5.380676745788314292e+02
1.416411610554321854e+00 5.380685417562152679e+02
1.416511632559162903e+00 5.380694595744050730e+02
1.416611654564003953e+00 5.380704281028379228e+02
1.416711676568845002e+00 5.380714474092461614e+02
1.416811698573686051e+00 5.380725175596617191e+02
1.416911720578527323e+00 5.380736386184078128e+02
1.417011742583368372e+00 5.380748106480984916e+02
1.417111764588209200e+00 5.380760337096384092e+02
1.417211786593050249e+00 5.380773078622182766e+02
1.417311808597891520e+00 5.380786331633124746e+02
1.417411830602732570e+00 5.380800096686799634e+02
1.417511852607573619e+00 5.380814374323584843e+02
1.417611874612414669e+00 5.380829165066652422e+02
1.417711896617255718e+00 5.380844469421938356e+02
1.417811918622096545e+00 5.380860287878135750e+02
1.417911940626937817e+00 5.380876620906665266e+02
1.418011962631778866e+00 5.380893468961669441e+02
1.418111984636619916e+00 5.380910832479989949e+02
1.418212006641461187e+00 5.380928711881153959e+02
1.418312028646302236e+00 5.380947107567368448e+02
1.418412050651143286e+00 5.380966019923490649e+02
1.418512072655984113e+00 5.380985449317029179e+02
1.418612094660825163e+00 5.381005396098130404e+02
1.418712116665666212e+00 5.381025860599556836e+02
1.418812138670507483e+00 5.381046843136684856e+02
1.418912160675348533e+00 5.381068344007495625e+02
1.419012182680189582e+00 5.381090363492565984e+02
1.419112204685030854e+00 5.381112901855059363e+02
1.419212226689871681e+00 5.381135959340708723e+02
1.419312248694712730e+00 5.381159536177822247e+02
1.419412270699553780e+00 5.381183632577278786e+02
1.419512292704394829e+00 5.381208248732500579e+02
1.419612314709235878e+00 5.381233384819473713e+02
1.419712336714077150e+00 5.381259040996740168e+02
1.419812358718918199e+00 5.381285217405361436e+02
1.419912380723759027e+00 5.381311914168978774e+02
1.420012402728600076e+00 5.381339131393751813e+02
1.420112424733441348e+00 5.381366869168381299e+02
1.420212446738282397e+00 5.381395127564119321e+02
1.420312468743123446e+00 5.381423906634739751e+02
1.420412490747964496e+00 5.381453206416572357e+02
1.420512512752805545e+00 5.381483026928484605e+02
1.420612534757646372e+00 5.381513368171889624e+02
1.420712556762487644e+00 5.381544230130732558e+02
1.420812578767328693e+00 5.381575612771541728e+02
1.420912600772169743e+00 5.381607516043362693e+02
1.421012622777011014e+00 5.381639939877832148e+02
1.421112644781852064e+00 5.381672884189138131e+02
1.421212666786692891e+00 5.381706348874045034e+02
1.421312688791533940e+00 5.381740333811901564e+02
1.421412710796374990e+00 5.381774838864636195e+02
1.421512732801216039e+00 5.381809863876785585e+02
1.421612754806057310e+00 5.381845408675475255e+02
1.421712776810898360e+00 5.381881473070468473e+02
1.421812798815739409e+00 5.381918056854142378e+02
1.421912820820580237e+00 5.381955159801522086e+02
1.422012842825421508e+00 5.381992781670261365e+02
1.422112864830262557e+00 5.382030922200719942e+02
1.422212886835103607e+00 5.382069581115893016e+02
1.422312908839944656e+00 5.382108758121489700e+02
1.422412930844785706e+00 5.382148452905929616e+02
1.422512952849626977e+00 5.382188665140337207e+02
1.422612974854467804e+00 5.382229394478599716e+02
1.422712996859308854e+00 5.382270640557341039e+02
1.422813018864149903e+00 5.382312402995975162e+02
1.422913040868991175e+00 5.382354681396694787e+02
1.423013062873832224e+00 5.382397475344519080e+02
1.423113084878673273e+00 5.382440784407292540e+02
1.423213106883514323e+00 5.382484608135716826e+02
1.423313128888355150e+00 5.382528946063363264e+02
1.423413150893196200e+00 5.382573797706710366e+02
1.423513172898037471e+00 5.382619162565140414e+02
1.423613194902878520e+00 5.382665040120996309e+02
1.423713216907719570e+00 5.382711429839577022e+02
1.423813238912560841e+00 5.382758331169173971e+02
1.423913260917401891e+00 5.382805743541107404e+02
1.424013282922242718e+00 5.382853666369729808e+02
1.424113304927083767e+00 5.382902099052473659e+02
1.424213326931924817e+00 5.382951040969865062e+02
1.424313348936765866e+00 5.383000491485560133e+02
1.424413370941607138e+00 5.383050449946372282e+02
1.424513392946448187e+00 5.383100915682293817e+02
1.424613414951289236e+00 5.383151888006548234e+02
1.424713436956130064e+00 5.383203366215590222e+02
1.424813458960971335e+00 5.383255349589165917e+02
1.424913480965812385e+00 5.383307837390325403e+02
1.425013502970653434e+00 5.383360828865475014e+02
1.425113524975494483e+00 5.383414323244378465e+02
1.425213546980335533e+00 5.383468319740242123e+02
1.425313568985176804e+00 5.383522817549704769e+02
1.425413590990017632e+00 5.383577815852879667e+02
1.425513612994858681e+00 5.383633313813411405e+02
1.425613634999699730e+00 5.383689310578522509e+02
1.425713657004541002e+00 5.383745805278992975e+02
1.425813679009382051e+00 5.383802797029261455e+02
1.425913701014223101e+00 5.383860284927435487e+02
1.426013723019064150e+00 5.383918268055340377e+02
1.426113745023904977e+00 5.383976745478548764e+02
1.426213767028746027e+00 5.384035716246427228e+02
1.426313789033587298e+00 5.384095179392184036e+02
1.426413811038428348e+00 5.384155133932904391e+02
1.426513833043269397e+00 5.384215578869600449e+02
1.426613855048110668e+00 5.384276513187244291e+02
1.426713877052951718e+00 5.384337935854825901e+02
1.426813899057792545e+00 5.384399845825386137e+02
1.426913921062633595e+00 5.384462242036061070e+02
1.427013943067474644e+00 5.384525123408153604e+02
1.427113965072315693e+00 5.384588488847136887e+02
1.427213987077156965e+00 5.384652337242752083e+02
1.427314009081998014e+00 5.384716667469014055e+02
1.427414031086839064e+00 5.384781478384279580e+02
1.427514053091679891e+00 5.384846768831299642e+02
1.427614075096521162e+00 5.384912537637263767e+02
1.427714097101362212e+00 5.384978783613856876e+02
1.427814119106203261e+00 5.385045505557288834e+02
1.427914141111044311e+00 5.385112702248371761e+02
1.428014163115885360e+00 5.385180372452582560e+02
1.428114185120726631e+00 5.385248514920076559e+02
1.428214207125567459e+00 5.385317128385756860e+02
1.428314229130408508e+00 5.385386211569357329e+02
1.428414251135249557e+00 5.385455763175461925e+02
1.428514273140090829e+00 5.385525781893576323e+02
1.428614295144931878e+00 5.385596266398188163e+02
1.428714317149772928e+00 5.385667215348801165e+02
1.428814339154613977e+00 5.385738627390022657e+02
1.428914361159454804e+00 5.385810501151609060e+02
1.429014383164295854e+00 5.385882835248519314e+02
1.429114405169137125e+00 5.385955628280975134e+02
1.429214427173978175e+00 5.386028878834534908e+02
1.429314449178819224e+00 5.386102585480135758e+02
1.429414471183660496e+00 5.386176746774167441e+02
1.429514493188501545e+00 5.386251361258528050e+02
1.429614515193342372e+00 5.386326427460684272e+02
1.429714537198183422e+00 5.386401943893748694e+02
1.429814559203024471e+00 5.386477909056512772e+02
1.429914581207865520e+00 5.386554321433559380e+02
1.430014603212706792e+00 5.386631179495274182e+02
1.430114625217547841e+00 5.386708481697942261e+02
1.430214647222388891e+00 5.386786226483814062e+02
1.430314669227229718e+00 5.386864412281148589e+02
1.430414691232070989e+00 5.386943037504319136e+02
1.430514713236912039e+00 5.387022100553836026e+02
1.430614735241753088e+00 5.387101599816455746e+02
1.430714757246594138e+00 5.387181533665210509e+02
1.430814779251435187e+00 5.387261900459508297e+02
1.430914801256276458e+00 5.387342698545189705e+02
1.431014823261117286e+00 5.387423926254610933e+02
1.431114845265958335e+00 5.387505581906673342e+02
1.431214867270799385e+00 5.387587663806953060e+02
1.431314889275640656e+00 5.387670170247733950e+02
1.431414911280481705e+00 5.387753099508097421e+02
1.431514933285322755e+00 5.387836449853970180e+02
1.431614955290163804e+00 5.387920219538226547e+02
1.431714977295004632e+00 5.388004406800756669e+02
1.431814999299845681e+00 5.388089009868529047e+02
1.431915021304686952e+00 5.388174026955671252e+02
1.432015043309528002e+00 5.388259456263551783e+02
1.432115065314369051e+00 5.388345295980842593e+02
1.432215087319210323e+00 5.388431544283613448e+02
1.432315109324051372e+00 5.388518199335386498e+02
1.432415131328892199e+00 5.388605259287234048e+02
1.432515153333733249e+00 5.388692722277846769e+02
1.432615175338574298e+00 5.388780586433612143e+02
1.432715197343415348e+00 5.388868849868694042e+02
1.432815219348256619e+00 5.388957510685120269e+02
1.432915241353097668e+00 5.389046566972851906e+02
1.433015263357938718e+00 5.389136016809858347e+02
1.433115285362779545e+00 5.389225858262213933e+02
1.433215307367620817e+00 5.389316089384178667e+02
1.433315329372461866e+00 5.389406708218261883e+02
1.433415351377302915e+00 5.389497712795318876e+02
1.433515373382143965e+00 5.389589101134642988e+02
1.433615395386985014e+00 5.389680871244013360e+02
1.433715417391826286e+00 5.389773021119824534e+02
1.433815439396667113e+00 5.389865548747136472e+02
1.433915461401508162e+00 5.389958452099771193e+02
1.434015483406349212e+00 5.390051729140396901e+02
1.434115505411190483e+00 5.390145377820610975e+02
1.434215527416031533e+00 5.390239396081043424e+02
1.434315549420872582e+00 5.390333781851404638e+02
1.434415571425713631e+00 5.390428533050610440e+02
1.434515593430554459e+00 5.390523647586851439e+02
1.434615615435395508e+00 5.390619123357685112e+02
1.434715637440236780e+00 5.390714958250109703e+02
1.434815659445077829e+00 5.390811150140687005e+02
1.434915681449918878e+00 5.390907696895587833e+02
1.435015703454760150e+00 5.391004596370713671e+02
1.435115725459601199e+00 5.391101846411770566e+02
1.435215747464442027e+00 5.391199444854365765e+02
1.435315769469283076e+00 5.391297389524096388e+02
1.435415791474124125e+00 5.391395678236633557e+02
1.435515813478965175e+00 5.391494308797829262e+02
1.435615835483806446e+00 5.391593279003785710e+02
1.435715857488647496e+00 5.391692586640972422e+02
1.435815879493488545e+00 5.391792229486297856e+02
1.435915901498329372e+00 5.391892205307219683e+02
1.436015923503170644e+00 5.391992511861807316e+02
1.436115945508011693e+00 5.392093146898886289e+02
1.436215967512852743e+00 5.392194108158070094e+02
1.436315989517693792e+00 5.392295393369906833e+02
1.436416011522534841e+00 5.392397000255948569e+02
1.436516033527376113e+00 5.392498926528849097e+02
1.436616055532216940e+00 5.392601169892457165e+02
1.436716077537057989e+00 5.392703728041921067e+02
1.436816099541899039e+00 5.392806598663773912e+02
1.436916121546740310e+00 5.392909779436033659e+02
1.437016143551581360e+00 5.393013268028317952e+02
1.437116165556422409e+00 5.393117062101889587e+02
1.437216187561263459e+00 5.393221159309819086e+02
1.437316209566104286e+00 5.393325557297031310e+02
1.437416231570945335e+00 5.393430253700429375e+02
1.437516253575786607e+00 5.393535246148986744e+02
1.437616275580627656e+00 5.393640532263841578e+02
1.437716297585468705e+00 5.393746109658401338e+02
1.437816319590309977e+00 5.393851975938433725e+02
1.437916341595151026e+00 5.393958128702180375e+02
1.438016363599991854e+00 5.394064565540426202e+02
1.438116385604832903e+00 5.394171284036646057e+02
1.438216407609673952e+00 5.394278281767063845e+02
1.438316429614515002e+00 5.394385556300769622e+02
1.438416451619356273e+00 5.394493105199815091e+02
1.438516473624197323e+00 5.394600926019319331e+02
1.438616495629038150e+00 5.394709016307580214e+02
1.438716517633879199e+00 5.394817373606143747e+02
1.438816539638720471e+00 5.394925995449937091e+02
1.438916561643561520e+00 5.395034879367357235e+02
1.439016583648402570e+00 5.395144022880374450e+02
1.439116605653243619e+00 5.395253423504638022e+02
1.439216627658084668e+00 5.395363078749563783e+02
1.439316649662925496e+00 5.395472986118469407e+02
1.439416671667766767e+00 5.395583143108643753e+02
1.439516693672607817e+00 5.395693547211456007e+02
1.439616715677448866e+00 5.395804195912490968e+02
1.439716737682290137e+00 5.395915086691602482e+02
1.439816759687131187e+00 5.396026217023061236e+02
1.439916781691972236e+00 5.396137584375628649e+02
1.440016803696813064e+00 5.396249186212684208e+02
1.440116825701654113e+00 5.396361019992309593e+02
1.440216847706495162e+00 5.396473083167409186e+02
1.440316869711336434e+00 5.396585373185808976e+02
1.440416891716177483e+00 5.396697887490355470e+02
1.440516913721018533e+00 5.396810623519030514e+02
1.440616935725859804e+00 5.396923578705058162e+02
1.440716957730700631e+00 5.397036750476993348e+02
1.440816979735541681e+00 5.397150136258846942e+02
1.440917001740382730e+00 5.397263733470191482e+02
1.441017023745223780e+00 5.397377539526236205e+02
1.441117045750064829e+00 5.397491551837986208e+02
1.441217067754906100e+00 5.397605767812292470e+02
1.441317089759747150e+00 5.397720184852007606e+02
1.441417111764587977e+00 5.397834800356049527e+02
1.441517133769429027e+00 5.397949611719548102e+02
1.441617155774270298e+00 5.398064616333924732e+02
1.441717177779111347e+00 5.398179811586998085e+02
1.441817199783952397e+00 5.398295194863111419e+02
1.441917221788793446e+00 5.398410763543222401e+02
1.442017243793634496e+00 5.398526515005030433e+02
1.442117265798475323e+00 5.398642446623047135e+02
1.442217287803316594e+00 5.398758555768754377e+02
1.442317309808157644e+00 5.398874839810650883e+02
1.442417331812998693e+00 5.398991296114435272e+02
1.442517353817839965e+00 5.399107922043029930e+02
1.442617375822681014e+00 5.399224714956764046e+02
1.442717397827522063e+00 5.399341672213429320e+02
1.442817419832362891e+00 5.399458791168419793e+02
1.442917441837203940e+00 5.399576069174822806e+02
1.443017463842044990e+00 5.399693503583528127e+02
1.443117485846886261e+00 5.399811091743337101e+02
1.443217507851727310e+00 5.399928831001086564e+02
1.443317529856568360e+00 5.400046718701739792e+02
1.443417551861409631e+00 5.400164752188494504e+02
1.443517573866250459e+00 5.400282928802897686e+02
1.443617595871091508e+00 5.400401245884954733e+02
1.443717617875932557e+00 5.400519700773235172e+02
1.443817639880773607e+00 5.400638290804979533e+02
1.443917661885614656e+00 5.400757013316217581e+02
1.444017683890455928e+00 5.400875865641858127e+02
1.444117705895296977e+00 5.400994845115817498e+02
1.444217727900137804e+00 5.401113949071113893e+02
1.444317749904978854e+00 5.401233174839984486e+02
1.444417771909820125e+00 5.401352519753987735e+02
1.444517793914661175e+00 5.401471981144125039e+02
1.444617815919502224e+00 5.401591556340922580e+02
1.444717837924343273e+00 5.401711242674573441e+02
1.444817859929184323e+00 5.401831037475009225e+02
1.444917881934025150e+00 5.401950938072055806e+02
1.445017903938866421e+00 5.402070941795491308e+02
1.445117925943707471e+00 5.402191045975183670e+02
1.445217947948548520e+00 5.402311247941202055e+02
1.445317969953389792e+00 5.402431545023903254e+02
1.445417991958230841e+00 5.402551934554064701e+02
1.445518013963071891e+00 5.402672413862965186e+02
1.445618035967912718e+00 5.402792980282523558e+02
1.445718057972753767e+00 5.402913631145391946e+02
1.445818079977594817e+00 5.403034363785051255e+02
1.445918101982436088e+00 5.403155175535943044e+02
1.446018123987277137e+00 5.403276063733562751e+02
1.446118145992118187e+00 5.403397025714571100e+02
1.446218167996959458e+00 5.403518058816894154e+02
1.446318190001800286e+00 5.403639160379848363e+02
1.446418212006641335e+00 5.403760327744240612e+02
1.446518234011482384e+00 5.403881558252458035e+02
1.446618256016323434e+00 5.404002849248606708e+02
1.446718278021164483e+00 5.404124198078591235e+02
1.446818300026005755e+00 5.404245602090242073e+02
1.446918322030846804e+00 5.404367058633406486e+02
1.447018344035687631e+00 5.404488565060070187e+02
1.447118366040528681e+00 5.404610118724446011e+02
1.447218388045369952e+00 5.404731716983101251e+02
1.447318410050211002e+00 5.404853357195047465e+02
1.447418432055052051e+00 5.404975036721859851e+02
1.447518454059893100e+00 5.405096752927776151e+02
1.447618476064734150e+00 5.405218503179792151e+02
1.447718498069574977e+00 5.405340284847802650e+02
1.447818520074416249e+00 5.405462095304658305e+02
1.447918542079257298e+00 5.405583931926307741e+02
1.448018564084098347e+00 5.405705792091897592e+02
1.448118586088939619e+00 5.405827673183857769e+02
1.448218608093780668e+00 5.405949572588040155e+02
1.448318630098621718e+00 5.406071487693784547e+02
1.448418652103462545e+00 5.406193415894057352e+02
1.448518674108303594e+00 5.406315354585536852e+02
1.448618696113144644e+00 5.406437301168720069e+02
1.448718718117985915e+00 5.406559253048034179e+02
1.448818740122826965e+00 5.406681207631925190e+02
1.448918762127668014e+00 5.406803162332987540e+02
1.449018784132509285e+00 5.406925114568042545e+02
1.449118806137350113e+00 5.407047061758257769e+02
1.449218828142191162e+00 5.407169001329230014e+02
1.449318850147032212e+00 5.407290930711120609e+02
1.449418872151873261e+00 5.407412847338727033e+02
1.449518894156714310e+00 5.407534748651597738e+02
1.449618916161555582e+00 5.407656632094148108e+02
1.449718938166396631e+00 5.407778495115728674e+02
1.449818960171237459e+00 5.407900335170759263e+02
1.449918982176078508e+00 5.408022149718817673e+02
1.450019004180919779e+00 5.408143936224730624e+02
1.450119026185760829e+00 5.408265692158698812e+02
1.450219048190601878e+00 5.408387414996381040e+02
1.450319070195442928e+00 5.408509102218994258e+02
1.450419092200283977e+00 5.408630751313411338e+02
1.450519114205124804e+00 5.408752359772279306e+02
1.450619136209966076e+00 5.408873925094096649e+02
1.450719158214807125e+00 5.408995444783329276e+02
1.450819180219648175e+00 5.409116916350492374e+02
1.450919202224489446e+00 5.409238337312270914e+02
1.451019224229330495e+00 5.409359705191602643e+02
1.451119246234171545e+00 5.409481017517772443e+02
1.451219268239012372e+00 5.409602271826533979e+02
1.451319290243853422e+00 5.409723465660167676e+02
1.451419312248694471e+00 5.409844596567626240e+02
1.451519334253535742e+00 5.409965662104582407e+02
1.451619356258376792e+00 5.410086659833577869e+02
1.451719378263217841e+00 5.410207587324057386e+02
1.451819400268059113e+00 5.410328442152533626e+02
1.451919422272899940e+00 5.410449221902616728e+02
1.452019444277740989e+00 5.410569924165159819e+02
1.452119466282582039e+00 5.410690546538334047e+02
1.452219488287423088e+00 5.410811086627710438e+02
1.452319510292264138e+00 5.410931542046381537e+02
1.452419532297105409e+00 5.411051910415035309e+02
1.452519554301946458e+00 5.411172189362057452e+02
1.452619576306787286e+00 5.411292376523608709e+02
1.452719598311628335e+00 5.411412469543746511e+02
1.452819620316469607e+00 5.411532466074495460e+02
1.452919642321310656e+00 5.411652363775948515e+02
1.453019664326151705e+00 5.411772160316353393e+02
1.453119686330992755e+00 5.411891853372193282e+02
1.453219708335833804e+00 5.412011440628314176e+02
1.453319730340674631e+00 5.412130919777976032e+02
1.453419752345515903e+00 5.412250288522958499e+02
1.453519774350356952e+00 5.412369544573654139e+02
1.453619796355198002e+00 5.412488685649161653e+02
1.453719818360039273e+00 5.412607709477344997e+02
1.453819840364880323e+00 5.412726613794975492e+02
1.453919862369721372e+00 5.412845396347757969e+02
1.454019884374562199e+00 5.412964054890475154e+02
1.454119906379403249e+00 5.413082587187027457e+02
1.454219928384244298e+00 5.413200991010558027e+02
1.454319950389085569e+00 5.413319264143511873e+02
1.454419972393926619e+00 5.413437404377730218e+02
1.454519994398767668e+00 5.413555409514558505e+02
1.454620016403608940e+00 5.413673277364886189e+02
1.454720038408449767e+00 5.413791005749264968e+02
1.454820060413290816e+00 5.413908592498003145e+02
1.454920082418131866e+00 5.414026035451198595e+02
1.455020104422972915e+00 5.414143332458877467e+02
1.455120126427813965e+00 5.414260481381047612e+02
1.455220148432655236e+00 5.414377480087786125e+02
1.455320170437496285e+00 5.414494326459317790e+02
1.455420192442337113e+00 5.414611018386121941e+02
1.455520214447178162e+00 5.414727553768965436e+02
1.455620236452019434e+00 5.414843930519037940e+02
1.455720258456860483e+00 5.414960146557973530e+02
1.455820280461701532e+00 5.415076199817991665e+02
1.455920302466542582e+00 5.415192088241929014e+02
1.456020324471383409e+00 5.415307809783349740e+02
1.456120346476224459e+00 5.415423362406589831e+02
1.456220368481065730e+00 5.415538744086862835e+02
1.456320390485906779e+00 5.415653952810341707e+02
1.456420412490747829e+00 5.415768986574200881e+02
1.456520434495589100e+00 5.415883843386733361e+02
1.456620456500430150e+00 5.415998521267391652e+02
1.456720478505270977e+00 5.416113018246882120e+02
1.456820500510112026e+00 5.416227332367249119e+02
1.456920522514953076e+00 5.416341461681915916e+02
1.457020544519794125e+00 5.416455404255787016e+02
1.457120566524635397e+00 5.416569158165315230e+02
1.457220588529476446e+00 5.416682721498573301e+02
1.457320610534317495e+00 5.416796092355309611e+02
1.457420632539158323e+00 5.416909268847060730e+02
1.457520654543999594e+00 5.417022249097163922e+02
1.457620676548840644e+00 5.417135031240877652e+02
1.457720698553681693e+00 5.417247613425446389e+02
1.457820720558522742e+00 5.417359993810122205e+02
1.457920742563363792e+00 5.417472170566300065e+02
1.458020764568205063e+00 5.417584141877542834e+02
1.458120786573045891e+00 5.417695905939659724e+02
1.458220808577886940e+00 5.417807460960773369e+02
1.458320830582727989e+00 5.417918805161397131e+02
1.458420852587569261e+00 5.418029936774476027e+02
1.458520874592410310e+00 5.418140854045481092e+02
1.458620896597251360e+00 5.418251555232462806e+02
1.458720918602092409e+00 5.418362038606094302e+02
1.458820940606933236e+00 5.418472302449779363e+02
1.458920962611774286e+00 5.418582345059675163e+02
1.459020984616615557e+00 5.418692164744779802e+02
1.459121006621456607e+00 5.418801759826978923e+02
1.459221028626297656e+00 5.418911128641115056e+02
1.459321050631138927e+00 5.419020269535050147e+02
1.459421072635979977e+00 5.419129180869715583e+02
1.459521094640820804e+00 5.419237861019199727e+02
1.459621116645661854e+00 5.419346308370753604e+02
1.459721138650502903e+00 5.419454521324913685e+02
1.459821160655343952e+00 5.419562498295510977e+02
1.459921182660185224e+00 5.419670237709748335e+02
1.460021204665026273e+00 5.419777738008265260e+02
1.460121226669867323e+00 5.419884997645169733e+02
1.460221248674708150e+00 5.419992015088122344e+02
1.460321270679549421e+00 5.420098788818361299e+02
1.460421292684390471e+00 5.420205317330787693e+02
1.460521314689231520e+00 5.420311599133992786e+02
1.460621336694072570e+00 5.420417632750326220e+02
1.460721358698913619e+00 5.420523416715944904e+02
1.460821380703754890e+00 5.420628949580868721e+02
1.460921402708595718e+00 5.420734229909021451e+02
1.461021424713436767e+00 5.420839256278292169e+02
1.461121446718277817e+00 5.420944027280569344e+02
1.461221468723119088e+00 5.421048541521822699e+02
1.461321490727960137e+00 5.421152797622113440e+02
1.461421512732801187e+00 5.421256794215664740e+02
1.461521534737642236e+00 5.421360529950910632e+02
1.461621556742483063e+00 5.421464003490525556e+02
1.461721578747324113e+00 5.421567213511494856e+02
1.461821600752165384e+00 5.421670158705137510e+02
1.461921622757006434e+00 5.421772837777160703e+02
1.462021644761847483e+00 5.421875249447710985e+02
1.462121666766688755e+00 5.421977392451411788e+02
1.462221688771529804e+00 5.422079265537394122e+02
1.462321710776370631e+00 5.422180867469368195e+02
1.462421732781211681e+00 5.422282197025631376e+02
1.462521754786052730e+00 5.422383252999135266e+02
1.462621776790893779e+00 5.422484034197514120e+02
1.462721798795735051e+00 5.422584539443125777e+02
1.462821820800576100e+00 5.422684767573093723e+02
1.462921842805417150e+00 5.422784717439348015e+02
1.463021864810257977e+00 5.422884387908645749e+02
1.463121886815099248e+00 5.422983777862639272e+02
1.463221908819940298e+00 5.423082886197878452e+02
1.463321930824781347e+00 5.423181711825870934e+02
1.463421952829622397e+00 5.423280253673109428e+02
1.463521974834463446e+00 5.423378510681103535e+02
1.463621996839304717e+00 5.423476481806418406e+02
1.463722018844145545e+00 5.423574166020703160e+02
1.463822040848986594e+00 5.423671562310723857e+02
1.463922062853827644e+00 5.423768669678397600e+02
1.464022084858668915e+00 5.423865487140830055e+02
1.464122106863509964e+00 5.423962013730329090e+02
1.464222128868351014e+00 5.424058248494452528e+02
1.464322150873192063e+00 5.424154190496021783e+02
1.464422172878032891e+00 5.424249838813160522e+02
1.464522194882873940e+00 5.424345192539316258e+02
1.464622216887715211e+00 5.424440250783303554e+02
1.464722238892556261e+00 5.424535012669296066e+02
1.464822260897397310e+00 5.424629477336892478e+02
1.464922282902238582e+00 5.424723643941110822e+02
1.465022304907079631e+00 5.424817511652431676e+02
1.465122326911920458e+00 5.424911079656800439e+02
1.465222348916761508e+00 5.425004347155692130e+02
1.465322370921602557e+00 5.425097313366072740e+02
1.465422392926443607e+00 5.425189977520477669e+02
1.465522414931284878e+00 5.425282338867000362e+02
1.465622436936125927e+00 5.425374396669319594e+02
1.465722458940966977e+00 5.425466150206719931e+02
1.465822480945807804e+00 5.425557598774112193e+02
1.465922502950649076e+00 5.425648741682052787e+02
1.466022524955490125e+00 5.425739578256752793e+02
1.466122546960331174e+00 5.425830107840108667e+02
1.466222568965172224e+00 5.425920329789701100e+02
1.466322590970013273e+00 5.426010243478824577e+02
1.466422612974854545e+00 5.426099848296490791e+02
1.466522634979695372e+00 5.426189143647457058e+02
1.466622656984536421e+00 5.426278128952213820e+02
1.466722678989377471e+00 5.426366803647039205e+02
1.466822700994218742e+00 5.426455167183963795e+02
1.466922722999059792e+00 5.426543219030811542e+02
1.467022745003900841e+00 5.426630958671200915e+02
1.467122767008741890e+00 5.426718385604560808e+02
1.467222789013582718e+00 5.426805499346132819e+02
1.467322811018423767e+00 5.426892299426975796e+02
1.467422833023265039e+00 5.426978785393977205e+02
1.467522855028106088e+00 5.427064956809874730e+02
1.467622877032947137e+00 5.427150813253231263e+02
1.467722899037788409e+00 5.427236354318482654e+02
1.467822921042629458e+00 5.427321579615893370e+02
1.467922943047470286e+00 5.427406488771592876e+02
1.468022965052311335e+00 5.427491081427589279e+02
1.468122987057152384e+00 5.427575357241732945e+02
1.468223009061993434e+00 5.427659315887747198e+02
1.468323031066834705e+00 5.427742957055215811e+02
1.468423053071675755e+00 5.427826280449605747e+02
1.468523075076516804e+00 5.427909285792243281e+02
1.468623097081357631e+00 5.427991972820318551e+02
1.468723119086198903e+00 5.428074341286887829e+02
1.468823141091039952e+00 5.428156390960863291e+02
1.468923163095881002e+00 5.428238121627034616e+02
1.469023185100722051e+00 5.428319533086031470e+02
1.469123207105563100e+00 5.428400625154340560e+02
1.469223229110404372e+00 5.428481397664299948e+02
1.469323251115245199e+00 5.428561850464080862e+02
1.469423273120086249e+00 5.428641983417687698e+02
1.469523295124927298e+00 5.428721796404962561e+02
1.469623317129768569e+00 5.428801289321563672e+02
1.469723339134609619e+00 5.428880462078941491e+02
1.469823361139450668e+00 5.428959314604383053e+02
1.469923383144291718e+00 5.429037846840923294e+02
1.470023405149132545e+00 5.429116058747423494e+02
1.470123427153973594e+00 5.429193950298481468e+02
1.470223449158814866e+00 5.429271521484458844e+02
1.470323471163655915e+00 5.429348772311475386e+02
1.470423493168496965e+00 5.429425702801369198e+02
1.470523515173338236e+00 5.429502312991694453e+02
1.470623537178179285e+00 5.429578602935713434e+02
1.470723559183020113e+00 5.429654572702372661e+02
1.470823581187861162e+00 5.429730222376283564e+02
1.470923603192702211e+00 5.429805552057716795e+02
1.471023625197543261e+00 5.429880561862584045e+02
1.471123647202384532e+00 5.429955251922398247e+02
1.471223669207225582e+00 5.430029622384279264e+02
1.471323691212066631e+00 5.430103673410924330e+02
1.471423713216907458e+00 5.430177405180596679e+02
1.471523735221748730e+00 5.430250817887078938e+02
1.471623757226589779e+00 5.430323911739684490e+02
1.471723779231430829e+00 5.430396686963206321e+02
1.471823801236271878e+00 5.430469143797919287e+02
1.471923823241112927e+00 5.430541282499532372e+02
1.472023845245954199e+00 5.430613103339181862e+02
1.472123867250795026e+00 5.430684606603393831e+02
1.472223889255636076e+00 5.430755792594076183e+02
1.472323911260477125e+00 5.430826661628464080e+02
1.472423933265318396e+00 5.430897214039116534e+02
1.472523955270159446e+00 5.430967450173881161e+02
1.472623977275000495e+00 5.431037370395866901e+02
1.472723999279841545e+00 5.431106975083393991e+02
1.472824021284682372e+00 5.431176264630014430e+02
1.472924043289523421e+00 5.431245239444421031e+02
1.473024065294364693e+00 5.431313899950459927e+02
1.473124087299205742e+00 5.431382246587069176e+02
1.473224109304046792e+00 5.431450279808278765e+02
1.473324131308888063e+00 5.431518000083142397e+02
1.473424153313728890e+00 5.431585407895729531e+02
1.473524175318569940e+00 5.431652503745069680e+02
1.473624197323410989e+00 5.431719288145141036e+02
1.473724219328252039e+00 5.431785761624812494e+02
1.473824241333093088e+00 5.431851924727811820e+02
1.473924263337934359e+00 5.431917778012706322e+02
1.474024285342775409e+00 5.431983322052842595e+02
1.474124307347616236e+00 5.432048557436309011e+02
1.474224329352457286e+00 5.432113484765922067e+02
1.474324351357298557e+00 5.432178104659153632e+02
1.474424373362139606e+00 5.432242417748093430e+02
1.474524395366980656e+00 5.432306424679453585e+02
1.474624417371821705e+00 5.432370126114462892e+02
1.474724439376662755e+00 5.432433522728859998e+02
1.474824461381503582e+00 5.432496615212850202e+02
1.474924483386344853e+00 5.432559404271048606e+02
1.475024505391185903e+00 5.432621890622442606e+02
1.475124527396026952e+00 5.432684075000349821e+02
1.475224549400868224e+00 5.432745958152370349e+02
1.475324571405709273e+00 5.432807540840328784e+02
1.475424593410550322e+00 5.432868823840243522e+02
1.475524615415391150e+00 5.432929807942277876e+02
1.475624637420232199e+00 5.432990493950678683e+02
1.475724659425073249e+00 5.433050882683733107e+02
1.475824681429914520e+00 5.433110974973733391e+02
1.475924703434755569e+00 5.433170771666906376e+02
1.476024725439596619e+00 5.433230273623372568e+02
1.476124747444437890e+00 5.433289481717093850e+02
1.476224769449278718e+00 5.433348396835812082e+02
1.476324791454119767e+00 5.433407019881019551e+02
1.476424813458960816e+00 5.433465351767889615e+02
1.476524835463801866e+00 5.433523393425211907e+02
1.476624857468642915e+00 5.433581145795363909e+02
1.476724879473484187e+00 5.433638609834231374e+02
1.476824901478325236e+00 5.433695786511177630e+02
1.476924923483166063e+00 5.433752676808956039e+02
1.477024945488007113e+00 5.433809281723694085e+02
1.477124967492848384e+00 5.433865602264784229e+02
1.477224989497689434e+00 5.433921639454885053e+02
1.477325011502530483e+00 5.433977394329804156e+02
1.477425033507371532e+00 5.434032867938481104e+02
1.477525055512212582e+00 5.434088061342915807e+02
1.477625077517053409e+00 5.434142975618092350e+02
1.477725099521894681e+00 5.434197611851941474e+02
1.477825121526735730e+00 5.434251971145272364e+02
1.477925143531576779e+00 5.434306054611691934e+02
1.478025165536418051e+00 5.434359863377574129e+02
1.478125187541259100e+00 5.434413398581962156e+02
1.478225209546100150e+00 5.434466661376535512e+02
1.478325231550940977e+00 5.434519652925539503e+02
1.478425253555782026e+00 5.434572374405684059e+02
1.478525275560623076e+00 5.434624827006141459e+02
1.478625297565464347e+00 5.434677011928414458e+02
1.478725319570305397e+00 5.434728930386329466e+02
1.478825341575146446e+00 5.434780583605919446e+02
1.478925363579987717e+00 5.434831972825393223e+02
1.479025385584828545e+00 5.434883099295049078e+02
1.479125407589669594e+00 5.434933964277201994e+02
1.479225429594510643e+00 5.434984569046117713e+02
1.479325451599351693e+00 5.435034914887974082e+02
1.479425473604192742e+00 5.435085003100731456e+02
1.479525495609034014e+00 5.435134834994101993e+02
1.479625517613875063e+00 5.435184411889480316e+02
1.479725539618715890e+00 5.435233735119857101e+02
1.479825561623556940e+00 5.435282806029738367e+02
1.479925583628398211e+00 5.435331625975102270e+02
1.480025605633239261e+00 5.435380196323295650e+02
1.480125627638080310e+00 5.435428518452984008e+02
1.480225649642921359e+00 5.435476593754050327e+02
1.480325671647762409e+00 5.435524423627545048e+02
1.480425693652603236e+00 5.435572009485596254e+02
1.480525715657444508e+00 5.435619352751347151e+02
1.480625737662285557e+00 5.435666454858857151e+02
1.480725759667126606e+00 5.435713317253045034e+02
1.480825781671967878e+00 5.435759941389612777e+02
1.480925803676808927e+00 5.435806328734943236e+02
1.481025825681649977e+00 5.435852480766050121e+02
1.481125847686490804e+00 5.435898398970480230e+02
1.481225869691331853e+00 5.435944084846249780e+02
1.481325891696172903e+00 5.435989539901739818e+02
1.481425913701014174e+00 5.436034765655650745e+02
1.481525935705855224e+00 5.436079763636887492e+02
1.481625957710696273e+00 5.436124535384506089e+02
1.481725979715537544e+00 5.436169082447607934e+02
1.481826001720378372e+00 5.436213406385270446e+02
1.481926023725219421e+00 5.436257508766468618e+02
1.482026045730060471e+00 5.436301391169987482e+02
1.482126067734901520e+00 5.436345055184330022e+02
1.482226089739742569e+00 5.436388502407647820e+02
1.482326111744583841e+00 5.436431734447642157e+02
1.482426133749424890e+00 5.436474752921498066e+02
1.482526155754265718e+00 5.436517559455771789e+02
1.482626177759106767e+00 5.436560155686335065e+02
1.482726199763948038e+00 5.436602543258275091e+02
1.482826221768789088e+00 5.436644723825801293e+02
1.482926243773630137e+00 5.436686699052164613e+02
1.483026265778471187e+00 5.436728470609575652e+02
1.483126287783312236e+00 5.436770040179110310e+02
1.483226309788153063e+00 5.436811409450629071e+02
1.483326331792994335e+00 5.436852580122679228e+02
1.483426353797835384e+00 5.436893553902409622e+02
1.483526375802676434e+00 5.436934332505474003e+02
1.483626397807517705e+00 5.436974917655968511e+02
1.483726419812358754e+00 5.437015311086310021e+02
1.483826441817199804e+00 5.437055514537153158e+02
1.483926463822040631e+00 5.437095529757317536e+02
1.484026485826881681e+00 5.437135358503679754e+02
1.484126507831722730e+00 5.437175002541072217e+02
1.484226529836564001e+00 5.437214463642228566e+02
1.484326551841405051e+00 5.437253743587651797e+02
1.484426573846246100e+00 5.437292844165535826e+02
1.484526595851087372e+00 5.437331767171688170e+02
1.484626617855928199e+00 5.437370514409408315e+02
1.484726639860769248e+00 5.437409087689427452e+02
1.484826661865610298e+00 5.437447488829766371e+02
1.484926683870451347e+00 5.437485719655703633e+02
1.485026705875292397e+00 5.437523781999622088e+02
1.485126727880133668e+00 5.437561677700965674e+02
1.485226749884974717e+00 5.437599408606092766e+02
1.485326771889815545e+00 5.437636976568218188e+02
1.485426793894656594e+00 5.437674383447308628e+02
1.485526815899497866e+00 5.437711631109975770e+02
1.485626837904338915e+00 5.437748721429397847e+02
1.485726859909179964e+00 5.437785656285208233e+02
1.485826881914021014e+00 5.437822437563384028e+02
1.485926903918862063e+00 5.437859067156199444e+02
1.486026925923702890e+00 5.437895546962085973e+02
1.486126947928544162e+00 5.437931878885523247e+02
1.486226969933385211e+00 5.437968064836990152e+02
1.486326991938226261e+00 5.438004106732822720e+02
1.486427013943067532e+00 5.438040006495134548e+02
1.486527035947908582e+00 5.438075766051716755e+02
1.486627057952749631e+00 5.438111387335932250e+02
1.486727079957590458e+00 5.438146872286628195e+02
1.486827101962431508e+00 5.438182222848017773e+02
1.486927123967272557e+00 5.438217440969597192e+02
1.487027145972113829e+00 5.438252528606033138e+02
1.487127167976954878e+00 5.438287487717079784e+02
1.487227189981795927e+00 5.438322320267459418e+02
1.487327211986637199e+00 5.438357028226763532e+02
1.487427233991478026e+00 5.438391613569360743e+02
1.487527255996319075e+00 5.438426078274294468e+02
1.487627278001160125e+00 5.438460424325174927e+02
1.487727300006001174e+00 5.438494653710083639e+02
1.487827322010842224e+00 5.438528768421460882e+02
1.487927344015683495e+00 5.438562770456017006e+02
1.488027366020524545e+00 5.438596661814619893e+02
1.488127388025365372e+00 5.438630444502201726e+02
1.488227410030206421e+00 5.438664120527648720e+02
1.488327432035047693e+00 5.438697691903691975e+02
1.488427454039888742e+00 5.438731160646823355e+02
1.488527476044729791e+00 5.438764528777177247e+02
1.488627498049570841e+00 5.438797798318429386e+02
1.488727520054411890e+00 5.438830971297694532e+02
1.488827542059252718e+00 5.438864049745425291e+02
1.488927564064093989e+00 5.438897035695300701e+02
1.489027586068935038e+00 5.438929931184130737e+02
1.489127608073776088e+00 5.438962738251749442e+02
1.489227630078617359e+00 5.438995458940906929e+02
1.489327652083458409e+00 5.439028095297167056e+02
1.489427674088299458e+00 5.439060649368800568e+02
1.489527696093140285e+00 5.439093123206680502e+02
1.489627718097981335e+00 5.439125518864194646e+02
1.489727740102822384e+00 5.439157838397102296e+02
1.489827762107663656e+00 5.439190083863463769e+02
1.489927784112504705e+00 5.439222257323522172e+02
1.490027806117345754e+00 5.439254360839601077e+02
1.490127828122187026e+00 5.439286396475977199e+02
1.490227850127027853e+00 5.439318366298829233e+02
1.490327872131868903e+00 5.439350272376062776e+02
1.490427894136709952e+00 5.439382116777255760e+02
1.490527916141551001e+00 5.439413901573534531e+02
1.490627938146392051e+00 5.439445628837461300e+02
1.490727960151233322e+00 5.439477300642943192e+02
1.490827982156074150e+00 5.439508919065112877e+02
1.490928004160915199e+00 5.439540486180223979e+02
1.491028026165756248e+00 5.439572004065562396e+02
1.491128048170597520e+00 5.439603474799318974e+02
1.491228070175438569e+00 5.439634900460482640e+02
1.491328092180279619e+00 5.439666283128749455e+02
1.491428114185120668e+00 5.439697624884408924e+02
1.491528136189961495e+00 5.439728927808233720e+02
1.491628158194802545e+00 5.439760193981373959e+02
1.491728180199643816e+00 5.439791425485263971e+02
1.491828202204484866e+00 5.439822624401484745e+02
1.491928224209325915e+00 5.439853792811695712e+02
1.492028246214167186e+00 5.439884932797509691e+02
1.492128268219008236e+00 5.439916046440373520e+02
1.492228290223849063e+00 5.439947135821478241e+02
1.492328312228690113e+00 5.439978203021653371e+02
1.492428334233531162e+00 5.440009250121247533e+02
1.492528356238372211e+00 5.440040279200048872e+02
1.492628378243213483e+00 5.440071292337127034e+02
1.492728400248054532e+00 5.440102291610778593e+02
1.492828422252895582e+00 5.440133279098412231e+02
1.492928444257736409e+00 5.440164256876402078e+02
1.493028466262577680e+00 5.440195227020032007e+02
1.493128488267418730e+00 5.440226191603347843e+02
1.493228510272259779e+00 5.440257152699095968e+02
1.493328532277100829e+00 5.440288112378565302e+02
1.493428554281941878e+00 5.440319072711514536e+02
1.493528576286783149e+00 5.440350035766073233e+02
1.493628598291623977e+00 5.440381003608595165e+02
1.493728620296465026e+00 5.440411978303594651e+02
1.493828642301306076e+00 5.440442961913614681e+02
1.493928664306147347e+00 5.440473956499140513e+02
1.494028686310988396e+00 5.440504964118462112e+02
1.494128708315829446e+00 5.440535986827615034e+02
1.494228730320670495e+00 5.440567026680225808e+02
1.494328752325511322e+00 5.440598085727440321e+02
1.494428774330352372e+00 5.440629166017808984e+02
1.494528796335193643e+00 5.440660269597163960e+02
1.494628818340034693e+00 5.440691398508553220e+02
1.494728840344875742e+00 5.440722554792090477e+02
1.494828862349717014e+00 5.440753740484881291e+02
1.494928884354558063e+00 5.440784957620908244e+02
1.495028906359398890e+00 5.440816208230912707e+02
1.495128928364239940e+00 5.440847494342326627e+02
1.495228950369080989e+00 5.440878817979120186e+02
1.495328972373922038e+00 5.440910181161721084e+02
1.495428994378763310e+00 5.440941585906944056e+02
1.495529016383604359e+00 5.440973034227818061e+02
1.495629038388445409e+00 5.441004528133528311e+02
1.495729060393286236e+00 5.441036069629303711e+02
1.495829082398127508e+00 5.441067660716312275e+02
1.495929104402968557e+00 5.441099303391549711e+02
1.496029126407809606e+00 5.441130999647756425e+02
1.496129148412650656e+00 5.441162751473282242e+02
1.496229170417491705e+00 5.441194560852015911e+02
1.496329192422332977e+00 5.441226429763262331e+02
1.496429214427173804e+00 5.441258360181655007e+02
1.496529236432014853e+00 5.441290354077026450e+02
1.496629258436855903e+00 5.441322413414347920e+02
1.496729280441697174e+00 5.441354540153577091e+02
1.496829302446538223e+00 5.441386736249613705e+02
1.496929324451379273e+00 5.441419003652140418e+02
1.497029346456220322e+00 5.441451344305561406e+02
1.497129368461061150e+00 5.441483760148880719e+02
1.497229390465902199e+00 5.441516253115626114e+02
1.497329412470743470e+00 5.441548825133714899e+02
1.497429434475584520e+00 5.441581478125365265e+02
1.497529456480425569e+00 5.441614214007023520e+02
1.497629478485266841e+00 5.441647034689220845e+02
1.497729500490107890e+00 5.441679942076498264e+02
1.497829522494948717e+00 5.441712938067310006e+02
1.497929544499789767e+00 5.441746024553909820e+02
1.498029566504630816e+00 5.441779203422267983e+02
1.498129588509471866e+00 5.441812476551958753e+02
1.498229610514313137e+00 5.441845845816062592e+02
1.498329632519154186e+00 5.441879313081090004e+02
1.498429654523995236e+00 5.441912880206846239e+02
1.498529676528836063e+00 5.441946549046376731e+02
1.498629698533677335e+00 5.441980321445822710e+02
1.498729720538518384e+00 5.442014199244367774e+02
1.498829742543359433e+00 5.442048184274120786e+02
1.498929764548200483e+00 5.442082278360011287e+02
1.499029786553041532e+00 5.442116483319720146e+02
1.499129808557882804e+00 5.442150800963549955e+02
1.499229830562723631e+00 5.442185233094359091e+02
1.499329852567564680e+00 5.442219781507450307e+02
1.499429874572405730e+00 5.442254447990477502e+02
1.499529896577247001e+00 5.442289234323368419e+02
1.499629918582088051e+00 5.442324142278198451e+02
1.499729940586929100e+00 5.442359173619126977e+02
1.499829962591770149e+00 5.442394330102282538e+02
1.499929984596610977e+00 5.442429613475691212e+02
1.500030006601452026e+00 5.390975634145411277e+02
1.500130028606293298e+00 5.390434272203559658e+02
1.500230050611134347e+00 5.389892635398862240e+02
1.500330072615975396e+00 5.389350731385429754e+02
1.500430094620816668e+00 5.388808567830303673e+02
1.500530116625657717e+00 5.388266152413309555e+02
1.500630138630498545e+00 5.387723492826887650e+02
1.500730160635339594e+00 5.387180596775924641e+02
1.500830182640180643e+00 5.386637471977617224e+02
1.500930204645021693e+00 5.386094126161291342e+02
1.501030226649862964e+00 5.385550567068240753e+02
1.501130248654704014e+00 5.385006802451584917e+02
1.501230270659545063e+00 5.384462840076095063e+02
1.501330292664385890e+00 5.383918687718027059e+02
1.501430314669227162e+00 5.383374353164973627e+02
1.501530336674068211e+00 5.382829844215704043e+02
1.501630358678909261e+00 5.382285168679992466e+02
1.501730380683750310e+00 5.381740334378457646e+02
1.501830402688591359e+00 5.381195349142415125e+02
1.501930424693432631e+00 5.380650220813707847e+02
1.502030446698273458e+00 5.380104957244536763e+02
1.502130468703114508e+00 5.379559566297311903e+02
1.502230490707955557e+00 5.379014055844495488e+02
1.502330512712796828e+00 5.378468433768418890e+02
1.502430534717637878e+00 5.377922707961145079e+02
1.502530556722478927e+00 5.377376886324294674e+02
1.502630578727319977e+00 5.376830976768883374e+02
1.502730600732160804e+00 5.376284987215168485e+02
1.502830622737001853e+00 5.375738925592493160e+02
1.502930644741843125e+00 5.375192799839101099e+02
1.503030666746684174e+00 5.374646617902001253e+02
1.503130688751525224e+00 5.374100387736793891e+02
1.503230710756366495e+00 5.373554117307505749e+02
1.503330732761207544e+00 5.373007814586444510e+02
1.503430754766048372e+00 5.372461487554019186e+02
1.503530776770889421e+00 5.371915144198600274e+02
1.503630798775730470e+00 5.371368792516337862e+02
1.503730820780571520e+00 5.370822440511009290e+02
1.503830842785412791e+00 5.370276096193861122e+02
1.503930864790253841e+00 5.369729767583448847e+02
1.504030886795094890e+00 5.369183462705470902e+02
1.504130908799935717e+00 5.368637189592611776e+02
1.504230930804776989e+00 5.368090956284371487e+02
1.504330952809618038e+00 5.367544770826931426e+02
1.504430974814459088e+00 5.366998641272956547e+02
1.504530996819300137e+00 5.366452575681471444e+02
1.504631018824141186e+00 5.365906582117675043e+02
1.504731040828982458e+00 5.365360668652781442e+02
1.504831062833823285e+00 5.364814843363888031e+02
1.504931084838664335e+00 5.364269114333775406e+02
1.505031106843505384e+00 5.363723489650773217e+02
1.505131128848346656e+00 5.363177977408605557e+02
1.505231150853187705e+00 5.362632585706201098e+02
1.505331172858028754e+00 5.362087322647561223e+02
1.505431194862869804e+00 5.361542196341591762e+02
1.505531216867710631e+00 5.360997214901954067e+02
1.505631238872551680e+00 5.360452386446877426e+02
1.505731260877392952e+00 5.359907719099028327e+02
1.505831282882234001e+00 5.359363220985345606e+02
1.505931304887075051e+00 5.358818900236868785e+02
1.506031326891916322e+00 5.358274764988600509e+02
1.506131348896757371e+00 5.357730823379324647e+02
1.506231370901598199e+00 5.357187083551468731e+02
1.506331392906439248e+00 5.356643553650939111e+02
1.506431414911280298e+00 5.356100241826951560e+02
1.506531436916121347e+00 5.355557156231893714e+02
1.506631458920962618e+00 5.355014305021152268e+02
1.506731480925803668e+00 5.354471696352958361e+02
1.506831502930644717e+00 5.353929338388243195e+02
1.506931524935485545e+00 5.353387239290462958e+02
1.507031546940326816e+00 5.352845407225452163e+02
1.507131568945167865e+00 5.352303850361263358e+02
1.507231590950008915e+00 5.351762576868019323e+02
1.507331612954849964e+00 5.351221594917738003e+02
1.507431634959691014e+00 5.350680912684206305e+02
1.507531656964532285e+00 5.350140538342792524e+02
1.507631678969373112e+00 5.349600480070313324e+02
1.507731700974214162e+00 5.349060746044868893e+02
1.507831722979055211e+00 5.348521344445687191e+02
1.507931744983896483e+00 5.347982283452980710e+02
1.508031766988737532e+00 5.347443571247771388e+02
1.508131788993578581e+00 5.346905216011759876e+02
1.508231810998419409e+00 5.346367225927149320e+02
1.508331833003260458e+00 5.345829609176514623e+02
1.508431855008101508e+00 5.345292373942623954e+02
1.508531877012942779e+00 5.344755528408314831e+02
1.508631899017783828e+00 5.344219080756298581e+02
1.508731921022624878e+00 5.343683039169064841e+02
1.508831943027466149e+00 5.343147411828674649e+02
1.508931965032306977e+00 5.342612206916645619e+02
1.509031987037148026e+00 5.342077432613778001e+02
1.509132009041989075e+00 5.341543097100014847e+02
1.509232031046830125e+00 5.341009208554287397e+02
1.509332053051671174e+00 5.340475775154358189e+02
1.509432075056512446e+00 5.339942805076696004e+02
1.509532097061353495e+00 5.339410306496274643e+02
1.509632119066194322e+00 5.338878287586483111e+02
1.509732141071035372e+00 5.338346756518931215e+02
1.509832163075876643e+00 5.337815721463314276e+02
1.509932185080717693e+00 5.337285190587280113e+02
1.510032207085558742e+00 5.336755172056247147e+02
1.510132229090399791e+00 5.336225674033280484e+02
1.510232251095240841e+00 5.335696704678946389e+02
1.510332273100081668e+00 5.335168272151146311e+02
1.510432295104922940e+00 5.334640384604974770e+02
1.510532317109763989e+00 5.334113050192590890e+02
1.510632339114605038e+00 5.333586277063041052e+02
1.510732361119446310e+00 5.333060073362137246e+02
1.510832383124287359e+00 5.332534447232301318e+02
1.510932405129128409e+00 5.332009406812417183e+02
1.511032427133969236e+00 5.331484960237688711e+02
1.511132449138810285e+00 5.330961115639490799e+02
1.511232471143651335e+00 5.330437881145234087e+02
1.511332493148492606e+00 5.329915264878208063e+02
1.511432515153333656e+00 5.329393274957446920e+02
1.511532537158174705e+00 5.328871919497585168e+02
1.511632559163015976e+00 5.328351206608705297e+02
1.511732581167856804e+00 5.327831144396195668e+02
1.511832603172697853e+00 5.327311740960635689e+02
1.511932625177538903e+00 5.326793004397609366e+02
1.512032647182379952e+00 5.326274942797595031e+02
1.512132669187221001e+00 5.325757564245820959e+02
1.512232691192062273e+00 5.325240876822102791e+02
1.512332713196903322e+00 5.324724888600727581e+02
1.512432735201744149e+00 5.324209607650317366e+02
1.512532757206585199e+00 5.323695042033648406e+02
1.512632779211426470e+00 5.323181199807571602e+02
1.512732801216267520e+00 5.322668089022820368e+02
1.512832823221108569e+00 5.322155717723903763e+02
1.512932845225949618e+00 5.321644093948959835e+02
1.513032867230790668e+00 5.321133225729611240e+02
1.513132889235631495e+00 5.320623121090836776e+02
1.513232911240472767e+00 5.320113788050833818e+02
1.513332933245313816e+00 5.319605234620885312e+02
1.513432955250154865e+00 5.319097468805209701e+02
1.513532977254996137e+00 5.318590498600833598e+02
1.513632999259837186e+00 5.318084331997466734e+02
1.513733021264678236e+00 5.317578976977351886e+02
1.513833043269519063e+00 5.317074441515146646e+02
1.513933065274360112e+00 5.316570733577756300e+02
1.514033087279201162e+00 5.316067861124258798e+02
1.514133109284042433e+00 5.315565832105708068e+02
1.514233131288883483e+00 5.315064654465053309e+02
1.514333153293724532e+00 5.314564336136966176e+02
1.514433175298565804e+00 5.314064885047747566e+02
1.514533197303406631e+00 5.313566309115165041e+02
1.514633219308247680e+00 5.313068616248342551e+02
1.514733241313088730e+00 5.312571814347613781e+02
1.514833263317929779e+00 5.312075911304409601e+02
1.514933285322770828e+00 5.311580915001120502e+02
1.515033307327612100e+00 5.311086833310972679e+02
1.515133329332453149e+00 5.310593674097881376e+02
1.515233351337293977e+00 5.310101445216356524e+02
1.515333373342135026e+00 5.309610154511342444e+02
1.515433395346976297e+00 5.309119809818116664e+02
1.515533417351817347e+00 5.308630418962155773e+02
1.515633439356658396e+00 5.308141989758985346e+02
1.515733461361499446e+00 5.307654530014106058e+02
1.515833483366340495e+00 5.307168047522816323e+02
1.515933505371181322e+00 5.306682550070128173e+02
1.516033527376022594e+00 5.306198045430614911e+02
1.516133549380863643e+00 5.305714541368311075e+02
1.516233571385704693e+00 5.305232045636562361e+02
1.516333593390545964e+00 5.304750565977942642e+02
1.516433615395387013e+00 5.304270110124095936e+02
1.516533637400228063e+00 5.303790685795629543e+02
1.516633659405068890e+00 5.303312300701995810e+02
1.516733681409909940e+00 5.302834962541363666e+02
1.516833703414750989e+00 5.302358679000521988e+02
1.516933725419592260e+00 5.301883457754721576e+02
1.517033747424433310e+00 5.301409306467598981e+02
1.517133769429274359e+00 5.300936232791017346e+02
1.517233791434115631e+00 5.300464244364992510e+02
1.517333813438956458e+00 5.299993348817534979e+02
1.517433835443797507e+00 5.299523553764558983e+02
1.517533857448638557e+00 5.299054866809772193e+02
1.517633879453479606e+00 5.298587295544527933e+02
1.517733901458320656e+00 5.298120847547742187e+02
1.517833923463161927e+00 5.297655530385762859e+02
1.517933945468002976e+00 5.297191351612267454e+02
1.518033967472843804e+00 5.296728318768147119e+02
1.518133989477684853e+00 5.296266439381375903e+02
1.518234011482526125e+00 5.295805720966925492e+02
1.518334033487367174e+00 5.295346171026640150e+02
1.518434055492208223e+00 5.294887797049133269e+02
1.518534077497049273e+00 5.294430606509650943e+02
1.518634099501890322e+00 5.293974606870013986e+02
1.518734121506731150e+00 5.293519805578445130e+02
1.518834143511572421e+00 5.293066210069519002e+02
1.518934165516413470e+00 5.292613827764020016e+02
1.519034187521254520e+00 5.292162666068832095e+02
1.519134209526095791e+00 5.291712732376854547e+02
1.519234231530936841e+00 5.291264034066881550e+02
1.519334253535777890e+00 5.290816578503489609e+02
1.519434275540618717e+00 5.290370373036954561e+02
1.519534297545459767e+00 5.289925425003119699e+02
1.519634319550300816e+00 5.289481741723327559e+02
1.519734341555142088e+00 5.289039330504263035e+02
1.519834363559983137e+00 5.288598198637901078e+02
1.519934385564824186e+00 5.288158353401378236e+02
1.520034407569665458e+00 5.287719802056903973e+02
1.520134429574506285e+00 5.287282551851646986e+02
1.520234451579347335e+00 5.286846610017646526e+02
1.520334473584188384e+00 5.286411983771693031e+02
1.520434495589029433e+00 5.285978680315257634e+02
1.520534517593870483e+00 5.285546706834364841e+02
1.520634539598711754e+00 5.285116070499517491e+02
1.520734561603552804e+00 5.284686778465584212e+02
1.520834583608393631e+00 5.284258837871697096e+02
1.520934605613234680e+00 5.283832255841184633e+02
1.521034627618075952e+00 5.283407039481428455e+02
1.521134649622917001e+00 5.282983195883826966e+02
1.521234671627758051e+00 5.282560732123639582e+02
1.521334693632599100e+00 5.282139655259941264e+02
1.521434715637440149e+00 5.281719972335496323e+02
1.521534737642280977e+00 5.281301690376692477e+02
1.521634759647122248e+00 5.280884816393419214e+02
1.521734781651963297e+00 5.280469357379005260e+02
1.521834803656804347e+00 5.280055320310098068e+02
1.521934825661645618e+00 5.279642712146603571e+02
1.522034847666486668e+00 5.279231539831573627e+02
1.522134869671327717e+00 5.278821810291119618e+02
1.522234891676168544e+00 5.278413530434338554e+02
1.522334913681009594e+00 5.278006707153206207e+02
1.522434935685850643e+00 5.277601347322502079e+02
1.522534957690691915e+00 5.277197457799713902e+02
1.522634979695532964e+00 5.276795045424960335e+02
1.522735001700374013e+00 5.276394117020897738e+02
1.522835023705215285e+00 5.275994679392632634e+02
1.522935045710056112e+00 5.275596739327647811e+02
1.523035067714897162e+00 5.275200303595718196e+02
1.523135089719738211e+00 5.274805378948801717e+02
1.523235111724579260e+00 5.274411972120993823e+02
1.523335133729420310e+00 5.274020089828431992e+02
1.523435155734261581e+00 5.273629738769186588e+02
1.523535177739102631e+00 5.273240925623229032e+02
1.523635199743943458e+00 5.272853657052312428e+02
1.523735221748784507e+00 5.272467939699904491e+02
1.523835243753625779e+00 5.272083780191114784e+02
1.523935265758466828e+00 5.271701185132608316e+02
1.524035287763307878e+00 5.271320161112535061e+02
1.524135309768148927e+00 5.270940714700428771e+02
1.524235331772989976e+00 5.270562852447176283e+02
1.524335353777830804e+00 5.270186580884897012e+02
1.524435375782672075e+00 5.269811906526886105e+02
1.524535397787513125e+00 5.269438835867538273e+02
1.524635419792354174e+00 5.269067375382278442e+02
1.524735441797195445e+00 5.268697531527483306e+02
1.524835463802036495e+00 5.268329310740400615e+02
1.524935485806877544e+00 5.267962719439094599e+02
1.525035507811718372e+00 5.267597764022348201e+02
1.525135529816559421e+00 5.267234450869623288e+02
1.525235551821400470e+00 5.266872786340967423e+02
1.525335573826241742e+00 5.266512776776951341e+02
1.525435595831082791e+00 5.266154428498596189e+02
1.525535617835923841e+00 5.265797747807316682e+02
1.525635639840764668e+00 5.265442740984829015e+02
1.525735661845605939e+00 5.265089414293112213e+02
1.525835683850446989e+00 5.264737773974318316e+02
1.525935705855288038e+00 5.264387826250717808e+02
1.526035727860129088e+00 5.264039577324635957e+02
1.526135749864970137e+00 5.263693033378375503e+02
1.526235771869811408e+00 5.263348200574159819e+02
1.526335793874652236e+00 5.263005085054068104e+02
1.526435815879493285e+00 5.262663692939981956e+02
1.526535837884334335e+00 5.262324030333500104e+02
1.526635859889175606e+00 5.261986103315904302e+02
1.526735881894016655e+00 5.261649917948067241e+02
1.526835903898857705e+00 5.261315480270418448e+02
1.526935925903698754e+00 5.260982796302866973e+02
1.527035947908539582e+00 5.260651872044752508e+02
1.527135969913380631e+00 5.260322713474787406e+02
1.527235991918221902e+00 5.259995326550973687e+02
1.527336013923062952e+00 5.259669717210588260e+02
1.527436035927904001e+00 5.259345891370078334e+02
1.527536057932745273e+00 5.259023854925048909e+02
1.527636079937586322e+00 5.258703613750178647e+02
1.527736101942427149e+00 5.258385173699165307e+02
1.527836123947268199e+00 5.258068540604676855e+02
1.527936145952109248e+00 5.257753720278311675e+02
1.528036167956950298e+00 5.257440718510522402e+02
1.528136189961791569e+00 5.257129541070574987e+02
1.528236211966632618e+00 5.256820193706483906e+02
1.528336233971473668e+00 5.256512682144978044e+02
1.528436255976314495e+00 5.256207012091438173e+02
1.528536277981155767e+00 5.255903189229852615e+02
1.528636299985996816e+00 5.255601219222756981e+02
1.528736321990837865e+00 5.255301107711206896e+02
1.528836343995678915e+00 5.255002860314684767e+02
1.528936366000519964e+00 5.254706482631106610e+02
1.529036388005361236e+00 5.254411980236736781e+02
1.529136410010202063e+00 5.254119358686158421e+02
1.529236432015043112e+00 5.253828623512215472e+02
1.529336454019884162e+00 5.253539780225972891e+02
1.529436476024725433e+00 5.253252834316673443e+02
1.529536498029566483e+00 5.252967791251691096e+02
1.529636520034407532e+00 5.252684656476476448e+02
1.529736542039248581e+00 5.252403435414537398e+02
1.529836564044089409e+00 5.252124133467370939e+02
1.529936586048930458e+00 5.251846756014440416e+02
1.530036608053771729e+00 5.251571308413107317e+02
1.530136630058612779e+00 5.251297795998627862e+02
1.530236652063453828e+00 5.251026224084082514e+02
1.530336674068295100e+00 5.250756597960340741e+02
1.530436696073136149e+00 5.250488922896029180e+02
1.530536718077976976e+00 5.250223204137506627e+02
1.530636740082818026e+00 5.249959446908779910e+02
1.530736762087659075e+00 5.249697656411514117e+02
1.530836784092500125e+00 5.249437837824971211e+02
1.530936806097341396e+00 5.249179996305982741e+02
1.531036828102182445e+00 5.248924136988889586e+02
1.531136850107023495e+00 5.248670264985554468e+02
1.531236872111864322e+00 5.248418385385281226e+02
1.531336894116705594e+00 5.248168503254806865e+02
1.531436916121546643e+00 5.247920623638243569e+02
1.531536938126387692e+00 5.247674751557079844e+02
1.531636960131228742e+00 5.247430892010125945e+02
1.531736982136069791e+00 5.247189049973470674e+02
1.531837004140911063e+00 5.246949230400473425e+02
1.531937026145751890e+00 5.246711438221724393e+02
1.532037048150592939e+00 5.246475678345013876e+02
1.532137070155433989e+00 5.246241955655289075e+02
1.532237092160275260e+00 5.246010275014658646e+02
1.532337114165116310e+00 5.245780641262318795e+02
1.532437136169957359e+00 5.245553059214571476e+02
1.532537158174798408e+00 5.245327533664752764e+02
1.532637180179639236e+00 5.245104069383246497e+02
1.532737202184480285e+00 5.244882671117424024e+02
1.532837224189321557e+00 5.244663343591631701e+02
1.532937246194162606e+00 5.244446091507174970e+02
1.533037268199003655e+00 5.244230919542278571e+02
1.533137290203844927e+00 5.244017832352067217e+02
1.533237312208685976e+00 5.243806834568539443e+02
1.533337334213526804e+00 5.243597930800553968e+02
1.533437356218367853e+00 5.243391125633789898e+02
1.533537378223208902e+00 5.243186423630739910e+02
1.533637400228049952e+00 5.242983829330681829e+02
1.533737422232891223e+00 5.242783347249646795e+02
1.533837444237732273e+00 5.242584981880435180e+02
1.533937466242573322e+00 5.242388737692540417e+02
1.534037488247414149e+00 5.242194619132180833e+02
1.534137510252255421e+00 5.242002630622239394e+02
1.534237532257096470e+00 5.241812776562283034e+02
1.534337554261937520e+00 5.241625061328518314e+02
1.534437576266778569e+00 5.241439489273777781e+02
1.534537598271619618e+00 5.241256064727508601e+02
1.534637620276460890e+00 5.241074791995746409e+02
1.534737642281301717e+00 5.240895675361127815e+02
1.534837664286142767e+00 5.240718719082824464e+02
1.534937686290983816e+00 5.240543927396568051e+02
1.535037708295825087e+00 5.240371304514636677e+02
1.535137730300666137e+00 5.240200854625799138e+02
1.535237752305507186e+00 5.240032581895353587e+02
1.535337774310348236e+00 5.239866490465078641e+02
1.535437796315189063e+00 5.239702584453243617e+02
1.535537818320030112e+00 5.239540867954559644e+02
1.535637840324871384e+00 5.239381345040227416e+02
1.535737862329712433e+00 5.239224019757859878e+02
1.535837884334553483e+00 5.239068896131525435e+02
1.535937906339394754e+00 5.238915978161701332e+02
1.536037928344235803e+00 5.238765269825285031e+02
1.536137950349076631e+00 5.238616775075573742e+02
1.536237972353917680e+00 5.238470497842256464e+02
1.536337994358758730e+00 5.238326442031413990e+02
1.536438016363599779e+00 5.238184611525501850e+02
1.536538038368441050e+00 5.238045010183348040e+02
1.536638060373282100e+00 5.237907641840138240e+02
1.536738082378123149e+00 5.237772510307419225e+02
1.536838104382963976e+00 5.237639619373088635e+02
1.536938126387805248e+00 5.237508972801387017e+02
1.537038148392646297e+00 5.237380574332883043e+02
1.537138170397487347e+00 5.237254427684506481e+02
1.537238192402328396e+00 5.237130536549493627e+02
1.537338214407169446e+00 5.237008904597413448e+02
1.537438236412010717e+00 5.236889535474158492e+02
1.537538258416851544e+00 5.236772432801944888e+02
1.537638280421692594e+00 5.236657600179294150e+02
1.537738302426533643e+00 5.236545041181057059e+02
1.537838324431374915e+00 5.236434759358382962e+02
1.537938346436215964e+00 5.236326758238745924e+02
1.538038368441057013e+00 5.236221041325920851e+02
1.538138390445898063e+00 5.236117612099994858e+02
1.538238412450738890e+00 5.236016474017369546e+02
1.538338434455579939e+00 5.235917630510748495e+02
1.538438456460421211e+00 5.235821084989157725e+02
1.538538478465262260e+00 5.235726840837925238e+02
1.538638500470103310e+00 5.235634901418695790e+02
1.538738522474944581e+00 5.235545270069433172e+02
1.538838544479785631e+00 5.235457950104414522e+02
1.538938566484626458e+00 5.235372944814246239e+02
1.539038588489467507e+00 5.235290257465848072e+02
1.539138610494308557e+00 5.235209891302473579e+02
1.539238632499149606e+00 5.235131849543710132e+02
1.539338654503990877e+00 5.235056135385477774e+02
1.539438676508831927e+00 5.234982752000040591e+02
1.539538698513672976e+00 5.234911702535998757e+02
1.539638720518513804e+00 5.234842990118320358e+02
1.539738742523355075e+00 5.234776617848317528e+02
1.539838764528196124e+00 5.234712588803671451e+02
1.539938786533037174e+00 5.234650906038432367e+02
1.540038808537878223e+00 5.234591572583033212e+02
1.540138830542719273e+00 5.234534591444280522e+02
1.540238852547560544e+00 5.234479965605386269e+02
1.540338874552401371e+00 5.234427698025956488e+02
1.540438896557242421e+00 5.234377791642007196e+02
1.540538918562083470e+00 5.234330249365971213e+02
1.540638940566924742e+00 5.234285074086715213e+02
1.540738962571765791e+00 5.234242268669538589e+02
1.540838984576606840e+00 5.234201835956176865e+02
1.540939006581447890e+00 5.234163778764847166e+02
1.541039028586288717e+00 5.234128099890211843e+02
1.541139050591129767e+00 5.234094802103419397e+02
1.541239072595971038e+00 5.234063888152115851e+02
1.541339094600812087e+00 5.234035360760439062e+02
1.541439116605653137e+00 5.234009222629042597e+02
1.541539138610494408e+00 5.233985476435110513e+02
1.541639160615335458e+00 5.233964124832352809e+02
1.541739182620176285e+00 5.233945170451057720e+02
1.541839204625017334e+00 5.233928615898047383e+02
1.541939226629858384e+00 5.233914463756736950e+02
1.542039248634699433e+00 5.233902716587135728e+02
1.542139270639540705e+00 5.233893376925851726e+02
1.542239292644381754e+00 5.233886447286125758e+02
1.542339314649222803e+00 5.233881930157820079e+02
1.542439336654063631e+00 5.233879828007455899e+02
1.542539358658904902e+00 5.233880143278220203e+02
1.542639380663745952e+00 5.233882878389983944e+02
1.542739402668587001e+00 5.233888035739305451e+02
1.542839424673428050e+00 5.233895617699477043e+02
1.542939446678269100e+00 5.233905626620504563e+02
1.543039468683109927e+00 5.233918064829146033e+02
1.543139490687951199e+00 5.233932934628925295e+02
1.543239512692792248e+00 5.233950238300157025e+02
1.543339534697633297e+00 5.233969978099944456e+02
1.543439556702474569e+00 5.233992156262208937e+02
1.543539578707315618e+00 5.234016774997727453e+02
1.543639600712156668e+00 5.234043836494104198e+02
1.543739622716997495e+00 5.234073342915835383e+02
1.543839644721838544e+00 5.234105296404305818e+02
1.543939666726679594e+00 5.234139699077816203e+02
1.544039688731520865e+00 5.234176553031593357e+02
1.544139710736361915e+00 5.234215860337820914e+02
1.544239732741202964e+00 5.234257623045643868e+02
1.544339754746044235e+00 5.234301843181217464e+02
1.544439776750885063e+00 5.234348522747696961e+02
1.544539798755726112e+00 5.234397663725275152e+02
1.544639820760567162e+00 5.234449268071202823e+02
1.544739842765408211e+00 5.234503337719795582e+02
1.544839864770249260e+00 5.234559874582483872e+02
1.544939886775090532e+00 5.234618880547805020e+02
1.545039908779931581e+00 5.234680357481439614e+02
1.545139930784772409e+00 5.234744307226239926e+02
1.545239952789613458e+00 5.234810731602232181e+02
1.545339974794454729e+00 5.234879632406659766e+02
1.545439996799295779e+00 5.234951011414004824e+02
1.545540018804136828e+00 5.235024870375984847e+02
1.545640040808977878e+00 5.235101211021611789e+02
1.545740062813818927e+00 5.235180035057192072e+02
1.545840084818659754e+00 5.235261344166361823e+02
1.545940106823501026e+00 5.235345140010108480e+02
1.546040128828342075e+00 5.235431424226784429e+02
1.546140150833183124e+00 5.235520198432150210e+02
1.546240172838024396e+00 5.235611464219374511e+02
1.546340194842865445e+00 5.235705223159094430e+02
1.546440216847706495e+00 5.235801476799398415e+02
1.546540238852547322e+00 5.235900226665880837e+02
1.546640260857388371e+00 5.236001474261669273e+02
1.546740282862229421e+00 5.236105221067412003e+02
1.546840304867070692e+00 5.236211468541362137e+02
1.546940326871911742e+00 5.236320218119341234e+02
1.547040348876752791e+00 5.236431471214826843e+02
1.547140370881594063e+00 5.236545229218926352e+02
1.547240392886434890e+00 5.236661493500428151e+02
1.547340414891275939e+00 5.236780265405828914e+02
1.547440436896116989e+00 5.236901546259357474e+02
1.547540458900958038e+00 5.237025337362990740e+02
1.547640480905799087e+00 5.237151639996500307e+02
1.547740502910640359e+00 5.237280455417467238e+02
1.547840524915481408e+00 5.237411784861303659e+02
1.547940546920322236e+00 5.237545629541289145e+02
1.548040568925163285e+00 5.237681990648607098e+02
1.548140590930004556e+00 5.237820869352349291e+02
1.548240612934845606e+00 5.237962266799563622e+02
1.548340634939686655e+00 5.238106184115265478e+02
1.548440656944527705e+00 5.238252622402488896e+02
1.548540678949368754e+00 5.238401582742284290e+02
1.548640700954209581e+00 5.238553066193778704e+02
1.548740722959050853e+00 5.238707073794174676e+02
1.548840744963891902e+00 5.238863606558804804e+02
1.548940766968732952e+00 5.239022665481132890e+02
1.549040788973574223e+00 5.239184251532813050e+02
1.549140810978415272e+00 5.239348365663690856e+02
1.549240832983256322e+00 5.239515008801854492e+02
1.549340854988097149e+00 5.239684181853641576e+02
1.549440876992938199e+00 5.239855885703694867e+02
1.549540898997779248e+00 5.240030121214970222e+02
1.549640921002620519e+00 5.240206889228762748e+02
1.549740943007461569e+00 5.240386190564768185e+02
1.549840965012302618e+00 5.240568026021070409e+02
1.549940987017143890e+00 5.240752396374200544e+02
1.550041009021984717e+00 5.240939302379154014e+02
1.550141031026825766e+00 5.241128744769429204e+02
1.550241053031666816e+00 5.241320724257039956e+02
1.550341075036507865e+00 5.241515241532572418e+02
1.550441097041348915e+00 5.241712297265173675e+02
1.550541119046190186e+00 5.241911892102639285e+02
1.550641141051031235e+00 5.242114026671387137e+02
1.550741163055872063e+00 5.242318701576521107e+02
1.550841185060713112e+00 5.242525917401860625e+02
1.550941207065554384e+00 5.242735674709946352e+02
1.551041229070395433e+00 5.242947974042094756e+02
1.551141251075236482e+00 5.243162815918419710e+02
1.551241273080077532e+00 5.243380200837863185e+02
1.551341295084918581e+00 5.243600129278221402e+02
1.551441317089759409e+00 5.243822601696193715e+02
1.551541339094600680e+00 5.244047618527378063e+02
1.551641361099441729e+00 5.244275180186348280e+02
1.551741383104282779e+00 5.244505287066627943e+02
1.551841405109124050e+00 5.244737939540790421e+02
1.551941427113965100e+00 5.244973137960412259e+02
1.552041449118806149e+00 5.245210882656169815e+02
1.552141471123646976e+00 5.245451173937831300e+02
1.552241493128488026e+00 5.245694012094306800e+02
1.552341515133329075e+00 5.245939397393667605e+02
1.552441537138170347e+00 5.246187330083182587e+02
1.552541559143011396e+00 5.246437810389336391e+02
1.552641581147852445e+00 5.246690838517887414e+02
1.552741603152693717e+00 5.246946414653879174e+02
1.552841625157534544e+00 5.247204538961669869e+02
1.552941647162375594e+00 5.247465211584963072e+02
1.553041669167216643e+00 5.247728432646852070e+02
1.553141691172057692e+00 5.247994202249846012e+02
1.553241713176898742e+00 5.248262520475876727e+02
1.553341735181740013e+00 5.248533387386374898e+02
1.553441757186581063e+00 5.248806803022258691e+02
1.553541779191421890e+00 5.249082767403979233e+02
1.553641801196262939e+00 5.249361280531563807e+02
1.553741823201104211e+00 5.249642342384637459e+02
1.553841845205945260e+00 5.249925952922440047e+02
1.553941867210786310e+00 5.250212112083881948e+02
1.554041889215627359e+00 5.250500819787550881e+02
1.554141911220468408e+00 5.250792075931765339e+02
1.554241933225309236e+00 5.251085880394582546e+02
1.554341955230150507e+00 5.251382233033851890e+02
1.554441977234991557e+00 5.251681133687221745e+02
1.554541999239832606e+00 5.251982582172199727e+02
1.554642021244673877e+00 5.252286578286148142e+02
1.554742043249514927e+00 5.252593121806339695e+02
1.554842065254355976e+00 5.252902212489977956e+02
1.554942087259196803e+00 5.253213850074237143e+02
1.555042109264037853e+00 5.253528034276279186e+02
1.555142131268878902e+00 5.253844764793282138e+02
1.555242153273720174e+00 5.254164041302498163e+02
1.555342175278561223e+00 5.254485863461254667e+02
1.555442197283402272e+00 5.254810230906986135e+02
1.555542219288243544e+00 5.255137143257284151e+02
1.555642241293084371e+00 5.255466600109905357e+02
1.555742263297925421e+00 5.255798601042823748e+02
1.555842285302766470e+00 5.256133145614231807e+02
1.555942307307607519e+00 5.256470233362600766e+02
1.556042329312448569e+00 5.256809863806693102e+02
1.556142351317289840e+00 5.257152036445584145e+02
1.556242373322130890e+00 5.257496750758721191e+02
1.556342395326971717e+00 5.257844006205920095e+02
1.556442417331812766e+00 5.258193802227422111e+02
1.556542439336654038e+00 5.258546138243893893e+02
1.556642461341495087e+00 5.258901013656488885e+02
1.556742483346336137e+00 5.259258427846856421e+02
1.556842505351177186e+00 5.259618380177171275e+02
1.556942527356018235e+00 5.259980869990170049e+02
1.557042549360859063e+00 5.260345896609183001e+02
1.557142571365700334e+00 5.260713459338145412e+02
1.557242593370541384e+00 5.261083557461648752e+02
1.557342615375382433e+00 5.261456190244952040e+02
1.557442637380223704e+00 5.261831356934015957e+02
1.557542659385064754e+00 5.262209056755542633e+02
1.557642681389905803e+00 5.262589288916981332e+02
1.557742703394746631e+00 5.262972052606576199e+02
1.557842725399587680e+00 5.263357346993384454e+02
1.557942747404428729e+00 5.263745171227308219e+02
1.558042769409270001e+00 5.264135524439129767e+02
1.558142791414111050e+00 5.264528405740512653e+02
1.558242813418952100e+00 5.264923814224068792e+02
1.558342835423793371e+00 5.265321748963345954e+02
1.558442857428634198e+00 5.265722209012898247e+02
1.558542879433475248e+00 5.266125193408261111e+02
1.558642901438316297e+00 5.266530701166038853e+02
1.558742923443157347e+00 5.266938731283872812e+02
1.558842945447998396e+00 5.267349282740510716e+02
1.558942967452839667e+00 5.267762354495820318e+02
1.559042989457680717e+00 5.268177945490807588e+02
1.559143011462521544e+00 5.268596054647654228e+02
1.559243033467362594e+00 5.269016680869739275e+02
1.559343055472203865e+00 5.269439823041668660e+02
1.559443077477044914e+00 5.269865480029301352e+02
1.559543099481885964e+00 5.270293650679761868e+02
1.559643121486727013e+00 5.270724333821499386e+02
1.559743143491568063e+00 5.271157528264275243e+02
1.559843165496408890e+00 5.271593232799211819e+02
1.559943187501250161e+00 5.272031446198809590e+02
1.560043209506091211e+00 5.272472167216980097e+02
1.560143231510932260e+00 5.272915394589065272e+02
1.560243253515773532e+00 5.273361127031862452e+02
1.560343275520614581e+00 5.273809363243643702e+02
1.560443297525455408e+00 5.274260101904197882e+02
1.560543319530296458e+00 5.274713341674842013e+02
1.560643341535137507e+00 5.275169081198451977e+02
1.560743363539978557e+00 5.275627319099471606e+02
1.560843385544819828e+00 5.276088053983970667e+02
1.560943407549660877e+00 5.276551284439631218e+02
1.561043429554501927e+00 5.277017009035782849e+02
1.561143451559342754e+00 5.277485226323452707e+02
1.561243473564184026e+00 5.277955934835350718e+02
1.561343495569025075e+00 5.278429133085916192e+02
1.561443517573866124e+00 5.278904819571341704e+02
1.561543539578707174e+00 5.279382992769581051e+02
1.561643561583548223e+00 5.279863651140376533e+02
1.561743583588389495e+00 5.280346793125305567e+02
1.561843605593230322e+00 5.280832417147764772e+02
1.561943627598071371e+00 5.281320521613033634e+02
1.562043649602912421e+00 5.281811104908249490e+02
1.562143671607753692e+00 5.282304165402474609e+02
1.562243693612594742e+00 5.282799701446687095e+02
1.562343715617435791e+00 5.283297711373829770e+02
1.562443737622276840e+00 5.283798193498805631e+02
1.562543759627117668e+00 5.284301146118515362e+02
1.562643781631958717e+00 5.284806567511867570e+02
1.562743803636799989e+00 5.285314455939818572e+02
1.562843825641641038e+00 5.285824809645365576e+02
1.562943847646482087e+00 5.286337626853595566e+02
1.563043869651323359e+00 5.286852905771697806e+02
1.563143891656164408e+00 5.287370644588959294e+02
1.563243913661005235e+00 5.287890841476827291e+02
1.563343935665846285e+00 5.288413494588901358e+02
1.563443957670687334e+00 5.288938602060956100e+02
1.563543979675528384e+00 5.289466162010967309e+02
1.563644001680369655e+00 5.289996172539129020e+02
1.563744023685210704e+00 5.290528631727875108e+02
1.563844045690051754e+00 5.291063537641898620e+02
1.563944067694892581e+00 5.291600888328163137e+02
1.564044089699733853e+00 5.292140681815927792e+02
1.564144111704574902e+00 5.292682916116764318e+02
1.564244133709415951e+00 5.293227589224586609e+02
1.564344155714257001e+00 5.293774699115646172e+02
1.564444177719098050e+00 5.294324243748568506e+02
1.564544199723939322e+00 5.294876221064370156e+02
1.564644221728780149e+00 5.295430628986462125e+02
1.564744243733621198e+00 5.295987465420691933e+02
1.564844265738462248e+00 5.296546728255328844e+02
1.564944287743303519e+00 5.297108415361109337e+02
1.565044309748144569e+00 5.297672524591238243e+02
1.565144331752985618e+00 5.298239053781421717e+02
1.565244353757826667e+00 5.298808000749855864e+02
1.565344375762667495e+00 5.299379363297277905e+02
1.565444397767508544e+00 5.299953139206945707e+02
1.565544419772349816e+00 5.300529326244692356e+02
1.565644441777190865e+00 5.301107922158901147e+02
1.565744463782031914e+00 5.301688924680568107e+02
1.565844485786873186e+00 5.302272331523263347e+02
1.565944507791714235e+00 5.302858140383203818e+02
1.566044529796555063e+00 5.303446348939215795e+02
1.566144551801396112e+00 5.304036954852789449e+02
1.566244573806237161e+00 5.304629955768064065e+02
1.566344595811078211e+00 5.305225349311868968e+02
1.566444617815919482e+00 5.305823133093715569e+02
1.566544639820760532e+00 5.306423304705833743e+02
1.566644661825601581e+00 5.307025861723157050e+02
1.566744683830442408e+00 5.307630801703354564e+02
1.566844705835283680e+00 5.308238122186858163e+02
1.566944727840124729e+00 5.308847820696839790e+02
1.567044749844965779e+00 5.309459894739256924e+02
1.567144771849806828e+00 5.310074341802852587e+02
1.567244793854647877e+00 5.310691159359168978e+02
1.567344815859489149e+00 5.311310344862555439e+02
1.567444837864329976e+00 5.311931895750185504e+02
1.567544859869171026e+00 5.312555809442078498e+02
1.567644881874012075e+00 5.313182083341091584e+02
1.567744903878853346e+00 5.313810714832943631e+02
1.567844925883694396e+00 5.314441701286240232e+02
1.567944947888535445e+00 5.315075040052441864e+02
1.568044969893376495e+00 5.315710728465925285e+02
1.568144991898217322e+00 5.316348763843980123e+02
1.568245013903058371e+00 5.316989143486779312e+02
1.568345035907899643e+00 5.317631864677462090e+02
1.568445057912740692e+00 5.318276924682070330e+02
1.568545079917581742e+00 5.318924320749620165e+02
1.568645101922423013e+00 5.319574050112071291e+02
1.568745123927264062e+00 5.320226109984358800e+02
1.568845145932104890e+00 5.320880497564393181e+02
1.568945167936945939e+00 5.321537210033063729e+02
1.569045189941786989e+00 5.322196244554270379e+02
1.569145211946628038e+00 5.322857598274913471e+02
1.569245233951469309e+00 5.323521268324898301e+02
1.569345255956310359e+00 5.324187251817164679e+02
1.569445277961151408e+00 5.324855545847682379e+02
1.569545299965992236e+00 5.325526147495455689e+02
1.569645321970833507e+00 5.326199053822542737e+02
1.569745343975674556e+00 5.326874261874065724e+02
1.569845365980515606e+00 5.327551768678188182e+02
1.569945387985356655e+00 5.328231571246163867e+02
1.570045409990197705e+00 5.328913666572331067e+02
1.570145431995038976e+00 5.329598051634091007e+02
1.570245453999879803e+00 5.330284723391965827e+02
1.570345476004720853e+00 5.330973678789558790e+02
1.570445498009561902e+00 5.331664914753584981e+02
1.570545520014403174e+00 5.332358428193876989e+02
1.570645542019244223e+00 5.333054216003390593e+02
1.570745564024085272e+00 5.333752275058204759e+02
1.570845586028926322e+00 5.334452602217515960e+02
1.570945608033767149e+00 5.335155194323690466e+02
1.571045630038608198e+00 5.335860048202208645e+02
1.571145652043449470e+00 5.336567160661717253e+02
1.571245674048290519e+00 5.337276528494013519e+02
1.571345696053131569e+00 5.337988148474051968e+02
1.571445718057972840e+00 5.338702017359946694e+02
1.571545740062813890e+00 5.339418131893005466e+02
1.571645762067654717e+00 5.340136488797676293e+02
1.571745784072495766e+00 5.340857084781615640e+02
1.571845806077336816e+00 5.341579916535636130e+02
1.571945828082177865e+00 5.342304980733758839e+02
1.572045850087019137e+00 5.343032274033178055e+02
1.572145872091860186e+00 5.343761793074307889e+02
1.572245894096701235e+00 5.344493534480733388e+02
1.572345916101542063e+00 5.345227494859253738e+02
1.572445938106383334e+00 5.345963670799872034e+02
1.572545960111224383e+00 5.346702058875793000e+02
1.572645982116065433e+00 5.347442655643446869e+02
1.572746004120906482e+00 5.348185457642462097e+02
1.572846026125747532e+00 5.348930461395689235e+02
1.572946048130588803e+00 5.349677663409199795e+02
1.573046070135429630e+00 5.350427060172282836e+02
1.573146092140270680e+00 5.351178648157448379e+02
1.573246114145111729e+00 5.351932423820437634e+02
1.573346136149953001e+00 5.352688383600213911e+02
1.573446158154794050e+00 5.353446523918966022e+02
1.573546180159635099e+00 5.354206841182125345e+02
1.573646202164476149e+00 5.354969331778339665e+02
1.573746224169316976e+00 5.355733992079494783e+02
1.573846246174158026e+00 5.356500818440716785e+02
1.573946268178999297e+00 5.357269807200354990e+02
1.574046290183840346e+00 5.358040954679994456e+02
1.574146312188681396e+00 5.358814257184470762e+02
1.574246334193522667e+00 5.359589711001840442e+02
1.574346356198363717e+00 5.360367312403406004e+02
1.574446378203204544e+00 5.361147057643697735e+02
1.574546400208045593e+00 5.361928942960489621e+02
1.574646422212886643e+00 5.362712964574793659e+02
1.574746444217727692e+00 5.363499118690856449e+02
1.574846466222568964e+00 5.364287401496155780e+02
1.574946488227410013e+00 5.365077809161414280e+02
1.575046510232251062e+00 5.365870337840583488e+02
1.575146532237091890e+00 5.366664983670850688e+02
1.575246554241933161e+00 5.367461742772641173e+02
1.575346576246774211e+00 5.368260611249606882e+02
1.575446598251615260e+00 5.369061585188628669e+02
1.575546620256456309e+00 5.369864660659835636e+02
1.575646642261297359e+00 5.370669833716565336e+02
1.575746664266138630e+00 5.371477100395388788e+02
1.575846686270979458e+00 5.372286456716110479e+02
1.575946708275820507e+00 5.373097898681752440e+02
1.576046730280661556e+00 5.373911422278561076e+02
1.576146752285502828e+00 5.374727023475998067e+02
1.576246774290343877e+00 5.375544698226755145e+02
1.576346796295184927e+00 5.376364442466729088e+02
1.576446818300025976e+00 5.377186252115036496e+02
1.576546840304866803e+00 5.378010123074006970e+02
1.576646862309707853e+00 5.378836051229170607e+02
1.576746884314549124e+00 5.379664032449272781e+02
1.576846906319390174e+00 5.380494062586265045e+02
1.576946928324231223e+00 5.381326137475289215e+02
1.577046950329072494e+00 5.382160252934701248e+02
1.577146972333913544e+00 5.382996404766031446e+02
1.577246994338754371e+00 5.383834588754018569e+02
1.577347016343595421e+00 5.384674800666596184e+02
1.577447038348436470e+00 5.385517036254858567e+02
1.577547060353277519e+00 5.386361291253114132e+02
1.577647082358118791e+00 5.387207561378824039e+02
1.577747104362959840e+00 5.388055842332640850e+02
1.577847126367800668e+00 5.388906129798386928e+02
1.577947148372641717e+00 5.389758419443040793e+02
1.578047170377482988e+00 5.390612706916773504e+02
1.578147192382324038e+00 5.391468987852886130e+02
1.578247214387165087e+00 5.392327257867859771e+02
1.578347236392006137e+00 5.393187512561311223e+02
1.578447258396847186e+00 5.394049747516029356e+02
1.578547280401688013e+00 5.394913958297920544e+02
1.578647302406529285e+00 5.395780140456058689e+02
1.578747324411370334e+00 5.396648289522636333e+02
1.578847346416211384e+00 5.397518401012995355e+02
1.578947368421052655e+00 5.398390470425583771e+02
1.579047390425893704e+00 5.399264493241993250e+02
1.579147412430734754e+00 5.400140464926926143e+02
1.579247434435575581e+00 5.401018380928206852e+02
1.579347456440416630e+00 5.401898236676761371e+02
1.579447478445257680e+00 5.402780027586627511e+02
1.579547500450098951e+00 5.403663749054946948e+02
1.579647522454940001e+00 5.404549396461951574e+02
1.579747544459781050e+00 5.405436965170971462e+02
1.579847566464622322e+00 5.406326450528421219e+02
1.579947588469463149e+00 5.407217847863799989e+02
1.580047610474304198e+00 5.408111152489689175e+02
1.580147632479145248e+00 5.409006359701726296e+02
1.580247654483986297e+00 5.409903464778647049e+02
1.580347676488827346e+00 5.410802462982218231e+02
1.580447698493668618e+00 5.411703349557290039e+02
1.580547720498509667e+00 5.412606119731747185e+02
1.580647742503350495e+00 5.413510768716545272e+02
1.580747764508191544e+00 5.414417291705660773e+02
1.580847786513032815e+00 5.415325683876128551e+02
1.580947808517873865e+00 5.416235940388002064e+02
1.581047830522714914e+00 5.417148056384369283e+02
1.581147852527555964e+00 5.418062026991351559e+02
1.581247874532397013e+00 5.418977847318072918e+02
1.581347896537237840e+00 5.419895512456687356e+02
1.581447918542079112e+00 5.420815017482336771e+02
1.581547940546920161e+00 5.421736357453194159e+02
1.581647962551761211e+00 5.422659527410412466e+02
1.581747984556602482e+00 5.423584522378139354e+02
1.581848006561443531e+00 5.424511337363526309e+02
1.581948028566284581e+00 5.425439967356693387e+02
1.582048050571125408e+00 5.426370407330748549e+02
1.582148072575966458e+00 5.427302652241761507e+02
1.582248094580807507e+00 5.428236697028794424e+02
1.582348116585648778e+00 5.429172536613853026e+02
1.582448138590489828e+00 5.430110165901915025e+02
1.582548160595330877e+00 5.431049579780901695e+02
1.582648182600172149e+00 5.431990773121697202e+02
1.582748204605012976e+00 5.432933740778127003e+02
1.582848226609854025e+00 5.433878477586943063e+02
1.582948248614695075e+00 5.434824978367862514e+02
1.583048270619536124e+00 5.435773237923513079e+02
1.583148292624377174e+00 5.436723251039450133e+02
1.583248314629218445e+00 5.437675012484152148e+02
1.583348336634059494e+00 5.438628517009026382e+02
1.583448358638900322e+00 5.439583759348378180e+02
1.583548380643741371e+00 5.440540734219433716e+02
1.583648402648582643e+00 5.441499436322314978e+02
1.583748424653423692e+00 5.442459860340051137e+02
1.583848446658264741e+00 5.443422000938564906e+02
1.583948468663105791e+00 5.444385852766671405e+02
1.584048490667946840e+00 5.445351410456075882e+02
1.584148512672787668e+00 5.446318668621362349e+02
1.584248534677628939e+00 5.447287621859995852e+02
1.584348556682469988e+00 5.448258264752327023e+02
1.584448578687311038e+00 5.449230591861565927e+02
1.584548600692152309e+00 5.450204597733800256e+02
1.584648622696993359e+00 5.451180276897983958e+02
1.584748644701834408e+00 5.452157623865917913e+02
1.584848666706675235e+00 5.453136633132286306e+02
1.584948688711516285e+00 5.454117299174605478e+02
1.585048710716357334e+00 5.455099616453254612e+02
1.585148732721198606e+00 5.456083579411465507e+02
1.585248754726039655e+00 5.457069182475297566e+02
1.585348776730880704e+00 5.458056420053679858e+02
1.585448798735721976e+00 5.459045286538357686e+02
1.585548820740562803e+00 5.460035776303923285e+02
1.585648842745403853e+00 5.461027883707810133e+02
1.585748864750244902e+00 5.462021603090269082e+02
1.585848886755085951e+00 5.463016928774389953e+02
1.585948908759927001e+00 5.464013855066090173e+02
1.586048930764768272e+00 5.465012376254112496e+02
1.586148952769609322e+00 5.466012486610015912e+02
1.586248974774450149e+00 5.467014180388193836e+02
1.586348996779291198e+00 5.468017451825854778e+02
1.586449018784132470e+00 5.469022295143014389e+02
1.586549040788973519e+00 5.470028704542520472e+02
1.586649062793814569e+00 5.471036674210029105e+02
1.586749084798655618e+00 5.472046198314010326e+02
1.586849106803496667e+00 5.473057271005757229e+02
1.586949128808337495e+00 5.474069886419349587e+02
1.587049150813178766e+00 5.475084038671712960e+02
1.587149172818019816e+00 5.476099721862565275e+02
1.587249194822860865e+00 5.477116930074433867e+02
1.587349216827702136e+00 5.478135657372662308e+02
1.587449238832543186e+00 5.479155897805406994e+02
1.587549260837384235e+00 5.480177645403623501e+02
1.587649282842225062e+00 5.481200894181097283e+02
1.587749304847066112e+00 5.482225638134398196e+02
1.587849326851907161e+00 5.483251871242935067e+02
1.587949348856748433e+00 5.484279587468912496e+02
1.588049370861589482e+00 5.485308780757363820e+02
1.588149392866430532e+00 5.486339445036117013e+02
1.588249414871271803e+00 5.487371574215823102e+02
1.588349436876112630e+00 5.488405162189966404e+02
1.588449458880953680e+00 5.489440202834830416e+02
1.588549480885794729e+00 5.490476690009529648e+02
1.588649502890635778e+00 5.491514617556006215e+02
1.588749524895476828e+00 5.492553979299009370e+02
1.588849546900318099e+00 5.493594769046136435e+02
1.588949568905159149e+00 5.494636980587810058e+02
1.589049590909999976e+00 5.495680607697279356e+02
1.589149612914841025e+00 5.496725644130641513e+02
1.589249634919682297e+00 5.497772083626823587e+02
1.589349656924523346e+00 5.498819919907600706e+02
1.589449678929364396e+00 5.499869146677607432e+02
1.589549700934205445e+00 5.500919757624308204e+02
1.589649722939046494e+00 5.501971746418033717e+02
1.589749744943887322e+00 5.503025106711978651e+02
1.589849766948728593e+00 5.504079832142205078e+02
1.589949788953569643e+00 5.505135916327633367e+02
1.590049810958410692e+00 5.506193352870061517e+02
1.590149832963251963e+00 5.507252135354179927e+02
1.590249854968093013e+00 5.508312257347561172e+02
1.590349876972934062e+00 5.509373712400652039e+02
1.590449898977774890e+00 5.510436494046824691e+02
1.590549920982615939e+00 5.511500595802339149e+02
1.590649942987456988e+00 5.512566011166371709e+02
1.590749964992298260e+00 5.513632733621010402e+02
1.590849986997139309e+00 5.514700756631287959e+02
1.590950009001980359e+00 5.515770073645148841e+02
1.591050031006821630e+00 5.516840678093485622e+02
1.591150053011662457e+00 5.517912563390141258e+02
1.591250075016503507e+00 5.518985722931913642e+02
1.591350097021344556e+00 5.520060150098574923e+02
1.591450119026185606e+00 5.521135838252857866e+02
1.591550141031026655e+00 5.522212780740482003e+02
1.591650163035867926e+00 5.523290970890166136e+02
1.591750185040708976e+00 5.524370402013626062e+02
1.591850207045549803e+00 5.525451067405592767e+02
1.591950229050390853e+00 5.526532960343814693e+02
1.592050251055232124e+00 5.527616074089081621e+02
1.592150273060073173e+00 5.528700401885221254e+02
1.592250295064914223e+00 5.529785936959115134e+02
1.592350317069755272e+00 5.530872672520716833e+02
1.592450339074596322e+00 5.531960601763053091e+02
1.592550361079437149e+00 5.533049717862243142e+02
1.592650383084278420e+00 5.534140013977499848e+02
1.592750405089119470e+00 5.535231483251174041e+02
1.592850427093960519e+00 5.536324118808722687e+02
1.592950449098801791e+00 5.537417913758750956e+02
1.593050471103642840e+00 5.538512861193023582e+02
1.593150493108483889e+00 5.539608954186475103e+02
1.593250515113324717e+00 5.540706185797206444e+02
1.593350537118165766e+00 5.541804549066534946e+02
1.593450559123006816e+00 5.542904037018989811e+02
1.593550581127848087e+00 5.544004642662314382e+02
1.593650603132689136e+00 5.545106358987504791e+02
1.593750625137530186e+00 5.546209178968823608e+02
1.593850647142371457e+00 5.547313095563798697e+02
1.593950669147212285e+00 5.548418101713249371e+02
1.594050691152053334e+00 5.549524190341319354e+02
1.594150713156894383e+00 5.550631354355455187e+02
1.594250735161735433e+00 5.551739586646471025e+02
1.594350757166576482e+00 5.552848880088524766e+02
1.594450779171417754e+00 5.553959227539173753e+02
1.594550801176258803e+00 5.555070621839363412e+02
1.594650823181099630e+00 5.556183055813456804e+02
1.594750845185940680e+00 5.557296522269250545e+02
1.594850867190781951e+00 5.558411013998021417e+02
1.594950889195623001e+00 5.559526523774501356e+02
1.595050911200464050e+00 5.560643044356934297e+02
1.595150933205305099e+00 5.561760568487070486e+02
1.595250955210145927e+00 5.562879088890222192e+02
1.595350977214986976e+00 5.563998598275247787e+02
1.595450999219828248e+00 5.565119089334593809e+02
1.595551021224669297e+00 5.566240554744317706e+02
1.595651043229510346e+00 5.567362987164100332e+02
1.595751065234351618e+00 5.568486379237289157e+02
1.595851087239192667e+00 5.569610723590897123e+02
1.595951109244033495e+00 5.570736012835643578e+02
1.596051131248874544e+00 5.571862239565978143e+02
1.596151153253715593e+00 5.572989396360082992e+02
1.596251175258556643e+00 5.574117475779941060e+02
1.596351197263397914e+00 5.575246470371315581e+02
1.596451219268238964e+00 5.576376372663816028e+02
1.596551241273080013e+00 5.577507175170890150e+02
1.596651263277920840e+00 5.578638870389877411e+02
1.596751285282762112e+00 5.579771450802012396e+02
1.596851307287603161e+00 5.580904908872494161e+02
1.596951329292444210e+00 5.582039237050444171e+02
1.597051351297285260e+00 5.583174427769017711e+02
1.597151373302126309e+00 5.584310473445364096e+02
1.597251395306967581e+00 5.585447366480696019e+02
1.597351417311808408e+00 5.586585099260304332e+02
1.597451439316649457e+00 5.587723664153591017e+02
1.597551461321490507e+00 5.588863053514098738e+02
1.597651483326331778e+00 5.590003259679544954e+02
1.597751505331172828e+00 5.591144274971861705e+02
1.597851527336013877e+00 5.592286091697189931e+02
1.597951549340854926e+00 5.593428702145978377e+02
1.598051571345695754e+00 5.594572098592944940e+02
1.598151593350536803e+00 5.595716273297160797e+02
1.598251615355378075e+00 5.596861218502054953e+02
1.598351637360219124e+00 5.598006926435473360e+02
1.598451659365060173e+00 5.599153389309694830e+02
1.598551681369901445e+00 5.600300599321453774e+02
1.598651703374742494e+00 5.601448548652032287e+02
1.598751725379583322e+00 5.602597229467218085e+02
1.598851747384424371e+00 5.603746633917403415e+02
1.598951769389265420e+00 5.604896754137594144e+02
1.599051791394106470e+00 5.606047582247451828e+02
1.599151813398947741e+00 5.607199110351320996e+02
1.599251835403788791e+00 5.608351330538296224e+02
1.599351857408629840e+00 5.609504234882238052e+02
1.599451879413470667e+00 5.610657815441811636e+02
1.599551901418311939e+00 5.611812064260531088e+02
1.599651923423152988e+00 5.612966973366812908e+02
1.599751945427994038e+00 5.614122534773991902e+02
1.599851967432835087e+00 5.615278740480382567e+02
1.599951989437676136e+00 5.616435582469310930e+02
1.600052011442517408e+00 5.617593052709163430e+02
1.600152033447358235e+00 5.618751143153418752e+02
1.600252055452199285e+00 5.619909845740705805e+02
1.600352077457040334e+00 5.621069152394834418e+02
1.600452099461881605e+00 5.622229055024838544e+02
1.600552121466722655e+00 5.623389545525037647e+02
1.600652143471563704e+00 5.624550615775069673e+02
1.600752165476404754e+00 5.625712257639934251e+02
1.600852187481245581e+00 5.626874462970038167e+02
1.600952209486086630e+00 5.628037223601254482e+02
1.601052231490927902e+00 5.629200531354957775e+02
1.601152253495768951e+00 5.630364378038076438e+02
1.601252275500610001e+00 5.631528755443141563e+02
1.601352297505451272e+00 5.632693655348322181e+02
1.601452319510292321e+00 5.633859069517512808e+02
1.601552341515133149e+00 5.635024989700322067e+02
1.601652363519974198e+00 5.636191407632181836e+02
1.601752385524815248e+00 5.637358315034364296e+02
1.601852407529656297e+00 5.638525703614041049e+02
1.601952429534497568e+00 5.639693565064336553e+02
1.602052451539338618e+00 5.640861891064387237e+02
1.602152473544179667e+00 5.642030673279367647e+02
1.602252495549020495e+00 5.643199903360585949e+02
1.602352517553861766e+00 5.644369572945493019e+02
1.602452539558702815e+00 5.645539673657779076e+02
1.602552561563543865e+00 5.646710197107381646e+02
1.602652583568384914e+00 5.647881134890585599e+02
1.602752605573225964e+00 5.649052478590058399e+02
1.602852627578067235e+00 5.650224219774900121e+02
1.602952649582908062e+00 5.651396350000717348e+02
1.603052671587749112e+00 5.652568860809652733e+02
1.603152693592590161e+00 5.653741743730490725e+02
1.603252715597431433e+00 5.654914990278663254e+02
1.603352737602272482e+00 5.656088591956342952e+02
1.603452759607113531e+00 5.657262540252486360e+02
1.603552781611954581e+00 5.658436826642906681e+02
1.603652803616795408e+00 5.659611442590320394e+02
1.603752825621636457e+00 5.660786379544429110e+02
1.603852847626477729e+00 5.661961628941937761e+02
1.603952869631318778e+00 5.663137182206688749e+02
1.604052891636159828e+00 5.664313030749644895e+02
1.604152913641001099e+00 5.665489165969013357e+02
1.604252935645842149e+00 5.666665579250276323e+02
1.604352957650682976e+00 5.667842261966272872e+02
1.604452979655524025e+00 5.669019205477246715e+02
1.604553001660365075e+00 5.670196401130940558e+02
1.604653023665206124e+00 5.671373840262614294e+02
1.604753045670047396e+00 5.672551514195162099e+02
1.604853067674888445e+00 5.673729414239160178e+02
1.604953089679729494e+00 5.674907531692921339e+02
1.605053111684570322e+00 5.676085857842573432e+02
1.605153133689411593e+00 5.677264383962134389e+02
1.605253155694252643e+00 5.678443101313578154e+02
1.605353177699093692e+00 5.679622001146898356e+02
1.605453199703934741e+00 5.680801074700181061e+02
1.605553221708775791e+00 5.681980313199674129e+02
1.605653243713617062e+00 5.683159707859879290e+02
1.605753265718457889e+00 5.684339249883585126e+02
1.605853287723298939e+00 5.685518930461980744e+02
1.605953309728139988e+00 5.686698740774689895e+02
1.606053331732981260e+00 5.687878671989876693e+02
1.606153353737822309e+00 5.689058715264308148e+02
1.606253375742663358e+00 5.690238861743426924e+02
1.606353397747504408e+00 5.691419102561426371e+02
1.606453419752345235e+00 5.692599428841325562e+02
1.606553441757186285e+00 5.693779831695055691e+02
1.606653463762027556e+00 5.694960302223531698e+02
1.606753485766868605e+00 5.696140831516709113e+02
1.606853507771709655e+00 5.697321410653712519e+02
1.606953529776550926e+00 5.698502030702858292e+02
1.607053551781391976e+00 5.699682682721763740e+02
1.607153573786232803e+00 5.700863357757433505e+02
1.607253595791073852e+00 5.702044046846309584e+02
1.607353617795914902e+00 5.703224741014394112e+02
1.607453639800755951e+00 5.704405431277290290e+02
1.607553661805597223e+00 5.705586108640306975e+02
1.607653683810438272e+00 5.706766764098534850e+02
1.607753705815279321e+00 5.707947388636940786e+02
1.607853727820120149e+00 5.709127973230426960e+02
1.607953749824961420e+00 5.710308508843947948e+02
1.608053771829802470e+00 5.711488986432563024e+02
1.608153793834643519e+00 5.712669396941544164e+02
1.608253815839484568e+00 5.713849731306455624e+02
1.608353837844325618e+00 5.715029980453232383e+02
1.608453859849166889e+00 5.716210135298277919e+02
1.608553881854007717e+00 5.717390186748558563e+02
1.608653903858848766e+00 5.718570125701666029e+02
1.608753925863689815e+00 5.719749943045926557e+02
1.608853947868531087e+00 5.720929629660489582e+02
1.608953969873372136e+00 5.722109176415415277e+02
1.609053991878213186e+00 5.723288574171756409e+02
1.609154013883054235e+00 5.724467813781664063e+02
1.609254035887895062e+00 5.725646886088455858e+02
1.609354057892736112e+00 5.726825781926744412e+02
1.609454079897577383e+00 5.728004492122501006e+02
1.609554101902418433e+00 5.729183007493153355e+02
1.609654123907259482e+00 5.730361318847690200e+02
1.609754145912100753e+00 5.731539416986745437e+02
1.609854167916941803e+00 5.732717292702691338e+02
1.609954189921782630e+00 5.733894936779756790e+02
1.610054211926623680e+00 5.735072339994088679e+02
1.610154233931464729e+00 5.736249493113867857e+02
1.610254255936305778e+00 5.737426386899420550e+02
1.610354277941147050e+00 5.738603012103275205e+02
1.610454299945988099e+00 5.739779359470305735e+02
1.610554321950829149e+00 5.740955419737802004e+02
1.610654343955669976e+00 5.742131183635576690e+02
1.610754365960511247e+00 5.743306641886069883e+02
1.610854387965352297e+00 5.744481785204443440e+02
1.610954409970193346e+00 5.745656604298686716e+02
1.611054431975034396e+00 5.746831089869708649e+02
1.611154453979875445e+00 5.748005232611449173e+02
1.611254475984716716e+00 5.749179023210995183e+02
1.611354497989557544e+00 5.750352452348645329e+02
1.611454519994398593e+00 5.751525510698049857e+02
1.611554541999239643e+00 5.752698188926301555e+02
1.611654564004080914e+00 5.753870477694041483e+02
1.611754586008921963e+00 5.755042367655551061e+02
1.611854608013763013e+00 5.756213849458900995e+02
1.611954630018604062e+00 5.757384913746001303e+02
1.612054652023444890e+00 5.758555551152729777e+02
1.612154674028285939e+00 5.759725752309079780e+02
1.612254696033127210e+00 5.760895507839193215e+02
1.612354718037968260e+00 5.762064808361540145e+02
1.612454740042809309e+00 5.763233644488983600e+02
1.612554762047650581e+00 5.764402006828896674e+02
1.612654784052491408e+00 5.765569885983298946e+02
1.612754806057332457e+00 5.766737272548926967e+02
1.612854828062173507e+00 5.767904157117378645e+02
1.612954850067014556e+00 5.769070530275213287e+02
1.613054872071855605e+00 5.770236382604051641e+02
1.613154894076696877e+00 5.771401704680715739e+02
1.613254916081537926e+00 5.772566487077318698e+02
1.613354938086378754e+00 5.773730720361388649e+02
1.613454960091219803e+00 5.774894395095986965e+02
1.613554982096061075e+00 5.776057501839806037e+02
1.613655004100902124e+00 5.777220031147315922e+02
1.613755026105743173e+00 5.778381973568843932e+02
1.613855048110584223e+00 5.779543319650723561e+02
1.613955070115425272e+00 5.780704059935385430e+02
1.614055092120266099e+00 5.781864184961490309e+02
1.614155114125107371e+00 5.783023685264053029e+02
1.614255136129948420e+00 5.784182551374533432e+02
1.614355158134789470e+00 5.785340773820995537e+02
1.614455180139630741e+00 5.786498343128184842e+02
1.614555202144471791e+00 5.787655249817692038e+02
1.614655224149312840e+00 5.788811484408024626e+02
1.614755246154153667e+00 5.789967037414776314e+02
1.614855268158994717e+00 5.791121899350719104e+02
1.614955290163835766e+00 5.792276060725930620e+02
1.615055312168677037e+00 5.793429512047928256e+02
1.615155334173518087e+00 5.794582243821771499e+02
1.615255356178359136e+00 5.795734246550208582e+02
1.615355378183200408e+00 5.796885510733792444e+02
1.615455400188041235e+00 5.798036026870987598e+02
1.615555422192882284e+00 5.799185785458324744e+02
1.615655444197723334e+00 5.800334776990509909e+02
1.615755466202564383e+00 5.801482991960547224e+02
1.615855488207405433e+00 5.802630420859886726e+02
1.615955510212246704e+00 5.803777054178514163e+02
1.616055532217087753e+00 5.804922882405121527e+02
1.616155554221928581e+00 5.806067896027202551e+02
1.616255576226769630e+00 5.807212085531199364e+02
1.616355598231610902e+00 5.808355441402618453e+02
1.616455620236451951e+00 5.809497954126175046e+02
1.616555642241293000e+00 5.810639614185914752e+02
1.616655664246134050e+00 5.811780412065339760e+02
1.616755686250975099e+00 5.812920338247546397e+02
1.616855708255815927e+00 5.814059383215354728e+02
1.616955730260657198e+00 5.815197537451443850e+02
1.617055752265498247e+00 5.816334791438475804e+02
1.617155774270339297e+00 5.817471135659230868e+02
1.617255796275180568e+00 5.818606560596755344e+02
1.617355818280021618e+00 5.819741056734471840e+02
1.617455840284862667e+00 5.820874614556323650e+02
1.617555862289703494e+00 5.822007224546929365e+02
1.617655884294544544e+00 5.823138877191664733e+02
1.617755906299385593e+00 5.824269562976865018e+02
1.617855928304226865e+00 5.825399272389909129e+02
1.617955950309067914e+00 5.826527995919384466e+02
1.618055972313908963e+00 5.827655724055213113e+02
1.618155994318750235e+00 5.828782447288774620e+02
1.618256016323591062e+00 5.829908156113084488e+02
1.618356038328432112e+00 5.831032841022893081e+02
1.618456060333273161e+00 5.832156492514827733e+02
1.618556082338114210e+00 5.833279101087561003e+02
1.618656104342955260e+00 5.834400657241920953e+02
1.618756126347796531e+00 5.835521151481040079e+02
1.618856148352637581e+00 5.836640574310499687e+02
1.618956170357478408e+00 5.837758916238461779e+02
1.619056192362319457e+00 5.838876167775823660e+02
1.619156214367160729e+00 5.839992319436341859e+02
1.619256236372001778e+00 5.841107361736783332e+02
1.619356258376842828e+00 5.842221285197066436e+02
1.619456280381683877e+00 5.843334080340414403e+02
1.619556302386524926e+00 5.844445737693473575e+02
1.619656324391365754e+00 5.845556247786480526e+02
1.619756346396207025e+00 5.846665601153390526e+02
1.619856368401048075e+00 5.847773788332031017e+02
1.619956390405889124e+00 5.848880799864241453e+02
1.620056412410730395e+00 5.849986626296014265e+02
1.620156434415571445e+00 5.851091258177652890e+02
1.620256456420412494e+00 5.852194686063908193e+02
1.620356478425253322e+00 5.853296900514118306e+02
1.620456500430094371e+00 5.854397892092366646e+02
1.620556522434935420e+00 5.855497651367628578e+02
1.620656544439776692e+00 5.856596168913911242e+02
1.620756566444617741e+00 5.857693435310397945e+02
1.620856588449458791e+00 5.858789441141610723e+02
1.620956610454300062e+00 5.859884176997539953e+02
1.621056632459140889e+00 5.860977633473817150e+02
1.621156654463981939e+00 5.862069801171828658e+02
1.621256676468822988e+00 5.863160670698906642e+02
1.621356698473664038e+00 5.864250232668439367e+02
1.621456720478505087e+00 5.865338477700051953e+02
1.621556742483346358e+00 5.866425396419731442e+02
1.621656764488187408e+00 5.867510979460001863e+02
1.621756786493028235e+00 5.868595217460050435e+02
1.621856808497869284e+00 5.869678101065887859e+02
1.621956830502710556e+00 5.870759620930523397e+02
1.622056852507551605e+00 5.871839767714075151e+02
1.622156874512392655e+00 5.872918532083945138e+02
1.622256896517233704e+00 5.873995904714984135e+02
1.622356918522074753e+00 5.875071876289600823e+02
1.622456940526915581e+00 5.876146437497968691e+02
1.622556962531756852e+00 5.877219579038146549e+02
1.622656984536597902e+00 5.878291291616233138e+02
1.622757006541438951e+00 5.879361565946529709e+02
1.622857028546280223e+00 5.880430392751693489e+02
1.622957050551121272e+00 5.881497762762885486e+02
1.623057072555962321e+00 5.882563666719935327e+02
1.623157094560803149e+00 5.883628095371482232e+02
1.623257116565644198e+00 5.884691039475143270e+02
1.623357138570485247e+00 5.885752489797661156e+02
1.623457160575326519e+00 5.886812437115064540e+02
1.623557182580167568e+00 5.887870872212824906e+02
1.623657204585008618e+00 5.888927785885997537e+02
1.623757226589849889e+00 5.889983168939404550e+02
1.623857248594690716e+00 5.891037012187767914e+02
1.623957270599531766e+00 5.892089306455874294e+02
1.624057292604372815e+00 5.893140042578746716e+02
1.624157314609213865e+00 5.894189211401770763e+02
1.624257336614054914e+00 5.895236803780881019e+02
1.624357358618896185e+00 5.896282810582699767e+02
1.624457380623737235e+00 5.897327222684717754e+02
1.624557402628578062e+00 5.898370030975427198e+02
1.624657424633419112e+00 5.899411226354484370e+02
1.624757446638260383e+00 5.900450799732891483e+02
1.624857468643101432e+00 5.901488742033127437e+02
1.624957490647942482e+00 5.902525044189320624e+02
1.625057512652783531e+00 5.903559697147411498e+02
1.625157534657624581e+00 5.904592691865295819e+02
1.625257556662465408e+00 5.905624019313008830e+02
1.625357578667306679e+00 5.906653670472855993e+02
1.625457600672147729e+00 5.907681636339606257e+02
1.625557622676988778e+00 5.908707907920622802e+02
1.625657644681830050e+00 5.909732476236030152e+02
1.625757666686671099e+00 5.910755332318894943e+02
1.625857688691512148e+00 5.911776467215356661e+02
1.625957710696352976e+00 5.912795871984814084e+02
1.626057732701194025e+00 5.913813537700065126e+02
1.626157754706035075e+00 5.914829455447491000e+02
1.626257776710876346e+00 5.915843616327193786e+02
1.626357798715717395e+00 5.916856011453169231e+02
1.626457820720558445e+00 5.917866631953477281e+02
1.626557842725399716e+00 5.918875468970380780e+02
1.626657864730240544e+00 5.919882513660539871e+02
1.626757886735081593e+00 5.920887757195138192e+02
1.626857908739922642e+00 5.921891190760067047e+02
1.626957930744763692e+00 5.922892805556077747e+02
1.627057952749604741e+00 5.923892592798955548e+02
1.627157974754446013e+00 5.924890543719676543e+02
1.627257996759287062e+00 5.925886649564557729e+02
1.627358018764127889e+00 5.926880901595447995e+02
1.627458040768968939e+00 5.927873291089849772e+02
1.627558062773810210e+00 5.928863809341131628e+02
1.627658084778651260e+00 5.929852447658639676e+02
1.627758106783492309e+00 5.930839197367899942e+02
1.627858128788333358e+00 5.931824049810766155e+02
1.627958150793174408e+00 5.932806996345578909e+02
1.628058172798015235e+00 5.933788028347338468e+02
1.628158194802856507e+00 5.934767137207863925e+02
1.628258216807697556e+00 5.935744314335943272e+02
1.628358238812538605e+00 5.936719551157530077e+02
1.628458260817379877e+00 5.937692839115861716e+02
1.628558282822220926e+00 5.938664169671662876e+02
1.628658304827061976e+00 5.939633534303293345e+02
1.628758326831902803e+00 5.940600924506899219e+02
1.628858348836743852e+00 5.941566331796597069e+02
1.628958370841584902e+00 5.942529747704633110e+02
1.629058392846426173e+00 5.943491163781526438e+02
1.629158414851267223e+00 5.944450571596261170e+02
1.629258436856108272e+00 5.945407962736428544e+02
1.629358458860949543e+00 5.946363328808402002e+02
1.629458480865790371e+00 5.947316661437506582e+02
1.629558502870631420e+00 5.948267952268155341e+02
1.629658524875472470e+00 5.949217192964043761e+02
1.629758546880313519e+00 5.950164375208298679e+02
1.629858568885154568e+00 5.951109490703638585e+02
1.629958590889995840e+00 5.952052531172546423e+02
1.630058612894836667e+00 5.952993488357426486e+02
1.630158634899677716e+00 5.953932354020768116e+02
1.630258656904518766e+00 5.954869119945310558e+02
1.630358678909360037e+00 5.955803777934207801e+02
1.630458700914201087e+00 5.956736319811191152e+02
1.630558722919042136e+00 5.957666737420735217e+02
1.630658744923883186e+00 5.958595022628200013e+02
1.630758766928724013e+00 5.959521167320035602e+02
1.630858788933565062e+00 5.960445163403899187e+02
1.630958810938406334e+00 5.961367002808849520e+02
1.631058832943247383e+00 5.962286677485506061e+02
1.631158854948088432e+00 5.963204179406183130e+02
1.631258876952929704e+00 5.964119500565096814e+02
1.631358898957770753e+00 5.965032632978499123e+02
1.631458920962611581e+00 5.965943568684838283e+02
1.631558942967452630e+00 5.966852299744931543e+02
1.631658964972293679e+00 5.967758818242141388e+02
1.631758986977134729e+00 5.968663116282498322e+02
1.631859008981976000e+00 5.969565185994899821e+02
1.631959030986817050e+00 5.970465019531258122e+02
1.632059052991658099e+00 5.971362609066649156e+02
1.632159074996498926e+00 5.972257946799498995e+02
1.632259097001340198e+00 5.973151024951728232e+02
1.632359119006181247e+00 5.974041835768920237e+02
1.632459141011022297e+00 5.974930371520480321e+02
1.632559163015863346e+00 5.975816624499796035e+02
1.632659185020704395e+00 5.976700587024395190e+02
1.632759207025545667e+00 5.977582251436112983e+02
1.632859229030386494e+00 5.978461610101250017e+02
1.632959251035227544e+00 5.979338655410722367e+02
1.633059273040068593e+00 5.980213379780250307e+02
1.633159295044909864e+00 5.981085775650479945e+02
1.633259317049750914e+00 5.981955835487169679e+02
1.633359339054591963e+00 5.982823551781341394e+02
1.633459361059433013e+00 5.983688917049444171e+02
1.633559383064273840e+00 5.984551923833499814e+02
1.633659405069114889e+00 5.985412564701275642e+02
1.633759427073956161e+00 5.986270832246447071e+02
1.633859449078797210e+00 5.987126719088737445e+02
1.633959471083638260e+00 5.987980217874085156e+02
1.634059493088479531e+00 5.988831321274817583e+02
1.634159515093320580e+00 5.989680021989772740e+02
1.634259537098161408e+00 5.990526312744498227e+02
1.634359559103002457e+00 5.991370186291374011e+02
1.634459581107843507e+00 5.992211635409794326e+02
1.634559603112684556e+00 5.993050652906315463e+02
1.634659625117525827e+00 5.993887231614794473e+02
1.634759647122366877e+00 5.994721364396577883e+02
1.634859669127207926e+00 5.995553044140630163e+02
1.634959691132048754e+00 5.996382263763711080e+02
1.635059713136890025e+00 5.997209016210513255e+02
1.635159735141731074e+00 5.998033294453825874e+02
1.635259757146572124e+00 5.998855091494687031e+02
1.635359779151413173e+00 5.999674400362541746e+02
1.635459801156254223e+00 6.000491214115390903e+02
1.635559823161095494e+00 6.001305525839945858e+02
1.635659845165936321e+00 6.002117328651786465e+02
1.635759867170777371e+00 6.002926615695514556e+02
1.635859889175618420e+00 6.003733380144894909e+02
1.635959911180459692e+00 6.004537615203023506e+02
1.636059933185300741e+00 6.005339314102469643e+02
1.636159955190141790e+00 6.006138470105429406e+02
1.636259977194982840e+00 6.006935076503880282e+02
1.636359999199823667e+00 6.007729126619732369e+02
1.636460021204664717e+00 6.008520613804978439e+02
1.636560043209505988e+00 6.009309531441830359e+02
1.636660065214347037e+00 6.010095872942894175e+02
1.636760087219188087e+00 6.010879631751311081e+02
1.636860109224029358e+00 6.011660801340885882e+02
1.636960131228870408e+00 6.012439375216271173e+02
1.637060153233711235e+00 6.013215346913084431e+02
1.637160175238552284e+00 6.013988709998080822e+02
1.637260197243393334e+00 6.014759458069274842e+02
1.637360219248234383e+00 6.015527584756114265e+02
1.637460241253075655e+00 6.016293083719613151e+02
1.637560263257916704e+00 6.017055948652493953e+02
1.637660285262757753e+00 6.017816173279341001e+02
1.637760307267598581e+00 6.018573751356756247e+02
1.637860329272439852e+00 6.019328676673469545e+02
1.637960351277280902e+00 6.020080943050528504e+02
1.638060373282121951e+00 6.020830544341420136e+02
1.638160395286963000e+00 6.021577474432194776e+02
1.638260417291804050e+00 6.022321727241654798e+02
1.638360439296645321e+00 6.023063296721447841e+02
1.638460461301486148e+00 6.023802176856268034e+02
1.638560483306327198e+00 6.024538361663923070e+02
1.638660505311168247e+00 6.025271845195557034e+02
1.638760527316009519e+00 6.026002621535724302e+02
1.638860549320850568e+00 6.026730684802555515e+02
1.638960571325691618e+00 6.027456029147933805e+02
1.639060593330532667e+00 6.028178648757553901e+02
1.639160615335373494e+00 6.028898537851135870e+02
1.639260637340214544e+00 6.029615690682528566e+02
1.639360659345055815e+00 6.030330101539848329e+02
1.639460681349896864e+00 6.031041764745637010e+02
1.639560703354737914e+00 6.031750674656962019e+02
1.639660725359579185e+00 6.032456825665594806e+02
1.639760747364420235e+00 6.033160212198118870e+02
1.639860769369261062e+00 6.033860828716070728e+02
1.639960791374102111e+00 6.034558669716082022e+02
