2.700048011522765634e+00 5.238475546689795692e+02
2.700148035528526780e+00 5.238303268540081490e+02
2.700248059534287925e+00 5.238130928791399583e+02
2.700348083540049515e+00 5.237958533196829194e+02
2.700448107545811105e+00 5.237786087490055706e+02
2.700548131551572251e+00 5.237613597385163757e+02
2.700648155557333396e+00 5.237441068576447378e+02
2.700748179563094986e+00 5.237268506738153064e+02
2.700848203568856576e+00 5.237095917524320612e+02
2.700948227574617722e+00 5.236923306568543239e+02
2.701048251580378867e+00 5.236750679483780004e+02
2.701148275586140457e+00 5.236578041862135251e+02
2.701248299591902047e+00 5.236405399274675574e+02
2.701348323597663192e+00 5.236232757271217224e+02
2.701448347603424338e+00 5.236060121380120336e+02
2.701548371609185928e+00 5.235887497108105890e+02
2.701648395614947518e+00 5.235714889940049943e+02
2.701748419620708663e+00 5.235542305338789220e+02
2.701848443626469809e+00 5.235369748744927847e+02
2.701948467632231399e+00 5.235197225576654319e+02
2.702048491637992989e+00 5.235024741229534584e+02
2.702148515643754134e+00 5.234852301076333561e+02
2.702248539649515280e+00 5.234679910466833235e+02
2.702348563655277314e+00 5.234507574727633710e+02
2.702448587661038903e+00 5.234335299161966759e+02
2.702548611666800049e+00 5.234163089049545761e+02
2.702648635672561639e+00 5.233990949646345143e+02
2.702748659678322785e+00 5.233818886184444636e+02
2.702848683684084374e+00 5.233646903871831455e+02
2.702948707689845520e+00 5.233475007892258191e+02
2.703048731695607110e+00 5.233303203405026807e+02
2.703148755701368255e+00 5.233131495544862446e+02
2.703248779707129845e+00 5.232959889421698563e+02
2.703348803712890991e+00 5.232788390120527993e+02
2.703448827718652581e+00 5.232617002701246065e+02
2.703548851724413726e+00 5.232445732198460746e+02
2.703648875730175316e+00 5.232274583621351667e+02
2.703748899735936462e+00 5.232103561953485951e+02
2.703848923741698052e+00 5.231932672152672694e+02
2.703948947747459197e+00 5.231761919150802669e+02
2.704048971753220787e+00 5.231591307853690296e+02
2.704148995758981933e+00 5.231420843140904253e+02
2.704249019764743522e+00 5.231250529865642420e+02
2.704349043770504668e+00 5.231080372854540883e+02
2.704449067776266258e+00 5.230910376907570480e+02
2.704549091782027403e+00 5.230740546797840125e+02
2.704649115787788993e+00 5.230570887271500169e+02
2.704749139793550139e+00 5.230401403047546864e+02
2.704849163799311729e+00 5.230232098817707538e+02
2.704949187805072874e+00 5.230062979246306440e+02
2.705049211810834464e+00 5.229894048970104450e+02
2.705149235816595610e+00 5.229725312598175151e+02
2.705249259822357200e+00 5.229556774711762728e+02
2.705349283828118345e+00 5.229388439864150087e+02
2.705449307833879935e+00 5.229220312580516747e+02
2.705549331839641081e+00 5.229052397357837663e+02
2.705649355845402670e+00 5.228884698664724056e+02
2.705749379851163816e+00 5.228717220941302912e+02
2.705849403856925406e+00 5.228549968599093063e+02
2.705949427862686552e+00 5.228382946020906274e+02
2.706049451868448585e+00 5.228216157560689226e+02
2.706149475874210175e+00 5.228049607543418915e+02
2.706249499879971321e+00 5.227883300264995796e+02
2.706349523885732467e+00 5.227717239992110763e+02
2.706449547891494056e+00 5.227551430962155337e+02
2.706549571897255646e+00 5.227385877383070465e+02
2.706649595903016792e+00 5.227220583433280581e+02
2.706749619908777937e+00 5.227055553261557179e+02
2.706849643914539527e+00 5.226890790986926731e+02
2.706949667920301117e+00 5.226726300698550176e+02
2.707049691926062263e+00 5.226562086455646750e+02
2.707149715931823408e+00 5.226398152287370067e+02
2.707249739937584998e+00 5.226234502192713762e+02
2.707349763943346588e+00 5.226071140140428497e+02
2.707449787949107733e+00 5.225908070068917368e+02
2.707549811954868879e+00 5.225745295886134727e+02
2.707649835960630469e+00 5.225582821469521377e+02
2.707749859966392059e+00 5.225420650665885205e+02
2.707849883972153204e+00 5.225258787291336375e+02
2.707949907977914350e+00 5.225097235131187290e+02
2.708049931983675940e+00 5.224935997939895742e+02
2.708149955989437530e+00 5.224775079440943273e+02
2.708249979995198675e+00 5.224614483326788559e+02
2.708350004000959821e+00 5.224454213258788968e+02
2.708450028006721411e+00 5.224294272867105065e+02
2.708550052012483000e+00 5.224134665750646036e+02
2.708650076018244146e+00 5.223975395476990116e+02
2.708750100024005292e+00 5.223816465582319779e+02
2.708850124029766882e+00 5.223657879571351259e+02
2.708950148035528471e+00 5.223499640917274291e+02
2.709050172041289617e+00 5.223341753061686177e+02
2.709150196047050763e+00 5.223184219414529252e+02
2.709250220052812352e+00 5.223027043354023817e+02
2.709350244058573942e+00 5.222870228226634026e+02
2.709450268064335088e+00 5.222713777346996267e+02
2.709550292070096233e+00 5.222557693997864590e+02
2.709650316075857823e+00 5.222401981430065234e+02
2.709750340081619857e+00 5.222246642862455701e+02
2.709850364087381003e+00 5.222091681481849719e+02
2.709950388093142593e+00 5.221937100443005875e+02
2.710050412098903738e+00 5.221782902868569636e+02
2.710150436104665328e+00 5.221629091849017641e+02
2.710250460110426474e+00 5.221475670442655428e+02
2.710350484116188063e+00 5.221322641675549221e+02
2.710450508121949209e+00 5.221170008541482730e+02
2.710550532127710799e+00 5.221017774001974203e+02
2.710650556133471945e+00 5.220865940986191163e+02
2.710750580139233534e+00 5.220714512390950404e+02
2.710850604144994680e+00 5.220563491080686163e+02
2.710950628150756270e+00 5.220412879887412601e+02
2.711050652156517415e+00 5.220262681610734035e+02
2.711150676162279005e+00 5.220112899017782411e+02
2.711250700168040151e+00 5.219963534843226398e+02
2.711350724173801741e+00 5.219814591789246379e+02
2.711450748179562886e+00 5.219666072525519667e+02
2.711550772185324476e+00 5.219517979689210279e+02
2.711650796191085622e+00 5.219370315884955289e+02
2.711750820196847211e+00 5.219223083684858011e+02
2.711850844202608357e+00 5.219076285628477763e+02
2.711950868208369947e+00 5.218929924222838963e+02
2.712050892214131093e+00 5.218784001942402710e+02
2.712150916219892682e+00 5.218638521229100888e+02
2.712250940225653828e+00 5.218493484492302059e+02
2.712350964231415418e+00 5.218348894108845570e+02
2.712450988237176563e+00 5.218204752423025639e+02
2.712551012242938153e+00 5.218061061746610676e+02
2.712651036248699299e+00 5.217917824358848975e+02
2.712751060254460889e+00 5.217775042506484624e+02
2.712851084260222034e+00 5.217632718403762055e+02
2.712951108265983624e+00 5.217490854232448783e+02
2.713051132271744770e+00 5.217349452141863821e+02
2.713151156277506360e+00 5.217208514248874280e+02
2.713251180283267505e+00 5.217068042637924918e+02
2.713351204289029095e+00 5.216928039361082483e+02
2.713451228294791129e+00 5.216788506438030026e+02
2.713551252300552274e+00 5.216649445856126022e+02
2.713651276306313420e+00 5.216510859570403227e+02
2.713751300312075010e+00 5.216372749503624391e+02
2.713851324317836600e+00 5.216235117546311812e+02
2.713951348323597745e+00 5.216097965556776899e+02
2.714051372329358891e+00 5.215961295361156544e+02
2.714151396335120481e+00 5.215825108753462018e+02
2.714251420340882071e+00 5.215689407495619889e+02
2.714351444346643216e+00 5.215554193317507270e+02
2.714451468352404362e+00 5.215419467917005250e+02
2.714551492358165952e+00 5.215285232960053463e+02
2.714651516363927541e+00 5.215151490080684198e+02
2.714751540369688687e+00 5.215018240881083784e+02
2.714851564375449833e+00 5.214885486931648302e+02
2.714951588381211423e+00 5.214753229771037013e+02
2.715051612386973012e+00 5.214621470906228069e+02
2.715151636392734158e+00 5.214490211812578764e+02
2.715251660398495304e+00 5.214359453933898294e+02
2.715351684404256893e+00 5.214229198682497781e+02
2.715451708410018483e+00 5.214099447439260757e+02
2.715551732415779629e+00 5.213970201553710240e+02
2.715651756421540775e+00 5.213841462344089450e+02
2.715751780427302364e+00 5.213713231097415246e+02
2.715851804433063954e+00 5.213585509069567934e+02
2.715951828438825100e+00 5.213458297485353796e+02
2.716051852444586245e+00 5.213331597538594906e+02
2.716151876450347835e+00 5.213205410392205295e+02
2.716251900456109425e+00 5.213079737178269397e+02
2.716351924461870571e+00 5.212954578998117086e+02
2.716451948467631716e+00 5.212829936922431671e+02
2.716551972473393306e+00 5.212705811991323799e+02
2.716651996479154896e+00 5.212582205214405349e+02
2.716752020484916041e+00 5.212459117570925855e+02
2.716852044490677187e+00 5.212336550009814573e+02
2.716952068496438777e+00 5.212214503449805534e+02
2.717052092502200367e+00 5.212092978779527357e+02
2.717152116507961956e+00 5.211971976857595337e+02
2.717252140513723546e+00 5.211851498512723992e+02
2.717352164519484692e+00 5.211731544543831660e+02
2.717452188525246282e+00 5.211612115720118936e+02
2.717552212531007427e+00 5.211493212781214197e+02
2.717652236536769017e+00 5.211374836437253180e+02
2.717752260542530163e+00 5.211256987368991531e+02
2.717852284548291752e+00 5.211139666227932139e+02
2.717952308554052898e+00 5.211022873636422901e+02
2.718052332559814488e+00 5.210906610187789738e+02
2.718152356565575634e+00 5.210790876446432094e+02
2.718252380571337223e+00 5.210675672947962767e+02
2.718352404577098369e+00 5.210561000199312502e+02
2.718452428582859959e+00 5.210446858678872104e+02
2.718552452588621104e+00 5.210333248836597022e+02
2.718652476594382694e+00 5.210220171094141506e+02
2.718752500600143840e+00 5.210107625845002985e+02
2.718852524605905430e+00 5.209995613454626664e+02
2.718952548611666575e+00 5.209884134260553310e+02
2.719052572617428165e+00 5.209773188572549998e+02
2.719152596623189311e+00 5.209662776672737436e+02
2.719252620628950901e+00 5.209552898815751405e+02
2.719352644634712046e+00 5.209443555228843934e+02
2.719452668640473636e+00 5.209334746112068615e+02
2.719552692646234782e+00 5.209226471638385192e+02
2.719652716651996371e+00 5.209118731953824408e+02
2.719752740657757517e+00 5.209011527177630114e+02
2.719852764663519107e+00 5.208904857402407060e+02
2.719952788669280253e+00 5.208798722694266417e+02
2.720052812675041842e+00 5.208693123092984933e+02
2.720152836680802988e+00 5.208588058612149325e+02
2.720252860686564578e+00 5.208483529239319978e+02
2.720352884692325723e+00 5.208379534936179880e+02
2.720452908698087313e+00 5.208276075638699467e+02
2.720552932703848459e+00 5.208173151257283280e+02
2.720652956709610049e+00 5.208070761676951861e+02
2.720752980715371194e+00 5.207968906757498644e+02
2.720853004721133228e+00 5.207867586333624104e+02
2.720953028726894374e+00 5.207766800215152898e+02
2.721053052732655964e+00 5.207666548187171429e+02
2.721153076738417553e+00 5.207566830010200647e+02
2.721253100744178699e+00 5.207467645420365443e+02
2.721353124749939845e+00 5.207368994129582234e+02
2.721453148755701434e+00 5.207270875825707890e+02
2.721553172761463024e+00 5.207173290172758016e+02
2.721653196767224170e+00 5.207076236811021772e+02
2.721753220772985316e+00 5.206979715357308578e+02
2.721853244778746905e+00 5.206883725405081123e+02
2.721953268784508495e+00 5.206788266524652045e+02
2.722053292790269641e+00 5.206693338263373789e+02
2.722153316796030786e+00 5.206598940145835286e+02
2.722253340801792376e+00 5.206505071674001783e+02
2.722353364807553966e+00 5.206411732327460413e+02
2.722453388813315112e+00 5.206318921563573667e+02
2.722553412819076257e+00 5.206226638817686307e+02
2.722653436824837847e+00 5.206134883503303854e+02
2.722753460830599437e+00 5.206043655012319959e+02
2.722853484836360582e+00 5.205952952715159654e+02
2.722953508842121728e+00 5.205862775961028319e+02
2.723053532847883318e+00 5.205773124078075398e+02
2.723153556853644908e+00 5.205683996373613809e+02
2.723253580859406053e+00 5.205595392134316626e+02
2.723353604865167199e+00 5.205507310626408071e+02
2.723453628870928789e+00 5.205419751095892025e+02
2.723553652876690379e+00 5.205332712768737338e+02
2.723653676882451524e+00 5.205246194851092696e+02
2.723753700888212670e+00 5.205160196529491259e+02
2.723853724893974260e+00 5.205074716971067801e+02
2.723953748899735849e+00 5.204989755323772442e+02
2.724053772905496995e+00 5.204905310716558233e+02
2.724153796911258141e+00 5.204821382259626716e+02
2.724253820917019731e+00 5.204737969044633701e+02
2.724353844922781320e+00 5.204655070144888214e+02
2.724453868928542466e+00 5.204572684615595790e+02
2.724553892934304500e+00 5.204490811494069931e+02
2.724653916940065645e+00 5.204409449799923095e+02
2.724753940945827235e+00 5.204328598535340689e+02
2.724853964951588381e+00 5.204248256685268643e+02
2.724953988957349971e+00 5.204168423217643067e+02
2.725054012963111116e+00 5.204089097083622164e+02
2.725154036968872706e+00 5.204010277217803377e+02
2.725254060974633852e+00 5.203931962538459857e+02
2.725354084980395442e+00 5.203854151947776927e+02
2.725454108986156587e+00 5.203776844332047631e+02
2.725554132991918177e+00 5.203700038561951260e+02
2.725654156997679323e+00 5.203623733492751171e+02
2.725754181003440912e+00 5.203547927964540349e+02
2.725854205009202058e+00 5.203472620802483561e+02
2.725954229014963648e+00 5.203397810817032223e+02
2.726054253020724794e+00 5.203323496804184742e+02
2.726154277026486383e+00 5.203249677545713894e+02
2.726254301032247529e+00 5.203176351809393054e+02
2.726354325038009119e+00 5.203103518349273600e+02
2.726454349043770264e+00 5.203031175905875898e+02
2.726554373049531854e+00 5.202959323206478075e+02
2.726654397055293000e+00 5.202887958965326334e+02
2.726754421061054590e+00 5.202817081883894161e+02
2.726854445066815735e+00 5.202746690651132440e+02
2.726954469072577325e+00 5.202676783943710461e+02
2.727054493078338471e+00 5.202607360426243304e+02
2.727154517084100060e+00 5.202538418751573772e+02
2.727254541089861206e+00 5.202469957561015690e+02
2.727354565095622796e+00 5.202401975484566492e+02
2.727454589101383942e+00 5.202334471141202812e+02
2.727554613107145531e+00 5.202267443139126044e+02
2.727654637112906677e+00 5.202200890075989719e+02
2.727754661118668267e+00 5.202134810539178034e+02
2.727854685124429412e+00 5.202069203106036639e+02
2.727954709130191002e+00 5.202004066344169360e+02
2.728054733135952148e+00 5.201939398811647379e+02
2.728154757141713738e+00 5.201875199057290047e+02
2.728254781147475327e+00 5.201811465620926356e+02
2.728354805153236917e+00 5.201748197033639372e+02
2.728454829158998507e+00 5.201685391818058406e+02
2.728554853164759653e+00 5.201623048488556833e+02
2.728654877170520798e+00 5.201561165551581780e+02
2.728754901176282388e+00 5.201499741505879228e+02
2.728854925182043978e+00 5.201438774842749808e+02
2.728954949187805124e+00 5.201378264046347795e+02
2.729054973193566269e+00 5.201318207593908483e+02
2.729154997199327859e+00 5.201258603956030129e+02
2.729255021205089449e+00 5.201199451596947938e+02
2.729355045210850594e+00 5.201140748974775079e+02
2.729455069216611740e+00 5.201082494541794858e+02
2.729555093222373330e+00 5.201024686744714245e+02
2.729655117228134920e+00 5.200967324024929894e+02
2.729755141233896065e+00 5.200910404818814641e+02
2.729855165239657211e+00 5.200853927557964198e+02
2.729955189245418801e+00 5.200797890669481376e+02
2.730055213251180390e+00 5.200742292576245518e+02
2.730155237256941536e+00 5.200687131697173982e+02
2.730255261262702682e+00 5.200632406447505218e+02
2.730355285268464272e+00 5.200578115239075032e+02
2.730455309274225861e+00 5.200524256480563281e+02
2.730555333279987007e+00 5.200470828577792872e+02
2.730655357285748153e+00 5.200417829934000338e+02
2.730755381291509742e+00 5.200365258950093903e+02
2.730855405297271332e+00 5.200313114024947936e+02
2.730955429303032478e+00 5.200261393555665563e+02
2.731055453308793624e+00 5.200210095937857204e+02
2.731155477314555213e+00 5.200159219565913418e+02
2.731255501320316803e+00 5.200108762833294804e+02
2.731355525326077949e+00 5.200058724132788939e+02
2.731455549331839094e+00 5.200009101856799134e+02
2.731555573337600684e+00 5.199959894397618427e+02
2.731655597343362274e+00 5.199911100147717207e+02
2.731755621349123420e+00 5.199862717499997871e+02
2.731855645354884565e+00 5.199814744848104056e+02
2.731955669360646599e+00 5.199767180586670747e+02
2.732055693366408189e+00 5.199720023111626688e+02
2.732155717372169335e+00 5.199673270820445623e+02
2.732255741377930924e+00 5.199626922112464626e+02
2.732355765383692070e+00 5.199580975389126252e+02
2.732455789389453660e+00 5.199535429054283213e+02
2.732555813395214805e+00 5.199490281514467824e+02
2.732655837400976395e+00 5.199445531179170530e+02
2.732755861406737541e+00 5.199401176461126397e+02
2.732855885412499131e+00 5.199357215776593648e+02
2.732955909418260276e+00 5.199313647545641288e+02
2.733055933424021866e+00 5.199270470192411722e+02
2.733155957429783012e+00 5.199227682145422023e+02
2.733255981435544602e+00 5.199185281837831099e+02
2.733356005441305747e+00 5.199143267707736413e+02
2.733456029447067337e+00 5.199101638198433193e+02
2.733556053452828483e+00 5.199060391758708874e+02
2.733656077458590072e+00 5.199019526843144376e+02
2.733756101464351218e+00 5.198979041912348293e+02
2.733856125470112808e+00 5.198938935433285451e+02
2.733956149475873953e+00 5.198899205879525880e+02
2.734056173481635543e+00 5.198859851731546087e+02
2.734156197487396689e+00 5.198820871476996217e+02
2.734256221493158279e+00 5.198782263610996779e+02
2.734356245498919424e+00 5.198744026636413764e+02
2.734456269504681014e+00 5.198706159064126950e+02
2.734556293510442160e+00 5.198668659413325486e+02
2.734656317516203750e+00 5.198631526211797791e+02
2.734756341521964895e+00 5.198594757996188491e+02
2.734856365527726485e+00 5.198558353312291729e+02
2.734956389533487631e+00 5.198522310715336516e+02
2.735056413539249220e+00 5.198486628770264133e+02
2.735156437545010366e+00 5.198451306051993015e+02
2.735256461550771956e+00 5.198416341145732531e+02
2.735356485556533102e+00 5.198381732647225135e+02
2.735456509562294691e+00 5.198347479163059006e+02
2.735556533568055837e+00 5.198313579310923842e+02
2.735656557573817871e+00 5.198280031719892804e+02
2.735756581579579461e+00 5.198246835030720376e+02
2.735856605585340606e+00 5.198213987896102708e+02
2.735956629591101752e+00 5.198181488980958420e+02
2.736056653596863342e+00 5.198149336962709413e+02
2.736156677602624931e+00 5.198117530531565080e+02
2.736256701608386077e+00 5.198086068390784931e+02
2.736356725614147223e+00 5.198054949256971895e+02
2.736456749619908813e+00 5.198024171860336082e+02
2.736556773625670402e+00 5.197993734944971038e+02
2.736656797631431548e+00 5.197963637269143646e+02
2.736756821637192694e+00 5.197933877605549924e+02
2.736856845642954283e+00 5.197904454741615154e+02
2.736956869648715873e+00 5.197875367479736042e+02
2.737056893654477019e+00 5.197846614637583116e+02
2.737156917660238165e+00 5.197818195048363350e+02
2.737256941665999754e+00 5.197790107561079367e+02
2.737356965671761344e+00 5.197762351040830708e+02
2.737456989677522490e+00 5.197734924369070768e+02
2.737557013683283635e+00 5.197707826443865997e+02
2.737657037689045225e+00 5.197681056180183532e+02
2.737757061694806815e+00 5.197654612510168590e+02
2.737857085700567961e+00 5.197628494383380939e+02
2.737957109706329106e+00 5.197602700767098440e+02
2.738057133712090696e+00 5.197577230646576254e+02
2.738157157717852286e+00 5.197552083025293541e+02
2.738257181723613432e+00 5.197527256925258143e+02
2.738357205729374577e+00 5.197502751387241915e+02
2.738457229735136167e+00 5.197478565471058118e+02
2.738557253740897757e+00 5.197454698255825178e+02
2.738657277746658902e+00 5.197431148840231572e+02
2.738757301752420048e+00 5.197407916342804128e+02
2.738857325758181638e+00 5.197384999902162690e+02
2.738957349763943228e+00 5.197362398677285000e+02
2.739057373769704373e+00 5.197340111847776143e+02
2.739157397775465519e+00 5.197318138614111831e+02
2.739257421781227109e+00 5.197296478197918077e+02
2.739357445786989143e+00 5.197275129842203114e+02
2.739457469792750288e+00 5.197254092811667761e+02
2.739557493798511878e+00 5.197233366392893004e+02
2.739657517804273024e+00 5.197212949894648091e+02
2.739757541810034613e+00 5.197192842648128135e+02
2.739857565815795759e+00 5.197173044007209910e+02
2.739957589821557349e+00 5.197153553348701962e+02
2.740057613827318495e+00 5.197134370072608363e+02
2.740157637833080084e+00 5.197115493602370861e+02
2.740257661838841230e+00 5.197096923385120135e+02
2.740357685844602820e+00 5.197078658891928171e+02
2.740457709850363965e+00 5.197060699618073158e+02
2.740557733856125555e+00 5.197043045083248671e+02
2.740657757861886701e+00 5.197025694831854707e+02
2.740757781867648291e+00 5.197008648433204598e+02
2.740857805873409436e+00 5.196991905481806953e+02
2.740957829879171026e+00 5.196975465597575976e+02
2.741057853884932172e+00 5.196959328426107732e+02
2.741157877890693761e+00 5.196943493638881364e+02
2.741257901896454907e+00 5.196927960933544455e+02
2.741357925902216497e+00 5.196912730034115384e+02
2.741457949907977643e+00 5.196897800691243674e+02
2.741557973913739232e+00 5.196883172682444183e+02
2.741657997919500378e+00 5.196868845812321069e+02
2.741758021925261968e+00 5.196854819912821313e+02
2.741858045931023113e+00 5.196841094843452993e+02
2.741958069936784703e+00 5.196827670491529716e+02
2.742058093942545849e+00 5.196814546772387757e+02
2.742158117948307439e+00 5.196801723629642993e+02
2.742258141954068584e+00 5.196789201035379619e+02
2.742358165959830174e+00 5.196776978990417319e+02
2.742458189965591320e+00 5.196765057524515896e+02
2.742558213971352910e+00 5.196753436696607196e+02
2.742658237977114055e+00 5.196742116595012249e+02
2.742758261982875645e+00 5.196731097337684560e+02
2.742858285988636791e+00 5.196720379072388596e+02
2.742958309994398380e+00 5.196709961976981731e+02
2.743058334000160414e+00 5.196699846259580227e+02
2.743158358005921560e+00 5.196690032158797976e+02
2.743258382011682706e+00 5.196680519943959098e+02
2.743358406017444295e+00 5.196671309915315078e+02
2.743458430023205885e+00 5.196662402404258501e+02
2.743558454028967031e+00 5.196653797773536780e+02
2.743658478034728176e+00 5.196645496417452250e+02
2.743758502040489766e+00 5.196637498762078167e+02
2.743858526046251356e+00 5.196629805265470168e+02
2.743958550052012502e+00 5.196622416417861814e+02
2.744058574057773647e+00 5.196615332741886277e+02
2.744158598063535237e+00 5.196608554792760515e+02
2.744258622069296827e+00 5.196602083158506957e+02
2.744358646075057973e+00 5.196595918460114945e+02
2.744458670080819118e+00 5.196590061351805616e+02
2.744558694086580708e+00 5.196584512521160377e+02
2.744658718092342298e+00 5.196579272689356230e+02
2.744758742098103443e+00 5.196574342611347674e+02
2.744858766103864589e+00 5.196569723076071341e+02
2.744958790109626179e+00 5.196565414906613114e+02
2.745058814115387769e+00 5.196561418960420724e+02
2.745158838121148914e+00 5.196557736129478826e+02
2.745258862126910060e+00 5.196554367340495446e+02
2.745358886132671650e+00 5.196551313555099796e+02
2.745458910138433239e+00 5.196548575769999161e+02
2.745558934144194385e+00 5.196546155017190358e+02
2.745658958149955531e+00 5.196544052364118897e+02
2.745758982155717121e+00 5.196542268913852922e+02
2.745859006161478710e+00 5.196540805805283298e+02
2.745959030167239856e+00 5.196539664213277092e+02
2.746059054173001002e+00 5.196538845348864015e+02
2.746159078178762591e+00 5.196538350459386493e+02
2.746259102184524181e+00 5.196538180828689519e+02
2.746359126190285327e+00 5.196538337777287779e+02
2.746459150196046473e+00 5.196538822662510029e+02
2.746559174201808062e+00 5.196539636878695774e+02
2.746659198207569652e+00 5.196540781857333968e+02
2.746759222213331242e+00 5.196542259067218765e+02
2.746859246219092832e+00 5.196544070014630279e+02
2.746959270224853977e+00 5.196546216243474419e+02
2.747059294230615567e+00 5.196548699335450010e+02
2.747159318236376713e+00 5.196551520910188628e+02
2.747259342242138302e+00 5.196554682625421719e+02
2.747359366247899448e+00 5.196558186177097696e+02
2.747459390253661038e+00 5.196562033299589984e+02
2.747559414259422184e+00 5.196566225765769786e+02
2.747659438265183773e+00 5.196570765387209576e+02
2.747759462270944919e+00 5.196575654014288830e+02
2.747859486276706509e+00 5.196580893536357735e+02
2.747959510282467654e+00 5.196586485881849740e+02
2.748059534288229244e+00 5.196592433018442989e+02
2.748159558293990390e+00 5.196598736953185380e+02
2.748259582299751980e+00 5.196605399732611659e+02
2.748359606305513125e+00 5.196612423442908266e+02
2.748459630311274715e+00 5.196619810210002015e+02
2.748559654317035861e+00 5.196627562199709018e+02
2.748659678322797451e+00 5.196635681617872251e+02
2.748759702328558596e+00 5.196644170710444541e+02
2.748859726334320186e+00 5.196653031763645458e+02
2.748959750340081332e+00 5.196662267104064767e+02
2.749059774345842921e+00 5.196671879098780664e+02
2.749159798351604067e+00 5.196681870155466640e+02
2.749259822357365657e+00 5.196692242722514266e+02
2.749359846363126803e+00 5.196702999289150284e+02
2.749459870368888392e+00 5.196714142385517334e+02
2.749559894374649538e+00 5.196725674582808097e+02
2.749659918380411128e+00 5.196737598493365340e+02
2.749759942386172273e+00 5.196749916770761502e+02
2.749859966391933863e+00 5.196762632109926017e+02
2.749959990397695009e+00 5.196775747247223762e+02
2.750060014403456599e+00 5.196789264960565333e+02
2.750160038409217744e+00 5.196803188069496855e+02
2.750260062414979334e+00 5.196817519435275017e+02
2.750360086420740480e+00 5.196832261960977348e+02
2.750460110426502514e+00 5.196847418591592032e+02
2.750560134432263659e+00 5.196862992314074745e+02
2.750660158438025249e+00 5.196878986157463487e+02
2.750760182443786839e+00 5.196895403192936556e+02
2.750860206449547984e+00 5.196912246533906909e+02
2.750960230455309130e+00 5.196929519336083558e+02
2.751060254461070720e+00 5.196947224797559102e+02
2.751160278466832310e+00 5.196965366158885899e+02
2.751260302472593455e+00 5.196983946703112451e+02
2.751360326478354601e+00 5.197002969755892536e+02
2.751460350484116191e+00 5.197022438685530688e+02
2.751560374489877780e+00 5.197042356903041309e+02
2.751660398495638926e+00 5.197062727862221436e+02
2.751760422501400072e+00 5.197083555059701894e+02
2.751860446507161662e+00 5.197104842035005277e+02
2.751960470512923251e+00 5.197126592370593698e+02
2.752060494518684397e+00 5.197148809691934730e+02
2.752160518524445543e+00 5.197171497667545736e+02
2.752260542530207132e+00 5.197194660009026848e+02
2.752360566535968722e+00 5.197218300471130306e+02
2.752460590541729868e+00 5.197242422851787751e+02
2.752560614547491014e+00 5.197267030992142054e+02
2.752660638553252603e+00 5.197292128776609843e+02
2.752760662559014193e+00 5.197317720132912200e+02
2.752860686564775339e+00 5.197343809032078070e+02
2.752960710570536484e+00 5.197370399488518160e+02
2.753060734576298074e+00 5.197397495560014704e+02
2.753160758582059664e+00 5.197425101347794225e+02
2.753260782587820810e+00 5.197453220996494565e+02
2.753360806593581955e+00 5.197481858694244465e+02
2.753460830599343545e+00 5.197511018672637420e+02
2.753560854605105135e+00 5.197540705206772600e+02
2.753660878610866281e+00 5.197570922615261679e+02
2.753760902616627426e+00 5.197601675260258389e+02
2.753860926622389016e+00 5.197632967547430098e+02
2.753960950628150606e+00 5.197664803926015793e+02
2.754060974633911751e+00 5.197697188888789697e+02
2.754160998639673785e+00 5.197730126972080598e+02
2.754261022645434931e+00 5.197763622755777533e+02
2.754361046651196521e+00 5.197797680863326377e+02
2.754461070656957666e+00 5.197832305961710517e+02
2.754561094662719256e+00 5.197867502761469041e+02
2.754661118668480402e+00 5.197903276016666041e+02
2.754761142674241992e+00 5.197939630524892891e+02
2.754861166680003137e+00 5.197976571127251191e+02
2.754961190685764727e+00 5.198014102708327755e+02
2.755061214691525873e+00 5.198052230196193477e+02
2.755161238697287462e+00 5.198090958562368087e+02
2.755261262703048608e+00 5.198130292821796274e+02
2.755361286708810198e+00 5.198170238032846555e+02
2.755461310714571344e+00 5.198210799297243057e+02
2.755561334720332933e+00 5.198251981760056424e+02
2.755661358726094079e+00 5.198293790609694724e+02
2.755761382731855669e+00 5.198336231077806815e+02
2.755861406737616814e+00 5.198379308439318720e+02
2.755961430743378404e+00 5.198423028012327904e+02
2.756061454749139550e+00 5.198467395158094178e+02
2.756161478754901140e+00 5.198512415281001040e+02
2.756261502760662285e+00 5.198558093828481788e+02
2.756361526766423875e+00 5.198604436290991089e+02
2.756461550772185021e+00 5.198651448201940184e+02
2.756561574777946610e+00 5.198699135137652547e+02
2.756661598783707756e+00 5.198747502717295674e+02
2.756761622789469346e+00 5.198796556602825376e+02
2.756861646795230492e+00 5.198846302498925525e+02
2.756961670800992081e+00 5.198896746152943251e+02
2.757061694806753227e+00 5.198947893354815051e+02
2.757161718812514817e+00 5.198999749937008801e+02
2.757261742818275962e+00 5.199052321774437360e+02
2.757361766824037552e+00 5.199105614784405134e+02
2.757461790829798698e+00 5.199159634926496665e+02
2.757561814835560288e+00 5.199214388202535702e+02
2.757661838841321433e+00 5.199269880656477198e+02
2.757761862847083023e+00 5.199326118374336829e+02
2.757861886852844613e+00 5.199383107484089805e+02
2.757961910858606203e+00 5.199440854155592433e+02
2.758061934864367792e+00 5.199499364600488889e+02
2.758161958870128938e+00 5.199558645072130503e+02
2.758261982875890084e+00 5.199618701865425692e+02
2.758362006881651673e+00 5.199679541316813811e+02
2.758462030887413263e+00 5.199741169804120773e+02
2.758562054893174409e+00 5.199803593746451043e+02
2.758662078898935555e+00 5.199866819604110333e+02
2.758762102904697144e+00 5.199930853878460084e+02
2.758862126910458734e+00 5.199995703111835610e+02
2.758962150916219880e+00 5.200061373887430136e+02
2.759062174921981025e+00 5.200127872829142461e+02
2.759162198927742615e+00 5.200195206601507607e+02
2.759262222933504205e+00 5.200263381909542204e+02
2.759362246939265351e+00 5.200332405498631942e+02
2.759462270945026496e+00 5.200402284154404242e+02
2.759562294950788086e+00 5.200473024702606608e+02
2.759662318956549676e+00 5.200544634008958838e+02
2.759762342962310822e+00 5.200617118979029101e+02
2.759862366968071967e+00 5.200690486558096381e+02
2.759962390973833557e+00 5.200764743731022008e+02
2.760062414979595147e+00 5.200839897522083675e+02
2.760162438985356292e+00 5.200915954994861750e+02
2.760262462991117438e+00 5.200992923252071023e+02
2.760362486996879028e+00 5.201070809435422007e+02
2.760462511002640618e+00 5.201149620725467457e+02
2.760562535008401763e+00 5.201229364341445489e+02
2.760662559014162909e+00 5.201310047541147696e+02
2.760762583019924499e+00 5.201391677620712244e+02
2.760862607025686088e+00 5.201474261914511317e+02
2.760962631031447234e+00 5.201557807794970358e+02
2.761062655037208380e+00 5.201642322672390719e+02
2.761162679042969970e+00 5.201727813994800727e+02
2.761262703048731559e+00 5.201814289247777197e+02
2.761362727054492705e+00 5.201901755954268083e+02
2.761462751060253851e+00 5.201990221674428767e+02
2.761562775066015885e+00 5.202079694005437887e+02
2.761662799071777474e+00 5.202170180581304066e+02
2.761762823077538620e+00 5.202261689072716990e+02
2.761862847083300210e+00 5.202354227186831395e+02
2.761962871089061355e+00 5.202447802667095402e+02
2.762062895094822945e+00 5.202542423293050433e+02
2.762162919100584091e+00 5.202638096880162948e+02
2.762262943106345681e+00 5.202734831279590253e+02
2.762362967112106826e+00 5.202832634378028160e+02
2.762462991117868416e+00 5.202931514097475656e+02
2.762563015123629562e+00 5.203031478395066642e+02
2.762663039129391152e+00 5.203132535262830061e+02
2.762763063135152297e+00 5.203234692727507991e+02
2.762863087140913887e+00 5.203337958850346467e+02
2.762963111146675033e+00 5.203442341726876066e+02
2.763063135152436622e+00 5.203547849486709538e+02
2.763163159158197768e+00 5.203654490293309891e+02
2.763263183163959358e+00 5.203762272343782342e+02
2.763363207169720503e+00 5.203871203868670818e+02
2.763463231175482093e+00 5.203981293131698749e+02
2.763563255181243239e+00 5.204092548429575800e+02
2.763663279187004829e+00 5.204204978091762541e+02
2.763763303192765974e+00 5.204318590480228295e+02
2.763863327198527564e+00 5.204433393989232854e+02
2.763963351204288710e+00 5.204549397045097976e+02
2.764063375210050300e+00 5.204666608105964087e+02
2.764163399215811445e+00 5.204785035661534494e+02
2.764263423221573035e+00 5.204904688232861645e+02
2.764363447227334181e+00 5.205025574372098163e+02
2.764463471233095770e+00 5.205147702662238771e+02
2.764563495238856916e+00 5.205271081716888375e+02
2.764663519244618506e+00 5.205395720179999444e+02
2.764763543250379652e+00 5.205521626725632132e+02
2.764863567256141241e+00 5.205648810057687115e+02
2.764963591261902387e+00 5.205777278909662300e+02
2.765063615267663977e+00 5.205907042044381114e+02
2.765163639273425122e+00 5.206038108253751489e+02
2.765263663279187156e+00 5.206170486358479366e+02
2.765363687284948746e+00 5.206304185207816317e+02
2.765463711290709892e+00 5.206439213679299201e+02
2.765563735296471037e+00 5.206575580678454571e+02
2.765663759302232627e+00 5.206713295138570174e+02
2.765763783307994217e+00 5.206852366020366389e+02
2.765863807313755363e+00 5.206992802311774540e+02
2.765963831319516508e+00 5.207134613027619707e+02
2.766063855325278098e+00 5.207277807209362663e+02
2.766163879331039688e+00 5.207422393924806556e+02
2.766263903336800833e+00 5.207568382267802463e+02
2.766363927342561979e+00 5.207715781358001550e+02
2.766463951348323569e+00 5.207864600340529933e+02
2.766563975354085159e+00 5.208014848385696496e+02
2.766663999359846304e+00 5.208166534688729143e+02
2.766764023365607450e+00 5.208319668469456474e+02
2.766864047371369040e+00 5.208474258972024700e+02
2.766964071377130630e+00 5.208630315464579326e+02
2.767064095382891775e+00 5.208787847238982067e+02
2.767164119388652921e+00 5.208946863610518676e+02
2.767264143394414511e+00 5.209107373917547648e+02
2.767364167400176100e+00 5.209269387521245562e+02
2.767464191405937246e+00 5.209432913805266026e+02
2.767564215411698392e+00 5.209597962175453176e+02
2.767664239417459981e+00 5.209764542059494943e+02
2.767764263423221571e+00 5.209932662906629730e+02
2.767864287428982717e+00 5.210102334187347424e+02
2.767964311434743863e+00 5.210273565393026729e+02
2.768064335440505452e+00 5.210446366035639585e+02
2.768164359446267042e+00 5.210620745647449894e+02
2.768264383452028188e+00 5.210796713780633809e+02
2.768364407457789333e+00 5.210974280007006882e+02
2.768464431463550923e+00 5.211153453917669367e+02
2.768564455469312513e+00 5.211334245122669699e+02
2.768664479475073659e+00 5.211516663250699821e+02
2.768764503480834804e+00 5.211700717948724559e+02
2.768864527486596394e+00 5.211886418881686041e+02
2.768964551492358428e+00 5.212073775732131935e+02
2.769064575498119574e+00 5.212262798199884628e+02
2.769164599503881163e+00 5.212453496001726307e+02
2.769264623509642309e+00 5.212645878871005607e+02
2.769364647515403899e+00 5.212839956557340884e+02
2.769464671521165045e+00 5.213035738826249599e+02
2.769564695526926634e+00 5.213233235458792478e+02
2.769664719532687780e+00 5.213432456251256326e+02
2.769764743538449370e+00 5.213633411014752710e+02
2.769864767544210515e+00 5.213836109574916691e+02
2.769964791549972105e+00 5.214040561771507782e+02
2.770064815555733251e+00 5.214246777458080260e+02
2.770164839561494841e+00 5.214454766501611402e+02
2.770264863567255986e+00 5.214664538782146792e+02
2.770364887573017576e+00 5.214876104192437651e+02
2.770464911578778722e+00 5.215089472637573635e+02
2.770564935584540311e+00 5.215304654034613350e+02
2.770664959590301457e+00 5.215521658312242153e+02
2.770764983596063047e+00 5.215740495410349240e+02
2.770865007601824193e+00 5.215961175279726376e+02
2.770965031607585782e+00 5.216183707881642704e+02
2.771065055613346928e+00 5.216408103187495726e+02
2.771165079619108518e+00 5.216634371178436140e+02
2.771265103624869663e+00 5.216862521844973344e+02
2.771365127630631253e+00 5.217092565186612774e+02
2.771465151636392399e+00 5.217324511211480740e+02
2.771565175642153989e+00 5.217558369935923110e+02
2.771665199647915134e+00 5.217794151384159704e+02
2.771765223653676724e+00 5.218031865587831817e+02
2.771865247659437870e+00 5.218271522585700950e+02
2.771965271665199460e+00 5.218513132423204297e+02
2.772065295670960605e+00 5.218756705152077302e+02
2.772165319676722195e+00 5.219002250829979630e+02
2.772265343682483341e+00 5.219249779520081347e+02
2.772365367688244930e+00 5.219499301290691164e+02
2.772465391694006076e+00 5.219750826214852850e+02
2.772565415699767666e+00 5.220004364369941641e+02
2.772665439705529700e+00 5.220259925837277706e+02
2.772765463711290845e+00 5.220517520701730518e+02
2.772865487717051991e+00 5.220777159051311855e+02
2.772965511722813581e+00 5.221038850976767662e+02
2.773065535728575171e+00 5.221302606571202887e+02
2.773165559734336316e+00 5.221568435929650605e+02
2.773265583740097462e+00 5.221836349148665022e+02
2.773365607745859052e+00 5.222106356325953129e+02
2.773465631751620641e+00 5.222378467559926776e+02
2.773565655757381787e+00 5.222652692949302491e+02
2.773665679763142933e+00 5.222929042592722908e+02
2.773765703768904523e+00 5.223207526588284964e+02
2.773865727774666112e+00 5.223488155033201110e+02
2.773965751780427258e+00 5.223770938023332064e+02
2.774065775786188404e+00 5.224055885652787765e+02
2.774165799791949993e+00 5.224343008013521512e+02
2.774265823797711583e+00 5.224632315194894545e+02
2.774365847803472729e+00 5.224923817283290646e+02
2.774465871809233875e+00 5.225217524361653432e+02
2.774565895814995464e+00 5.225513446509107780e+02
2.774665919820757054e+00 5.225811593800510764e+02
2.774765943826518200e+00 5.226111976306036695e+02
2.774865967832279345e+00 5.226414604090766716e+02
2.774965991838040935e+00 5.226719487214254514e+02
2.775066015843802525e+00 5.227026635730101134e+02
2.775166039849563671e+00 5.227336059685524106e+02
2.775266063855324816e+00 5.227647769120942485e+02
2.775366087861086406e+00 5.227961774069552803e+02
2.775466111866847996e+00 5.228278084556870908e+02
2.775566135872609141e+00 5.228596710600331789e+02
2.775666159878370287e+00 5.228917662208870070e+02
2.775766183884131877e+00 5.229240949382432291e+02
2.775866207889893467e+00 5.229566582111604021e+02
2.775966231895654612e+00 5.229894570377155105e+02
2.776066255901415758e+00 5.230224924149591743e+02
2.776166279907177348e+00 5.230557653388752897e+02
2.776266303912938938e+00 5.230892768043338492e+02
2.776366327918700527e+00 5.231230278050497873e+02
2.776466351924462117e+00 5.231570193335393242e+02
2.776566375930223263e+00 5.231912523810750599e+02
2.776666399935984852e+00 5.232257279376422048e+02
2.776766423941745998e+00 5.232604469918958330e+02
2.776866447947507588e+00 5.232954105311148396e+02
2.776966471953268734e+00 5.233306195411615818e+02
2.777066495959030323e+00 5.233660750064332206e+02
2.777166519964791469e+00 5.234017779098205665e+02
2.777266543970553059e+00 5.234377292326626048e+02
2.777366567976314204e+00 5.234739299547035216e+02
2.777466591982075794e+00 5.235103810540467748e+02
2.777566615987836940e+00 5.235470835071113243e+02
2.777666639993598530e+00 5.235840382885874078e+02
2.777766663999359675e+00 5.236212463713920897e+02
2.777866688005121265e+00 5.236587087266237859e+02
2.777966712010882411e+00 5.236964263235188355e+02
2.778066736016644001e+00 5.237344001294059126e+02
2.778166760022405146e+00 5.237726311096630525e+02
2.778266784028166736e+00 5.238111202276691074e+02
2.778366808033927882e+00 5.238498684447640699e+02
2.778466832039689471e+00 5.238888767201992778e+02
2.778566856045450617e+00 5.239281460110971693e+02
2.778666880051212207e+00 5.239676772724027387e+02
2.778766904056973353e+00 5.240074714568399941e+02
2.778866928062734942e+00 5.240475295148671648e+02
2.778966952068496088e+00 5.240878523946311134e+02
2.779066976074257678e+00 5.241284410419236792e+02
2.779167000080018823e+00 5.241692964001347264e+02
2.779267024085780413e+00 5.242104194102084875e+02
2.779367048091541559e+00 5.242518110105971800e+02
2.779467072097303149e+00 5.242934721372171225e+02
2.779567096103064294e+00 5.243354037234038287e+02
2.779667120108825884e+00 5.243776066998650549e+02
2.779767144114587030e+00 5.244200819946370302e+02
2.779867168120348619e+00 5.244628305330385274e+02
2.779967192126109765e+00 5.245058532376267522e+02
2.780067216131871799e+00 5.245491510281509591e+02
2.780167240137632945e+00 5.245927248215077725e+02
2.780267264143394534e+00 5.246365755316953710e+02
2.780367288149156124e+00 5.246807040697702860e+02
2.780467312154917270e+00 5.247251113437985168e+02
2.780567336160678416e+00 5.247697982588138075e+02
2.780667360166440005e+00 5.248147657167704665e+02
2.780767384172201595e+00 5.248600146164986882e+02
2.780867408177962741e+00 5.249055458536587366e+02
2.780967432183723886e+00 5.249513603206974039e+02
2.781067456189485476e+00 5.249974589068009436e+02
2.781167480195247066e+00 5.250438424978497096e+02
2.781267504201008212e+00 5.250905119763758648e+02
2.781367528206769357e+00 5.251374682215134726e+02
2.781467552212530947e+00 5.251847121089580241e+02
2.781567576218292537e+00 5.252322445109186901e+02
2.781667600224053682e+00 5.252800662960726186e+02
2.781767624229814828e+00 5.253281783295226433e+02
2.781867648235576418e+00 5.253765814727490806e+02
2.781967672241338008e+00 5.254252765835668697e+02
2.782067696247099153e+00 5.254742645160789607e+02
2.782167720252860299e+00 5.255235461206333412e+02
2.782267744258621889e+00 5.255731222437749466e+02
2.782367768264383479e+00 5.256229937282042783e+02
2.782467792270144624e+00 5.256731614127292005e+02
2.782567816275905770e+00 5.257236261322232167e+02
2.782667840281667360e+00 5.257743887175774944e+02
2.782767864287428949e+00 5.258254499956584596e+02
2.782867888293190095e+00 5.258768107892623220e+02
2.782967912298951241e+00 5.259284719170686913e+02
2.783067936304712831e+00 5.259804341936002174e+02
2.783167960310474420e+00 5.260326984291729104e+02
2.783267984316235566e+00 5.260852654298547577e+02
2.783368008321996712e+00 5.261381359974191128e+02
2.783468032327758301e+00 5.261913109293034267e+02
2.783568056333519891e+00 5.262447910185615001e+02
2.783668080339281037e+00 5.262985770538208499e+02
2.783768104345043071e+00 5.263526698192379172e+02
2.783868128350804216e+00 5.264070700944536156e+02
2.783968152356565806e+00 5.264617786545506988e+02
2.784068176362326952e+00 5.265167962700071485e+02
2.784168200368088542e+00 5.265721237066536560e+02
2.784268224373849687e+00 5.266277617256303074e+02
2.784368248379611277e+00 5.266837110833411089e+02
2.784468272385372423e+00 5.267399725314112402e+02
2.784568296391134012e+00 5.267965468166420351e+02
2.784668320396895158e+00 5.268534346809699400e+02
2.784768344402656748e+00 5.269106368614195617e+02
2.784868368408417894e+00 5.269681540900623986e+02
2.784968392414179483e+00 5.270259870939737539e+02
2.785068416419940629e+00 5.270841365951865782e+02
2.785168440425702219e+00 5.271426033106516797e+02
2.785268464431463364e+00 5.272013879521923627e+02
2.785368488437224954e+00 5.272604912264612267e+02
2.785468512442986100e+00 5.273199138348993529e+02
2.785568536448747690e+00 5.273796564736902610e+02
2.785668560454508835e+00 5.274397198337208010e+02
2.785768584460270425e+00 5.275001046005343142e+02
2.785868608466031571e+00 5.275608114542906151e+02
2.785968632471793160e+00 5.276218410697246100e+02
2.786068656477554306e+00 5.276831941160999122e+02
2.786168680483315896e+00 5.277448712571706437e+02
2.786268704489077042e+00 5.278068731511365286e+02
2.786368728494838631e+00 5.278692004506027615e+02
2.786468752500599777e+00 5.279318538025355565e+02
2.786568776506361367e+00 5.279948338482238341e+02
2.786668800512122512e+00 5.280581412232339744e+02
2.786768824517884102e+00 5.281217765573687757e+02
2.786868848523645248e+00 5.281857404746292559e+02
2.786968872529406838e+00 5.282500335931686095e+02
2.787068896535167983e+00 5.283146565252545770e+02
2.787168920540929573e+00 5.283796098772264713e+02
2.787268944546690719e+00 5.284448942494536823e+02
2.787368968552452309e+00 5.285105102362963407e+02
2.787468992558213898e+00 5.285764584260643915e+02
2.787569016563975488e+00 5.286427394009758700e+02
2.787669040569737078e+00 5.287093537371157481e+02
2.787769064575498223e+00 5.287763020043993265e+02
2.787869088581259369e+00 5.288435847665268739e+02
2.787969112587020959e+00 5.289112025809480429e+02
2.788069136592782549e+00 5.289791559988183280e+02
2.788169160598543694e+00 5.290474455649627998e+02
2.788269184604304840e+00 5.291160718178324487e+02
2.788369208610066430e+00 5.291850352894682601e+02
2.788469232615828020e+00 5.292543365054596052e+02
2.788569256621589165e+00 5.293239759849052462e+02
2.788669280627350311e+00 5.293939542403763880e+02
2.788769304633111901e+00 5.294642717778752967e+02
2.788869328638873490e+00 5.295349290967963043e+02
2.788969352644634636e+00 5.296059266898896567e+02
2.789069376650395782e+00 5.296772650432212686e+02
2.789169400656157372e+00 5.297489446361341834e+02
2.789269424661918961e+00 5.298209659412118526e+02
2.789369448667680107e+00 5.298933294242392549e+02
2.789469472673441253e+00 5.299660355441650381e+02
2.789569496679202842e+00 5.300390847530637757e+02
2.789669520684964432e+00 5.301124774960995865e+02
2.789769544690725578e+00 5.301862142114870267e+02
2.789869568696486724e+00 5.302602953304566427e+02
2.789969592702248313e+00 5.303347212772147259e+02
2.790069616708009903e+00 5.304094924689079562e+02
2.790169640713771049e+00 5.304846093155897506e+02
2.790269664719532194e+00 5.305600722201776307e+02
2.790369688725293784e+00 5.306358815784229819e+02
2.790469712731055374e+00 5.307120377788714904e+02
2.790569736736816520e+00 5.307885412028283554e+02
2.790669760742577665e+00 5.308653922243232728e+02
2.790769784748339255e+00 5.309425912100734877e+02
2.790869808754100845e+00 5.310201385194486647e+02
2.790969832759861990e+00 5.310980345044384876e+02
2.791069856765623136e+00 5.311762795096129821e+02
2.791169880771385170e+00 5.312548738720931851e+02
2.791269904777146760e+00 5.313338179215105583e+02
2.791369928782907905e+00 5.314131119799793623e+02
2.791469952788669495e+00 5.314927563620573210e+02
2.791569976794430641e+00 5.315727513747129933e+02
2.791670000800192231e+00 5.316530973172934864e+02
2.791770024805953376e+00 5.317337944814903494e+02
2.791870048811714966e+00 5.318148431513056948e+02
2.791970072817476112e+00 5.318962436030177514e+02
2.792070096823237701e+00 5.319779961051522150e+02
2.792170120828998847e+00 5.320601009184456416e+02
2.792270144834760437e+00 5.321425582958132736e+02
2.792370168840521583e+00 5.322253684823189133e+02
2.792470192846283172e+00 5.323085317151414984e+02
2.792570216852044318e+00 5.323920482235436111e+02
2.792670240857805908e+00 5.324759182288393049e+02
2.792770264863567053e+00 5.325601419443644318e+02
2.792870288869328643e+00 5.326447195754431050e+02
2.792970312875089789e+00 5.327296513193574583e+02
2.793070336880851379e+00 5.328149373653187695e+02
2.793170360886612524e+00 5.329005778944358553e+02
2.793270384892374114e+00 5.329865730796824437e+02
2.793370408898135260e+00 5.330729230858709116e+02
2.793470432903896850e+00 5.331596280696215899e+02
2.793570456909657995e+00 5.332466881793309312e+02
2.793670480915419585e+00 5.333341035551442246e+02
2.793770504921180731e+00 5.334218743289266058e+02
2.793870528926942320e+00 5.335100006242331574e+02
2.793970552932703466e+00 5.335984825562809419e+02
2.794070576938465056e+00 5.336873202319213760e+02
2.794170600944226202e+00 5.337765137496095349e+02
2.794270624949987791e+00 5.338660631993797097e+02
2.794370648955748937e+00 5.339559686628151667e+02
2.794470672961510527e+00 5.340462302130217722e+02
2.794570696967271672e+00 5.341368479146010486e+02
2.794670720973033262e+00 5.342278218236233442e+02
2.794770744978794408e+00 5.343191519875995255e+02
2.794870768984556442e+00 5.344108384454575571e+02
2.794970792990318031e+00 5.345028812275135124e+02
2.795070816996079177e+00 5.345952803554479260e+02
2.795170841001840323e+00 5.346880358422788504e+02
2.795270865007601913e+00 5.347811476923367309e+02
2.795370889013363502e+00 5.348746159012400767e+02
2.795470913019124648e+00 5.349684404558688584e+02
2.795570937024885794e+00 5.350626213343421114e+02
2.795670961030647383e+00 5.351571585059925837e+02
2.795770985036408973e+00 5.352520519313421801e+02
2.795871009042170119e+00 5.353473015620794513e+02
2.795971033047931265e+00 5.354429073410348110e+02
2.796071057053692854e+00 5.355388692021575707e+02
2.796171081059454444e+00 5.356351870704947942e+02
2.796271105065215590e+00 5.357318608621656040e+02
2.796371129070976735e+00 5.358288904843414002e+02
2.796471153076738325e+00 5.359262758352208493e+02
2.796571177082499915e+00 5.360240168040114668e+02
2.796671201088261061e+00 5.361221132709063113e+02
2.796771225094022206e+00 5.362205651070620434e+02
2.796871249099783796e+00 5.363193721745775520e+02
2.796971273105545386e+00 5.364185343264765606e+02
2.797071297111306531e+00 5.365180514066828437e+02
2.797171321117067677e+00 5.366179232500028320e+02
2.797271345122829267e+00 5.367181496821051496e+02
2.797371369128590857e+00 5.368187305194996952e+02
2.797471393134352002e+00 5.369196655695202480e+02
2.797571417140113148e+00 5.370209546303038906e+02
2.797671441145874738e+00 5.371225974907742966e+02
2.797771465151636328e+00 5.372245939306199034e+02
2.797871489157397473e+00 5.373269437202784502e+02
2.797971513163158619e+00 5.374296466209193568e+02
2.798071537168920209e+00 5.375327023844242831e+02
2.798171561174681798e+00 5.376361107533709855e+02
2.798271585180442944e+00 5.377398714610155821e+02
2.798371609186204090e+00 5.378439842312775454e+02
2.798471633191965680e+00 5.379484487787199214e+02
2.798571657197727713e+00 5.380532648085384153e+02
2.798671681203488859e+00 5.381584320165403597e+02
2.798771705209250449e+00 5.382639500891323223e+02
2.798871729215011595e+00 5.383698187033039630e+02
2.798971753220773184e+00 5.384760375266140500e+02
2.799071777226534330e+00 5.385826062171740887e+02
2.799171801232295920e+00 5.386895244236352482e+02
2.799271825238057065e+00 5.387967917851752873e+02
2.799371849243818655e+00 5.389044079314818418e+02
2.799471873249579801e+00 5.390123724827434444e+02
2.799571897255341391e+00 5.391206850496326979e+02
2.799671921261102536e+00 5.392293452332950210e+02
2.799771945266864126e+00 5.393383526253367108e+02
2.799871969272625272e+00 5.394477068078122102e+02
2.799971993278386861e+00 5.395574073532123975e+02
2.800072017284148007e+00 5.396674538244528776e+02
2.800172041289909597e+00 5.397778457748638630e+02
2.800272065295670743e+00 5.398885827481778961e+02
2.800372089301432332e+00 5.399996642785208678e+02
2.800472113307193478e+00 5.401110898903992847e+02
2.800572137312955068e+00 5.402228590986935615e+02
2.800672161318716213e+00 5.403349714086474478e+02
2.800772185324477803e+00 5.404474263158568874e+02
2.800872209330238949e+00 5.405602233062625146e+02
2.800972233336000539e+00 5.406733618561418098e+02
2.801072257341761684e+00 5.407868414321001183e+02
2.801172281347523274e+00 5.409006614910623512e+02
2.801272305353284420e+00 5.410148214802661641e+02
2.801372329359046010e+00 5.411293208372530898e+02
2.801472353364807155e+00 5.412441589898628536e+02
2.801572377370568745e+00 5.413593353562282573e+02
2.801672401376329891e+00 5.414748493447638111e+02
2.801772425382091480e+00 5.415907003541663016e+02
2.801872449387852626e+00 5.417068877734042189e+02
2.801972473393614216e+00 5.418234109817141189e+02
2.802072497399375361e+00 5.419402693485951659e+02
2.802172521405136951e+00 5.420574622338070867e+02
2.802272545410898985e+00 5.421749889873609618e+02
2.802372569416660131e+00 5.422928489495184294e+02
2.802472593422421276e+00 5.424110414507889573e+02
2.802572617428182866e+00 5.425295658119230211e+02
2.802672641433944456e+00 5.426484213439131281e+02
2.802772665439705602e+00 5.427676073479872230e+02
2.802872689445466747e+00 5.428871231156097110e+02
2.802972713451228337e+00 5.430069679284766835e+02
2.803072737456989927e+00 5.431271410585163721e+02
2.803172761462751073e+00 5.432476417678874441e+02
2.803272785468512218e+00 5.433684693089765005e+02
2.803372809474273808e+00 5.434896229244000097e+02
2.803472833480035398e+00 5.436111018470002136e+02
2.803572857485796543e+00 5.437329052998499037e+02
2.803672881491557689e+00 5.438550324962498053e+02
2.803772905497319279e+00 5.439774826397289189e+02
2.803872929503080869e+00 5.441002549240467943e+02
2.803972953508842014e+00 5.442233485331953489e+02
2.804072977514603160e+00 5.443467626413998914e+02
2.804173001520364750e+00 5.444704964131200313e+02
2.804273025526126339e+00 5.445945490030552492e+02
2.804373049531887485e+00 5.447189195561442148e+02
2.804473073537648631e+00 5.448436072075694483e+02
2.804573097543410221e+00 5.449686110827615266e+02
2.804673121549171810e+00 5.450939302974026077e+02
2.804773145554932956e+00 5.452195639574279085e+02
2.804873169560694102e+00 5.453455111590351407e+02
2.804973193566455691e+00 5.454717709886840566e+02
2.805073217572217281e+00 5.455983425231057709e+02
2.805173241577978427e+00 5.457252248293059438e+02
2.805273265583739573e+00 5.458524169645720576e+02
2.805373289589501162e+00 5.459799179764791006e+02
2.805473313595262752e+00 5.461077269028940009e+02
2.805573337601023898e+00 5.462358427719873362e+02
2.805673361606785043e+00 5.463642646022362896e+02
2.805773385612546633e+00 5.464929914024341997e+02
2.805873409618308223e+00 5.466220221716971537e+02
2.805973433624069813e+00 5.467513558994747882e+02
2.806073457629831402e+00 5.468809915655566556e+02
2.806173481635592548e+00 5.470109281400826831e+02
2.806273505641354138e+00 5.471411645835496529e+02
2.806373529647115284e+00 5.472716998468264364e+02
2.806473553652876873e+00 5.474025328711575185e+02
2.806573577658638019e+00 5.475336625881792543e+02
2.806673601664399609e+00 5.476650879199255542e+02
2.806773625670160754e+00 5.477968077788425489e+02
2.806873649675922344e+00 5.479288210678001860e+02
2.806973673681683490e+00 5.480611266800998465e+02
2.807073697687445080e+00 5.481937234994913979e+02
2.807173721693206225e+00 5.483266104001830854e+02
2.807273745698967815e+00 5.484597862468552876e+02
2.807373769704728961e+00 5.485932498946723399e+02
2.807473793710490551e+00 5.487270001892976552e+02
2.807573817716251696e+00 5.488610359669085028e+02
2.807673841722013286e+00 5.489953560542060131e+02
2.807773865727774432e+00 5.491299592684348454e+02
2.807873889733536021e+00 5.492648444173948974e+02
2.807973913739297167e+00 5.494000102994572217e+02
2.808073937745058757e+00 5.495354557035811922e+02
2.808173961750819903e+00 5.496711794093284880e+02
2.808273985756581492e+00 5.498071801868807142e+02
2.808374009762342638e+00 5.499434567970542957e+02
2.808474033768104228e+00 5.500800079913203717e+02
2.808574057773865373e+00 5.502168325118205985e+02
2.808674081779626963e+00 5.503539290913839750e+02
2.808774105785388109e+00 5.504912964535460560e+02
2.808874129791149699e+00 5.506289333125682788e+02
2.808974153796910844e+00 5.507668383734539930e+02
2.809074177802672434e+00 5.509050103319711980e+02
2.809174201808433580e+00 5.510434478746686864e+02
2.809274225814195169e+00 5.511821496788974173e+02
2.809374249819956315e+00 5.513211144128318892e+02
2.809474273825717905e+00 5.514603407354868523e+02
2.809574297831479051e+00 5.515998272967423190e+02
2.809674321837241084e+00 5.517395727373638010e+02
2.809774345843002230e+00 5.518795756890211806e+02
2.809874369848763820e+00 5.520198347743132672e+02
2.809974393854525410e+00 5.521603486067895119e+02
2.810074417860286555e+00 5.523011157909727444e+02
2.810174441866047701e+00 5.524421349223820243e+02
2.810274465871809291e+00 5.525834045875539005e+02
2.810374489877570880e+00 5.527249233640701505e+02
2.810474513883332026e+00 5.528666898205771076e+02
2.810574537889093172e+00 5.530087025168138553e+02
2.810674561894854762e+00 5.531509600036356460e+02
2.810774585900616351e+00 5.532934608230359572e+02
2.810874609906377497e+00 5.534362035081776412e+02
2.810974633912138643e+00 5.535791865834128203e+02
2.811074657917900232e+00 5.537224085643133549e+02
2.811174681923661822e+00 5.538658679576939221e+02
2.811274705929422968e+00 5.540095632616398689e+02
2.811374729935184114e+00 5.541534929655356336e+02
2.811474753940945703e+00 5.542976555500902123e+02
2.811574777946707293e+00 5.544420494873652387e+02
2.811674801952468439e+00 5.545866732408048847e+02
2.811774825958229584e+00 5.547315252652596200e+02
2.811874849963991174e+00 5.548766040070219105e+02
2.811974873969752764e+00 5.550219079038483869e+02
2.812074897975513910e+00 5.551674353849939507e+02
2.812174921981275055e+00 5.553131848712389456e+02
2.812274945987036645e+00 5.554591547749199663e+02
2.812374969992798235e+00 5.556053434999607816e+02
2.812474993998559381e+00 5.557517494419024615e+02
2.812575018004320526e+00 5.558983709879346407e+02
2.812675042010082116e+00 5.560452065169267826e+02
2.812775066015843706e+00 5.561922543994598982e+02
2.812875090021604851e+00 5.563395129978590603e+02
2.812975114027365997e+00 5.564869806662242127e+02
2.813075138033127587e+00 5.566346557504656403e+02
2.813175162038889177e+00 5.567825365883345512e+02
2.813275186044650322e+00 5.569306215094566141e+02
2.813375210050412356e+00 5.570789088353678835e+02
2.813475234056173502e+00 5.572273968795454948e+02
2.813575258061935092e+00 5.573760839474448403e+02
2.813675282067696237e+00 5.575249683365329929e+02
2.813775306073457827e+00 5.576740483363234944e+02
2.813875330079218973e+00 5.578233222284117119e+02
2.813975354084980562e+00 5.579727882865112178e+02
2.814075378090741708e+00 5.581224447764893739e+02
2.814175402096503298e+00 5.582722899564028012e+02
2.814275426102264444e+00 5.584223220765350106e+02
2.814375450108026033e+00 5.585725393794319871e+02
2.814475474113787179e+00 5.587229400999414111e+02
2.814575498119548769e+00 5.588735224652486977e+02
2.814675522125309914e+00 5.590242846949156501e+02
2.814775546131071504e+00 5.591752250009162708e+02
2.814875570136832650e+00 5.593263415876797353e+02
2.814975594142594240e+00 5.594776326521235887e+02
2.815075618148355385e+00 5.596290963836988794e+02
2.815175642154116975e+00 5.597807309644239240e+02
2.815275666159878121e+00 5.599325345689286451e+02
2.815375690165639710e+00 5.600845053644901554e+02
2.815475714171400856e+00 5.602366415110770959e+02
2.815575738177162446e+00 5.603889411613880611e+02
2.815675762182923592e+00 5.605414024608930958e+02
2.815775786188685181e+00 5.606940235478742807e+02
2.815875810194446327e+00 5.608468025534689332e+02
2.815975834200207917e+00 5.609997376017089437e+02
2.816075858205969062e+00 5.611528268095656813e+02
2.816175882211730652e+00 5.613060682869902394e+02
2.816275906217491798e+00 5.614594601369569773e+02
2.816375930223253388e+00 5.616130004555063806e+02
2.816475954229014533e+00 5.617666873317889440e+02
2.816575978234776123e+00 5.619205188481078039e+02
2.816676002240537269e+00 5.620744930799645545e+02
2.816776026246298859e+00 5.622286080961000607e+02
2.816876050252060004e+00 5.623828619585422075e+02
2.816976074257821594e+00 5.625372527226488728e+02
2.817076098263583184e+00 5.626917784371549942e+02
2.817176122269344773e+00 5.628464371442142919e+02
2.817276146275106363e+00 5.630012268794483816e+02
2.817376170280867509e+00 5.631561456719906573e+02
2.817476194286628655e+00 5.633111915445344948e+02
2.817576218292390244e+00 5.634663625133766800e+02
2.817676242298151834e+00 5.636216565884676584e+02
2.817776266303912980e+00 5.637770717734555319e+02
2.817876290309674125e+00 5.639326060657350581e+02
2.817976314315435715e+00 5.640882574564953984e+02
2.818076338321197305e+00 5.642440239307666161e+02
2.818176362326958451e+00 5.643999034674689028e+02
2.818276386332719596e+00 5.645558940394620322e+02
2.818376410338481186e+00 5.647119936135902662e+02
2.818476434344242776e+00 5.648682001507354471e+02
2.818576458350003922e+00 5.650245116058642907e+02
2.818676482355765067e+00 5.651809259280780680e+02
2.818776506361526657e+00 5.653374410606622860e+02
2.818876530367288247e+00 5.654940549411368238e+02
2.818976554373049392e+00 5.656507655013059548e+02
2.819076578378810538e+00 5.658075706673096192e+02
2.819176602384572128e+00 5.659644683596732193e+02
2.819276626390333718e+00 5.661214564933593465e+02
2.819376650396094863e+00 5.662785329778182586e+02
2.819476674401856009e+00 5.664356957170414262e+02
2.819576698407617599e+00 5.665929426096101906e+02
2.819676722413379188e+00 5.667502715487514706e+02
2.819776746419140334e+00 5.669076804223866475e+02
2.819876770424901480e+00 5.670651671131861349e+02
2.819976794430663070e+00 5.672227294986217885e+02
2.820076818436424659e+00 5.673803654510188608e+02
2.820176842442185805e+00 5.675380728376129582e+02
2.820276866447946951e+00 5.676958495205976760e+02
2.820376890453708540e+00 5.678536933571829195e+02
2.820476914459470130e+00 5.680116021996487916e+02
2.820576938465231276e+00 5.681695738953959562e+02
2.820676962470992422e+00 5.683276062870046417e+02
2.820776986476754455e+00 5.684856972122878460e+02
2.820877010482516045e+00 5.686438445043439742e+02
2.820977034488277191e+00 5.688020459916145910e+02
2.821077058494038781e+00 5.689602994979404684e+02
2.821177082499799926e+00 5.691186028426143366e+02
2.821277106505561516e+00 5.692769538404390914e+02
2.821377130511322662e+00 5.694353503017825915e+02
2.821477154517084251e+00 5.695937900326346153e+02
2.821577178522845397e+00 5.697522708346630225e+02
2.821677202528606987e+00 5.699107905052699152e+02
2.821777226534368133e+00 5.700693468376518922e+02
2.821877250540129722e+00 5.702279376208509802e+02
2.821977274545890868e+00 5.703865606398178443e+02
2.822077298551652458e+00 5.705452136754663570e+02
2.822177322557413603e+00 5.707038945047329435e+02
2.822277346563175193e+00 5.708626009006327422e+02
2.822377370568936339e+00 5.710213306323198594e+02
2.822477394574697929e+00 5.711800814651434166e+02
2.822577418580459074e+00 5.713388511607084865e+02
2.822677442586220664e+00 5.714976374769341874e+02
2.822777466591981810e+00 5.716564381681113218e+02
2.822877490597743400e+00 5.718152509849628586e+02
2.822977514603504545e+00 5.719740736747038454e+02
2.823077538609266135e+00 5.721329039811001849e+02
2.823177562615027281e+00 5.722917396445269560e+02
2.823277586620788870e+00 5.724505784020321926e+02
2.823377610626550016e+00 5.726094179873919074e+02
2.823477634632311606e+00 5.727682561311759173e+02
2.823577658638072752e+00 5.729270905608037765e+02
2.823677682643834341e+00 5.730859190006083281e+02
2.823777706649595487e+00 5.732447391718953895e+02
2.823877730655357077e+00 5.734035487930041199e+02
2.823977754661118222e+00 5.735623455793700032e+02
2.824077778666879812e+00 5.737211272435853289e+02
2.824177802672640958e+00 5.738798914954602424e+02
2.824277826678402548e+00 5.740386360420857272e+02
2.824377850684163693e+00 5.741973585878935182e+02
2.824477874689925727e+00 5.743560568347204480e+02
2.824577898695687317e+00 5.745147284818690423e+02
2.824677922701448463e+00 5.746733712261707296e+02
2.824777946707209608e+00 5.748319827620473461e+02
2.824877970712971198e+00 5.749905607815771873e+02
2.824977994718732788e+00 5.751491029745521928e+02
2.825078018724493933e+00 5.753076070285445667e+02
2.825178042730255079e+00 5.754660706289705558e+02
2.825278066736016669e+00 5.756244914591522956e+02
2.825378090741778259e+00 5.757828672003809061e+02
2.825478114747539404e+00 5.759411955319811796e+02
2.825578138753300550e+00 5.760994741313742225e+02
2.825678162759062140e+00 5.762577006741433934e+02
2.825778186764823730e+00 5.764158728340948983e+02
2.825878210770584875e+00 5.765739882833253205e+02
2.825978234776346021e+00 5.767320446922836936e+02
2.826078258782107611e+00 5.768900397298369853e+02
2.826178282787869200e+00 5.770479710633351260e+02
2.826278306793630346e+00 5.772058363586722862e+02
2.826378330799391492e+00 5.773636332803578171e+02
2.826478354805153081e+00 5.775213594915746853e+02
2.826578378810914671e+00 5.776790126542482540e+02
2.826678402816675817e+00 5.778365904291117658e+02
2.826778426822436963e+00 5.779940904757684166e+02
2.826878450828198552e+00 5.781515104527604763e+02
2.826978474833960142e+00 5.783088480176319308e+02
2.827078498839721288e+00 5.784661008269956710e+02
2.827178522845482433e+00 5.786232665365982939e+02
2.827278546851244023e+00 5.787803428013870644e+02
2.827378570857005613e+00 5.789373272755744892e+02
2.827478594862766759e+00 5.790942176127048242e+02
2.827578618868527904e+00 5.792510114657209215e+02
2.827678642874289494e+00 5.794077064870289178e+02
2.827778666880051084e+00 5.795643003285667874e+02
2.827878690885812230e+00 5.797207906418673247e+02
2.827978714891573375e+00 5.798771750781287437e+02
2.828078738897334965e+00 5.800334512882780018e+02
2.828178762903096999e+00 5.801896169230391251e+02
2.828278786908858144e+00 5.803456696329989200e+02
2.828378810914619734e+00 5.805016070686751846e+02
2.828478834920380880e+00 5.806574268805819656e+02
2.828578858926142470e+00 5.808131267192972018e+02
2.828678882931903615e+00 5.809687042355305948e+02
2.828778906937665205e+00 5.811241570801895477e+02
2.828878930943426351e+00 5.812794829044469225e+02
2.828978954949187941e+00 5.814346793598082286e+02
2.829078978954949086e+00 5.815897440981786986e+02
2.829179002960710676e+00 5.817446747719310451e+02
2.829279026966471822e+00 5.818994690339723093e+02
2.829379050972233411e+00 5.820541245378127542e+02
2.829479074977994557e+00 5.822086389376306670e+02
2.829579098983756147e+00 5.823630098883439814e+02
2.829679122989517293e+00 5.825172350456733739e+02
2.829779146995278882e+00 5.826713120662141137e+02
2.829879171001040028e+00 5.828252386075005234e+02
2.829979195006801618e+00 5.829790123280764647e+02
2.830079219012562763e+00 5.831326308875608220e+02
2.830179243018324353e+00 5.832860919467171925e+02
2.830279267024085499e+00 5.834393931675206204e+02
2.830379291029847089e+00 5.835925322132256952e+02
2.830479315035608234e+00 5.837455067484361280e+02
2.830579339041369824e+00 5.838983144391702353e+02
2.830679363047130970e+00 5.840509529529297197e+02
2.830779387052892559e+00 5.842034199587698140e+02
2.830879411058653705e+00 5.843557131273641971e+02
2.830979435064415295e+00 5.845078301310760480e+02
2.831079459070176441e+00 5.846597686440230746e+02
2.831179483075938030e+00 5.848115263421482268e+02
2.831279507081699176e+00 5.849631009032871134e+02
2.831379531087460766e+00 5.851144900072349628e+02
2.831479555093221911e+00 5.852656913358173369e+02
2.831579579098983501e+00 5.854167025729553870e+02
2.831679603104744647e+00 5.855675214047349755e+02
2.831779627110506237e+00 5.857181455194772752e+02
2.831879651116268271e+00 5.858685726078032303e+02
2.831979675122029416e+00 5.860188003627033595e+02
2.832079699127790562e+00 5.861688264796072190e+02
2.832179723133552152e+00 5.863186486564487723e+02
2.832279747139313741e+00 5.864682645937371035e+02
2.832379771145074887e+00 5.866176719946233789e+02
2.832479795150836033e+00 5.867668685649683766e+02
2.832579819156597623e+00 5.869158520134114951e+02
2.832679843162359212e+00 5.870646200514395332e+02
2.832779867168120358e+00 5.872131703934525149e+02
2.832879891173881504e+00 5.873615007568336068e+02
2.832979915179643093e+00 5.875096088620168757e+02
2.833079939185404683e+00 5.876574924325534539e+02
2.833179963191165829e+00 5.878051491951831622e+02
2.833279987196926974e+00 5.879525768798978334e+02
2.833380011202688564e+00 5.880997732200137307e+02
2.833480035208450154e+00 5.882467359522346442e+02
2.833580059214211300e+00 5.883934628167244227e+02
2.833680083219972445e+00 5.885399515571712072e+02
2.833780107225734035e+00 5.886861999208563248e+02
2.833880131231495625e+00 5.888322056587223869e+02
2.833980155237256771e+00 5.889779665254409338e+02
2.834080179243017916e+00 5.891234802794782581e+02
2.834180203248779506e+00 5.892687446831644138e+02
2.834280227254541096e+00 5.894137575027616549e+02
2.834380251260302241e+00 5.895585165085281005e+02
2.834480275266063387e+00 5.897030194747894711e+02
2.834580299271824977e+00 5.898472641800032079e+02
2.834680323277586567e+00 5.899912484068267986e+02
2.834780347283347712e+00 5.901349699421843980e+02
2.834880371289108858e+00 5.902784265773349262e+02
2.834980395294870448e+00 5.904216161079374388e+02
2.835080419300632038e+00 5.905645363341193388e+02
2.835180443306393183e+00 5.907071850605419741e+02
2.835280467312154329e+00 5.908495600964681671e+02
2.835380491317915919e+00 5.909916592558290631e+02
2.835480515323677508e+00 5.911334803572891587e+02
2.835580539329439098e+00 5.912750212243153101e+02
2.835680563335200688e+00 5.914162796852393740e+02
2.835780587340961834e+00 5.915572535733283530e+02
2.835880611346723423e+00 5.916979407268481737e+02
2.835980635352484569e+00 5.918383389891299657e+02
2.836080659358246159e+00 5.919784462086369103e+02
2.836180683364007304e+00 5.921182602390289276e+02
2.836280707369768894e+00 5.922577789392296381e+02
2.836380731375530040e+00 5.923970001734907100e+02
2.836480755381291630e+00 5.925359218114582518e+02
2.836580779387052775e+00 5.926745417282386370e+02
2.836680803392814365e+00 5.928128578044614869e+02
2.836780827398575511e+00 5.929508679263478825e+02
2.836880851404337101e+00 5.930885699857733471e+02
2.836980875410098246e+00 5.932259618803328749e+02
2.837080899415859836e+00 5.933630415134076657e+02
2.837180923421620982e+00 5.934998067942269699e+02
2.837280947427382571e+00 5.936362556379344824e+02
2.837380971433143717e+00 5.937723859656514378e+02
2.837480995438905307e+00 5.939081957045439140e+02
2.837581019444666453e+00 5.940436827878811528e+02
2.837681043450428042e+00 5.941788451551068420e+02
2.837781067456189188e+00 5.943136807518958449e+02
2.837881091461950778e+00 5.944481875302240041e+02
2.837981115467711923e+00 5.945823634484260083e+02
2.838081139473473513e+00 5.947162064712653091e+02
2.838181163479234659e+00 5.948497145699899420e+02
2.838281187484996249e+00 5.949828857224022158e+02
2.838381211490757394e+00 5.951157179129176029e+02
2.838481235496518984e+00 5.952482091326288582e+02
2.838581259502280130e+00 5.953803573793687747e+02
2.838681283508041719e+00 5.955121606577718012e+02
2.838781307513802865e+00 5.956436169793381623e+02
2.838881331519564455e+00 5.957747243624930888e+02
2.838981355525325601e+00 5.959054808326511647e+02
2.839081379531087190e+00 5.960358844222777179e+02
2.839181403536848336e+00 5.961659331709498701e+02
2.839281427542610370e+00 5.962956251254174731e+02
2.839381451548371516e+00 5.964249583396647267e+02
2.839481475554133105e+00 5.965539308749727070e+02
2.839581499559894695e+00 5.966825407999783693e+02
2.839681523565655841e+00 5.968107861907358256e+02
2.839781547571416986e+00 5.969386651307770535e+02
2.839881571577178576e+00 5.970661757111713541e+02
2.839981595582940166e+00 5.971933160305873116e+02
2.840081619588701312e+00 5.973200841953503186e+02
2.840181643594462457e+00 5.974464783195047630e+02
2.840281667600224047e+00 5.975724965248709850e+02
2.840381691605985637e+00 5.976981369411068954e+02
2.840481715611746782e+00 5.978233977057659558e+02
2.840581739617507928e+00 5.979482769643557276e+02
2.840681763623269518e+00 5.980727728703975572e+02
2.840781787629031108e+00 5.981968835854839881e+02
2.840881811634792253e+00 5.983206072793389012e+02
2.840981835640553399e+00 5.984439421298723119e+02
2.841081859646314989e+00 5.985668863232419881e+02
2.841181883652076579e+00 5.986894380539080203e+02
2.841281907657837724e+00 5.988115955246918247e+02
2.841381931663598870e+00 5.989333569468340102e+02
2.841481955669360460e+00 5.990547205400482653e+02
2.841581979675122049e+00 5.991756845325821814e+02
2.841682003680883195e+00 5.992962471612693207e+02
2.841782027686644341e+00 5.994164066715904937e+02
2.841882051692405931e+00 5.995361613177238951e+02
2.841982075698167520e+00 5.996555093626069493e+02
2.842082099703928666e+00 5.997744490779874695e+02
2.842182123709689812e+00 5.998929787444801605e+02
2.842282147715451401e+00 6.000110966516231201e+02
2.842382171721212991e+00 6.001288010979307046e+02
2.842482195726974137e+00 6.002460903909486660e+02
2.842582219732735282e+00 6.003629628473097455e+02
2.842682243738496872e+00 6.004794167927855142e+02
2.842782267744258462e+00 6.005954505623412842e+02
2.842882291750019608e+00 6.007110625001910194e+02
2.842982315755781642e+00 6.008262509598475845e+02
2.843082339761542787e+00 6.009410143041785659e+02
2.843182363767304377e+00 6.010553509054581127e+02
2.843282387773065523e+00 6.011692591454191188e+02
2.843382411778827112e+00 6.012827374153050641e+02
2.843482435784588258e+00 6.013957841159234476e+02
2.843582459790349848e+00 6.015083976576955820e+02
2.843682483796110994e+00 6.016205764607100264e+02
2.843782507801872583e+00 6.017323189547727225e+02
2.843882531807633729e+00 6.018436235794571303e+02
2.843982555813395319e+00 6.019544887841566378e+02
2.844082579819156464e+00 6.020649130281328780e+02
2.844182603824918054e+00 6.021748947805680245e+02
2.844282627830679200e+00 6.022844325206112899e+02
2.844382651836440790e+00 6.023935247374330402e+02
2.844482675842201935e+00 6.025021699302690195e+02
2.844582699847963525e+00 6.026103666084727593e+02
2.844682723853724671e+00 6.027181132915626449e+02
2.844782747859486260e+00 6.028254085092705736e+02
2.844882771865247406e+00 6.029322508015893618e+02
2.844982795871008996e+00 6.030386387188223125e+02
2.845082819876770142e+00 6.031445708216283492e+02
2.845182843882531731e+00 6.032500456810704463e+02
2.845282867888292877e+00 6.033550618786617861e+02
2.845382891894054467e+00 6.034596180064131659e+02
2.845482915899815612e+00 6.035637126668782457e+02
2.845582939905577202e+00 6.036673444731994778e+02
2.845682963911338348e+00 6.037705120491560820e+02
2.845782987917099938e+00 6.038732140292033819e+02
2.845883011922861083e+00 6.039754490585243047e+02
2.845983035928622673e+00 6.040772157930721278e+02
2.846083059934383819e+00 6.041785128996118601e+02
2.846183083940145409e+00 6.042793390557677640e+02
2.846283107945906554e+00 6.043796929500643955e+02
2.846383131951668144e+00 6.044795732819728755e+02
2.846483155957429290e+00 6.045789787619506797e+02
2.846583179963190879e+00 6.046779081114875680e+02
2.846683203968952469e+00 6.047763600631442387e+02
2.846783227974714059e+00 6.048743333605982571e+02
2.846883251980475649e+00 6.049718267586837328e+02
2.846983275986236794e+00 6.050688390234319058e+02
2.847083299991997940e+00 6.051653689321144611e+02
2.847183323997759530e+00 6.052614152732821822e+02
2.847283348003521120e+00 6.053569768468063330e+02
2.847383372009282265e+00 6.054520524639184487e+02
2.847483396015043411e+00 6.055466409472505802e+02
2.847583420020805001e+00 6.056407411308740620e+02
2.847683444026566590e+00 6.057343518603372559e+02
2.847783468032327736e+00 6.058274719927079559e+02
2.847883492038088882e+00 6.059201003966070402e+02
2.847983516043850472e+00 6.060122359522504212e+02
2.848083540049612061e+00 6.061038775514832651e+02
2.848183564055373207e+00 6.061950240978209195e+02
2.848283588061134353e+00 6.062856745064817687e+02
2.848383612066895942e+00 6.063758277044274791e+02
2.848483636072657532e+00 6.064654826303963091e+02
2.848583660078418678e+00 6.065546382349410806e+02
2.848683684084179824e+00 6.066432934804631714e+02
2.848783708089941413e+00 6.067314473412480993e+02
2.848883732095703003e+00 6.068190988035011060e+02
2.848983756101464149e+00 6.069062468653797850e+02
2.849083780107225294e+00 6.069928905370305756e+02
2.849183804112986884e+00 6.070790288406187756e+02
2.849283828118748474e+00 6.071646608103656035e+02
2.849383852124509620e+00 6.072497854925803722e+02
2.849483876130270765e+00 6.073344019456897058e+02
2.849583900136032355e+00 6.074185092402734654e+02
2.849683924141793945e+00 6.075021064590957849e+02
2.849783948147555090e+00 6.075851926971354260e+02
2.849883972153316236e+00 6.076677670616163596e+02
2.849983996159077826e+00 6.077498286720410761e+02
2.850084020164839416e+00 6.078313766602179840e+02
2.850184044170600561e+00 6.079124101702930147e+02
2.850284068176361707e+00 6.079929283587795226e+02
2.850384092182123741e+00 6.080729303945840911e+02
2.850484116187885331e+00 6.081524154590407534e+02
2.850584140193646476e+00 6.082313827459339564e+02
2.850684164199408066e+00 6.083098314615307345e+02
2.850784188205169212e+00 6.083877608246041291e+02
2.850884212210930801e+00 6.084651700664660439e+02
2.850984236216691947e+00 6.085420584309874812e+02
2.851084260222453537e+00 6.086184251746306018e+02
2.851184284228214683e+00 6.086942695664713483e+02
2.851284308233976272e+00 6.087695908882269578e+02
2.851384332239737418e+00 6.088443884342782439e+02
2.851484356245499008e+00 6.089186615116993835e+02
2.851584380251260153e+00 6.089924094402770152e+02
2.851684404257021743e+00 6.090656315525391165e+02
2.851784428262782889e+00 6.091383271937738755e+02
2.851884452268544479e+00 6.092104957220576580e+02
2.851984476274305624e+00 6.092821365082741067e+02
2.852084500280067214e+00 6.093532489361377884e+02
2.852184524285828360e+00 6.094238324022177267e+02
2.852284548291589950e+00 6.094938863159570701e+02
2.852384572297351095e+00 6.095634100996951474e+02
2.852484596303112685e+00 6.096324031886875900e+02
2.852584620308873831e+00 6.097008650311279325e+02
2.852684644314635420e+00 6.097687950881661436e+02
2.852784668320396566e+00 6.098361928339304541e+02
2.852884692326158156e+00 6.099030577555440686e+02
2.852984716331919302e+00 6.099693893531448339e+02
2.853084740337680891e+00 6.100351871399035417e+02
2.853184764343442037e+00 6.101004506420429152e+02
2.853284788349203627e+00 6.101651793988538657e+02
2.853384812354964772e+00 6.102293729627126595e+02
2.853484836360726362e+00 6.102930308990979711e+02
2.853584860366487508e+00 6.103561527866069127e+02
2.853684884372249098e+00 6.104187382169716329e+02
2.853784908378010243e+00 6.104807867950737545e+02
2.853884932383771833e+00 6.105422981389602910e+02
2.853984956389532979e+00 6.106032718798569476e+02
2.854084980395295013e+00 6.106637076621838105e+02
2.854185004401056602e+00 6.107236051435680793e+02
2.854285028406817748e+00 6.107829639948577096e+02
2.854385052412578894e+00 6.108417839001334642e+02
2.854485076418340483e+00 6.109000645567243737e+02
2.854585100424102073e+00 6.109578056752161501e+02
2.854685124429863219e+00 6.110150069794639194e+02
2.854785148435624365e+00 6.110716682066042722e+02
2.854885172441385954e+00 6.111277891070666328e+02
2.854985196447147544e+00 6.111833694445808760e+02
2.855085220452908690e+00 6.112384089961898326e+02
2.855185244458669835e+00 6.112929075522581570e+02
2.855285268464431425e+00 6.113468649164799444e+02
2.855385292470193015e+00 6.114002809058889625e+02
2.855485316475954161e+00 6.114531553508684283e+02
2.855585340481715306e+00 6.115054880951524865e+02
2.855685364487476896e+00 6.115572789958424664e+02
2.855785388493238486e+00 6.116085279234056316e+02
2.855885412498999631e+00 6.116592347616870029e+02
2.855985436504760777e+00 6.117093994079135655e+02
2.856085460510522367e+00 6.117590217726984747e+02
2.856185484516283957e+00 6.118081017800487871e+02
2.856285508522045102e+00 6.118566393673684161e+02
2.856385532527806248e+00 6.119046344854648396e+02
2.856485556533567838e+00 6.119520870985472811e+02
2.856585580539329428e+00 6.119989971842383056e+02
2.856685604545090573e+00 6.120453647335697269e+02
2.856785628550851719e+00 6.120911897509898836e+02
2.856885652556613309e+00 6.121364722543609105e+02
2.856985676562374898e+00 6.121812122749674927e+02
2.857085700568136044e+00 6.122254098575106127e+02
2.857185724573897190e+00 6.122690650601139168e+02
2.857285748579658780e+00 6.123121779543198500e+02
2.857385772585420369e+00 6.123547486250935208e+02
2.857485796591181515e+00 6.123967771708190639e+02
2.857585820596942661e+00 6.124382637033010042e+02
2.857685844602704250e+00 6.124792083477611868e+02
2.857785868608466284e+00 6.125196112428375272e+02
2.857885892614227430e+00 6.125594725405817371e+02
2.857985916619989020e+00 6.125987924064572780e+02
2.858085940625750165e+00 6.126375710193354962e+02
2.858185964631511755e+00 6.126758085714916433e+02
2.858285988637272901e+00 6.127135052686023755e+02
2.858386012643034491e+00 6.127506613297391596e+02
2.858486036648795636e+00 6.127872769873656580e+02
2.858586060654557226e+00 6.128233524873294300e+02
2.858686084660318372e+00 6.128588880888611357e+02
2.858786108666079961e+00 6.128938840645622577e+02
2.858886132671841107e+00 6.129283407004031687e+02
2.858986156677602697e+00 6.129622582957122177e+02
2.859086180683363843e+00 6.129956371631726597e+02
2.859186204689125432e+00 6.130284776288103785e+02
2.859286228694886578e+00 6.130607800319882017e+02
2.859386252700648168e+00 6.130925447253948732e+02
2.859486276706409313e+00 6.131237720750391418e+02
2.859586300712170903e+00 6.131544624602354361e+02
2.859686324717932049e+00 6.131846162735979533e+02
2.859786348723693639e+00 6.132142339210274713e+02
2.859886372729454784e+00 6.132433158217004348e+02
2.859986396735216374e+00 6.132718624080591781e+02
2.860086420740977520e+00 6.132998741257976008e+02
2.860186444746739109e+00 6.133273514338516179e+02
2.860286468752500255e+00 6.133542948043827892e+02
2.860386492758261845e+00 6.133807047227676321e+02
2.860486516764022991e+00 6.134065816875840937e+02
2.860586540769784580e+00 6.134319262105960888e+02
2.860686564775545726e+00 6.134567388167390618e+02
2.860786588781307316e+00 6.134810200441049801e+02
2.860886612787068461e+00 6.135047704439290328e+02
2.860986636792830051e+00 6.135279905805696217e+02
2.861086660798591197e+00 6.135506810314954009e+02
2.861186684804352787e+00 6.135728423872687927e+02
2.861286708810113932e+00 6.135944752515246137e+02
2.861386732815875522e+00 6.136155802409570015e+02
2.861486756821637556e+00 6.136361579852998602e+02
2.861586780827398702e+00 6.136562091273066244e+02
2.861686804833159847e+00 6.136757343227342290e+02
2.861786828838921437e+00 6.136947342403216226e+02
2.861886852844683027e+00 6.137132095617705545e+02
2.861986876850444173e+00 6.137311609817253384e+02
2.862086900856205318e+00 6.137485892077522749e+02
2.862186924861966908e+00 6.137654949603191881e+02
2.862286948867728498e+00 6.137818789727714375e+02
2.862386972873489643e+00 6.137977419913133872e+02
2.862486996879250789e+00 6.138130847749828263e+02
2.862587020885012379e+00 6.138279080956306188e+02
2.862687044890773969e+00 6.138422127378963751e+02
2.862787068896535114e+00 6.138559994991841222e+02
2.862887092902296260e+00 6.138692691896385440e+02
2.862987116908057850e+00 6.138820226321205382e+02
2.863087140913819439e+00 6.138942606621839104e+02
2.863187164919580585e+00 6.139059841280478622e+02
2.863287188925341731e+00 6.139171938905699335e+02
2.863387212931103321e+00 6.139278908232238336e+02
2.863487236936864910e+00 6.139380758120687460e+02
2.863587260942626056e+00 6.139477497557242032e+02
2.863687284948387202e+00 6.139569135653437115e+02
2.863787308954148791e+00 6.139655681645831464e+02
2.863887332959910381e+00 6.139737144895757410e+02
2.863987356965671527e+00 6.139813534889012772e+02
2.864087380971432673e+00 6.139884861235588005e+02
2.864187404977194262e+00 6.139951133669347882e+02
2.864287428982955852e+00 6.140012362047743864e+02
2.864387452988716998e+00 6.140068556351509415e+02
2.864487476994478143e+00 6.140119726684336001e+02
2.864587501000239733e+00 6.140165883272586598e+02
2.864687525006001323e+00 6.140207036464960311e+02
2.864787549011762469e+00 6.140243196732162687e+02
2.864887573017523614e+00 6.140274374666607855e+02
2.864987597023285204e+00 6.140300580982060410e+02
2.865087621029046794e+00 6.140321826513318229e+02
2.865187645034808384e+00 6.140338122215867998e+02
2.865287669040569973e+00 6.140349479165543016e+02
2.865387693046331119e+00 6.140355908558191231e+02
2.865487717052092709e+00 6.140357421709285290e+02
2.865587741057853854e+00 6.140354030053626957e+02
2.865687765063615444e+00 6.140345745144932152e+02
2.865787789069376590e+00 6.140332578655509224e+02
2.865887813075138180e+00 6.140314542375865585e+02
2.865987837080899325e+00 6.140291648214363249e+02
2.866087861086660915e+00 6.140263908196805005e+02
2.866187885092422061e+00 6.140231334466102453e+02
2.866287909098183651e+00 6.140193939281862185e+02
2.866387933103944796e+00 6.140151735020007209e+02
2.866487957109706386e+00 6.140104734172386998e+02
2.866587981115467532e+00 6.140052949346384139e+02
2.866688005121229121e+00 6.139996393264522112e+02
2.866788029126990267e+00 6.139935078764034415e+02
2.866888053132751857e+00 6.139869018796506452e+02
2.866988077138513002e+00 6.139798226427421923e+02
2.867088101144274592e+00 6.139722714835761508e+02
2.867188125150035738e+00 6.139642497313604963e+02
2.867288149155797328e+00 6.139557587265680922e+02
2.867388173161558473e+00 6.139467998208953077e+02
2.867488197167320063e+00 6.139373743772189300e+02
2.867588221173081209e+00 6.139274837695536462e+02
2.867688245178842799e+00 6.139171293830071363e+02
2.867788269184603944e+00 6.139063126137360769e+02
2.867888293190365534e+00 6.138950348689025986e+02
2.867988317196126680e+00 6.138832975666285847e+02
2.868088341201888269e+00 6.138711021359499682e+02
2.868188365207649415e+00 6.138584500167727356e+02
2.868288389213411005e+00 6.138453426598254055e+02
2.868388413219172151e+00 6.138317815266135540e+02
2.868488437224933740e+00 6.138177680893721799e+02
2.868588461230694886e+00 6.138033038310197753e+02
2.868688485236456476e+00 6.137883902451098947e+02
2.868788509242217621e+00 6.137730288357834070e+02
2.868888533247979655e+00 6.137572211177212012e+02
2.868988557253740801e+00 6.137409686160940510e+02
2.869088581259502391e+00 6.137242728665145250e+02
2.869188605265263980e+00 6.137071354149886702e+02
2.869288629271025126e+00 6.136895578178639425e+02
2.869388653276786272e+00 6.136715416417818005e+02
2.869488677282547862e+00 6.136530884636252949e+02
2.869588701288309451e+00 6.136341998704698426e+02
2.869688725294070597e+00 6.136148774595309305e+02
2.869788749299831743e+00 6.135951228381132978e+02
2.869888773305593332e+00 6.135749376235587533e+02
2.869988797311354922e+00 6.135543234431950168e+02
2.870088821317116068e+00 6.135332819342819448e+02
2.870188845322877214e+00 6.135118147439590075e+02
2.870288869328638803e+00 6.134899235291933337e+02
2.870388893334400393e+00 6.134676099567245728e+02
2.870488917340161539e+00 6.134448757030116894e+02
2.870588941345922684e+00 6.134217224541791893e+02
2.870688965351684274e+00 6.133981519059620950e+02
2.870788989357445864e+00 6.133741657636505806e+02
2.870889013363207010e+00 6.133497657420356290e+02
2.870989037368968155e+00 6.133249535653543489e+02
2.871089061374729745e+00 6.132997309672299480e+02
2.871189085380491335e+00 6.132740996906233022e+02
2.871289109386252481e+00 6.132480614877669041e+02
2.871389133392013626e+00 6.132216181201151812e+02
2.871489157397775216e+00 6.131947713582856068e+02
2.871589181403536806e+00 6.131675229819986725e+02
2.871689205409297951e+00 6.131398747800228648e+02
2.871789229415059097e+00 6.131118285501162291e+02
2.871889253420820687e+00 6.130833860989666846e+02
2.871989277426582277e+00 6.130545492421338167e+02
2.872089301432343422e+00 6.130253198039896461e+02
2.872189325438104568e+00 6.129956996176613302e+02
2.872289349443866158e+00 6.129656905249677266e+02
2.872389373449627747e+00 6.129352943763617532e+02
2.872489397455388893e+00 6.129045130308708167e+02
2.872589421461150927e+00 6.128733483560328068e+02
2.872689445466912073e+00 6.128418022278401622e+02
2.872789469472673662e+00 6.128098765306745008e+02
2.872889493478434808e+00 6.127775731572477298e+02
2.872989517484196398e+00 6.127448940085366758e+02
2.873089541489957544e+00 6.127118409937263550e+02
2.873189565495719133e+00 6.126784160301442625e+02
2.873289589501480279e+00 6.126446210431956843e+02
2.873389613507241869e+00 6.126104579663074219e+02
2.873489637513003014e+00 6.125759287408561704e+02
2.873589661518764604e+00 6.125410353161133798e+02
2.873689685524525750e+00 6.125057796491742010e+02
2.873789709530287340e+00 6.124701637048979137e+02
2.873889733536048485e+00 6.124341894558422155e+02
2.873989757541810075e+00 6.123978588821981930e+02
2.874089781547571221e+00 6.123611739717271121e+02
2.874189805553332810e+00 6.123241367196924330e+02
2.874289829559093956e+00 6.122867491287971689e+02
2.874389853564855546e+00 6.122490132091170381e+02
2.874489877570616692e+00 6.122109309780331614e+02
2.874589901576378281e+00 6.121725044601703303e+02
2.874689925582139427e+00 6.121337356873237923e+02
2.874789949587901017e+00 6.120946266983980877e+02
2.874889973593662162e+00 6.120551795393378143e+02
2.874989997599423752e+00 6.120153962630608930e+02
2.875090021605184898e+00 6.119752789293906972e+02
2.875190045610946488e+00 6.119348296049896589e+02
2.875290069616707633e+00 6.118940503632884429e+02
2.875390093622469223e+00 6.118529432844202347e+02
2.875490117628230369e+00 6.118115104551523018e+02
2.875590141633991959e+00 6.117697539688152801e+02
2.875690165639753104e+00 6.117276759252370084e+02
2.875790189645514694e+00 6.116852784306696549e+02
2.875890213651275840e+00 6.116425635977254842e+02
2.875990237657037429e+00 6.115995335453019379e+02
2.876090261662798575e+00 6.115561903985147865e+02
2.876190285668560165e+00 6.115125362886282119e+02
2.876290309674321755e+00 6.114685733529823892e+02
2.876390333680083344e+00 6.114243037349250471e+02
2.876490357685844934e+00 6.113797295837400725e+02
2.876590381691606080e+00 6.113348530545761150e+02
2.876690405697367225e+00 6.112896763083764426e+02
2.876790429703128815e+00 6.112442015118059544e+02
2.876890453708890405e+00 6.111984308371803536e+02
2.876990477714651551e+00 6.111523664623958894e+02
2.877090501720412696e+00 6.111060105708554602e+02
2.877190525726174286e+00 6.110593653513959680e+02
2.877290549731935876e+00 6.110124329982181735e+02
2.877390573737697022e+00 6.109652157108121173e+02
2.877490597743458167e+00 6.109177156938865210e+02
2.877590621749219757e+00 6.108699351572919340e+02
2.877690645754981347e+00 6.108218763159526361e+02
2.877790669760742492e+00 6.107735413897887611e+02
2.877890693766503638e+00 6.107249326036456978e+02
2.877990717772265228e+00 6.106760521872183745e+02
2.878090741778026818e+00 6.106269023749800908e+02
2.878190765783787963e+00 6.105774854061049837e+02
2.878290789789549109e+00 6.105278035243968588e+02
2.878390813795310699e+00 6.104778589782122253e+02
2.878490837801072288e+00 6.104276540203881041e+02
2.878590861806833434e+00 6.103771909081649483e+02
2.878690885812594580e+00 6.103264719031143386e+02
2.878790909818356170e+00 6.102754992710608803e+02
2.878890933824117759e+00 6.102242752820097849e+02
2.878990957829878905e+00 6.101728022100695625e+02
2.879090981835640051e+00 6.101210823333773305e+02
2.879191005841401640e+00 6.100691179340236658e+02
2.879291029847163230e+00 6.100169112979751844e+02
2.879391053852924376e+00 6.099644647149990533e+02
2.879491077858685522e+00 6.099117804785884118e+02
2.879591101864447111e+00 6.098588608858839279e+02
2.879691125870208701e+00 6.098057082375994469e+02
2.879791149875969847e+00 6.097523248379436609e+02
2.879891173881730992e+00 6.096987129945434845e+02
2.879991197887493026e+00 6.096448750183697030e+02
2.880091221893254616e+00 6.095908132236563688e+02
2.880191245899015762e+00 6.095365299278271323e+02
2.880291269904777351e+00 6.094820274514153198e+02
2.880391293910538497e+00 6.094273081179883320e+02
2.880491317916300087e+00 6.093723742540695412e+02
2.880591341922061233e+00 6.093172281890618933e+02
2.880691365927822822e+00 6.092618722551678729e+02
2.880791389933583968e+00 6.092063087873136737e+02
2.880891413939345558e+00 6.091505401230713233e+02
2.880991437945106703e+00 6.090945686025798977e+02
2.881091461950868293e+00 6.090383965684676468e+02
2.881191485956629439e+00 6.089820263657734358e+02
2.881291509962391029e+00 6.089254603418704619e+02
2.881391533968152174e+00 6.088687008463847405e+02
2.881491557973913764e+00 6.088117502311197313e+02
2.881591581979674910e+00 6.087546108499751654e+02
2.881691605985436500e+00 6.086972850588699657e+02
2.881791629991197645e+00 6.086397752156643719e+02
2.881891653996959235e+00 6.085820836800775169e+02
2.881991678002720381e+00 6.085242128136138717e+02
2.882091702008481970e+00 6.084661649794785490e+02
2.882191726014243116e+00 6.084079425425044292e+02
2.882291750020004706e+00 6.083495478690672371e+02
2.882391774025765852e+00 6.082909833270102808e+02
2.882491798031527441e+00 6.082322512855631658e+02
2.882591822037288587e+00 6.081733541152639191e+02
2.882691846043050177e+00 6.081142941878786132e+02
2.882791870048811322e+00 6.080550738763224672e+02
2.882891894054572912e+00 6.079956955545810615e+02
2.882991918060334058e+00 6.079361615976292796e+02
2.883091942066095648e+00 6.078764743813516134e+02
2.883191966071856793e+00 6.078166362824663338e+02
2.883291990077618383e+00 6.077566496784409082e+02
2.883392014083379529e+00 6.076965169474151480e+02
2.883492038089141118e+00 6.076362404681202634e+02
2.883592062094902264e+00 6.075758226198012153e+02
2.883692086100664298e+00 6.075152657821345201e+02
2.883792110106425888e+00 6.074545723351485549e+02
2.883892134112187033e+00 6.073937446591457956e+02
2.883992158117948179e+00 6.073327851346217585e+02
2.884092182123709769e+00 6.072716961421839414e+02
2.884192206129471359e+00 6.072104800624744030e+02
2.884292230135232504e+00 6.071491392760879080e+02
2.884392254140993650e+00 6.070876761634928016e+02
2.884492278146755240e+00 6.070260931049509736e+02
2.884592302152516829e+00 6.069643924804372546e+02
2.884692326158277975e+00 6.069025766695617676e+02
2.884792350164039121e+00 6.068406480514862551e+02
2.884892374169800711e+00 6.067786090048489314e+02
2.884992398175562300e+00 6.067164619076788767e+02
2.885092422181323446e+00 6.066542091373210042e+02
2.885192446187084592e+00 6.065918530703544320e+02
2.885292470192846181e+00 6.065293960825115391e+02
2.885392494198607771e+00 6.064668405485987250e+02
2.885492518204368917e+00 6.064041888424186482e+02
2.885592542210130063e+00 6.063414433366858702e+02
2.885692566215891652e+00 6.062786064029521640e+02
2.885792590221653242e+00 6.062156804115227260e+02
2.885892614227414388e+00 6.061526677313781875e+02
2.885992638233175533e+00 6.060895707300957156e+02
2.886092662238937123e+00 6.060263917737668180e+02
2.886192686244698713e+00 6.059631332269200357e+02
2.886292710250459859e+00 6.058997974524399979e+02
2.886392734256221004e+00 6.058363868114887509e+02
2.886492758261982594e+00 6.057729036634254953e+02
2.886592782267744184e+00 6.057093503657267775e+02
2.886692806273505330e+00 6.056457292739086142e+02
2.886792830279266475e+00 6.055820427414452070e+02
2.886892854285028065e+00 6.055182931196923164e+02
2.886992878290789655e+00 6.054544827578041577e+02
2.887092902296550800e+00 6.053906140026571165e+02
2.887192926302311946e+00 6.053266891987707368e+02
2.887292950308073536e+00 6.052627106882268890e+02
2.887392974313835570e+00 6.051986808105908722e+02
2.887492998319596715e+00 6.051346019028353567e+02
2.887593022325358305e+00 6.050704762992579617e+02
2.887693046331119451e+00 6.050063063314041756e+02
2.887793070336881041e+00 6.049420943279891389e+02
2.887893094342642186e+00 6.048778426148178369e+02
2.887993118348403776e+00 6.048135535147074506e+02
2.888093142354164922e+00 6.047492293474082317e+02
2.888193166359926511e+00 6.046848724295268767e+02
2.888293190365687657e+00 6.046204850744459236e+02
2.888393214371449247e+00 6.045560695922467858e+02
2.888493238377210393e+00 6.044916282896318762e+02
2.888593262382971982e+00 6.044271634698474145e+02
2.888693286388733128e+00 6.043626774326035047e+02
2.888793310394494718e+00 6.042981724739981928e+02
2.888893334400255863e+00 6.042336508864391362e+02
2.888993358406017453e+00 6.041691149585667517e+02
2.889093382411778599e+00 6.041045669751759988e+02
2.889193406417540189e+00 6.040400092171395272e+02
2.889293430423301334e+00 6.039754439613307113e+02
2.889393454429062924e+00 6.039108734805466838e+02
2.889493478434824070e+00 6.038463000434311425e+02
2.889593502440585659e+00 6.037817259143977253e+02
2.889693526446346805e+00 6.037171533535536128e+02
2.889793550452108395e+00 6.036525846166234714e+02
2.889893574457869541e+00 6.035880219548715786e+02
2.889993598463631130e+00 6.035234676150271298e+02
2.890093622469392276e+00 6.034589238392078414e+02
2.890193646475153866e+00 6.033943928648440078e+02
2.890293670480915011e+00 6.033298769246019901e+02
2.890393694486676601e+00 6.032653782463111156e+02
2.890493718492437747e+00 6.032008990528838694e+02
2.890593742498199337e+00 6.031364415622452952e+02
2.890693766503960482e+00 6.030720079872547785e+02
2.890793790509722072e+00 6.030076005356327187e+02
2.890893814515483218e+00 6.029432214098846998e+02
2.890993838521244808e+00 6.028788728072274807e+02
2.891093862527006841e+00 6.028145569195138478e+02
2.891193886532767987e+00 6.027502759331605375e+02
2.891293910538529133e+00 6.026860320290708160e+02
2.891393934544290722e+00 6.026218273825619463e+02
2.891493958550052312e+00 6.025576641632931114e+02
2.891593982555813458e+00 6.024935445351898124e+02
2.891694006561574604e+00 6.024294706563709951e+02
2.891794030567336193e+00 6.023654446790769725e+02
2.891894054573097783e+00 6.023014687495933686e+02
2.891994078578858929e+00 6.022375450081826784e+02
2.892094102584620074e+00 6.021736755890082122e+02
2.892194126590381664e+00 6.021098626200638364e+02
2.892294150596143254e+00 6.020461082231000773e+02
2.892394174601904400e+00 6.019824145135528397e+02
2.892494198607665545e+00 6.019187836004726933e+02
2.892594222613427135e+00 6.018552175864508627e+02
2.892694246619188725e+00 6.017917185675511291e+02
2.892794270624949871e+00 6.017282886332352518e+02
2.892894294630711016e+00 6.016649298662947558e+02
2.892994318636472606e+00 6.016016443427786271e+02
2.893094342642234196e+00 6.015384341319232817e+02
2.893194366647995341e+00 6.014753012960823071e+02
2.893294390653756487e+00 6.014122478906574543e+02
2.893394414659518077e+00 6.013492759640259919e+02
2.893494438665279667e+00 6.012863875574756776e+02
2.893594462671040812e+00 6.012235847051293831e+02
2.893694486676801958e+00 6.011608694338825671e+02
2.893794510682563548e+00 6.010982437633289237e+02
2.893894534688325137e+00 6.010357097056946714e+02
2.893994558694086283e+00 6.009732692657707958e+02
2.894094582699847429e+00 6.009109244408421091e+02
2.894194606705609019e+00 6.008486772206210844e+02
2.894294630711370608e+00 6.007865295871810076e+02
2.894394654717131754e+00 6.007244835148867423e+02
2.894494678722892900e+00 6.006625409703287914e+02
2.894594702728654489e+00 6.006007039122570177e+02
2.894694726734416079e+00 6.005389742915122042e+02
2.894794750740177669e+00 6.004773540509607983e+02
2.894894774745939259e+00 6.004158451254293141e+02
2.894994798751700404e+00 6.003544494416377120e+02
2.895094822757461994e+00 6.002931689181343700e+02
2.895194846763223140e+00 6.002320054652305998e+02
2.895294870768984730e+00 6.001709609849353910e+02
2.895394894774745875e+00 6.001100373708911775e+02
2.895494918780507465e+00 6.000492365083094910e+02
2.895594942786268611e+00 5.999885602739063870e+02
2.895694966792030201e+00 5.999280105358384390e+02
2.895794990797791346e+00 5.998675891536407789e+02
2.895895014803552936e+00 5.998072979781603635e+02
2.895995038809314082e+00 5.997471388514977662e+02
2.896095062815075671e+00 5.996871136069403292e+02
2.896195086820836817e+00 5.996272240689015689e+02
2.896295110826598407e+00 5.995674720528591024e+02
2.896395134832359552e+00 5.995078593652923473e+02
2.896495158838121142e+00 5.994483878036215856e+02
2.896595182843882288e+00 5.993890591561460042e+02
2.896695206849643878e+00 5.993298752019846916e+02
2.896795230855405023e+00 5.992708377110126321e+02
2.896895254861166613e+00 5.992119484438031805e+02
2.896995278866927759e+00 5.991532091515681486e+02
2.897095302872689349e+00 5.990946215760969835e+02
2.897195326878450494e+00 5.990361874496969676e+02
2.897295350884212084e+00 5.989779084951372852e+02
2.897395374889973230e+00 5.989197864255861532e+02
2.897495398895734819e+00 5.988618229445551151e+02
2.897595422901495965e+00 5.988040197458410603e+02
2.897695446907257555e+00 5.987463785134673344e+02
2.897795470913018701e+00 5.986889009216267823e+02
2.897895494918780290e+00 5.986315886346255866e+02
2.897995518924541436e+00 5.985744433068254011e+02
2.898095542930303026e+00 5.985174665825865077e+02
2.898195566936064171e+00 5.984606600962154062e+02
2.898295590941825761e+00 5.984040254719033101e+02
2.898395614947586907e+00 5.983475643236760106e+02
2.898495638953348941e+00 5.982912782553357829e+02
2.898595662959110086e+00 5.982351688604088622e+02
2.898695686964871676e+00 5.981792377220895105e+02
2.898795710970633266e+00 5.981234864131861286e+02
2.898895734976394412e+00 5.980679164960683920e+02
2.898995758982155557e+00 5.980125295226148410e+02
2.899095782987917147e+00 5.979573270341574016e+02
2.899195806993678737e+00 5.979023105614315909e+02
2.899295830999439882e+00 5.978474816245221746e+02
2.899395855005201028e+00 5.977928417328131445e+02
2.899495879010962618e+00 5.977383923849348548e+02
2.899595903016724208e+00 5.976841350687141130e+02
2.899695927022485353e+00 5.976300712611231347e+02
2.899795951028246499e+00 5.975762024282280436e+02
2.899895975034008089e+00 5.975225300251402132e+02
2.899995999039769679e+00 5.974690554959671545e+02
2.900096023045530824e+00 5.974157802737616976e+02
2.900196047051291970e+00 5.973627057804734477e+02
2.900296071057053560e+00 5.973098334269025145e+02
2.900396095062815149e+00 5.972571646126475571e+02
2.900496119068576295e+00 5.972047007260621285e+02
2.900596143074337441e+00 5.971524431442039713e+02
2.900696167080099030e+00 5.971003932327912480e+02
2.900796191085860620e+00 5.970485523461525190e+02
2.900896215091621766e+00 5.969969218271837690e+02
2.900996239097382912e+00 5.969455030073006583e+02
2.901096263103144501e+00 5.968942972063942989e+02
2.901196287108906091e+00 5.968433057327848701e+02
2.901296311114667237e+00 5.967925298831787586e+02
2.901396335120428382e+00 5.967419709426237659e+02
2.901496359126189972e+00 5.966916301844637474e+02
2.901596383131951562e+00 5.966415088702979119e+02
2.901696407137712708e+00 5.965916082499361437e+02
2.901796431143473853e+00 5.965419295613563690e+02
2.901896455149235443e+00 5.964924740306631747e+02
2.901996479154997033e+00 5.964432428720460848e+02
2.902096503160758179e+00 5.963942372877363596e+02
2.902196527166520212e+00 5.963454584679695927e+02
2.902296551172281358e+00 5.962969075909411458e+02
2.902396575178042948e+00 5.962485858227692006e+02
2.902496599183804094e+00 5.962004943174526943e+02
2.902596623189565683e+00 5.961526342168335759e+02
2.902696647195326829e+00 5.961050066505583800e+02
2.902796671201088419e+00 5.960576127360370720e+02
2.902896695206849564e+00 5.960104535784084874e+02
2.902996719212611154e+00 5.959635302704995183e+02
2.903096743218372300e+00 5.959168438927904390e+02
2.903196767224133890e+00 5.958703955133771615e+02
2.903296791229895035e+00 5.958241861879341741e+02
2.903396815235656625e+00 5.957782169596791846e+02
2.903496839241417771e+00 5.957324888593386731e+02
2.903596863247179360e+00 5.956870029051106030e+02
2.903696887252940506e+00 5.956417601026323609e+02
2.903796911258702096e+00 5.955967614449447183e+02
2.903896935264463242e+00 5.955520079124580661e+02
2.903996959270224831e+00 5.955075004729205830e+02
2.904096983275985977e+00 5.954632400813835602e+02
2.904197007281747567e+00 5.954192276801702519e+02
2.904297031287508712e+00 5.953754641988434742e+02
2.904397055293270302e+00 5.953319505541738863e+02
2.904497079299031448e+00 5.952886876501079314e+02
2.904597103304793038e+00 5.952456763777394144e+02
2.904697127310554183e+00 5.952029176152769878e+02
2.904797151316315773e+00 5.951604122280162983e+02
2.904897175322076919e+00 5.951181610683086092e+02
2.904997199327838509e+00 5.950761649755334020e+02
2.905097223333599654e+00 5.950344247760693861e+02
2.905197247339361244e+00 5.949929412832658500e+02
2.905297271345122390e+00 5.949517152974165128e+02
2.905397295350883979e+00 5.949107476057314443e+02
2.905497319356645125e+00 5.948700389823104615e+02
2.905597343362406715e+00 5.948295901881166401e+02
2.905697367368167860e+00 5.947894019709513032e+02
2.905797391373929450e+00 5.947494750654281006e+02
2.905897415379691040e+00 5.947098101929484528e+02
2.905997439385452630e+00 5.946704080616775627e+02
2.906097463391214220e+00 5.946312693665188363e+02
2.906197487396975365e+00 5.945923947890930776e+02
2.906297511402736511e+00 5.945537849977123415e+02
2.906397535408498101e+00 5.945154406473603785e+02
2.906497559414259690e+00 5.944773623796675110e+02
2.906597583420020836e+00 5.944395508228921017e+02
2.906697607425781982e+00 5.944020065918979299e+02
2.906797631431543572e+00 5.943647302881320229e+02
2.906897655437305161e+00 5.943277224996066934e+02
2.906997679443066307e+00 5.942909838008790757e+02
2.907097703448827453e+00 5.942545147530308896e+02
2.907197727454589042e+00 5.942183159036513871e+02
2.907297751460350632e+00 5.941823877868165482e+02
2.907397775466111778e+00 5.941467309230736191e+02
2.907497799471872924e+00 5.941113458194214445e+02
2.907597823477634513e+00 5.940762329692963704e+02
2.907697847483396103e+00 5.940413928525516667e+02
2.907797871489157249e+00 5.940068259354455904e+02
2.907897895494918394e+00 5.939725326706228543e+02
2.907997919500679984e+00 5.939385134971016669e+02
2.908097943506441574e+00 5.939047688402572476e+02
2.908197967512202720e+00 5.938712991118096625e+02
2.908297991517963865e+00 5.938381047098075669e+02
2.908398015523725455e+00 5.938051860186175190e+02
2.908498039529487045e+00 5.937725434089099963e+02
2.908598063535248190e+00 5.937401772376476856e+02
2.908698087541009336e+00 5.937080878480728643e+02
2.908798111546770926e+00 5.936762755696965996e+02
2.908898135552532516e+00 5.936447407182881761e+02
2.908998159558293661e+00 5.936134835958652047e+02
2.909098183564054807e+00 5.935825044906822541e+02
2.909198207569816397e+00 5.935518036772218693e+02
2.909298231575577987e+00 5.935213814161878645e+02
2.909398255581339132e+00 5.934912379544937266e+02
2.909498279587100278e+00 5.934613735252560218e+02
2.909598303592862312e+00 5.934317883477875739e+02
2.909698327598623901e+00 5.934024826275898477e+02
2.909798351604385047e+00 5.933734565563460137e+02
2.909898375610146637e+00 5.933447103119162875e+02
2.909998399615907783e+00 5.933162440583298576e+02
2.910098423621669372e+00 5.932880579457835211e+02
2.910198447627430518e+00 5.932601521106333848e+02
2.910298471633192108e+00 5.932325266753925916e+02
2.910398495638953253e+00 5.932051817487284779e+02
2.910498519644714843e+00 5.931781174254576854e+02
2.910598543650475989e+00 5.931513337865443418e+02
2.910698567656237579e+00 5.931248308990976739e+02
2.910798591661998724e+00 5.930986088163713248e+02
2.910898615667760314e+00 5.930726675777602850e+02
2.910998639673521460e+00 5.930470072088016877e+02
2.911098663679283050e+00 5.930216277211737861e+02
2.911198687685044195e+00 5.929965291126965212e+02
2.911298711690805785e+00 5.929717113673324320e+02
2.911398735696566931e+00 5.929471744551871097e+02
2.911498759702328520e+00 5.929229183325122676e+02
2.911598783708089666e+00 5.928989429417060819e+02
2.911698807713851256e+00 5.928752482113176256e+02
2.911798831719612402e+00 5.928518340560480056e+02
2.911898855725373991e+00 5.928287003767570695e+02
2.911998879731135137e+00 5.928058470604637478e+02
2.912098903736896727e+00 5.927832739803527602e+02
2.912198927742657872e+00 5.927609809957813241e+02
2.912298951748419462e+00 5.927389679522807455e+02
2.912398975754180608e+00 5.927172346815651736e+02
2.912498999759942198e+00 5.926957810015373980e+02
2.912599023765703343e+00 5.926746067162964664e+02
2.912699047771464933e+00 5.926537116161441645e+02
2.912799071777226079e+00 5.926330954775939972e+02
2.912899095782987668e+00 5.926127580633777825e+02
2.912999119788748814e+00 5.925926991224578160e+02
2.913099143794510404e+00 5.925729183900330099e+02
2.913199167800271550e+00 5.925534155875504894e+02
2.913299191806033583e+00 5.925341904227155965e+02
2.913399215811795173e+00 5.925152425895038277e+02
2.913499239817556319e+00 5.924965717681682236e+02
2.913599263823317465e+00 5.924781776252580130e+02
2.913699287829079054e+00 5.924600598136250937e+02
2.913799311834840644e+00 5.924422179724375610e+02
2.913899335840601790e+00 5.924246517271955099e+02
2.913999359846362935e+00 5.924073606897435411e+02
2.914099383852124525e+00 5.923903444582842894e+02
2.914199407857886115e+00 5.923736026173941127e+02
2.914299431863647261e+00 5.923571347380358247e+02
2.914399455869408406e+00 5.923409403775793862e+02
2.914499479875169996e+00 5.923250190798125914e+02
2.914599503880931586e+00 5.923093703749607357e+02
2.914699527886692731e+00 5.922939937797036691e+02
2.914799551892453877e+00 5.922788887971909162e+02
2.914899575898215467e+00 5.922640549170637314e+02
2.914999599903977057e+00 5.922494916154687417e+02
2.915099623909738202e+00 5.922351983550806835e+02
2.915199647915499348e+00 5.922211745851218438e+02
2.915299671921260938e+00 5.922074197413777483e+02
2.915399695927022528e+00 5.921939332462233097e+02
2.915499719932783673e+00 5.921807145086396531e+02
2.915599743938544819e+00 5.921677629242365128e+02
2.915699767944306409e+00 5.921550778752742872e+02
2.915799791950067998e+00 5.921426587306871170e+02
2.915899815955829144e+00 5.921305048461032356e+02
2.915999839961590290e+00 5.921186155638713444e+02
2.916099863967351880e+00 5.921069902130805076e+02
2.916199887973113469e+00 5.920956281095880058e+02
2.916299911978874615e+00 5.920845285560419597e+02
2.916399935984635761e+00 5.920736908419056590e+02
2.916499959990397350e+00 5.920631142434855292e+02
2.916599983996158940e+00 5.920527980239542103e+02
2.916700008001920086e+00 5.920427414333807974e+02
2.916800032007681232e+00 5.920329437087522138e+02
2.916900056013442821e+00 5.920234040740064074e+02
2.917000080019204855e+00 5.920141217400567939e+02
2.917100104024966001e+00 5.920050959048211325e+02
2.917200128030727591e+00 5.919963257532500620e+02
2.917300152036488736e+00 5.919878104573577957e+02
2.917400176042250326e+00 5.919795491762497477e+02
2.917500200048011472e+00 5.919715410561537965e+02
2.917600224053773061e+00 5.919637852304504122e+02
2.917700248059534207e+00 5.919562808197044887e+02
2.917800272065295797e+00 5.919490269316953572e+02
2.917900296071056943e+00 5.919420226614505509e+02
2.918000320076818532e+00 5.919352670912754775e+02
2.918100344082579678e+00 5.919287592907900262e+02
2.918200368088341268e+00 5.919224983169574443e+02
2.918300392094102413e+00 5.919164832141219676e+02
2.918400416099864003e+00 5.919107130140405388e+02
2.918500440105625149e+00 5.919051867359182779e+02
2.918600464111386739e+00 5.918999033864432704e+02
2.918700488117147884e+00 5.918948619598227197e+02
2.918800512122909474e+00 5.918900614378171667e+02
2.918900536128670620e+00 5.918855007897784617e+02
2.919000560134432209e+00 5.918811789726864845e+02
2.919100584140193355e+00 5.918770949311860932e+02
2.919200608145954945e+00 5.918732475976233900e+02
2.919300632151716091e+00 5.918696358920867624e+02
2.919400656157477680e+00 5.918662587224416711e+02
2.919500680163238826e+00 5.918631149843740786e+02
2.919600704169000416e+00 5.918602035614256920e+02
2.919700728174761561e+00 5.918575233250360270e+02
2.919800752180523151e+00 5.918550731345823124e+02
2.919900776186284297e+00 5.918528518374184841e+02
2.920000800192045887e+00 5.918508582689207742e+02
2.920100824197807032e+00 5.918490912525242038e+02
2.920200848203568622e+00 5.918475495997664666e+02
2.920300872209329768e+00 5.918462321103315844e+02
2.920400896215091358e+00 5.918451375720902661e+02
2.920500920220852503e+00 5.918442647611453822e+02
2.920600944226614093e+00 5.918436124418740292e+02
2.920700968232376127e+00 5.918431793669719809e+02
2.920800992238137272e+00 5.918429642774988224e+02
2.920901016243898418e+00 5.918429659029219465e+02
2.921001040249660008e+00 5.918431829611612329e+02
2.921101064255421598e+00 5.918436141586371377e+02
2.921201088261182743e+00 5.918442581903145765e+02
2.921301112266943889e+00 5.918451137397494222e+02
2.921401136272705479e+00 5.918461794791375041e+02
2.921501160278467069e+00 5.918474540693591734e+02
2.921601184284228214e+00 5.918489361600286429e+02
2.921701208289989360e+00 5.918506243895415082e+02
2.921801232295750950e+00 5.918525173851247700e+02
2.921901256301512539e+00 5.918546137628824226e+02
2.922001280307273685e+00 5.918569121278483181e+02
2.922101304313034831e+00 5.918594110740328915e+02
2.922201328318796421e+00 5.918621091844763669e+02
2.922301352324558010e+00 5.918650050312960502e+02
2.922401376330319156e+00 5.918680971757389671e+02
2.922501400336080302e+00 5.918713841682329075e+02
2.922601424341841891e+00 5.918748645484365625e+02
2.922701448347603481e+00 5.918785368452948887e+02
2.922801472353364627e+00 5.918823995770879947e+02
2.922901496359125773e+00 5.918864512514860508e+02
2.923001520364887362e+00 5.918906903656007898e+02
2.923101544370648952e+00 5.918951154060399631e+02
2.923201568376410098e+00 5.918997248489623644e+02
2.923301592382171243e+00 5.919045171601295579e+02
2.923401616387932833e+00 5.919094907949624940e+02
2.923501640393694423e+00 5.919146441985951697e+02
2.923601664399455569e+00 5.919199758059315855e+02
2.923701688405216714e+00 5.919254840416996331e+02
2.923801712410978304e+00 5.919311673205085071e+02
2.923901736416739894e+00 5.919370240469044120e+02
2.924001760422501039e+00 5.919430526154282006e+02
2.924101784428262185e+00 5.919492514106716499e+02
2.924201808434023775e+00 5.919556188073352132e+02
2.924301832439785365e+00 5.919621531702861148e+02
2.924401856445546954e+00 5.919688528546158750e+02
2.924501880451308544e+00 5.919757162057005644e+02
2.924601904457069690e+00 5.919827415592576472e+02
2.924701928462831280e+00 5.919899272414066900e+02
2.924801952468592425e+00 5.919972715687276832e+02
2.924901976474354015e+00 5.920047728483232277e+02
2.925002000480115161e+00 5.920124293778754918e+02
2.925102024485876751e+00 5.920202394457097625e+02
2.925202048491637896e+00 5.920282013308543583e+02
2.925302072497399486e+00 5.920363133031011103e+02
2.925402096503160632e+00 5.920445736230683451e+02
2.925502120508922221e+00 5.920529805422613663e+02
2.925602144514683367e+00 5.920615323031370281e+02
2.925702168520444957e+00 5.920702271391630802e+02
2.925802192526206102e+00 5.920790632748839926e+02
2.925902216531967692e+00 5.920880389259820049e+02
2.926002240537728838e+00 5.920971522993420422e+02
2.926102264543490428e+00 5.921064015931160611e+02
2.926202288549251573e+00 5.921157849967858056e+02
2.926302312555013163e+00 5.921253006912266983e+02
2.926402336560774309e+00 5.921349468487751437e+02
2.926502360566535899e+00 5.921447216332917378e+02
2.926602384572297044e+00 5.921546232002272063e+02
2.926702408578058634e+00 5.921646496966881159e+02
2.926802432583819780e+00 5.921747992615029261e+02
2.926902456589581369e+00 5.921850700252881552e+02
2.927002480595342515e+00 5.921954601105144320e+02
2.927102504601104105e+00 5.922059676315745946e+02
2.927202528606865251e+00 5.922165906948503107e+02
2.927302552612626840e+00 5.922273273987792663e+02
2.927402576618387986e+00 5.922381758339223552e+02
2.927502600624149576e+00 5.922491340830334821e+02
2.927602624629910721e+00 5.922602002211269792e+02
2.927702648635672311e+00 5.922713723155451362e+02
2.927802672641433457e+00 5.922826484260287998e+02
2.927902696647195047e+00 5.922940266047853584e+02
2.928002720652957080e+00 5.923055048965576361e+02
2.928102744658718226e+00 5.923170813386965392e+02
2.928202768664479372e+00 5.923287539612274486e+02
2.928302792670240962e+00 5.923405207869218430e+02
2.928402816676002551e+00 5.923523798313688076e+02
2.928502840681763697e+00 5.923643291030427918e+02
2.928602864687524843e+00 5.923763666033794379e+02
2.928702888693286432e+00 5.923884903268417474e+02
2.928802912699048022e+00 5.924006982609948864e+02
2.928902936704809168e+00 5.924129883865761030e+02
2.929002960710570314e+00 5.924253586775682834e+02
2.929102984716331903e+00 5.924378071012707778e+02
2.929203008722093493e+00 5.924503316183727293e+02
2.929303032727854639e+00 5.924629301830258328e+02
2.929403056733615784e+00 5.924756007429166402e+02
2.929503080739377374e+00 5.924883412393401159e+02
2.929603104745138964e+00 5.925011496072730779e+02
2.929703128750900110e+00 5.925140237754479813e+02
2.929803152756661255e+00 5.925269616664264731e+02
2.929903176762422845e+00 5.925399611966738576e+02
2.930003200768184435e+00 5.925530202766332195e+02
2.930103224773945580e+00 5.925661368108001170e+02
2.930203248779706726e+00 5.925793086977963640e+02
2.930303272785468316e+00 5.925925338304472234e+02
2.930403296791229906e+00 5.926058100958540535e+02
2.930503320796991051e+00 5.926191353754720694e+02
2.930603344802752197e+00 5.926325075451831026e+02
2.930703368808513787e+00 5.926459244753746134e+02
2.930803392814275377e+00 5.926593840310134738e+02
2.930903416820036522e+00 5.926728840717222511e+02
2.931003440825797668e+00 5.926864224518578794e+02
2.931103464831559258e+00 5.926999970205853288e+02
2.931203488837320847e+00 5.927136056219550255e+02
2.931303512843081993e+00 5.927272460949818651e+02
2.931403536848843139e+00 5.927409162737200177e+02
2.931503560854604729e+00 5.927546139873426227e+02
2.931603584860366318e+00 5.927683370602152308e+02
2.931703608866127908e+00 5.927820833119781128e+02
2.931803632871889498e+00 5.927958505576222024e+02
2.931903656877650644e+00 5.928096366075661763e+02
2.932003680883412233e+00 5.928234392677363758e+02
2.932103704889173379e+00 5.928372563396437727e+02
2.932203728894934969e+00 5.928510856204636639e+02
2.932303752900696114e+00 5.928649249031137742e+02
2.932403776906457704e+00 5.928787719763324731e+02
2.932503800912218850e+00 5.928926246247590370e+02
2.932603824917980440e+00 5.929064806290132310e+02
2.932703848923741585e+00 5.929203377657721603e+02
2.932803872929503175e+00 5.929341938078520116e+02
2.932903896935264321e+00 5.929480465242863829e+02
2.933003920941025910e+00 5.929618936804077975e+02
2.933103944946787056e+00 5.929757330379252380e+02
2.933203968952548646e+00 5.929895623550055461e+02
2.933303992958309792e+00 5.930033793863533447e+02
2.933404016964071381e+00 5.930171818832916415e+02
2.933504040969832527e+00 5.930309675938416376e+02
2.933604064975594117e+00 5.930447342628038996e+02
2.933704088981355262e+00 5.930584796318380540e+02
2.933804112987116852e+00 5.930722014395447559e+02
2.933904136992877998e+00 5.930858974215461785e+02
2.934004160998639588e+00 5.930995653105665042e+02
2.934104185004400733e+00 5.931132028365135511e+02
2.934204209010162323e+00 5.931268077265593774e+02
2.934304233015923469e+00 5.931403777052241821e+02
2.934404257021685059e+00 5.931539104944529299e+02
2.934504281027446204e+00 5.931674038137015259e+02
2.934604305033207794e+00 5.931808553800160553e+02
2.934704329038968940e+00 5.931942629081149789e+02
2.934804353044730529e+00 5.932076241104713290e+02
2.934904377050491675e+00 5.932209366973947908e+02
2.935004401056253265e+00 5.932341983771120795e+02
2.935104425062014410e+00 5.932474068558509543e+02
2.935204449067776000e+00 5.932605598379217327e+02
2.935304473073537146e+00 5.932736550257985755e+02
2.935404497079299180e+00 5.932866901202044119e+02
2.935504521085060325e+00 5.932996628201900648e+02
2.935604545090821915e+00 5.933125708232180386e+02
2.935704569096583505e+00 5.933254118252460785e+02
2.935804593102344651e+00 5.933381835208086841e+02
2.935904617108105796e+00 5.933508836030997600e+02
2.936004641113867386e+00 5.933635097640564027e+02
2.936104665119628976e+00 5.933760596944390500e+02
2.936204689125390122e+00 5.933885310839169733e+02
2.936304713131151267e+00 5.934009216211499051e+02
2.936404737136912857e+00 5.934132289938720533e+02
2.936504761142674447e+00 5.934254508889727049e+02
2.936604785148435592e+00 5.934375849925817192e+02
2.936704809154196738e+00 5.934496289901510409e+02
2.936804833159958328e+00 5.934615805665383732e+02
2.936904857165719918e+00 5.934734374060897153e+02
2.937004881171481063e+00 5.934851971927236036e+02
2.937104905177242209e+00 5.934968576100133077e+02
2.937204929183003799e+00 5.935084163412692533e+02
2.937304953188765388e+00 5.935198710696238322e+02
2.937404977194526534e+00 5.935312194781140533e+02
2.937505001200287680e+00 5.935424592497639651e+02
2.937605025206049270e+00 5.935535880676694660e+02
2.937705049211810859e+00 5.935646036150792497e+02
2.937805073217572005e+00 5.935755035754805249e+02
2.937905097223333151e+00 5.935862856326806423e+02
2.938005121229094740e+00 5.935969474708900862e+02
2.938105145234856330e+00 5.936074867748068300e+02
2.938205169240617476e+00 5.936179012296996689e+02
2.938305193246378622e+00 5.936281885214907561e+02
2.938405217252140211e+00 5.936383463368374578e+02
2.938505241257901801e+00 5.936483723632186411e+02
2.938605265263662947e+00 5.936582642890151646e+02
2.938705289269424092e+00 5.936680198035955982e+02
2.938805313275185682e+00 5.936776365973953489e+02
2.938905337280947272e+00 5.936871123620038588e+02
2.939005361286708418e+00 5.936964447902461188e+02
2.939105385292470451e+00 5.937056315762645227e+02
2.939205409298231597e+00 5.937146704156043597e+02
2.939305433303993187e+00 5.937235590052938505e+02
2.939405457309754333e+00 5.937322950439294118e+02
2.939505481315515922e+00 5.937408762317586479e+02
2.939605505321277068e+00 5.937493002707595906e+02
2.939705529327038658e+00 5.937575648647289199e+02
2.939805553332799803e+00 5.937656677193601809e+02
2.939905577338561393e+00 5.937736065423284799e+02
2.940005601344322539e+00 5.937813790433735903e+02
