2.500050011002420192e+00 5.386874702312547925e+02
2.500150033007261463e+00 5.386672888693691448e+02
2.500250055012102735e+00 5.386470537515006072e+02
2.500350077016943562e+00 5.386267649065803198e+02
2.500450099021784833e+00 5.386064223661071537e+02
2.500550121026625661e+00 5.385860261641605575e+02
2.500650143031466488e+00 5.385655763374078333e+02
2.500750165036307759e+00 5.385450729251107305e+02
2.500850187041148587e+00 5.385245159691367007e+02
2.500950209045989858e+00 5.385039055139677657e+02
2.501050231050831130e+00 5.384832416067062013e+02
2.501150253055672401e+00 5.384625242970871568e+02
2.501250275060513228e+00 5.384417536374821793e+02
2.501350297065354056e+00 5.384209296829105824e+02
2.501450319070195327e+00 5.384000524910474041e+02
2.501550341075036155e+00 5.383791221222307968e+02
2.501650363079877426e+00 5.383581386394703259e+02
2.501750385084718253e+00 5.383371021084539052e+02
2.501850407089559525e+00 5.383160125975572328e+02
2.501950429094400796e+00 5.382948701778512941e+02
2.502050451099241180e+00 5.382736749231078193e+02
2.502150473104082895e+00 5.382524269098092873e+02
2.502250495108923722e+00 5.382311262171567705e+02
2.502350517113764994e+00 5.382097729270752779e+02
2.502450539118605821e+00 5.381883671242212586e+02
2.502550561123447093e+00 5.381669088959920373e+02
2.502650583128287920e+00 5.381453983325296804e+02
2.502750605133128747e+00 5.381238355267314546e+02
2.502850627137970463e+00 5.381022205742547158e+02
2.502950649142810846e+00 5.380805535735232752e+02
2.503050671147652562e+00 5.380588346257366084e+02
2.503150693152493389e+00 5.380370638348730381e+02
2.503250715157334660e+00 5.380152413077000801e+02
2.503350737162175488e+00 5.379933671537780810e+02
2.503450759167016315e+00 5.379714414854679490e+02
2.503550781171857587e+00 5.379494644179376337e+02
2.503650803176698414e+00 5.379274360691670154e+02
2.503750825181540129e+00 5.379053565599559761e+02
2.503850847186380513e+00 5.378832260139282653e+02
2.503950869191222228e+00 5.378610445575399126e+02
2.504050891196063056e+00 5.378388123200818427e+02
2.504150913200903883e+00 5.378165294336897659e+02
2.504250935205745154e+00 5.377941960333457700e+02
2.504350957210585982e+00 5.377718122568861645e+02
2.504450979215427253e+00 5.377493782450067101e+02
2.504551001220268081e+00 5.377268941412677350e+02
2.504651023225109796e+00 5.377043600920991366e+02
2.504751045229950179e+00 5.376817762468061801e+02
2.504851067234791451e+00 5.376591427575739317e+02
2.504951089239632722e+00 5.376364597794726023e+02
2.505051111244473550e+00 5.376137274704620950e+02
2.505151133249314821e+00 5.375909459913984847e+02
2.505251155254155648e+00 5.375681155060354968e+02
2.505351177258996920e+00 5.375452361810307593e+02
2.505451199263837747e+00 5.375223081859523973e+02
2.505551221268678574e+00 5.374993316932802827e+02
2.505651243273519846e+00 5.374763068784106963e+02
2.505751265278361117e+00 5.374532339196631483e+02
2.505851287283202389e+00 5.374301129982810608e+02
2.505951309288043216e+00 5.374069442984375655e+02
2.506051331292884488e+00 5.373837280072405065e+02
2.506151353297725315e+00 5.373604643147334627e+02
2.506251375302566142e+00 5.373371534139012056e+02
2.506351397307407414e+00 5.373137955006736775e+02
2.506451419312248241e+00 5.372903907739276974e+02
2.506551441317089512e+00 5.372669394354920769e+02
2.506651463321930784e+00 5.372434416901505756e+02
2.506751485326772055e+00 5.372198977456430384e+02
2.506851507331612883e+00 5.371963078126734672e+02
2.506951529336453710e+00 5.371726721049052458e+02
2.507051551341294982e+00 5.371489908389728498e+02
2.507151573346135809e+00 5.371252642344770720e+02
2.507251595350977080e+00 5.371014925139928664e+02
2.507351617355817908e+00 5.370776759030680978e+02
2.507451639360659179e+00 5.370538146302299083e+02
2.507551661365500451e+00 5.370299089269825572e+02
2.507651683370340834e+00 5.370059590278143560e+02
2.507751705375182549e+00 5.369819651701964176e+02
2.507851727380023377e+00 5.369579275945849304e+02
2.507951749384864648e+00 5.369338465444257054e+02
2.508051771389705475e+00 5.369097222661530395e+02
2.508151793394546747e+00 5.368855550091930127e+02
2.508251815399387574e+00 5.368613450259639421e+02
2.508351837404228402e+00 5.368370925718807030e+02
2.508451859409070117e+00 5.368127979053515446e+02
2.508551881413910500e+00 5.367884612877842301e+02
2.508651903418752216e+00 5.367640829835826253e+02
2.508751925423593043e+00 5.367396632601520423e+02
2.508851947428434315e+00 5.367152023878967384e+02
2.508951969433275142e+00 5.366907006402236675e+02
2.509051991438115969e+00 5.366661582935404340e+02
2.509152013442957241e+00 5.366415756272587032e+02
2.509252035447798068e+00 5.366169529237921552e+02
2.509352057452639784e+00 5.365922904685579624e+02
2.509452079457480167e+00 5.365675885499797459e+02
2.509552101462321883e+00 5.365428474594817772e+02
2.509652123467162710e+00 5.365180674914953443e+02
2.509752145472003537e+00 5.364932489434548870e+02
2.509852167476844809e+00 5.364683921157987925e+02
2.509952189481685636e+00 5.364434973119701908e+02
2.510052211486526907e+00 5.364185648384149090e+02
2.510152233491367735e+00 5.363935950045824939e+02
2.510252255496209450e+00 5.363685881229254164e+02
2.510352277501049834e+00 5.363435445088977076e+02
2.510452299505891105e+00 5.363184644809541624e+02
2.510552321510732376e+00 5.362933483605504534e+02
2.510652343515573204e+00 5.362681964721413124e+02
2.510752365520414475e+00 5.362430091431798473e+02
2.510852387525255303e+00 5.362177867041160653e+02
2.510952409530096574e+00 5.361925294883956212e+02
2.511052431534937401e+00 5.361672378324579995e+02
2.511152453539778229e+00 5.361419120757360588e+02
2.511252475544619500e+00 5.361165525606529627e+02
2.511352497549460772e+00 5.360911596326211566e+02
2.511452519554302043e+00 5.360657336400415716e+02
2.511552541559142870e+00 5.360402749342994184e+02
2.511652563563984142e+00 5.360147838697631641e+02
2.511752585568824969e+00 5.359892608037820310e+02
2.511852607573665797e+00 5.359637060966855415e+02
2.511952629578507068e+00 5.359381201117777209e+02
2.512052651583347895e+00 5.359125032153369830e+02
2.512152673588189167e+00 5.358868557766134018e+02
2.512252695593030438e+00 5.358611781678241641e+02
2.512352717597871710e+00 5.358354707641524328e+02
2.512452739602712537e+00 5.358097339437449591e+02
2.512552761607553364e+00 5.357839680877051478e+02
2.512652783612394636e+00 5.357581735800948763e+02
2.512752805617235463e+00 5.357323508079277872e+02
2.512852827622076735e+00 5.357065001611665593e+02
2.512952849626917562e+00 5.356806220327207484e+02
2.513052871631758833e+00 5.356547168184404200e+02
2.513152893636600105e+00 5.356287849171151265e+02
2.513252915641440488e+00 5.356028267304677684e+02
2.513352937646282204e+00 5.355768426631531156e+02
2.513452959651123031e+00 5.355508331227516692e+02
2.513552981655964302e+00 5.355247985197640901e+02
2.513653003660805130e+00 5.354987392676116542e+02
2.513753025665646401e+00 5.354726557826270437e+02
2.513853047670487229e+00 5.354465484840525278e+02
2.513953069675328056e+00 5.354204177940326872e+02
2.514053091680169771e+00 5.353942641376147549e+02
2.514153113685010155e+00 5.353680879427355421e+02
2.514253135689851870e+00 5.353418896402254177e+02
2.514353157694692698e+00 5.353156696637964842e+02
2.514453179699533969e+00 5.352894284500409867e+02
2.514553201704374796e+00 5.352631664384232408e+02
2.514653223709215624e+00 5.352368840712777001e+02
2.514753245714056895e+00 5.352105817937989514e+02
2.514853267718897722e+00 5.351842600540405783e+02
2.514953289723739438e+00 5.351579193029058388e+02
2.515053311728579821e+00 5.351315599941439132e+02
2.515153333733421537e+00 5.351051825843425149e+02
2.515253355738262364e+00 5.350787875329226608e+02
2.515353377743103191e+00 5.350523753021313951e+02
2.515453399747944463e+00 5.350259463570371281e+02
2.515553421752785290e+00 5.349995011655221333e+02
2.515653443757626562e+00 5.349730401982744752e+02
2.515753465762467389e+00 5.349465639287843715e+02
2.515853487767309105e+00 5.349200728333350980e+02
2.515953509772149488e+00 5.348935673909968500e+02
2.516053531776990759e+00 5.348670480836207162e+02
2.516153553781832031e+00 5.348405153958292431e+02
2.516253575786672858e+00 5.348139698150098411e+02
2.516353597791514130e+00 5.347874118313098961e+02
2.516453619796354957e+00 5.347608419376264237e+02
2.516553641801196228e+00 5.347342606295995893e+02
2.516653663806037056e+00 5.347076684056050908e+02
2.516753685810877883e+00 5.346810657667456326e+02
2.516853707815719154e+00 5.346544532168441037e+02
2.516953729820560426e+00 5.346278312624349383e+02
2.517053751825401697e+00 5.346012004127555883e+02
2.517153773830242525e+00 5.345745611797394758e+02
2.517253795835083796e+00 5.345479140780062153e+02
2.517353817839924623e+00 5.345212596248544514e+02
2.517453839844765451e+00 5.344945983402526508e+02
2.517553861849606722e+00 5.344679307468301204e+02
2.517653883854447550e+00 5.344412573698680262e+02
2.517753905859288821e+00 5.344145787372924588e+02
2.517853927864130092e+00 5.343878953796627229e+02
2.517953949868971364e+00 5.343612078301644033e+02
2.518053971873812191e+00 5.343345166245984501e+02
2.518153993878653019e+00 5.343078223013729939e+02
2.518254015883494290e+00 5.342811254014935685e+02
2.518354037888335117e+00 5.342544264685536746e+02
2.518454059893176389e+00 5.342277260487244348e+02
2.518554081898017216e+00 5.342010246907457258e+02
2.518654103902858488e+00 5.341743229459164013e+02
2.518754125907699759e+00 5.341476213680825822e+02
2.518854147912540142e+00 5.341209205136308356e+02
2.518954169917381858e+00 5.340942209414739636e+02
2.519054191922222685e+00 5.340675232130435006e+02
2.519154213927063957e+00 5.340408278922800491e+02
2.519254235931904784e+00 5.340141355456189558e+02
2.519354257936746055e+00 5.339874467419823532e+02
2.519454279941586883e+00 5.339607620527702920e+02
2.519554301946427710e+00 5.339340820518449391e+02
2.519654323951269426e+00 5.339074073155250062e+02
2.519754345956109809e+00 5.338807384225699479e+02
2.519854367960951524e+00 5.338540759541722309e+02
2.519954389965792352e+00 5.338274204939438050e+02
2.520054411970633623e+00 5.338007726279073495e+02
2.520154433975474451e+00 5.337741329444831990e+02
2.520254455980315278e+00 5.337475020344758150e+02
2.520354477985156549e+00 5.337208804910667368e+02
2.520454499989997377e+00 5.336942689097984385e+02
2.520554521994839092e+00 5.336676678885656884e+02
2.520654543999679476e+00 5.336410780276011110e+02
2.520754566004521191e+00 5.336144999294647278e+02
2.520854588009362018e+00 5.335879341990314515e+02
2.520954610014202846e+00 5.335613814434786946e+02
2.521054632019044117e+00 5.335348422722723853e+02
2.521154654023884945e+00 5.335083172971586691e+02
2.521254676028726216e+00 5.334818071321464004e+02
2.521354698033567043e+00 5.334553123934978203e+02
2.521454720038408759e+00 5.334288336997151418e+02
2.521554742043249142e+00 5.334023716715267938e+02
2.521654764048090414e+00 5.333759269318736642e+02
2.521754786052931685e+00 5.333495001058995513e+02
2.521854808057772512e+00 5.333230918209342235e+02
2.521954830062613784e+00 5.332967027064821650e+02
2.522054852067454611e+00 5.332703333942088193e+02
2.522154874072295883e+00 5.332439845179260374e+02
2.522254896077136710e+00 5.332176567135808227e+02
2.522354918081977537e+00 5.331913506192396426e+02
2.522454940086818809e+00 5.331650668750746718e+02
2.522554962091660080e+00 5.331388061233524240e+02
2.522654984096501352e+00 5.331125690084156759e+02
2.522755006101342179e+00 5.330863561766741441e+02
2.522855028106183450e+00 5.330601682765856140e+02
2.522955050111024278e+00 5.330340059586455936e+02
2.523055072115865105e+00 5.330078698753712843e+02
2.523155094120706377e+00 5.329817606812864597e+02
2.523255116125547204e+00 5.329556790329081650e+02
2.523355138130388475e+00 5.329296255887325060e+02
2.523455160135229747e+00 5.329036010092174820e+02
2.523555182140071018e+00 5.328776059567717311e+02
2.523655204144911846e+00 5.328516410957364542e+02
2.523755226149752673e+00 5.328257070923721130e+02
2.523855248154593944e+00 5.327998046148430831e+02
2.523955270159434772e+00 5.327739343332024191e+02
2.524055292164276043e+00 5.327480969193768487e+02
2.524155314169116870e+00 5.327222930471499467e+02
2.524255336173958142e+00 5.326965233921496292e+02
2.524355358178799413e+00 5.326707886318299643e+02
2.524455380183639797e+00 5.326450894454567333e+02
2.524555402188481512e+00 5.326194265140910602e+02
2.524655424193322339e+00 5.325938005205746322e+02
2.524755446198163611e+00 5.325682121495133288e+02
2.524855468203004438e+00 5.325426620872608510e+02
2.524955490207845710e+00 5.325171510219031461e+02
2.525055512212686537e+00 5.324916796432416959e+02
2.525155534217527364e+00 5.324662486427785097e+02
2.525255556222369080e+00 5.324408587136990718e+02
2.525355578227209463e+00 5.324155105508546058e+02
2.525455600232051179e+00 5.323902048507487734e+02
2.525555622236892006e+00 5.323649423115184618e+02
2.525655644241733278e+00 5.323397236329166162e+02
2.525755666246574105e+00 5.323145495162989391e+02
2.525855688251414932e+00 5.322894206646043358e+02
2.525955710256256204e+00 5.322643377823375204e+02
2.526055732261097031e+00 5.322393015755549186e+02
2.526155754265938747e+00 5.322143127518446590e+02
2.526255776270779130e+00 5.321893720203108842e+02
2.526355798275620845e+00 5.321644800915562428e+02
2.526455820280461673e+00 5.321396376776652914e+02
2.526555842285302500e+00 5.321148454921853954e+02
2.526655864290143771e+00 5.320901042501119491e+02
2.526755886294984599e+00 5.320654146678674579e+02
2.526855908299825870e+00 5.320407774632870996e+02
2.526955930304666698e+00 5.320161933555984888e+02
2.527055952309508413e+00 5.319916630654058736e+02
2.527155974314348796e+00 5.319671873146719463e+02
2.527255996319190068e+00 5.319427668266978344e+02
2.527356018324031339e+00 5.319184023261091170e+02
2.527456040328872167e+00 5.318940945388328601e+02
2.527556062333713438e+00 5.318698441920840878e+02
2.527656084338554265e+00 5.318456520143445232e+02
2.527756106343395537e+00 5.318215187353456486e+02
2.527856128348236364e+00 5.317974450860492652e+02
2.527956150353077192e+00 5.317734317986302131e+02
2.528056172357918463e+00 5.317494796064586353e+02
2.528156194362759734e+00 5.317255892440783782e+02
2.528256216367601006e+00 5.317017614471908473e+02
2.528356238372441833e+00 5.316779969526359082e+02
2.528456260377282661e+00 5.316542964983723323e+02
2.528556282382123932e+00 5.316306608234598343e+02
2.528656304386964759e+00 5.316070906680398593e+02
2.528756326391806031e+00 5.315835867733164832e+02
2.528856348396646858e+00 5.315601498815366313e+02
2.528956370401488130e+00 5.315367807359724566e+02
2.529056392406329401e+00 5.315134800809005355e+02
2.529156414411169784e+00 5.314902486615850421e+02
2.529256436416011500e+00 5.314670872242553514e+02
2.529356458420852327e+00 5.314439965160892143e+02
2.529456480425693599e+00 5.314209772851909293e+02
2.529556502430534426e+00 5.313980302805746305e+02
2.529656524435375697e+00 5.313751562521426877e+02
2.529756546440216525e+00 5.313523559506664924e+02
2.529856568445057352e+00 5.313296301277671319e+02
2.529956590449899068e+00 5.313069795358954934e+02
2.530056612454739451e+00 5.312844049283119148e+02
2.530156634459581166e+00 5.312619070590671981e+02
2.530256656464421994e+00 5.312394866829824878e+02
2.530356678469263265e+00 5.312171445556282379e+02
2.530456700474104093e+00 5.311948814333060227e+02
2.530556722478944920e+00 5.311726980730268224e+02
2.530656744483786191e+00 5.311505952324916962e+02
2.530756766488627019e+00 5.311285736700714324e+02
2.530856788493468734e+00 5.311066341447847208e+02
2.530956810498309117e+00 5.310847774162818951e+02
2.531056832503150833e+00 5.310630042448192398e+02
2.531156854507991660e+00 5.310413153912428470e+02
2.531256876512832488e+00 5.310197116169661058e+02
2.531356898517673759e+00 5.309981936839504897e+02
2.531456920522514586e+00 5.309767623546815685e+02
2.531556942527355858e+00 5.309554183921536605e+02
2.531656964532196685e+00 5.309341625598452765e+02
2.531756986537038401e+00 5.309129956216985420e+02
2.531857008541878784e+00 5.308919183421008938e+02
2.531957030546720055e+00 5.308709314858614334e+02
2.532057052551561327e+00 5.308500358181919410e+02
2.532157074556402154e+00 5.308292321046848201e+02
2.532257096561243426e+00 5.308085211112936577e+02
2.532357118566084253e+00 5.307879036043093492e+02
2.532457140570925525e+00 5.307673803503425916e+02
2.532557162575766352e+00 5.307469521162992123e+02
2.532657184580607179e+00 5.307266196693630036e+02
2.532757206585448451e+00 5.307063837769707106e+02
2.532857228590289722e+00 5.306862452067921367e+02
2.532957250595130994e+00 5.306662047267105891e+02
2.533057272599971821e+00 5.306462631047990044e+02
2.533157294604813092e+00 5.306264211093001677e+02
2.533257316609653920e+00 5.306066795086039747e+02
2.533357338614494747e+00 5.305870390712279914e+02
2.533457360619336018e+00 5.305675005657943757e+02
2.533557382624176846e+00 5.305480647610085043e+02
2.533657404629018117e+00 5.305287324256378270e+02
2.533757426633859389e+00 5.305095043284898111e+02
2.533857448638700660e+00 5.304903812383922741e+02
2.533957470643541487e+00 5.304713639241674628e+02
2.534057492648382315e+00 5.304524531546154549e+02
2.534157514653223586e+00 5.304336496984890346e+02
2.534257536658064414e+00 5.304149543244722054e+02
2.534357558662905685e+00 5.303963678011598404e+02
2.534457580667746512e+00 5.303778908970353996e+02
2.534557602672587784e+00 5.303595243804481925e+02
2.534657624677429055e+00 5.303412690195914365e+02
2.534757646682269439e+00 5.303231255824825894e+02
2.534857668687111154e+00 5.303050948369386788e+02
2.534957690691951981e+00 5.302871775505550431e+02
2.535057712696793253e+00 5.302693744906857773e+02
2.535157734701634080e+00 5.302516864244163344e+02
2.535257756706475352e+00 5.302341141185478364e+02
2.535357778711316179e+00 5.302166583395701309e+02
2.535457800716157006e+00 5.301993198536430327e+02
2.535557822720998722e+00 5.301820994265707441e+02
2.535657844725839105e+00 5.301649978237833238e+02
2.535757866730680821e+00 5.301480158103121312e+02
2.535857888735521648e+00 5.301311541507677703e+02
2.535957910740362919e+00 5.301144136093199677e+02
2.536057932745203747e+00 5.300977949496724477e+02
2.536157954750044574e+00 5.300812989350423550e+02
2.536257976754885846e+00 5.300649263281379717e+02
2.536357998759726673e+00 5.300486778911357533e+02
2.536458020764568388e+00 5.300325543856586137e+02
2.536558042769408772e+00 5.300165565727538706e+02
2.536658064774250487e+00 5.300006852128694845e+02
2.536758086779091315e+00 5.299849410658327997e+02
2.536858108783932142e+00 5.299693248908288297e+02
2.536958130788773413e+00 5.299538374463766104e+02
2.537058152793614241e+00 5.299384794903061220e+02
2.537158174798455512e+00 5.299232517797394166e+02
2.537258196803296340e+00 5.299081550710639021e+02
2.537358218808138055e+00 5.298931901199116510e+02
2.537458240812978438e+00 5.298783576811387093e+02
2.537558262817819710e+00 5.298636585087999720e+02
2.537658284822660981e+00 5.298490933561271277e+02
2.537758306827501809e+00 5.298346629755091044e+02
2.537858328832343080e+00 5.298203681184646712e+02
2.537958350837183907e+00 5.298062095356250438e+02
2.538058372842025179e+00 5.297921879767073960e+02
2.538158394846866006e+00 5.297783041904943957e+02
2.538258416851706833e+00 5.297645589248112401e+02
2.538358438856548105e+00 5.297509529265039419e+02
2.538458460861389376e+00 5.297374869414149998e+02
2.538558482866230648e+00 5.297241617143630492e+02
2.538658504871071475e+00 5.297109779891179642e+02
2.538758526875912747e+00 5.296979365083816447e+02
2.538858548880753574e+00 5.296850380137610728e+02
2.538958570885594401e+00 5.296722832457508048e+02
2.539058592890435673e+00 5.296596729437061413e+02
2.539158614895276500e+00 5.296472078458236865e+02
2.539258636900117772e+00 5.296348886891162238e+02
2.539358658904959043e+00 5.296227162093933885e+02
2.539458680909800314e+00 5.296106911412358613e+02
2.539558702914641142e+00 5.295988142179750184e+02
2.539658724919481969e+00 5.295870861716705349e+02
2.539758746924323241e+00 5.295755077330854874e+02
2.539858768929164068e+00 5.295640796316679371e+02
2.539958790934005339e+00 5.295528025955246676e+02
2.540058812938846167e+00 5.295416773514001534e+02
2.540158834943687438e+00 5.295307046246554137e+02
2.540258856948528710e+00 5.295198851392434563e+02
2.540358878953369093e+00 5.295092196176882453e+02
2.540458900958210808e+00 5.294987087810617368e+02
2.540558922963051636e+00 5.294883533489615957e+02
2.540658944967892907e+00 5.294781540394893682e+02
2.540758966972733734e+00 5.294681115692272897e+02
2.540858988977575006e+00 5.294582266532154335e+02
2.540959010982415833e+00 5.294485000049317023e+02
2.541059032987256661e+00 5.294389323362676123e+02
2.541159054992098376e+00 5.294295243575054428e+02
2.541259076996938759e+00 5.294202767772985680e+02
2.541359099001780475e+00 5.294111903026461050e+02
2.541459121006621302e+00 5.294022656388727910e+02
2.541559143011462574e+00 5.293935034896065872e+02
2.541659165016303401e+00 5.293849045567552594e+02
2.541759187021144228e+00 5.293764695404854592e+02
2.541859209025985500e+00 5.293681991391999873e+02
2.541959231030826327e+00 5.293600940495149416e+02
2.542059253035668043e+00 5.293521549662406187e+02
2.542159275040508426e+00 5.293443825823545694e+02
2.542259297045350142e+00 5.293367775889840914e+02
2.542359319050190969e+00 5.293293406753818999e+02
2.542459341055031796e+00 5.293220725289036181e+02
2.542559363059873068e+00 5.293149738349883364e+02
2.542659385064713895e+00 5.293080452771343971e+02
2.542759407069555166e+00 5.293012875368768846e+02
2.542859429074395994e+00 5.292947012937700038e+02
2.542959451079237709e+00 5.292882872253596815e+02
2.543059473084078093e+00 5.292820460071648085e+02
2.543159495088919364e+00 5.292759783126551838e+02
2.543259517093760635e+00 5.292700848132305964e+02
2.543359539098601463e+00 5.292643661781960418e+02
2.543459561103442734e+00 5.292588230747428497e+02
2.543559583108283562e+00 5.292534561679276521e+02
2.543659605113124833e+00 5.292482661206469174e+02
2.543759627117965660e+00 5.292432535936194427e+02
2.543859649122806488e+00 5.292384192453620244e+02
2.543959671127647759e+00 5.292337637321705870e+02
2.544059693132489031e+00 5.292292877080953986e+02
2.544159715137330302e+00 5.292249918249227676e+02
2.544259737142171129e+00 5.292208767321515097e+02
2.544359759147012401e+00 5.292169430769730525e+02
2.544459781151853228e+00 5.292131915042485844e+02
2.544559803156694056e+00 5.292096226564901826e+02
2.544659825161535327e+00 5.292062371738365982e+02
2.544759847166376154e+00 5.292030356940343836e+02
2.544859869171217426e+00 5.292000188524164059e+02
2.544959891176058697e+00 5.291971872818786551e+02
2.545059913180899969e+00 5.291945416128628494e+02
2.545159935185740796e+00 5.291920824733329027e+02
2.545259957190581623e+00 5.291898104887530963e+02
2.545359979195422895e+00 5.291877262820709120e+02
2.545460001200263722e+00 5.291858304736925902e+02
2.545560023205104994e+00 5.291841236814632339e+02
2.545660045209945821e+00 5.291826065206479370e+02
2.545760067214787092e+00 5.291812796039088198e+02
2.545860089219628364e+00 5.291801435412841101e+02
2.545960111224468747e+00 5.291791989401710907e+02
2.546060133229310463e+00 5.291784464053016563e+02
2.546160155234151290e+00 5.291778865387231008e+02
2.546260177238992561e+00 5.291775199397773122e+02
2.546360199243833389e+00 5.291773472050832652e+02
2.546460221248674660e+00 5.291773689285121236e+02
2.546560243253515488e+00 5.291775857011701873e+02
2.546660265258356315e+00 5.291779981113783151e+02
2.546760287263198030e+00 5.291786067446494144e+02
2.546860309268038414e+00 5.291794121836719569e+02
2.546960331272880129e+00 5.291804150082871274e+02
2.547060353277720957e+00 5.291816157954707478e+02
2.547160375282562228e+00 5.291830151193119036e+02
2.547260397287403055e+00 5.291846135509931628e+02
2.547360419292243883e+00 5.291864116587728404e+02
2.547460441297085154e+00 5.291884100079623749e+02
2.547560463301925981e+00 5.291906091609083660e+02
2.547660485306767697e+00 5.291930096769733609e+02
2.547760507311608080e+00 5.291956121125153913e+02
2.547860529316449796e+00 5.291984170208676233e+02
2.547960551321290623e+00 5.292014249523215312e+02
2.548060573326131451e+00 5.292046364541059802e+02
2.548160595330972722e+00 5.292080520703678985e+02
2.548260617335813549e+00 5.292116723421530651e+02
2.548360639340654821e+00 5.292154978073866687e+02
2.548460661345495648e+00 5.292195290008571646e+02
2.548560683350337364e+00 5.292237664541921731e+02
2.548660705355177747e+00 5.292282106958442682e+02
2.548760727360019018e+00 5.292328622510699461e+02
2.548860749364860290e+00 5.292377216419104116e+02
2.548960771369701117e+00 5.292427893871733886e+02
2.549060793374542389e+00 5.292480660024170902e+02
2.549160815379383216e+00 5.292535519999262306e+02
2.549260837384224487e+00 5.292592478886988374e+02
2.549360859389065315e+00 5.292651541744240831e+02
2.549460881393906142e+00 5.292712713594676188e+02
2.549560903398747413e+00 5.292775999428494060e+02
2.549660925403588685e+00 5.292841404202279136e+02
2.549760947408429956e+00 5.292908932838820419e+02
2.549860969413270784e+00 5.292978590226925917e+02
2.549960991418112055e+00 5.293050381221231646e+02
2.550061013422952882e+00 5.293124310642054979e+02
2.550161035427793710e+00 5.293200383275184322e+02
2.550261057432634981e+00 5.293278603871717678e+02
2.550361079437475809e+00 5.293358977147887572e+02
2.550461101442317080e+00 5.293441507784872329e+02
2.550561123447158351e+00 5.293526200428647144e+02
2.550661145451999623e+00 5.293613059689781721e+02
2.550761167456840450e+00 5.293702090143293617e+02
2.550861189461681278e+00 5.293793296328459519e+02
2.550961211466522549e+00 5.293886682748639032e+02
2.551061233471363376e+00 5.293982253871134844e+02
2.551161255476204648e+00 5.294080014126982405e+02
2.551261277481045475e+00 5.294179967910819187e+02
2.551361299485886747e+00 5.294282119580689141e+02
2.551461321490728018e+00 5.294386473457892635e+02
2.551561343495568401e+00 5.294493033826818191e+02
2.551661365500410117e+00 5.294601804934771963e+02
2.551761387505250944e+00 5.294712790991811744e+02
2.551861409510092216e+00 5.294825996170603730e+02
2.551961431514933043e+00 5.294941424606231521e+02
2.552061453519774314e+00 5.295059080396058562e+02
2.552161475524615142e+00 5.295178967599554198e+02
2.552261497529455969e+00 5.295301090238151573e+02
2.552361519534297685e+00 5.295425452295061177e+02
2.552461541539138068e+00 5.295552057715135561e+02
2.552561563543979783e+00 5.295680910404713586e+02
2.552661585548820611e+00 5.295812014231449893e+02
2.552761607553661882e+00 5.295945373024176206e+02
2.552861629558502710e+00 5.296080990572728524e+02
2.552961651563343537e+00 5.296218870627828892e+02
2.553061673568184808e+00 5.296359016900883034e+02
2.553161695573025636e+00 5.296501433063890545e+02
2.553261717577867351e+00 5.296646122749228880e+02
2.553361739582707735e+00 5.296793089549573779e+02
2.553461761587549450e+00 5.296942337017692353e+02
2.553561783592390277e+00 5.297093868666331673e+02
2.553661805597231105e+00 5.297247687968060745e+02
2.553761827602072376e+00 5.297403798355135223e+02
2.553861849606913204e+00 5.297562203219331423e+02
2.553961871611754475e+00 5.297722905911845146e+02
2.554061893616595302e+00 5.297885909743091588e+02
2.554161915621437018e+00 5.298051217982622347e+02
2.554261937626277401e+00 5.298218833858957169e+02
2.554361959631118673e+00 5.298388760559449793e+02
2.554461981635959944e+00 5.298561001230145848e+02
2.554562003640800771e+00 5.298735558975662343e+02
2.554662025645642043e+00 5.298912436859034187e+02
2.554762047650482870e+00 5.299091637901591412e+02
2.554862069655324142e+00 5.299273165082820469e+02
2.554962091660164969e+00 5.299457021340240317e+02
2.555062113665005796e+00 5.299643209569267128e+02
2.555162135669847068e+00 5.299831732623076732e+02
2.555262157674688339e+00 5.300022593312489789e+02
2.555362179679529611e+00 5.300215794405839915e+02
2.555462201684370438e+00 5.300411338628837257e+02
2.555562223689211709e+00 5.300609228664458215e+02
2.555662245694052537e+00 5.300809467152810157e+02
2.555762267698893364e+00 5.301012056691015459e+02
2.555862289703734636e+00 5.301216999833093269e+02
2.555962311708575463e+00 5.301424299089813985e+02
2.556062333713416734e+00 5.301633956928617408e+02
2.556162355718258006e+00 5.301845975773463806e+02
2.556262377723099277e+00 5.302060358004735008e+02
2.556362399727940105e+00 5.302277105959097980e+02
2.556462421732780932e+00 5.302496221929417288e+02
2.556562443737622203e+00 5.302717708164618671e+02
2.556662465742463031e+00 5.302941566869592407e+02
2.556762487747304302e+00 5.303167800205061440e+02
2.556862509752145129e+00 5.303396410287487015e+02
2.556962531756986401e+00 5.303627399188964091e+02
2.557062553761827672e+00 5.303860768937090597e+02
2.557162575766668056e+00 5.304096521514890128e+02
2.557262597771509771e+00 5.304334658860682339e+02
2.557362619776350598e+00 5.304575182867979493e+02
2.557462641781191870e+00 5.304818095385403467e+02
2.557562663786032697e+00 5.305063398216572068e+02
2.557662685790873969e+00 5.305311093119980796e+02
2.557762707795714796e+00 5.305561181808940319e+02
2.557862729800555623e+00 5.305813665951438907e+02
2.557962751805397339e+00 5.306068547170077636e+02
2.558062773810237722e+00 5.306325827041947605e+02
2.558162795815079438e+00 5.306585507098556036e+02
2.558262817819920265e+00 5.306847588825723960e+02
2.558362839824761537e+00 5.307112073663486171e+02
2.558462861829602364e+00 5.307378963006017329e+02
2.558562883834443191e+00 5.307648258201520548e+02
2.558662905839284463e+00 5.307919960552171688e+02
2.558762927844125290e+00 5.308194071313989753e+02
2.558862949848967006e+00 5.308470591696786869e+02
2.558962971853807389e+00 5.308749522864055734e+02
2.559062993858649104e+00 5.309030865932913912e+02
2.559163015863489932e+00 5.309314621973994690e+02
2.559263037868330759e+00 5.309600792011378871e+02
2.559363059873172030e+00 5.309889377022520875e+02
2.559463081878012858e+00 5.310180377938153242e+02
2.559563103882854129e+00 5.310473795642224104e+02
2.559663125887694957e+00 5.310769630971819879e+02
2.559763147892536672e+00 5.311067884717080005e+02
2.559863169897377055e+00 5.311368557621140098e+02
2.559963191902218327e+00 5.311671650380027359e+02
2.560063213907059598e+00 5.311977163642637834e+02
2.560163235911900426e+00 5.312285098010629554e+02
2.560263257916741697e+00 5.312595454038364551e+02
2.560363279921582524e+00 5.312908232232838373e+02
2.560463301926423796e+00 5.313223433053622102e+02
2.560563323931264623e+00 5.313541056912812337e+02
2.560663345936105451e+00 5.313861104174919774e+02
2.560763367940946722e+00 5.314183575156857842e+02
2.560863389945787993e+00 5.314508470127855162e+02
2.560963411950629265e+00 5.314835789309405527e+02
2.561063433955470092e+00 5.315165532875207646e+02
2.561163455960311364e+00 5.315497700951106026e+02
2.561263477965152191e+00 5.315832293615034132e+02
2.561363499969993018e+00 5.316169310896979141e+02
2.561463521974834290e+00 5.316508752778904636e+02
2.561563543979675117e+00 5.316850619194707406e+02
2.561663565984516389e+00 5.317194910030167421e+02
2.561763587989357660e+00 5.317541625122914866e+02
2.561863609994198931e+00 5.317890764262353969e+02
2.561963631999039759e+00 5.318242327189642538e+02
2.562063654003880586e+00 5.318596313597627159e+02
2.562163676008721858e+00 5.318952723130822733e+02
2.562263698013562685e+00 5.319311555385341990e+02
2.562363720018403956e+00 5.319672809908884119e+02
2.562463742023244784e+00 5.320036486200668833e+02
2.562563764028086055e+00 5.320402583711428406e+02
2.562663786032927327e+00 5.320771101843332644e+02
2.562763808037767710e+00 5.321142039949993432e+02
2.562863830042609425e+00 5.321515397336395381e+02
2.562963852047450253e+00 5.321891173258899244e+02
2.563063874052291524e+00 5.322269366925180520e+02
2.563163896057132352e+00 5.322649977494211271e+02
2.563263918061973179e+00 5.323033004076230554e+02
2.563363940066814450e+00 5.323418445732723967e+02
2.563463962071655278e+00 5.323806301476382714e+02
2.563563984076496993e+00 5.324196570271104747e+02
2.563664006081337376e+00 5.324589251031935646e+02
2.563764028086179092e+00 5.324984342625078853e+02
2.563864050091019919e+00 5.325381843867864973e+02
2.563964072095860747e+00 5.325781753528731315e+02
2.564064094100702018e+00 5.326184070327188920e+02
2.564164116105542846e+00 5.326588792933846435e+02
2.564264138110384117e+00 5.326995919970350997e+02
2.564364160115224944e+00 5.327405450009406422e+02
2.564464182120066660e+00 5.327817381574744786e+02
2.564564204124907043e+00 5.328231713141125283e+02
2.564664226129748315e+00 5.328648443134313766e+02
2.564764248134589586e+00 5.329067569931090702e+02
2.564864270139430413e+00 5.329489091859221617e+02
2.564964292144271685e+00 5.329913007197477555e+02
2.565064314149112512e+00 5.330339314175613481e+02
2.565164336153953784e+00 5.330768010974376239e+02
2.565264358158794611e+00 5.331199095725494317e+02
2.565364380163635438e+00 5.331632566511698315e+02
2.565464402168476710e+00 5.332068421366681150e+02
2.565564424173317981e+00 5.332506658275152631e+02
2.565664446178159253e+00 5.332947275172798527e+02
2.565764468183000080e+00 5.333390269946331728e+02
2.565864490187841351e+00 5.333835640433451317e+02
2.565964512192682179e+00 5.334283384422889185e+02
2.566064534197523006e+00 5.334733499654404341e+02
2.566164556202364277e+00 5.335185983818788600e+02
2.566264578207205105e+00 5.335640834557901826e+02
2.566364600212046376e+00 5.336098049464650330e+02
2.566464622216887648e+00 5.336557626083048262e+02
2.566564644221728919e+00 5.337019561908189189e+02
2.566664666226569746e+00 5.337483854386304074e+02
2.566764688231410574e+00 5.337950500914738541e+02
2.566864710236251845e+00 5.338419498842024495e+02
2.566964732241092673e+00 5.338890845467852841e+02
2.567064754245933944e+00 5.339364538043140556e+02
2.567164776250774771e+00 5.339840573770027277e+02
2.567264798255616043e+00 5.340318949801913959e+02
2.567364820260457314e+00 5.340799663243487885e+02
2.567464842265297698e+00 5.341282711150744262e+02
2.567564864270139413e+00 5.341768090531046482e+02
2.567664886274980240e+00 5.342255798343106790e+02
2.567764908279821512e+00 5.342745831497088602e+02
2.567864930284662339e+00 5.343238186854579226e+02
2.567964952289503611e+00 5.343732861228644424e+02
2.568064974294344438e+00 5.344229851383902314e+02
2.568164996299185265e+00 5.344729154036507452e+02
2.568265018304026981e+00 5.345230765854227002e+02
2.568365040308867364e+00 5.345734683456478251e+02
2.568465062313709080e+00 5.346240903414355898e+02
2.568565084318549907e+00 5.346749422250693442e+02
2.568665106323391178e+00 5.347260236440106382e+02
2.568765128328232006e+00 5.347773342409035422e+02
2.568865150333072833e+00 5.348288736535801036e+02
2.568965172337914105e+00 5.348806415150635303e+02
2.569065194342754932e+00 5.349326374535771720e+02
2.569165216347596647e+00 5.349848610925457706e+02
2.569265238352437031e+00 5.350373120506026225e+02
2.569365260357278746e+00 5.350899899415969685e+02
2.569465282362119574e+00 5.351428943745952438e+02
2.569565304366960401e+00 5.351960249538916514e+02
2.569665326371801672e+00 5.352493812790113452e+02
2.569765348376642500e+00 5.353029629447181605e+02
2.569865370381483771e+00 5.353567695410185934e+02
2.569965392386324599e+00 5.354108006531704405e+02
2.570065414391166314e+00 5.354650558616892795e+02
2.570165436396006697e+00 5.355195347423529029e+02
2.570265458400847969e+00 5.355742368662120043e+02
2.570365480405689240e+00 5.356291617995918841e+02
2.570465502410530068e+00 5.356843091041045000e+02
2.570565524415371339e+00 5.357396783366530144e+02
2.570665546420212166e+00 5.357952690494396393e+02
2.570765568425053438e+00 5.358510807899746169e+02
2.570865590429894265e+00 5.359071131010794034e+02
2.570965612434735093e+00 5.359633655209006520e+02
2.571065634439576364e+00 5.360198375829140787e+02
2.571165656444417635e+00 5.360765288159326474e+02
2.571265678449258907e+00 5.361334387441164608e+02
2.571365700454099734e+00 5.361905668869792407e+02
2.571465722458941006e+00 5.362479127593978774e+02
2.571565744463781833e+00 5.363054758716214110e+02
2.571665766468622660e+00 5.363632557292784213e+02
2.571765788473463932e+00 5.364212518333866910e+02
2.571865810478304759e+00 5.364794636803616186e+02
2.571965832483146031e+00 5.365378907620264499e+02
2.572065854487987302e+00 5.365965325656197820e+02
2.572165876492828573e+00 5.366553885738074996e+02
2.572265898497669401e+00 5.367144582646891422e+02
2.572365920502510228e+00 5.367737411118091586e+02
2.572465942507351500e+00 5.368332365841674800e+02
2.572565964512192327e+00 5.368929441462282739e+02
2.572665986517033598e+00 5.369528632579300620e+02
2.572766008521874426e+00 5.370129933746957249e+02
2.572866030526715697e+00 5.370733339474433023e+02
2.572966052531556969e+00 5.371338844225966795e+02
2.573066074536397352e+00 5.371946442420950234e+02
2.573166096541239067e+00 5.372556128434041511e+02
2.573266118546079895e+00 5.373167896595284674e+02
2.573366140550921166e+00 5.373781741190185812e+02
2.573466162555761994e+00 5.374397656459859718e+02
2.573566184560603265e+00 5.375015636601134474e+02
2.573666206565444092e+00 5.375635675766635586e+02
2.573766228570284920e+00 5.376257768064934908e+02
2.573866250575126635e+00 5.376881907560660920e+02
2.573966272579967018e+00 5.377508088274591955e+02
2.574066294584808734e+00 5.378136304183799439e+02
2.574166316589649561e+00 5.378766549221764990e+02
2.574266338594490833e+00 5.379398817278488423e+02
2.574366360599331660e+00 5.380033102200616213e+02
2.574466382604172487e+00 5.380669397791568827e+02
2.574566404609013759e+00 5.381307697811664639e+02
2.574666426613854586e+00 5.381947995978233621e+02
2.574766448618696302e+00 5.382590285965768544e+02
2.574866470623536685e+00 5.383234561406019338e+02
2.574966492628378401e+00 5.383880815888164761e+02
2.575066514633219228e+00 5.384529042958899936e+02
2.575166536638060055e+00 5.385179236122598923e+02
2.575266558642901327e+00 5.385831388841446596e+02
2.575366580647742154e+00 5.386485494535547787e+02
2.575466602652583425e+00 5.387141546583089848e+02
2.575566624657424253e+00 5.387799538320466581e+02
2.575666646662265968e+00 5.388459463042424886e+02
2.575766668667106352e+00 5.389121314002192094e+02
2.575866690671947623e+00 5.389785084411627167e+02
2.575966712676788894e+00 5.390450767441354856e+02
2.576066734681629722e+00 5.391118356220918031e+02
2.576166756686470993e+00 5.391787843838911840e+02
2.576266778691311821e+00 5.392459223343130361e+02
2.576366800696153092e+00 5.393132487740729175e+02
2.576466822700993919e+00 5.393807629998339053e+02
2.576566844705834747e+00 5.394484643042256948e+02
2.576666866710676018e+00 5.395163519758565371e+02
2.576766888715517290e+00 5.395844252993289274e+02
2.576866910720358561e+00 5.396526835552560897e+02
2.576966932725199388e+00 5.397211260202751646e+02
2.577066954730040660e+00 5.397897519670663087e+02
2.577166976734881487e+00 5.398585606643638357e+02
2.577266998739722315e+00 5.399275513769739518e+02
2.577367020744563586e+00 5.399967233657929455e+02
2.577467042749404413e+00 5.400660758878182151e+02
2.577567064754245685e+00 5.401356081961682776e+02
2.577667086759086956e+00 5.402053195400976620e+02
2.577767108763928228e+00 5.402752091650120292e+02
2.577867130768769055e+00 5.403452763124877265e+02
2.577967152773609882e+00 5.404155202202822466e+02
2.578067174778451154e+00 5.404859401223598070e+02
2.578167196783291981e+00 5.405565352488983990e+02
2.578267218788133253e+00 5.406273048263146848e+02
2.578367240792974080e+00 5.406982480772740018e+02
2.578467262797815351e+00 5.407693642207142375e+02
2.578567284802656623e+00 5.408406524718569699e+02
2.578667306807497006e+00 5.409121120422288413e+02
2.578767328812338722e+00 5.409837421396766786e+02
2.578867350817179549e+00 5.410555419683856826e+02
2.578967372822020820e+00 5.411275107288971640e+02
2.579067394826861648e+00 5.411996476181261642e+02
2.579167416831702919e+00 5.412719518293783949e+02
2.579267438836543747e+00 5.413444225523695650e+02
2.579367460841384574e+00 5.414170589732427743e+02
2.579467482846226289e+00 5.414898602745852259e+02
2.579567504851066673e+00 5.415628256354492578e+02
2.579667526855908388e+00 5.416359542313683733e+02
2.579767548860749216e+00 5.417092452343747482e+02
2.579867570865590487e+00 5.417826978130231055e+02
2.579967592870431314e+00 5.418563111324015154e+02
2.580067614875272142e+00 5.419300843541570885e+02
2.580167636880113413e+00 5.420040166365088226e+02
2.580267658884954241e+00 5.420781071342727273e+02
2.580367680889795956e+00 5.421523549988752393e+02
2.580467702894636339e+00 5.422267593783758457e+02
2.580567724899478055e+00 5.423013194174842511e+02
2.580667746904318882e+00 5.423760342575815230e+02
2.580767768909159710e+00 5.424509030367371452e+02
2.580867790914000981e+00 5.425259248897310727e+02
2.580967812918841808e+00 5.426010989480716944e+02
2.581067834923683080e+00 5.426764243400155010e+02
2.581167856928523907e+00 5.427519001905875484e+02
2.581267878933365623e+00 5.428275256216005573e+02
2.581367900938206006e+00 5.429032997516768546e+02
2.581467922943047277e+00 5.429792216962636076e+02
2.581567944947888549e+00 5.430552905676604496e+02
2.581667966952729376e+00 5.431315054750326681e+02
2.581767988957570648e+00 5.432078655244345100e+02
2.581868010962411475e+00 5.432843698188311237e+02
2.581968032967252746e+00 5.433610174581148158e+02
2.582068054972093574e+00 5.434378075391314269e+02
2.582168076976934401e+00 5.435147391556943148e+02
2.582268098981775672e+00 5.435918113986110711e+02
2.582368120986616944e+00 5.436690233557004603e+02
2.582468142991458215e+00 5.437463741118160669e+02
2.582568164996299043e+00 5.438238627488645989e+02
2.582668187001140314e+00 5.439014883458288523e+02
2.582768209005981142e+00 5.439792499787896531e+02
2.582868231010821969e+00 5.440571467209438197e+02
2.582968253015663240e+00 5.441351776426294009e+02
2.583068275020504068e+00 5.442133418113450034e+02
2.583168297025345339e+00 5.442916382917701412e+02
2.583268319030186611e+00 5.443700661457902470e+02
2.583368341035027882e+00 5.444486244325155440e+02
2.583468363039868709e+00 5.445273122083033286e+02
2.583568385044709537e+00 5.446061285267818448e+02
2.583668407049550808e+00 5.446850724388680192e+02
2.583768429054391635e+00 5.447641429927941772e+02
2.583868451059232907e+00 5.448433392341265744e+02
2.583968473064073734e+00 5.449226602057893842e+02
2.584068495068915006e+00 5.450021049480865258e+02
2.584168517073756277e+00 5.450816724987232647e+02
2.584268539078596660e+00 5.451613618928298592e+02
2.584368561083438376e+00 5.452411721629829344e+02
2.584468583088279203e+00 5.453211023392281049e+02
2.584568605093120475e+00 5.454011514491033950e+02
2.584668627097961302e+00 5.454813185176609522e+02
2.584768649102802573e+00 5.455616025674898992e+02
2.584868671107643401e+00 5.456420026187402073e+02
2.584968693112484228e+00 5.457225176891433875e+02
2.585068715117325944e+00 5.458031467940386392e+02
2.585168737122166327e+00 5.458838889463925170e+02
2.585268759127008042e+00 5.459647431568239426e+02
2.585368781131848870e+00 5.460457084336271691e+02
2.585468803136690141e+00 5.461267837827938365e+02
2.585568825141530969e+00 5.462079682080379825e+02
2.585668847146371796e+00 5.462892607108187804e+02
2.585768869151213067e+00 5.463706602903621388e+02
2.585868891156053895e+00 5.464521659436870777e+02
2.585968913160895610e+00 5.465337766656277836e+02
2.586068935165735994e+00 5.466154914488563463e+02
2.586168957170577709e+00 5.466973092839077708e+02
2.586268979175418536e+00 5.467792291592037373e+02
2.586369001180259364e+00 5.468612500610762481e+02
2.586469023185100635e+00 5.469433709737887739e+02
2.586569045189941463e+00 5.470255908795647883e+02
2.586669067194782734e+00 5.471079087586084597e+02
2.586769089199623561e+00 5.471903235891293207e+02
2.586869111204465277e+00 5.472728343473675068e+02
2.586969133209305660e+00 5.473554400076152433e+02
2.587069155214146932e+00 5.474381395422442438e+02
2.587169177218988203e+00 5.475209319217274242e+02
2.587269199223829030e+00 5.476038161146640277e+02
2.587369221228670302e+00 5.476867910878050907e+02
2.587469243233511129e+00 5.477698558060754976e+02
2.587569265238352401e+00 5.478530092325999021e+02
2.587669287243193228e+00 5.479362503287268282e+02
2.587769309248034055e+00 5.480195780540539090e+02
2.587869331252875327e+00 5.481029913664511923e+02
2.587969353257716598e+00 5.481864892220860384e+02
2.588069375262557870e+00 5.482700705754497221e+02
2.588169397267398697e+00 5.483537343793785794e+02
2.588269419272239968e+00 5.484374795850808368e+02
2.588369441277080796e+00 5.485213051421637829e+02
2.588469463281921623e+00 5.486052099986526400e+02
2.588569485286762895e+00 5.486891931010212602e+02
2.588669507291603722e+00 5.487732533942144073e+02
2.588769529296444993e+00 5.488573898216714042e+02
2.588869551301286265e+00 5.489416013253553501e+02
2.588969573306127536e+00 5.490258868457725612e+02
2.589069595310968364e+00 5.491102453220032658e+02
2.589169617315809191e+00 5.491946756917234325e+02
2.589269639320650462e+00 5.492791768912285306e+02
2.589369661325491290e+00 5.493637478554639983e+02
2.589469683330332561e+00 5.494483875180459336e+02
2.589569705335173389e+00 5.495330948112870146e+02
2.589669727340014660e+00 5.496178686662228756e+02
2.589769749344855931e+00 5.497027080126381406e+02
2.589869771349696315e+00 5.497876117790890476e+02
2.589969793354538030e+00 5.498725788929317559e+02
2.590069815359378858e+00 5.499576082803457666e+02
2.590169837364220129e+00 5.500426988663609791e+02
2.590269859369060956e+00 5.501278495748823616e+02
2.590369881373902228e+00 5.502130593287135980e+02
2.590469903378743055e+00 5.502983270495874422e+02
2.590569925383583882e+00 5.503836516581860678e+02
2.590669947388425598e+00 5.504690320741705136e+02
2.590769969393265981e+00 5.505544672162027382e+02
2.590869991398107697e+00 5.506399560019764294e+02
2.590970013402948524e+00 5.507254973482364449e+02
2.591070035407789796e+00 5.508110901708096208e+02
2.591170057412630623e+00 5.508967333846276233e+02
2.591270079417471450e+00 5.509824259037536649e+02
2.591370101422312722e+00 5.510681666414088795e+02
2.591470123427153549e+00 5.511539545099964243e+02
2.591570145431995265e+00 5.512397884211287646e+02
2.591670167436835648e+00 5.513256672856533669e+02
2.591770189441677363e+00 5.514115900136769142e+02
2.591870211446518191e+00 5.514975555145946373e+02
2.591970233451359018e+00 5.515835626971108923e+02
2.592070255456200290e+00 5.516696104692719018e+02
2.592170277461041117e+00 5.517556977384847414e+02
2.592270299465882388e+00 5.518418234115480345e+02
2.592370321470723216e+00 5.519279863946759406e+02
2.592470343475564931e+00 5.520141855935239619e+02
2.592570365480405314e+00 5.521004199132161148e+02
2.592670387485246586e+00 5.521866882583697134e+02
2.592770409490087857e+00 5.522729895331223133e+02
2.592870431494928685e+00 5.523593226411564956e+02
2.592970453499769956e+00 5.524456864857266964e+02
2.593070475504610783e+00 5.525320799696853555e+02
2.593170497509452055e+00 5.526185019955089501e+02
2.593270519514292882e+00 5.527049514653222104e+02
2.593370541519133710e+00 5.527914272809277918e+02
2.593470563523974981e+00 5.528779283438278753e+02
2.593570585528816252e+00 5.529644535552547495e+02
2.593670607533657524e+00 5.530510018161918424e+02
2.593770629538498351e+00 5.531375720274055539e+02
2.593870651543339623e+00 5.532241630894648097e+02
2.593970673548180450e+00 5.533107739027736898e+02
2.594070695553021277e+00 5.533974033675920055e+02
2.594170717557862549e+00 5.534840503840640622e+02
2.594270739562703376e+00 5.535707138522449213e+02
2.594370761567544648e+00 5.536573926721246153e+02
2.594470783572385919e+00 5.537440857436567967e+02
2.594570805577227190e+00 5.538307919667815895e+02
2.594670827582068018e+00 5.539175102414541243e+02
2.594770849586908845e+00 5.540042394676679578e+02
2.594870871591750117e+00 5.540909785454859957e+02
2.594970893596590944e+00 5.541777263750606153e+02
2.595070915601432215e+00 5.542644818566631102e+02
2.595170937606273043e+00 5.543512438907087017e+02
2.595270959611114314e+00 5.544380113777826864e+02
2.595370981615955586e+00 5.545247832186664709e+02
2.595471003620795969e+00 5.546115583143632648e+02
2.595571025625637684e+00 5.546983355661238875e+02
2.595671047630478512e+00 5.547851138754724616e+02
2.595771069635319783e+00 5.548718921442343799e+02
2.595871091640160611e+00 5.549586692745588152e+02
2.595971113645001882e+00 5.550454441689473697e+02
2.596071135649842709e+00 5.551322157302793130e+02
2.596171157654683537e+00 5.552189828618350020e+02
2.596271179659525252e+00 5.553057444673260079e+02
2.596371201664365636e+00 5.553924994509167163e+02
2.596471223669207351e+00 5.554792467172540000e+02
2.596571245674048178e+00 5.555659851714892739e+02
2.596671267678889450e+00 5.556527137193061208e+02
2.596771289683730277e+00 5.557394312669464398e+02
2.596871311688571105e+00 5.558261367212364803e+02
2.596971333693412376e+00 5.559128289896082151e+02
2.597071355698253203e+00 5.559995069801325371e+02
2.597171377703094919e+00 5.560861696015374491e+02
2.597271399707935302e+00 5.561728157632381908e+02
2.597371421712777018e+00 5.562594443753617952e+02
2.597471443717617845e+00 5.563460543487708492e+02
2.597571465722458672e+00 5.564326445950923699e+02
2.597671487727299944e+00 5.565192140267398599e+02
2.597771509732140771e+00 5.566057615569416157e+02
2.597871531736982043e+00 5.566922860997627822e+02
2.597971553741822870e+00 5.567787865701357077e+02
2.598071575746663697e+00 5.568652618838794979e+02
2.598171597751504969e+00 5.569517109577301426e+02
2.598271619756346240e+00 5.570381327093625714e+02
2.598371641761187512e+00 5.571245260574183931e+02
2.598471663766028339e+00 5.572108899215293150e+02
2.598571685770869610e+00 5.572972232223419269e+02
2.598671707775710438e+00 5.573835248815460091e+02
2.598771729780551265e+00 5.574697938218962463e+02
2.598871751785392537e+00 5.575560289672387171e+02
2.598971773790233364e+00 5.576422292425354499e+02
2.599071795795074635e+00 5.577283935738902301e+02
2.599171817799915907e+00 5.578145208885724742e+02
2.599271839804757178e+00 5.579006101150437189e+02
2.599371861809598006e+00 5.579866601829805859e+02
2.599471883814438833e+00 5.580726700232997928e+02
2.599571905819280104e+00 5.581586385681860065e+02
2.599671927824120932e+00 5.582445647511119660e+02
2.599771949828962203e+00 5.583304475068662214e+02
2.599871971833803030e+00 5.584162857715780319e+02
2.599971993838644302e+00 5.585020784827382840e+02
2.600072015843485573e+00 5.585878245792291636e+02
2.600172037848325957e+00 5.586735230013453020e+02
2.600272059853167672e+00 5.587591726908192413e+02
2.600372081858008499e+00 5.588447725908449684e+02
2.600472103862849771e+00 5.589303216461028114e+02
2.600572125867690598e+00 5.590158188027862707e+02
2.600672147872531870e+00 5.591012630086212312e+02
2.600772169877372697e+00 5.591866532128947256e+02
2.600872191882213524e+00 5.592719883664756253e+02
2.600972213887055240e+00 5.593572674218407883e+02
2.601072235891895623e+00 5.594424893330988198e+02
2.601172257896737339e+00 5.595276530560145147e+02
2.601272279901578166e+00 5.596127575480317091e+02
2.601372301906419438e+00 5.596978017682959035e+02
2.601472323911260265e+00 5.597827846776829119e+02
2.601572345916101092e+00 5.598677052388158017e+02
2.601672367920942364e+00 5.599525624160953612e+02
2.601772389925783191e+00 5.600373551757185169e+02
2.601872411930624907e+00 5.601220824857049365e+02
2.601972433935465290e+00 5.602067433159188568e+02
2.602072455940307005e+00 5.602913366380937532e+02
2.602172477945147833e+00 5.603758614258553052e+02
2.602272499949988660e+00 5.604603166547437922e+02
2.602372521954829931e+00 5.605447013022389910e+02
2.602472543959670759e+00 5.606290143477829133e+02
2.602572565964512030e+00 5.607132547728007239e+02
2.602672587969352858e+00 5.607974215607276847e+02
2.602772609974194573e+00 5.608815136970287085e+02
2.602872631979034956e+00 5.609655301692237117e+02
2.602972653983876228e+00 5.610494699669088732e+02
2.603072675988717499e+00 5.611333320817792583e+02
2.603172697993558327e+00 5.612171155076539435e+02
2.603272719998399598e+00 5.613008192404956844e+02
2.603372742003240425e+00 5.613844422784353583e+02
2.603472764008081697e+00 5.614679836217929960e+02
2.603572786012922524e+00 5.615514422731027935e+02
2.603672808017763352e+00 5.616348172371322107e+02
2.603772830022604623e+00 5.617181075209070968e+02
2.603872852027445894e+00 5.618013121337310167e+02
2.603972874032287166e+00 5.618844300872111717e+02
2.604072896037127993e+00 5.619674603952764755e+02
2.604172918041969265e+00 5.620504020742018838e+02
2.604272940046810092e+00 5.621332541426299940e+02
2.604372962051650919e+00 5.622160156215929874e+02
2.604472984056492191e+00 5.622986855345336608e+02
2.604573006061333018e+00 5.623812629073277094e+02
2.604673028066174290e+00 5.624637467683041905e+02
2.604773050071015561e+00 5.625461361482684879e+02
2.604873072075856832e+00 5.626284300805248222e+02
2.604973094080697660e+00 5.627106276008935311e+02
2.605073116085538487e+00 5.627927277477358530e+02
2.605173138090379759e+00 5.628747295619741635e+02
2.605273160095220586e+00 5.629566320871127800e+02
2.605373182100061857e+00 5.630384343692592211e+02
2.605473204104902685e+00 5.631201354571455795e+02
2.605573226109743956e+00 5.632017344021469398e+02
2.605673248114585228e+00 5.632832302583068440e+02
2.605773270119425611e+00 5.633646220823533213e+02
2.605873292124267326e+00 5.634459089337219666e+02
2.605973314129108154e+00 5.635270898745751538e+02
2.606073336133949425e+00 5.636081639698244317e+02
2.606173358138790253e+00 5.636891302871478047e+02
2.606273380143631524e+00 5.637699878970136069e+02
2.606373402148472351e+00 5.638507358726973280e+02
2.606473424153313179e+00 5.639313732903030996e+02
2.606573446158154894e+00 5.640118992287845003e+02
2.606673468162995277e+00 5.640923127699632005e+02
2.606773490167836993e+00 5.641726129985477201e+02
2.606873512172677820e+00 5.642527990021574169e+02
2.606973534177519092e+00 5.643328698713364702e+02
2.607073556182359919e+00 5.644128246995760492e+02
2.607173578187200746e+00 5.644926625833367098e+02
2.607273600192042018e+00 5.645723826220608998e+02
2.607373622196882845e+00 5.646519839181978568e+02
2.607473644201724561e+00 5.647314655772215701e+02
2.607573666206564944e+00 5.648108267076476068e+02
2.607673688211406660e+00 5.648900664210531204e+02
2.607773710216247487e+00 5.649691838320981105e+02
2.607873732221088314e+00 5.650481780585399747e+02
2.607973754225929586e+00 5.651270482212552224e+02
2.608073776230770413e+00 5.652057934442577789e+02
2.608173798235611685e+00 5.652844128547144464e+02
2.608273820240452512e+00 5.653629055829673007e+02
2.608373842245294227e+00 5.654412707625492658e+02
2.608473864250134611e+00 5.655195075302024179e+02
2.608573886254975882e+00 5.655976150258985626e+02
2.608673908259817154e+00 5.656755923928521952e+02
2.608773930264657981e+00 5.657534387775442610e+02
2.608873952269499252e+00 5.658311533297342066e+02
2.608973974274340080e+00 5.659087352024823758e+02
2.609073996279181351e+00 5.659861835521642206e+02
2.609174018284022178e+00 5.660634975384890595e+02
2.609274040288863006e+00 5.661406763245169032e+02
2.609374062293704277e+00 5.662177190766766444e+02
2.609474084298545549e+00 5.662946249647816330e+02
2.609574106303386820e+00 5.663713931620477524e+02
2.609674128308227647e+00 5.664480228451088806e+02
2.609774150313068919e+00 5.665245131940368992e+02
2.609874172317909746e+00 5.666008633923532898e+02
2.609974194322750574e+00 5.666770726270506202e+02
2.610074216327591845e+00 5.667531400886064148e+02
2.610174238332432672e+00 5.668290649709985018e+02
2.610274260337273944e+00 5.669048464717245679e+02
2.610374282342115215e+00 5.669804837918138674e+02
2.610474304346956487e+00 5.670559761358476862e+02
2.610574326351797314e+00 5.671313227119725298e+02
2.610674348356638141e+00 5.672065227319155838e+02
2.610774370361479413e+00 5.672815754110026774e+02
2.610874392366320240e+00 5.673564799681710156e+02
2.610974414371161512e+00 5.674312356259862327e+02
2.611074436376002339e+00 5.675058416106579671e+02
2.611174458380843610e+00 5.675802971520536175e+02
2.611274480385684882e+00 5.676546014837149414e+02
2.611374502390525265e+00 5.677287538428721518e+02
2.611474524395366981e+00 5.678027534704585833e+02
2.611574546400207808e+00 5.678765996111266077e+02
2.611674568405049079e+00 5.679502915132600265e+02
2.611774590409889907e+00 5.680238284289899866e+02
2.611874612414731178e+00 5.680972096142122609e+02
2.611974634419572006e+00 5.681704343285945242e+02
2.612074656424412833e+00 5.682435018355963621e+02
2.612174678429254548e+00 5.683164114024818900e+02
2.612274700434094932e+00 5.683891623003313498e+02
2.612374722438936647e+00 5.684617538040583895e+02
2.612474744443777475e+00 5.685341851924220009e+02
2.612574766448618746e+00 5.686064557480390249e+02
2.612674788453459573e+00 5.686785647573994993e+02
2.612774810458300401e+00 5.687505115108789369e+02
2.612874832463141672e+00 5.688222953027507174e+02
2.612974854467982500e+00 5.688939154312021174e+02
2.613074876472824215e+00 5.689653711983426092e+02
2.613174898477664598e+00 5.690366619102214827e+02
2.613274920482506314e+00 5.691077868768375083e+02
2.613374942487347141e+00 5.691787454121521250e+02
2.613474964492187969e+00 5.692495368341018320e+02
2.613574986497029240e+00 5.693201604646112628e+02
2.613675008501870067e+00 5.693906156296054633e+02
2.613775030506711339e+00 5.694609016590197825e+02
2.613875052511552166e+00 5.695310178868144249e+02
2.613975074516393882e+00 5.696009636509854772e+02
2.614075096521234265e+00 5.696707382935753685e+02
2.614175118526075536e+00 5.697403411606859436e+02
2.614275140530916808e+00 5.698097716024897181e+02
2.614375162535757635e+00 5.698790289732403380e+02
2.614475184540598907e+00 5.699481126312849710e+02
2.614575206545439734e+00 5.700170219390747661e+02
2.614675228550281005e+00 5.700857562631742894e+02
2.614775250555121833e+00 5.701543149742750529e+02
2.614875272559962660e+00 5.702226974472052916e+02
2.614975294564803932e+00 5.702909030609390584e+02
2.615075316569645203e+00 5.703589311986086159e+02
2.615175338574486474e+00 5.704267812475129631e+02
2.615275360579327302e+00 5.704944525991297724e+02
2.615375382584168573e+00 5.705619446491249391e+02
2.615475404589009401e+00 5.706292567973606538e+02
2.615575426593850228e+00 5.706963884479074522e+02
2.615675448598691499e+00 5.707633390090541070e+02
2.615775470603532327e+00 5.708301078933145618e+02
2.615875492608373598e+00 5.708966945174402099e+02
2.615975514613214870e+00 5.709630983024263742e+02
2.616075536618056141e+00 5.710293186735246991e+02
2.616175558622896968e+00 5.710953550602487212e+02
2.616275580627737796e+00 5.711612068963850106e+02
2.616375602632579067e+00 5.712268736200030617e+02
2.616475624637419894e+00 5.712923546734594993e+02
2.616575646642261166e+00 5.713576495034103573e+02
2.616675668647101993e+00 5.714227575608189227e+02
2.616775690651943265e+00 5.714876783009624432e+02
2.616875712656784536e+00 5.715524111834416772e+02
2.616975734661624919e+00 5.716169556721873732e+02
2.617075756666466635e+00 5.716813112354706163e+02
2.617175778671307462e+00 5.717454773459071475e+02
2.617275800676148734e+00 5.718094534804681643e+02
2.617375822680989561e+00 5.718732391204855503e+02
2.617475844685830833e+00 5.719368337516596057e+02
2.617575866690671660e+00 5.720002368640675741e+02
2.617675888695512487e+00 5.720634479521684170e+02
2.617775910700354203e+00 5.721264665148114545e+02
2.617875932705194586e+00 5.721892920552427313e+02
2.617975954710036302e+00 5.722519240811111558e+02
2.618075976714877129e+00 5.723143621044754354e+02
2.618175998719718400e+00 5.723766056418107837e+02
2.618276020724559228e+00 5.724386542140131269e+02
2.618376042729400055e+00 5.725005073464089946e+02
2.618476064734241326e+00 5.725621645687569981e+02
2.618576086739082154e+00 5.726236254152584024e+02
2.618676108743923869e+00 5.726848894245576957e+02
2.618776130748764253e+00 5.727459561397521384e+02
2.618876152753605968e+00 5.728068251083959694e+02
2.618976174758446795e+00 5.728674958825056365e+02
2.619076196763287623e+00 5.729279680185636607e+02
2.619176218768128894e+00 5.729882410775262542e+02
2.619276240772969722e+00 5.730483146248262756e+02
2.619376262777810993e+00 5.731081882303770954e+02
2.619476284782651820e+00 5.731678614685820321e+02
2.619576306787493536e+00 5.732273339183318512e+02
2.619676328792333919e+00 5.732866051630144284e+02
2.619776350797175191e+00 5.733456747905174780e+02
2.619876372802016462e+00 5.734045423932312815e+02
2.619976394806857289e+00 5.734632075680548269e+02
2.620076416811698561e+00 5.735216699163972862e+02
2.620176438816539388e+00 5.735799290441839275e+02
2.620276460821380660e+00 5.736379845618585023e+02
2.620376482826221487e+00 5.736958360843855189e+02
2.620476504831062314e+00 5.737534832312569506e+02
2.620576526835903586e+00 5.738109256264910982e+02
2.620676548840744857e+00 5.738681628986392980e+02
2.620776570845586129e+00 5.739251946807855802e+02
2.620876592850426956e+00 5.739820206105521265e+02
2.620976614855268227e+00 5.740386403300996108e+02
2.621076636860109055e+00 5.740950534861319738e+02
2.621176658864949882e+00 5.741512597298972196e+02
2.621276680869791154e+00 5.742072587171888927e+02
2.621376702874631981e+00 5.742630501083497165e+02
2.621476724879473252e+00 5.743186335682729577e+02
2.621576746884314524e+00 5.743740087664041312e+02
2.621676768889155795e+00 5.744291753767430464e+02
2.621776790893996623e+00 5.744841330778439215e+02
2.621876812898837450e+00 5.745388815528178839e+02
2.621976834903678721e+00 5.745934204893349033e+02
2.622076856908519549e+00 5.746477495796241328e+02
2.622176878913360820e+00 5.747018685204734538e+02
2.622276900918201648e+00 5.747557770132332280e+02
2.622376922923042919e+00 5.748094747638142508e+02
2.622476944927884190e+00 5.748629614826894567e+02
2.622576966932724574e+00 5.749162368848961933e+02
2.622676988937566289e+00 5.749693006900329237e+02
2.622777010942407117e+00 5.750221526222610464e+02
2.622877032947248388e+00 5.750747924103064861e+02
2.622977054952089215e+00 5.751272197874566245e+02
2.623077076956930487e+00 5.751794344915633701e+02
2.623177098961771314e+00 5.752314362650388375e+02
2.623277120966612141e+00 5.752832248548586449e+02
2.623377142971453857e+00 5.753348000125590715e+02
2.623477164976294240e+00 5.753861614942366032e+02
2.623577186981135956e+00 5.754373090605473635e+02
2.623677208985976783e+00 5.754882424767070006e+02
2.623777230990818055e+00 5.755389615124868214e+02
2.623877252995658882e+00 5.755894659422152699e+02
2.623977275000499709e+00 5.756397555447746299e+02
2.624077297005340981e+00 5.756898301036011389e+02
2.624177319010181808e+00 5.757396894066811228e+02
2.624277341015023524e+00 5.757893332465509957e+02
2.624377363019863907e+00 5.758387614202949862e+02
2.624477385024705622e+00 5.758879737295421819e+02
2.624577407029546450e+00 5.759369699804648235e+02
2.624677429034387277e+00 5.759857499837758041e+02
2.624777451039228549e+00 5.760343135547268503e+02
2.624877473044069376e+00 5.760826605131043152e+02
2.624977495048910647e+00 5.761307906832288381e+02
2.625077517053751475e+00 5.761787038939496597e+02
2.625177539058593190e+00 5.762263999786434852e+02
2.625277561063433573e+00 5.762738787752120970e+02
2.625377583068274845e+00 5.763211401260746243e+02
2.625477605073116116e+00 5.763681838781712941e+02
2.625577627077956944e+00 5.764150098829521767e+02
2.625677649082798215e+00 5.764616179963798004e+02
2.625777671087639042e+00 5.765080080789214207e+02
2.625877693092480314e+00 5.765541799955470879e+02
2.625977715097321141e+00 5.766001336157247579e+02
2.626077737102161969e+00 5.766458688134156318e+02
2.626177759107003240e+00 5.766913854670718820e+02
2.626277781111844511e+00 5.767366834596297167e+02
2.626377803116685783e+00 5.767817626785054017e+02
2.626477825121526610e+00 5.768266230155923040e+02
2.626577847126367882e+00 5.768712643672537297e+02
2.626677869131208709e+00 5.769156866343208776e+02
2.626777891136049536e+00 5.769598897220835170e+02
2.626877913140890808e+00 5.770038735402881684e+02
2.626977935145731635e+00 5.770476380031316239e+02
2.627077957150572907e+00 5.770911830292559443e+02
2.627177979155414178e+00 5.771345085417423206e+02
2.627278001160255450e+00 5.771776144681047072e+02
2.627378023165096277e+00 5.772205007402869796e+02
2.627478045169937104e+00 5.772631672946527033e+02
2.627578067174778376e+00 5.773056140719822906e+02
2.627678089179619203e+00 5.773478410174643614e+02
2.627778111184460474e+00 5.773898480806926727e+02
2.627878133189301302e+00 5.774316352156552057e+02
2.627978155194142573e+00 5.774732023807324595e+02
2.628078177198983845e+00 5.775145495386867651e+02
2.628178199203824228e+00 5.775556766566577380e+02
2.628278221208665943e+00 5.775965837061532966e+02
2.628378243213506771e+00 5.776372706630463654e+02
2.628478265218348042e+00 5.776777375075613463e+02
2.628578287223188870e+00 5.777179842242742325e+02
2.628678309228030141e+00 5.777580108020996477e+02
2.628778331232870968e+00 5.777978172342850485e+02
2.628878353237711796e+00 5.778374035184045852e+02
2.628978375242553511e+00 5.778767696563485288e+02
2.629078397247393895e+00 5.779159156543164499e+02
2.629178419252235610e+00 5.779548415228106251e+02
2.629278441257076437e+00 5.779935472766250086e+02
2.629378463261917709e+00 5.780320329348400037e+02
2.629478485266758536e+00 5.780702985208118889e+02
2.629578507271599364e+00 5.781083440621653153e+02
2.629678529276440635e+00 5.781461695907835292e+02
2.629778551281281462e+00 5.781837751428015508e+02
2.629878573286123178e+00 5.782211607585957154e+02
2.629978595290963561e+00 5.782583264827746916e+02
2.630078617295805277e+00 5.782952723641717512e+02
2.630178639300646104e+00 5.783319984558331726e+02
2.630278661305486931e+00 5.783685048150117609e+02
2.630378683310328203e+00 5.784047915031561615e+02
2.630478705315169030e+00 5.784408585858988090e+02
2.630578727320010302e+00 5.784767061330516071e+02
2.630678749324851129e+00 5.785123342185905813e+02
2.630778771329692844e+00 5.785477429206500801e+02
2.630878793334533228e+00 5.785829323215098157e+02
2.630978815339374499e+00 5.786179025075869049e+02
2.631078837344215771e+00 5.786526535694243876e+02
2.631178859349056598e+00 5.786871856016813354e+02
2.631278881353897869e+00 5.787214987031215969e+02
2.631378903358738697e+00 5.787555929766058398e+02
2.631478925363579968e+00 5.787894685290759753e+02
2.631578947368420796e+00 5.788231254715490195e+02
2.631678969373261623e+00 5.788565639191052696e+02
2.631778991378102894e+00 5.788897839908743208e+02
2.631879013382944166e+00 5.789227858100272215e+02
2.631979035387785437e+00 5.789555695037645364e+02
2.632079057392626265e+00 5.789881352033032726e+02
2.632179079397467536e+00 5.790204830438673298e+02
2.632279101402308363e+00 5.790526131646753356e+02
2.632379123407149191e+00 5.790845257089290499e+02
2.632479145411990462e+00 5.791162208238007452e+02
2.632579167416831289e+00 5.791476986604234298e+02
2.632679189421672561e+00 5.791789593738766371e+02
2.632779211426513832e+00 5.792100031231740331e+02
2.632879233431354216e+00 5.792408300712546634e+02
2.632979255436195931e+00 5.792714403849670362e+02
2.633079277441036758e+00 5.793018342350579815e+02
2.633179299445878030e+00 5.793320117961612823e+02
2.633279321450718857e+00 5.793619732467831227e+02
2.633379343455560129e+00 5.793917187692899233e+02
2.633479365460400956e+00 5.794212485498975411e+02
2.633579387465241783e+00 5.794505627786550122e+02
2.633679409470083499e+00 5.794796616494337513e+02
2.633779431474923882e+00 5.795085453599153880e+02
2.633879453479765598e+00 5.795372141115749400e+02
2.633979475484606425e+00 5.795656681096708098e+02
2.634079497489447697e+00 5.795939075632306867e+02
2.634179519494288524e+00 5.796219326850368816e+02
2.634279541499129351e+00 5.796497436916142760e+02
2.634379563503970623e+00 5.796773408032154293e+02
2.634479585508811450e+00 5.797047242438069361e+02
2.634579607513653166e+00 5.797318942410573754e+02
2.634679629518493549e+00 5.797588510263196895e+02
2.634779651523335264e+00 5.797855948346211790e+02
2.634879673528176092e+00 5.798121259046453133e+02
2.634979695533016919e+00 5.798384444787220673e+02
2.635079717537858190e+00 5.798645508028099584e+02
2.635179739542699018e+00 5.798904451264820636e+02
2.635279761547540289e+00 5.799161277029129451e+02
2.635379783552381117e+00 5.799415987888639847e+02
2.635479805557222832e+00 5.799668586446664449e+02
2.635579827562063215e+00 5.799919075342096448e+02
2.635679849566904487e+00 5.800167457249227709e+02
2.635779871571745758e+00 5.800413734877644174e+02
2.635879893576586586e+00 5.800657910972026912e+02
2.635979915581427857e+00 5.800899988312031610e+02
2.636079937586268684e+00 5.801139969712124866e+02
2.636179959591109956e+00 5.801377858021439806e+02
2.636279981595950783e+00 5.801613656123602141e+02
2.636380003600791611e+00 5.801847366936605113e+02
2.636480025605632882e+00 5.802078993412619639e+02
2.636580047610474153e+00 5.802308538537876075e+02
2.636680069615315425e+00 5.802536005332465265e+02
2.636780091620156252e+00 5.802761396850221445e+02
2.636880113624997524e+00 5.802984716178523286e+02
2.636980135629838351e+00 5.803205966438163159e+02
2.637080157634679178e+00 5.803425150783184563e+02
2.637180179639520450e+00 5.803642272400709317e+02
2.637280201644361277e+00 5.803857334510763621e+02
2.637380223649202549e+00 5.804070340366153005e+02
2.637480245654043820e+00 5.804281293252261094e+02
2.637580267658885091e+00 5.804490196486913192e+02
2.637680289663725919e+00 5.804697053420180737e+02
2.637780311668566746e+00 5.804901867434258520e+02
2.637880333673408018e+00 5.805104641943233901e+02
2.637980355678248845e+00 5.805305380392992447e+02
2.638080377683090116e+00 5.805504086261003067e+02
2.638180399687930944e+00 5.805700763056146343e+02
2.638280421692772215e+00 5.805895414318580379e+02
2.638380443697613487e+00 5.806088043619528207e+02
2.638480465702453870e+00 5.806278654561141366e+02
2.638580487707295585e+00 5.806467250776304354e+02
2.638680509712136413e+00 5.806653835928475473e+02
2.638780531716977684e+00 5.806838413711511748e+02
2.638880553721818512e+00 5.807020987849474523e+02
2.638980575726659783e+00 5.807201562096503267e+02
2.639080597731500610e+00 5.807380140236574562e+02
2.639180619736341438e+00 5.807556726083383865e+02
2.639280641741183153e+00 5.807731323480143146e+02
2.639380663746023536e+00 5.807903936299393308e+02
2.639480685750865252e+00 5.808074568442848431e+02
2.639580707755706079e+00 5.808243223841205918e+02
2.639680729760547351e+00 5.808409906453966869e+02
2.639780751765388178e+00 5.808574620269258730e+02
2.639880773770229005e+00 5.808737369303651121e+02
2.639980795775070277e+00 5.808898157601977346e+02
2.640080817779911104e+00 5.809056989237151356e+02
2.640180839784752820e+00 5.809213868310000635e+02
2.640280861789593203e+00 5.809368798949046777e+02
2.640380883794434919e+00 5.809521785310357700e+02
2.640480905799275746e+00 5.809672831577344141e+02
2.640580927804116573e+00 5.809821941960582308e+02
2.640680949808957845e+00 5.809969120697628568e+02
2.640780971813798672e+00 5.810114372052830731e+02
2.640880993818639944e+00 5.810257700317126819e+02
2.640981015823480771e+00 5.810399109807909781e+02
2.641081037828322486e+00 5.810538604868768289e+02
2.641181059833162870e+00 5.810676189869349173e+02
2.641281081838004141e+00 5.810811869205151652e+02
2.641381103842845413e+00 5.810945647297339747e+02
2.641481125847686240e+00 5.811077528592561521e+02
2.641581147852527511e+00 5.811207517562737621e+02
2.641681169857368339e+00 5.811335618704882791e+02
2.641781191862209610e+00 5.811461836540930790e+02
2.641881213867050437e+00 5.811586175617514982e+02
2.641981235871891265e+00 5.811708640505785297e+02
2.642081257876732536e+00 5.811829235801232016e+02
2.642181279881573808e+00 5.811947966123466358e+02
2.642281301886415079e+00 5.812064836116055631e+02
2.642381323891255906e+00 5.812179850446291312e+02
2.642481345896097178e+00 5.812293013805036708e+02
2.642581367900938005e+00 5.812404330906498444e+02
2.642681389905778833e+00 5.812513806488059345e+02
2.642781411910620104e+00 5.812621445310053332e+02
2.642881433915460931e+00 5.812727252155596034e+02
2.642981455920302203e+00 5.812831231830369916e+02
2.643081477925143474e+00 5.812933389162438971e+02
2.643181499929984746e+00 5.813033729002029304e+02
2.643281521934825573e+00 5.813132256221377929e+02
2.643381543939666400e+00 5.813228975714482658e+02
2.643481565944507672e+00 5.813323892396927022e+02
2.643581587949348499e+00 5.813417011205687004e+02
2.643681609954189771e+00 5.813508337098926404e+02
2.643781631959030598e+00 5.813597875055791064e+02
2.643881653963871869e+00 5.813685630076213329e+02
2.643981675968713141e+00 5.813771607180715364e+02
2.644081697973553524e+00 5.813855811410203387e+02
2.644181719978395240e+00 5.813938247825763028e+02
2.644281741983236067e+00 5.814018921508476296e+02
2.644381763988077338e+00 5.814097837559205573e+02
2.644481785992918166e+00 5.814175001098375333e+02
2.644581807997759437e+00 5.814250417265811848e+02
2.644681830002600265e+00 5.814324091220501032e+02
2.644781852007441092e+00 5.814396028140411090e+02
2.644881874012282807e+00 5.814466233222270830e+02
2.644981896017123191e+00 5.814534711681384351e+02
2.645081918021964906e+00 5.814601468751410493e+02
2.645181940026805734e+00 5.814666509684183211e+02
2.645281962031647005e+00 5.814729839749472831e+02
2.645381984036487832e+00 5.814791464234810974e+02
2.645482006041328660e+00 5.814851388445273415e+02
2.645582028046169931e+00 5.814909617703276581e+02
2.645682050051010759e+00 5.814966157348371780e+02
2.645782072055852474e+00 5.815021012737050796e+02
2.645882094060692857e+00 5.815074189242519651e+02
2.645982116065534573e+00 5.815125692254508749e+02
2.646082138070375400e+00 5.815175527179073924e+02
2.646182160075216228e+00 5.815223699438363383e+02
2.646282182080057499e+00 5.815270214470443761e+02
2.646382204084898326e+00 5.815315077729062523e+02
2.646482226089739598e+00 5.815358294683467193e+02
2.646582248094580425e+00 5.815399870818185946e+02
2.646682270099422141e+00 5.815439811632829787e+02
2.646782292104262524e+00 5.815478122641873142e+02
2.646882314109103795e+00 5.815514809374452625e+02
2.646982336113945067e+00 5.815549877374158996e+02
2.647082358118785894e+00 5.815583332198842754e+02
2.647182380123627166e+00 5.815615179420381082e+02
2.647282402128467993e+00 5.815645424624498219e+02
2.647382424133309264e+00 5.815674073410535811e+02
2.647482446138150092e+00 5.815701131391256240e+02
2.647582468142990919e+00 5.815726604192632294e+02
2.647682490147832191e+00 5.815750497453645949e+02
2.647782512152673462e+00 5.815772816826067810e+02
2.647882534157514733e+00 5.815793567974255893e+02
2.647982556162355561e+00 5.815812756574946434e+02
2.648082578167196832e+00 5.815830388317056077e+02
2.648182600172037660e+00 5.815846468901464732e+02
2.648282622176878487e+00 5.815861004040789339e+02
2.648382644181719758e+00 5.815873999459213337e+02
2.648482666186560586e+00 5.815885460892254741e+02
2.648582688191401857e+00 5.815895394086551278e+02
2.648682710196243129e+00 5.815903804799688714e+02
2.648782732201084400e+00 5.815910698799943930e+02
2.648882754205925227e+00 5.815916081866108698e+02
2.648982776210766055e+00 5.815919959787278231e+02
2.649082798215607326e+00 5.815922338362636310e+02
2.649182820220448153e+00 5.815923223401241557e+02
2.649282842225289425e+00 5.815922620721835301e+02
2.649382864230130252e+00 5.815920536152624436e+02
2.649482886234971524e+00 5.815916975531075650e+02
2.649582908239812795e+00 5.815911944703710788e+02
2.649682930244653178e+00 5.815905449525882887e+02
2.649782952249494894e+00 5.815897495861593143e+02
2.649882974254335721e+00 5.815888089583266947e+02
2.649982996259176993e+00 5.815877236571549247e+02
2.650083018264017820e+00 5.815864942715101051e+02
2.650183040268859092e+00 5.815851213910387969e+02
2.650283062273699919e+00 5.815836056061480122e+02
2.650383084278540746e+00 5.815819475079833865e+02
2.650483106283382462e+00 5.815801476884083741e+02
2.650583128288222845e+00 5.815782067399868538e+02
2.650683150293064561e+00 5.815761252559574359e+02
2.650783172297905388e+00 5.815739038302160679e+02
2.650883194302746659e+00 5.815715430572940932e+02
2.650983216307587487e+00 5.815690435323400607e+02
2.651083238312428314e+00 5.815664058510956238e+02
2.651183260317269585e+00 5.815636306098764408e+02
2.651283282322110413e+00 5.815607184055525067e+02
2.651383304326952128e+00 5.815576698355266672e+02
2.651483326331792512e+00 5.815544854977139266e+02
2.651583348336634227e+00 5.815511659905220085e+02
2.651683370341475054e+00 5.815477119128292998e+02
2.651783392346315882e+00 5.815441238639662060e+02
2.651883414351157153e+00 5.815404024436936652e+02
2.651983436355997981e+00 5.815365482521816602e+02
2.652083458360839252e+00 5.815325618899914843e+02
2.652183480365680079e+00 5.815284439580532307e+02
2.652283502370521795e+00 5.815241950576458976e+02
2.652383524375362178e+00 5.815198157903780611e+02
2.652483546380203450e+00 5.815153067581663890e+02
2.652583568385044721e+00 5.815106685632154040e+02
2.652683590389885548e+00 5.815059018079989528e+02
2.652783612394726820e+00 5.815010070952376964e+02
2.652883634399567647e+00 5.814959850278800104e+02
2.652983656404408919e+00 5.814908362090825449e+02
2.653083678409249746e+00 5.814855612421883961e+02
2.653183700414090573e+00 5.814801607307088034e+02
2.653283722418931845e+00 5.814746352783020029e+02
2.653383744423773116e+00 5.814689854887539013e+02
2.653483766428614388e+00 5.814632119659565888e+02
2.653583788433455215e+00 5.814573153138910584e+02
2.653683810438296486e+00 5.814512961366048103e+02
2.653783832443137314e+00 5.814451550381927518e+02
2.653883854447978141e+00 5.814388926227783259e+02
2.653983876452819413e+00 5.814325094944923649e+02
2.654083898457660240e+00 5.814260062574533094e+02
2.654183920462501511e+00 5.814193835157489048e+02
2.654283942467342783e+00 5.814126418734161916e+02
2.654383964472184054e+00 5.814057819344191103e+02
2.654483986477024882e+00 5.813988043026334935e+02
2.654584008481865709e+00 5.813917095818226244e+02
2.654684030486706980e+00 5.813844983756234797e+02
2.654784052491547808e+00 5.813771712875204685e+02
2.654884074496389079e+00 5.813697289208308803e+02
2.654984096501229907e+00 5.813621718786849897e+02
2.655084118506071178e+00 5.813545007640036602e+02
2.655184140510912449e+00 5.813467161794819731e+02
2.655284162515752833e+00 5.813388187275709242e+02
2.655384184520594548e+00 5.813308090104533221e+02
2.655484206525435376e+00 5.813226876300291224e+02
2.655584228530276647e+00 5.813144551878953052e+02
2.655684250535117474e+00 5.813061122853256393e+02
2.655784272539958746e+00 5.812976595232519230e+02
2.655884294544799573e+00 5.812890975022463635e+02
2.655984316549640400e+00 5.812804268225006581e+02
2.656084338554482116e+00 5.812716480838087136e+02
2.656184360559322499e+00 5.812627618855470928e+02
2.656284382564164215e+00 5.812537688266564828e+02
2.656384404569005042e+00 5.812446695056224826e+02
2.656484426573846314e+00 5.812354645204567305e+02
2.656584448578687141e+00 5.812261544686805337e+02
2.656684470583527968e+00 5.812167399473024716e+02
2.656784492588369240e+00 5.812072215528032757e+02
2.656884514593210067e+00 5.811975998811152522e+02
2.656984536598051783e+00 5.811878755276053425e+02
2.657084558602892166e+00 5.811780490870563654e+02
2.657184580607733881e+00 5.811681211536464389e+02
2.657284602612574709e+00 5.811580923209352250e+02
2.657384624617415536e+00 5.811479631818410780e+02
2.657484646622256808e+00 5.811377343286266068e+02
2.657584668627097635e+00 5.811274063528782108e+02
2.657684690631938906e+00 5.811169798454890270e+02
2.657784712636779734e+00 5.811064553966421045e+02
2.657884734641621449e+00 5.810958335957885765e+02
2.657984756646461832e+00 5.810851150316356097e+02
2.658084778651303104e+00 5.810743002921241214e+02
2.658184800656144375e+00 5.810633899644114990e+02
2.658284822660985203e+00 5.810523846348564803e+02
2.658384844665826474e+00 5.810412848890000532e+02
2.658484866670667301e+00 5.810300913115471531e+02
2.658584888675508573e+00 5.810188044863502910e+02
2.658684910680349400e+00 5.810074249963929560e+02
2.658784932685190228e+00 5.809959534237686967e+02
2.658884954690031499e+00 5.809843903496691837e+02
2.658984976694872771e+00 5.809727363543621550e+02
2.659084998699714042e+00 5.809609920171783415e+02
2.659185020704554869e+00 5.809491579164906625e+02
2.659285042709396141e+00 5.809372346296997875e+02
2.659385064714236968e+00 5.809252227332157190e+02
2.659485086719077795e+00 5.809131228024435813e+02
2.659585108723919067e+00 5.809009354117628163e+02
2.659685130728759894e+00 5.808886611345137680e+02
2.659785152733601166e+00 5.808763005429799477e+02
2.659885174738442437e+00 5.808638542083706398e+02
2.659985196743283709e+00 5.808513227008052127e+02
2.660085218748124536e+00 5.808387065892975443e+02
2.660185240752965363e+00 5.808260064417374906e+02
2.660285262757806635e+00 5.808132228248779256e+02
2.660385284762647462e+00 5.808003563043139366e+02
2.660485306767488733e+00 5.807874074444705457e+02
2.660585328772329561e+00 5.807743768085861120e+02
2.660685350777170832e+00 5.807612649586939142e+02
2.660785372782012104e+00 5.807480724556095311e+02
2.660885394786852487e+00 5.807347998589123108e+02
2.660985416791694202e+00 5.807214477269308190e+02
2.661085438796535030e+00 5.807080166167279458e+02
2.661185460801376301e+00 5.806945070840838525e+02
2.661285482806217129e+00 5.806809196834810791e+02
2.661385504811058400e+00 5.806672549680880593e+02
2.661485526815899227e+00 5.806535134897471835e+02
2.661585548820740055e+00 5.806396957989546763e+02
2.661685570825581770e+00 5.806258024448484321e+02
2.661785592830422154e+00 5.806118339751933490e+02
2.661885614835263869e+00 5.805977909363638219e+02
2.661985636840104696e+00 5.805836738733311222e+02
2.662085658844945968e+00 5.805694833296474826e+02
2.662185680849786795e+00 5.805552198474300667e+02
2.662285702854627623e+00 5.805408839673494867e+02
2.662385724859468894e+00 5.805264762286116138e+02
2.662485746864309721e+00 5.805119971689463227e+02
2.662585768869151437e+00 5.804974473245891886e+02
2.662685790873991820e+00 5.804828272302714822e+02
2.662785812878833536e+00 5.804681374192022076e+02
2.662885834883674363e+00 5.804533784230557103e+02
2.662985856888515190e+00 5.804385507719572388e+02
2.663085878893356462e+00 5.804236549944689614e+02
2.663185900898197289e+00 5.804086916175760962e+02
2.663285922903038561e+00 5.803936611666727003e+02
2.663385944907879388e+00 5.803785641655473455e+02
2.663485966912721103e+00 5.803634011363706122e+02
2.663585988917561487e+00 5.803481725996816749e+02
2.663686010922402758e+00 5.803328790743727268e+02
2.663786032927244030e+00 5.803175210776781796e+02
2.663886054932084857e+00 5.803020991251593159e+02
2.663986076936926128e+00 5.802866137306917835e+02
2.664086098941766956e+00 5.802710654064530900e+02
2.664186120946608227e+00 5.802554546629082779e+02
2.664286142951449055e+00 5.802397820087965101e+02
2.664386164956289882e+00 5.802240479511216336e+02
2.664486186961131153e+00 5.802082529951350125e+02
2.664586208965972425e+00 5.801923976443256379e+02
2.664686230970813696e+00 5.801764824004058028e+02
2.664786252975654524e+00 5.801605077633000747e+02
2.664886274980495795e+00 5.801444742311321079e+02
2.664986296985336622e+00 5.801283823002124791e+02
2.665086318990177450e+00 5.801122324650252722e+02
2.665186340995018721e+00 5.800960252182178465e+02
2.665286362999859548e+00 5.800797610505887860e+02
2.665386385004700820e+00 5.800634404510733475e+02
2.665486407009542091e+00 5.800470639067336833e+02
2.665586429014383363e+00 5.800306319027486097e+02
2.665686451019224190e+00 5.800141449223962127e+02
2.665786473024065018e+00 5.799976034470496415e+02
2.665886495028906289e+00 5.799810079561605107e+02
2.665986517033747116e+00 5.799643589272483268e+02
2.666086539038588388e+00 5.799476568358908253e+02
2.666186561043429215e+00 5.799309021557116921e+02
2.666286583048270487e+00 5.799140953583694227e+02
2.666386605053111758e+00 5.798972369135457257e+02
2.666486627057952141e+00 5.798803272889371101e+02
2.666586649062793857e+00 5.798633669502405610e+02
2.666686671067634684e+00 5.798463563611458085e+02
2.666786693072475956e+00 5.798292959833215718e+02
2.666886715077316783e+00 5.798121862764089656e+02
2.666986737082158054e+00 5.797950276980079707e+02
2.667086759086998882e+00 5.797778207036687945e+02
2.667186781091839709e+00 5.797605657468800473e+02
2.667286803096681425e+00 5.797432632790607840e+02
2.667386825101521808e+00 5.797259137495478853e+02
2.667486847106363523e+00 5.797085176055884403e+02
2.667586869111204351e+00 5.796910752923297423e+02
2.667686891116045178e+00 5.796735872528057598e+02
2.667786913120886449e+00 5.796560539279346358e+02
2.667886935125727277e+00 5.796384757565018617e+02
2.667986957130568548e+00 5.796208531751564124e+02
2.668086979135409376e+00 5.796031866183976717e+02
2.668187001140251091e+00 5.795854765185670203e+02
2.668287023145091474e+00 5.795677233058414686e+02
2.668387045149932746e+00 5.795499274082210377e+02
2.668487067154774017e+00 5.795320892515210289e+02
2.668587089159614845e+00 5.795142092593647476e+02
2.668687111164456116e+00 5.794962878531720207e+02
2.668787133169296943e+00 5.794783254521530580e+02
2.668887155174138215e+00 5.794603224732990157e+02
2.668987177178979042e+00 5.794422793313729017e+02
2.669087199183819870e+00 5.794241964389027544e+02
2.669187221188661141e+00 5.794060742061717519e+02
2.669287243193502412e+00 5.793879130412116183e+02
2.669387265198343684e+00 5.793697133497936420e+02
2.669487287203184511e+00 5.793514755354207182e+02
2.669587309208025783e+00 5.793331999993217778e+02
2.669687331212866610e+00 5.793148871404397369e+02
2.669787353217707437e+00 5.792965373554284270e+02
2.669887375222548709e+00 5.792781510386429318e+02
2.669987397227389536e+00 5.792597285821315154e+02
2.670087419232230808e+00 5.792412703756294832e+02
2.670187441237072079e+00 5.792227768065534974e+02
2.670287463241913350e+00 5.792042482599913455e+02
2.670387485246754178e+00 5.791856851186963695e+02
2.670487507251595005e+00 5.791670877630821224e+02
2.670587529256436277e+00 5.791484565712125914e+02
2.670687551261277104e+00 5.791297919187995831e+02
2.670787573266118375e+00 5.791110941791914684e+02
2.670887595270959203e+00 5.790923637233712498e+02
2.670987617275800474e+00 5.790736009199459886e+02
2.671087639280641746e+00 5.790548061351452134e+02
2.671187661285482129e+00 5.790359797328104605e+02
2.671287683290323844e+00 5.790171220743923186e+02
2.671387705295164672e+00 5.789982335189428113e+02
2.671487727300005943e+00 5.789793144231111910e+02
2.671587749304846771e+00 5.789603651411364353e+02
2.671687771309688042e+00 5.789413860248420178e+02
2.671787793314528869e+00 5.789223774236329518e+02
2.671887815319369697e+00 5.789033396844858999e+02
2.671987837324211412e+00 5.788842731519489462e+02
2.672087859329051795e+00 5.788651781681321609e+02
2.672187881333893511e+00 5.788460550727053260e+02
2.672287903338734338e+00 5.788269042028913418e+02
2.672387925343575610e+00 5.788077258934628162e+02
2.672487947348416437e+00 5.787885204767366076e+02
2.672587969353257265e+00 5.787692882825681409e+02
2.672687991358098536e+00 5.787500296383497016e+02
2.672788013362939363e+00 5.787307448690027059e+02
2.672888035367781079e+00 5.787114342969763356e+02
2.672988057372621462e+00 5.786920982422410589e+02
2.673088079377463178e+00 5.786727370222864693e+02
2.673188101382304005e+00 5.786533509521150336e+02
2.673288123387144832e+00 5.786339403442416369e+02
2.673388145391986104e+00 5.786145055086856246e+02
2.673488167396826931e+00 5.785950467529701200e+02
2.673588189401668203e+00 5.785755643821179319e+02
2.673688211406509030e+00 5.785560586986476892e+02
2.673788233411350745e+00 5.785365300025707711e+02
2.673888255416191129e+00 5.785169785913874421e+02
2.673988277421032400e+00 5.784974047600846916e+02
2.674088299425873672e+00 5.784778088011324826e+02
2.674188321430714499e+00 5.784581910044813640e+02
2.674288343435555770e+00 5.784385516575600832e+02
2.674388365440396598e+00 5.784188910452708114e+02
2.674488387445237869e+00 5.783992094499881205e+02
2.674588409450078696e+00 5.783795071515586415e+02
2.674688431454919524e+00 5.783597844272940165e+02
2.674788453459760795e+00 5.783400415519720354e+02
2.674888475464602067e+00 5.783202787978329980e+02
2.674988497469443338e+00 5.783004964345782355e+02
2.675088519474284166e+00 5.782806947293702251e+02
2.675188541479125437e+00 5.782608739468245176e+02
2.675288563483966264e+00 5.782410343490157629e+02
2.675388585488807092e+00 5.782211761954707754e+02
2.675488607493648363e+00 5.782012997431684198e+02
2.675588629498489190e+00 5.781814052465397253e+02
2.675688651503330462e+00 5.781614929574637927e+02
2.675788673508171733e+00 5.781415631252688172e+02
2.675888695513013005e+00 5.781216159967302701e+02
2.675988717517853832e+00 5.781016518160696478e+02
2.676088739522694659e+00 5.780816708249545854e+02
2.676188761527535931e+00 5.780616732624963561e+02
2.676288783532376758e+00 5.780416593652507800e+02
2.676388805537218030e+00 5.780216293672158372e+02
2.676488827542058857e+00 5.780015834998342825e+02
2.676588849546900128e+00 5.779815219919900073e+02
2.676688871551741400e+00 5.779614450700095176e+02
2.676788893556581783e+00 5.779413529576611381e+02
2.676888915561423499e+00 5.779212458761561493e+02
2.676988937566264326e+00 5.779011240441467407e+02
2.677088959571105597e+00 5.778809876777281715e+02
2.677188981575946425e+00 5.778608369904383153e+02
2.677289003580787696e+00 5.778406721932567507e+02
2.677389025585628524e+00 5.778204934946082858e+02
2.677489047590469351e+00 5.778003011003603433e+02
2.677589069595311067e+00 5.777800952138247794e+02
2.677689091600151450e+00 5.777598760357598167e+02
2.677789113604993165e+00 5.777396437643695890e+02
2.677889135609833993e+00 5.777193985953047104e+02
2.677989157614675264e+00 5.776991407216656853e+02
2.678089179619516091e+00 5.776788703340014308e+02
2.678189201624356919e+00 5.776585876203120051e+02
2.678289223629198190e+00 5.776382927660495170e+02
2.678389245634039018e+00 5.776179859541196038e+02
2.678489267638880733e+00 5.775976673648847282e+02
2.678589289643721116e+00 5.775773371761622457e+02
2.678689311648562832e+00 5.775569955632300889e+02
2.678789333653403659e+00 5.775366426988256308e+02
2.678889355658244487e+00 5.775162787531501181e+02
2.678989377663085758e+00 5.774959038938688991e+02
2.679089399667926585e+00 5.774755182861146068e+02
2.679189421672767857e+00 5.774551220924897734e+02
2.679289443677608684e+00 5.774347154730671718e+02
2.679389465682450400e+00 5.774142985853960681e+02
2.679489487687290783e+00 5.773938715844998342e+02
2.679589509692132054e+00 5.773734346228848153e+02
2.679689531696973326e+00 5.773529878505371471e+02
2.679789553701814153e+00 5.773325314149290080e+02
2.679889575706655425e+00 5.773120654610211204e+02
2.679989597711496252e+00 5.772915901312652522e+02
2.680089619716337523e+00 5.772711055656086501e+02
2.680189641721178351e+00 5.772506119014947217e+02
2.680289663726019178e+00 5.772301092738705393e+02
2.680389685730860450e+00 5.772095978151857025e+02
2.680489707735701721e+00 5.771890776553993874e+02
2.680589729740542992e+00 5.771685489219828469e+02
2.680689751745383820e+00 5.771480117399229357e+02
2.680789773750225091e+00 5.771274662317259754e+02
2.680889795755065919e+00 5.771069125174221881e+02
2.680989817759906746e+00 5.770863507145700169e+02
2.681089839764748017e+00 5.770657809382594223e+02
2.681189861769588845e+00 5.770452033011165440e+02
2.681289883774430116e+00 5.770246179133071109e+02
2.681389905779271388e+00 5.770040248825447406e+02
2.681489927784112659e+00 5.769834243140892340e+02
2.681589949788953486e+00 5.769628163107564660e+02
2.681689971793794314e+00 5.769422009729212277e+02
2.681789993798635585e+00 5.769215783985208645e+02
2.681890015803476413e+00 5.769009486830625519e+02
2.681990037808317684e+00 5.768803119196271609e+02
2.682090059813158511e+00 5.768596681988736918e+02
2.682190081817999783e+00 5.768390176090451860e+02
2.682290103822841054e+00 5.768183602359738416e+02
2.682390125827681437e+00 5.767976961630872665e+02
2.682490147832523153e+00 5.767770254714117755e+02
2.682590169837363980e+00 5.767563482395819392e+02
2.682690191842205252e+00 5.767356645438404712e+02
2.682790213847046079e+00 5.767149744580494826e+02
2.682890235851887351e+00 5.766942780536921873e+02
2.682990257856728178e+00 5.766735753998822247e+02
2.683090279861569005e+00 5.766528665633675246e+02
2.683190301866410721e+00 5.766321516085363328e+02
2.683290323871251104e+00 5.766114305974248282e+02
2.683390345876092820e+00 5.765907035897218975e+02
2.683490367880933647e+00 5.765699706427762976e+02
2.683590389885774918e+00 5.765492318116033630e+02
2.683690411890615746e+00 5.765284871488913723e+02
2.683790433895456573e+00 5.765077367050067778e+02
2.683890455900297844e+00 5.764869805280029595e+02
2.683990477905138672e+00 5.764662186636262504e+02
2.684090499909980387e+00 5.764454511553224165e+02
2.684190521914820771e+00 5.764246780442440468e+02
2.684290543919662486e+00 5.764038993692570330e+02
2.684390565924503314e+00 5.763831151669487554e+02
2.684490587929344141e+00 5.763623254716342217e+02
2.684590609934185412e+00 5.763415303153644800e+02
2.684690631939026240e+00 5.763207297279325303e+02
2.684790653943867511e+00 5.762999237368816239e+02
2.684890675948708338e+00 5.762791123675144718e+02
2.684990697953550054e+00 5.762582956428959733e+02
2.685090719958390437e+00 5.762374735838678816e+02
2.685190741963231709e+00 5.762166462090497134e+02
2.685290763968072980e+00 5.761958135348521637e+02
2.685390785972913807e+00 5.761749755754815396e+02
2.685490807977755079e+00 5.761541323429480599e+02
2.685590829982595906e+00 5.761332838470768820e+02
2.685690851987437178e+00 5.761124300955119679e+02
2.685790873992278005e+00 5.760915710937296126e+02
2.685890895997118832e+00 5.760707068450400357e+02
2.685990918001960104e+00 5.760498373506028429e+02
2.686090940006801375e+00 5.760289626094306641e+02
2.686190962011642647e+00 5.760080826183999534e+02
2.686290984016483474e+00 5.759871973722579241e+02
2.686391006021324745e+00 5.759663068636338039e+02
2.686491028026165573e+00 5.759454110830449736e+02
2.686591050031006400e+00 5.759245100189084496e+02
2.686691072035847672e+00 5.759036036575469097e+02
2.686791094040688499e+00 5.758826919832011981e+02
2.686891116045529770e+00 5.758617749780353279e+02
2.686991138050371042e+00 5.758408526221487591e+02
2.687091160055212313e+00 5.758199248935856076e+02
2.687191182060053141e+00 5.757989917683427166e+02
2.687291204064893968e+00 5.757780532203778421e+02
2.687391226069735239e+00 5.757571092216226134e+02
2.687491248074576067e+00 5.757361597419895816e+02
2.687591270079417338e+00 5.757152047493823375e+02
2.687691292084258166e+00 5.756942442097044932e+02
2.687791314089099437e+00 5.756732780868715054e+02
2.687891336093940708e+00 5.756523063428182923e+02
2.687991358098781092e+00 5.756313289375099203e+02
2.688091380103622807e+00 5.756103458289527453e+02
2.688191402108463635e+00 5.755893569732014612e+02
2.688291424113304906e+00 5.755683623243721740e+02
2.688391446118145733e+00 5.755473618346516105e+02
2.688491468122987005e+00 5.755263554543059854e+02
2.688591490127827832e+00 5.755053431316935075e+02
2.688691512132668660e+00 5.754843248132739291e+02
2.688791534137510375e+00 5.754633004436168449e+02
2.688891556142350758e+00 5.754422699654159032e+02
2.688991578147192474e+00 5.754212333194959683e+02
2.689091600152033301e+00 5.754001904448260802e+02
2.689191622156874573e+00 5.753791412785287775e+02
2.689291644161715400e+00 5.753580857558914659e+02
2.689391666166556227e+00 5.753370238103771044e+02
2.689491688171397499e+00 5.753159553736347789e+02
2.689591710176238326e+00 5.752948803755105018e+02
2.689691732181080042e+00 5.752737987440581264e+02
2.689791754185920425e+00 5.752527104055526479e+02
2.689891776190762140e+00 5.752316152844965700e+02
2.689991798195602968e+00 5.752105133036355937e+02
2.690091820200443795e+00 5.751894043839675987e+02
2.690191842205285067e+00 5.751682884447544666e+02
2.690291864210125894e+00 5.751471654035331085e+02
2.690391886214967165e+00 5.751260351761267202e+02
2.690491908219807993e+00 5.751048976766571741e+02
2.690591930224649708e+00 5.750837528175549096e+02
2.690691952229490091e+00 5.750626005095722348e+02
2.690791974234331363e+00 5.750414406617936720e+02
2.690891996239172634e+00 5.750202731816477808e+02
2.690992018244013462e+00 5.749990979749192093e+02
2.691092040248854733e+00 5.749779149457611993e+02
2.691192062253695561e+00 5.749567239967041132e+02
2.691292084258536832e+00 5.749355250286726005e+02
2.691392106263377659e+00 5.749143179409926461e+02
2.691492128268218487e+00 5.748931026314052133e+02
2.691592150273059758e+00 5.748718789960803406e+02
2.691692172277901030e+00 5.748506469296253272e+02
2.691792194282742301e+00 5.748294063251000807e+02
2.691892216287583128e+00 5.748081570740275765e+02
2.691992238292424400e+00 5.747868990664060220e+02
2.692092260297265227e+00 5.747656321907228403e+02
2.692192282302106054e+00 5.747443563339646744e+02
2.692292304306947326e+00 5.747230713816308025e+02
2.692392326311788153e+00 5.747017772177457573e+02
2.692492348316629425e+00 5.746804737248708079e+02
2.692592370321470696e+00 5.746591607841187397e+02
2.692692392326311968e+00 5.746378382751628351e+02
2.692792414331152795e+00 5.746165060762518806e+02
2.692892436335993622e+00 5.745951640642238090e+02
2.692992458340834894e+00 5.745738121145137711e+02
2.693092480345675721e+00 5.745524501011719849e+02
2.693192502350516992e+00 5.745310778968735121e+02
2.693292524355357820e+00 5.745096953729317875e+02
2.693392546360199091e+00 5.744883023993114648e+02
2.693492568365040363e+00 5.744668988446410367e+02
2.693592590369880746e+00 5.744454845762265904e+02
2.693692612374722462e+00 5.744240594600626082e+02
2.693792634379563289e+00 5.744026233608481107e+02
2.693892656384404560e+00 5.743811761419951836e+02
2.693992678389245388e+00 5.743597176656483043e+02
2.694092700394086659e+00 5.743382477926911633e+02
2.694192722398927486e+00 5.743167663827628076e+02
2.694292744403768314e+00 5.742952732942711691e+02
2.694392766408610029e+00 5.742737683844040930e+02
2.694492788413450413e+00 5.742522515091457080e+02
2.694592810418292128e+00 5.742307225232866585e+02
2.694692832423132955e+00 5.742091812804385427e+02
2.694792854427974227e+00 5.741876276330472137e+02
2.694892876432815054e+00 5.741660614324065364e+02
2.694992898437655882e+00 5.741444825286715741e+02
2.695092920442497153e+00 5.741228907708700717e+02
2.695192942447337980e+00 5.741012860069196222e+02
2.695292964452179696e+00 5.740796680836372161e+02
2.695392986457020079e+00 5.740580368467572043e+02
2.695493008461861795e+00 5.740363921409385739e+02
2.695593030466702622e+00 5.740147338097842749e+02
2.695693052471543449e+00 5.739930616958523615e+02
2.695793074476384721e+00 5.739713756406692937e+02
2.695893096481225548e+00 5.739496754847440343e+02
2.695993118486066820e+00 5.739279610675812364e+02
2.696093140490907647e+00 5.739062322276971599e+02
2.696193162495749363e+00 5.738844888026292210e+02
2.696293184500589746e+00 5.738627306289531589e+02
2.696393206505431017e+00 5.738409575422953139e+02
2.696493228510272289e+00 5.738191693773466113e+02
2.696593250515113116e+00 5.737973659678768854e+02
2.696693272519954387e+00 5.737755471467472717e+02
2.696793294524795215e+00 5.737537127459252133e+02
2.696893316529636486e+00 5.737318625964986722e+02
2.696993338534477314e+00 5.737099965286872703e+02
2.697093360539318141e+00 5.736881143718615021e+02
2.697193382544159412e+00 5.736662159545500117e+02
2.697293404549000684e+00 5.736443011044583500e+02
2.697393426553841955e+00 5.736223696484812535e+02
2.697493448558682783e+00 5.736004214127158320e+02
2.697593470563524054e+00 5.735784562224769161e+02
2.697693492568364881e+00 5.735564739023103584e+02
2.697793514573205709e+00 5.735344742760072450e+02
2.697893536578046980e+00 5.735124571666169686e+02
2.697993558582887808e+00 5.734904223964625771e+02
2.698093580587729079e+00 5.734683697871544155e+02
2.698193602592570350e+00 5.734462991596022903e+02
2.698293624597411622e+00 5.734242103340332051e+02
2.698393646602252449e+00 5.734021031300020468e+02
2.698493668607093277e+00 5.733799773664078430e+02
2.698593690611934548e+00 5.733578328615046757e+02
2.698693712616775375e+00 5.733356694329207812e+02
2.698793734621616647e+00 5.733134868976685539e+02
2.698893756626457474e+00 5.732912850721594396e+02
2.698993778631298746e+00 5.732690637722192832e+02
2.699093800636140017e+00 5.732468228131014030e+02
2.699193822640980400e+00 5.732245620095003460e+02
2.699293844645822116e+00 5.732022811755682596e+02
2.699393866650662943e+00 5.731799801249247821e+02
2.699493888655504215e+00 5.731576586706761418e+02
2.699593910660345042e+00 5.731353166254250482e+02
2.699693932665186313e+00 5.731129538012886542e+02
2.699793954670027141e+00 5.730905700099087881e+02
2.699893976674867968e+00 5.730681650624680969e+02
2.699993998679709684e+00 5.730457387697057356e+02
2.700094020684550067e+00 5.730232909419281668e+02
2.700194042689391782e+00 5.730008213890254183e+02
2.700294064694232610e+00 5.729783299204846116e+02
2.700394086699073881e+00 5.729558163454050828e+02
2.700494108703914709e+00 5.729332804725099777e+02
2.700594130708755536e+00 5.729107221101642153e+02
2.700694152713596807e+00 5.728881410663843781e+02
2.700794174718437635e+00 5.728655371488562196e+02
2.700894196723279350e+00 5.728429101649471704e+02
2.700994218728119733e+00 5.728202599217204352e+02
2.701094240732961449e+00 5.727975862259488622e+02
2.701194262737802276e+00 5.727748888841313146e+02
2.701294284742643104e+00 5.727521677025046074e+02
2.701394306747484375e+00 5.727294224870557855e+02
2.701494328752325202e+00 5.727066530435412233e+02
2.701594350757166474e+00 5.726838591774967426e+02
2.701694372762007301e+00 5.726610406942522786e+02
2.701794394766849017e+00 5.726381973989473408e+02
2.701894416771689400e+00 5.726153290965444285e+02
2.701994438776530671e+00 5.725924355918422179e+02
2.702094460781371943e+00 5.725695166894892054e+02
2.702194482786212770e+00 5.725465721940014419e+02
2.702294504791054042e+00 5.725236019097717417e+02
2.702394526795894869e+00 5.725006056410854853e+02
2.702494548800735696e+00 5.724775831921365352e+02
2.702594570805576968e+00 5.724545343670378088e+02
2.702694592810417795e+00 5.724314589698383315e+02
2.702794614815259067e+00 5.724083568045334687e+02
2.702894636820100338e+00 5.723852276750842520e+02
2.702994658824941610e+00 5.723620713854252244e+02
2.703094680829782437e+00 5.723388877394835390e+02
2.703194702834623264e+00 5.723156765411886227e+02
2.703294724839464536e+00 5.722924375944888880e+02
2.703394746844305363e+00 5.722691707033640114e+02
2.703494768849146634e+00 5.722458756718397126e+02
2.703594790853987462e+00 5.722225523040011694e+02
2.703694812858828733e+00 5.721992004040067741e+02
2.703794834863670005e+00 5.721758197761004112e+02
2.703894856868510388e+00 5.721524102246287384e+02
2.703994878873352103e+00 5.721289715540515317e+02
2.704094900878192931e+00 5.721055035689564647e+02
2.704194922883034202e+00 5.720820060740741155e+02
2.704294944887875030e+00 5.720584788742880846e+02
2.704394966892716301e+00 5.720349217746526165e+02
2.704494988897557128e+00 5.720113345804038545e+02
2.704595010902397956e+00 5.719877170969751887e+02
2.704695032907239671e+00 5.719640691300076014e+02
2.704795054912080055e+00 5.719403904853655831e+02
2.704895076916921770e+00 5.719166809691521394e+02
2.704995098921762597e+00 5.718929403877177720e+02
2.705095120926603869e+00 5.718691685476779867e+02
2.705195142931444696e+00 5.718453652559248894e+02
2.705295164936285524e+00 5.718215303196399191e+02
2.705395186941126795e+00 5.717976635463081720e+02
2.705495208945967622e+00 5.717737647437334090e+02
2.705595230950809338e+00 5.717498337200479455e+02
2.705695252955649721e+00 5.717258702837277724e+02
2.705795274960491437e+00 5.717018742436050616e+02
2.705895296965332264e+00 5.716778454088824901e+02
2.705995318970173091e+00 5.716537835891451778e+02
2.706095340975014363e+00 5.716296885943746702e+02
2.706195362979855190e+00 5.716055602349614446e+02
2.706295384984696462e+00 5.715813983217183250e+02
2.706395406989537289e+00 5.715572026658936693e+02
2.706495428994379004e+00 5.715329730791827387e+02
2.706595450999219388e+00 5.715087093737432724e+02
2.706695473004060659e+00 5.714844113622068562e+02
2.706795495008901931e+00 5.714600788576915420e+02
2.706895517013742758e+00 5.714357116738151490e+02
2.706995539018584029e+00 5.714113096247085650e+02
2.707095561023424857e+00 5.713868725250279113e+02
2.707195583028266128e+00 5.713624001899669338e+02
2.707295605033106956e+00 5.713378924352705326e+02
2.707395627037947783e+00 5.713133490772464711e+02
2.707495649042789054e+00 5.712887699327795872e+02
2.707595671047630326e+00 5.712641548193419112e+02
2.707695693052471597e+00 5.712395035550080138e+02
2.707795715057312425e+00 5.712148159584644418e+02
2.707895737062153696e+00 5.711900918490243839e+02
2.707995759066994523e+00 5.711653310466410858e+02
2.708095781071835351e+00 5.711405333719151258e+02
2.708195803076676622e+00 5.711156986461130600e+02
2.708295825081517449e+00 5.710908266911757210e+02
2.708395847086358721e+00 5.710659173297324287e+02
2.708495869091199992e+00 5.710409703851098584e+02
2.708595891096041264e+00 5.710159856813488659e+02
2.708695913100882091e+00 5.709909630432138101e+02
2.708795935105722918e+00 5.709659022962043764e+02
2.708895957110564190e+00 5.709408032665689916e+02
2.708995979115405017e+00 5.709156657813151696e+02
2.709096001120246289e+00 5.708904896682238359e+02
2.709196023125087116e+00 5.708652747558578540e+02
2.709296045129928387e+00 5.708400208735760089e+02
2.709396067134769659e+00 5.708147278515459675e+02
2.709496089139610042e+00 5.707893955207522367e+02
2.709596111144451758e+00 5.707640237130107153e+02
2.709696133149292585e+00 5.707386122609808581e+02
2.709796155154133857e+00 5.707131609981734073e+02
2.709896177158974684e+00 5.706876697589661944e+02
2.709996199163815955e+00 5.706621383786141450e+02
2.710096221168656783e+00 5.706365666932586009e+02
2.710196243173497610e+00 5.706109545399417584e+02
2.710296265178339326e+00 5.705853017566165590e+02
2.710396287183179709e+00 5.705596081821573762e+02
2.710496309188021424e+00 5.705338736563726343e+02
2.710596331192862252e+00 5.705080980200142449e+02
2.710696353197703523e+00 5.704822811147905668e+02
2.710796375202544350e+00 5.704564227833755012e+02
2.710896397207385178e+00 5.704305228694208836e+02
2.710996419212226449e+00 5.704045812175673973e+02
2.711096441217067277e+00 5.703785976734538963e+02
2.711196463221908992e+00 5.703525720837303652e+02
2.711296485226749375e+00 5.703265042960667870e+02
2.711396507231591091e+00 5.703003941591651937e+02
2.711496529236431918e+00 5.702742415227695574e+02
2.711596551241272746e+00 5.702480462376762489e+02
2.711696573246114017e+00 5.702218081557454070e+02
2.711796595250954844e+00 5.701955271299102606e+02
2.711896617255796116e+00 5.701692030141888381e+02
2.711996639260636943e+00 5.701428356636927219e+02
2.712096661265478659e+00 5.701164249346386441e+02
2.712196683270319042e+00 5.700899706843584909e+02
2.712296705275160313e+00 5.700634727713088523e+02
2.712396727280001585e+00 5.700369310550815953e+02
2.712496749284842412e+00 5.700103453964137543e+02
2.712596771289683684e+00 5.699837156571970809e+02
2.712696793294524511e+00 5.699570417004899809e+02
2.712796815299365782e+00 5.699303233905234265e+02
2.712896837304206610e+00 5.699035605927149390e+02
2.712996859309047437e+00 5.698767531736765477e+02
2.713096881313888709e+00 5.698499010012230883e+02
2.713196903318729980e+00 5.698230039443841406e+02
2.713296925323571251e+00 5.697960618734115315e+02
2.713396947328412079e+00 5.697690746597914995e+02
2.713496969333253350e+00 5.697420421762506066e+02
2.713596991338094178e+00 5.697149642967674481e+02
2.713697013342935005e+00 5.696878408965819744e+02
2.713797035347776276e+00 5.696606718522032224e+02
2.713897057352617104e+00 5.696334570414203426e+02
2.713997079357458375e+00 5.696061963433087385e+02
2.714097101362299647e+00 5.695788896382432540e+02
2.714197123367140918e+00 5.695515368079027212e+02
2.714297145371981745e+00 5.695241377352821246e+02
2.714397167376822573e+00 5.694966923047002183e+02
2.714497189381663844e+00 5.694692004018078251e+02
2.714597211386504672e+00 5.694416619135972724e+02
2.714697233391345943e+00 5.694140767284109188e+02
2.714797255396186770e+00 5.693864447359479755e+02
2.714897277401028042e+00 5.693587658272754197e+02
2.714997299405869313e+00 5.693310398948364082e+02
2.715097321410709696e+00 5.693032668324552787e+02
2.715197343415551412e+00 5.692754465353501701e+02
2.715297365420392239e+00 5.692475789001377962e+02
2.715397387425233511e+00 5.692196638248435647e+02
2.715497409430074338e+00 5.691917012089083983e+02
2.715597431434915610e+00 5.691636909531979427e+02
2.715697453439756437e+00 5.691356329600088202e+02
2.715797475444597264e+00 5.691075271330779515e+02
2.715897497449438980e+00 5.690793733775900591e+02
2.715997519454279363e+00 5.690511716001843752e+02
2.716097541459121079e+00 5.690229217089631675e+02
2.716197563463961906e+00 5.689946236134990158e+02
2.716297585468803177e+00 5.689662772248417468e+02
2.716397607473644005e+00 5.689378824555279834e+02
2.716497629478484832e+00 5.689094392195846694e+02
2.716597651483326104e+00 5.688809474325398696e+02
2.716697673488166931e+00 5.688524070114283404e+02
2.716797695493008646e+00 5.688238178747981237e+02
2.716897717497849030e+00 5.687951799427189599e+02
2.716997739502690745e+00 5.687664931367883128e+02
2.717097761507531573e+00 5.687377573801381914e+02
2.717197783512372400e+00 5.687089725974426528e+02
2.717297805517213671e+00 5.686801387149236007e+02
2.717397827522054499e+00 5.686512556603580606e+02
2.717497849526895770e+00 5.686223233630850018e+02
2.717597871531736597e+00 5.685933417540106802e+02
2.717697893536578313e+00 5.685643107656162556e+02
2.717797915541418696e+00 5.685352303319633620e+02
2.717897937546259968e+00 5.685061003887008155e+02
2.717997959551101239e+00 5.684769208730708669e+02
2.718097981555942066e+00 5.684476917239144313e+02
2.718198003560783338e+00 5.684184128816784778e+02
2.718298025565624165e+00 5.683890842884208041e+02
2.718398047570465437e+00 5.683597058878166308e+02
2.718498069575306264e+00 5.683302776251636033e+02
2.718598091580147091e+00 5.683007994473890676e+02
2.718698113584988363e+00 5.682712713030532541e+02
2.718798135589829634e+00 5.682416931423585993e+02
2.718898157594670906e+00 5.682120649171495188e+02
2.718998179599511733e+00 5.681823865809246854e+02
2.719098201604353005e+00 5.681526580888364606e+02
2.719198223609193832e+00 5.681228793976999896e+02
2.719298245614034659e+00 5.680930504659954750e+02
2.719398267618875931e+00 5.680631712538762486e+02
2.719498289623716758e+00 5.680332417231717272e+02
2.719598311628558029e+00 5.680032618373924151e+02
2.719698333633399301e+00 5.679732315617352469e+02
2.719798355638240572e+00 5.679431508630893859e+02
2.719898377643081400e+00 5.679130197100384976e+02
2.719998399647922227e+00 5.678828380728680258e+02
2.720098421652763498e+00 5.678526059235667844e+02
2.720198443657604326e+00 5.678223232358349151e+02
2.720298465662445597e+00 5.677919899850846832e+02
2.720398487667286425e+00 5.677616061484482088e+02
2.720498509672127696e+00 5.677311717047775801e+02
2.720598531676968967e+00 5.677006866346537208e+02
2.720698553681809351e+00 5.676701509203871865e+02
2.720798575686651066e+00 5.676395645460221431e+02
2.720898597691491894e+00 5.676089274973423926e+02
2.720998619696333165e+00 5.675782397618734194e+02
2.721098641701173992e+00 5.675475013288862556e+02
2.721198663706015264e+00 5.675167121894012325e+02
2.721298685710856091e+00 5.674858723361932107e+02
2.721398707715696919e+00 5.674549817637921478e+02
2.721498729720538634e+00 5.674240404684884425e+02
2.721598751725379017e+00 5.673930484483361170e+02
2.721698773730220733e+00 5.673620057031553188e+02
2.721798795735061560e+00 5.673309122345358446e+02
2.721898817739902832e+00 5.672997680458397554e+02
2.721998839744743659e+00 5.672685731422054687e+02
2.722098861749584486e+00 5.672373275305509424e+02
2.722198883754425758e+00 5.672060312195737879e+02
2.722298905759266585e+00 5.671746842197565002e+02
2.722398927764108301e+00 5.671432865433692996e+02
2.722498949768948684e+00 5.671118382044699047e+02
2.722598971773790399e+00 5.670803392189102397e+02
2.722698993778631227e+00 5.670487896043350702e+02
2.722799015783472054e+00 5.670171893801862097e+02
2.722899037788313326e+00 5.669855385677044524e+02
2.722999059793154153e+00 5.669538371899317326e+02
2.723099081797995424e+00 5.669220852717130583e+02
2.723199103802836252e+00 5.668902828396979885e+02
2.723299125807677967e+00 5.668584299223448397e+02
2.723399147812518351e+00 5.668265265499196630e+02
2.723499169817359622e+00 5.667945727544990859e+02
2.723599191822200893e+00 5.667625685699727001e+02
2.723699213827041721e+00 5.667305140320437431e+02
2.723799235831882992e+00 5.666984091782306905e+02
2.723899257836723820e+00 5.666662540478697565e+02
2.723999279841565091e+00 5.666340486821143259e+02
2.724099301846405918e+00 5.666017931239379095e+02
2.724199323851246746e+00 5.665694874181345995e+02
2.724299345856088017e+00 5.665371316113200919e+02
2.724399367860929289e+00 5.665047257519333925e+02
2.724499389865770560e+00 5.664722698902364755e+02
2.724599411870611387e+00 5.664397640783165571e+02
2.724699433875452659e+00 5.664072083700851863e+02
2.724799455880293486e+00 5.663746028212808596e+02
2.724899477885134313e+00 5.663419474894686800e+02
2.724999499889975585e+00 5.663092424340409252e+02
2.725099521894816412e+00 5.662764877162167068e+02
2.725199543899657684e+00 5.662436833990436753e+02
2.725299565904498955e+00 5.662108295473979069e+02
2.725399587909340227e+00 5.661779262279831073e+02
2.725499609914181054e+00 5.661449735093324307e+02
2.725599631919021881e+00 5.661119714618064336e+02
2.725699653923863153e+00 5.660789201575953484e+02
2.725799675928703980e+00 5.660458196707170373e+02
2.725899697933545252e+00 5.660126700770181287e+02
2.725999719938386079e+00 5.659794714541721987e+02
2.726099741943227350e+00 5.659462238816813624e+02
2.726199763948068622e+00 5.659129274408735455e+02
2.726299785952909005e+00 5.658795822149045307e+02
2.726399807957750721e+00 5.658461882887545471e+02
2.726499829962591548e+00 5.658127457492296344e+02
2.726599851967432819e+00 5.657792546849606197e+02
2.726699873972273647e+00 5.657457151864010712e+02
2.726799895977114918e+00 5.657121273458276391e+02
2.726899917981955745e+00 5.656784912573385782e+02
2.726999939986796573e+00 5.656448070168512459e+02
2.727099961991638288e+00 5.656110747221039219e+02
2.727199983996478672e+00 5.655772944726527385e+02
2.727300006001320387e+00 5.655434663698689519e+02
2.727400028006161214e+00 5.655095905169397383e+02
2.727500050011002486e+00 5.654756670188671706e+02
2.727600072015843313e+00 5.654416959824636706e+02
2.727700094020684141e+00 5.654076775163532602e+02
2.727800116025525412e+00 5.653736117309670135e+02
2.727900138030366239e+00 5.653394987385457853e+02
2.728000160035207955e+00 5.653053386531321394e+02
2.728100182040048338e+00 5.652711315905737592e+02
2.728200204044890054e+00 5.652368776685179910e+02
2.728300226049730881e+00 5.652025770064112749e+02
2.728400248054571708e+00 5.651682297254981222e+02
2.728500270059412980e+00 5.651338359488141805e+02
2.728600292064253807e+00 5.650993958011898712e+02
2.728700314069095079e+00 5.650649094092430005e+02
2.728800336073935906e+00 5.650303769013789861e+02
2.728900358078777622e+00 5.649957984077880155e+02
2.729000380083618005e+00 5.649611740604411807e+02
2.729100402088459276e+00 5.649265039930878629e+02
2.729200424093300548e+00 5.648917883412545962e+02
2.729300446098141375e+00 5.648570272422404059e+02
2.729400468102982646e+00 5.648222208351143081e+02
2.729500490107823474e+00 5.647873692607115572e+02
2.729600512112664745e+00 5.647524726616322823e+02
2.729700534117505573e+00 5.647175311822369395e+02
2.729800556122346400e+00 5.646825449686423326e+02
2.729900578127187671e+00 5.646475141687201358e+02
2.730000600132028943e+00 5.646124389320925729e+02
2.730100622136870214e+00 5.645773194101275294e+02
2.730200644141711042e+00 5.645421557559373014e+02
2.730300666146552313e+00 5.645069481243731389e+02
2.730400688151393140e+00 5.644716966720227447e+02
2.730500710156233968e+00 5.644364015572050448e+02
2.730600732161075239e+00 5.644010629399672325e+02
2.730700754165916067e+00 5.643656809820814715e+02
2.730800776170757338e+00 5.643302558470381882e+02
2.730900798175598609e+00 5.642947877000455037e+02
2.731000820180439881e+00 5.642592767080224121e+02
2.731100842185280708e+00 5.642237230395953702e+02
2.731200864190121536e+00 5.641881268650939774e+02
2.731300886194962807e+00 5.641524883565463142e+02
2.731400908199803634e+00 5.641168076876750774e+02
2.731500930204644906e+00 5.640810850338920091e+02
2.731600952209485733e+00 5.640453205722940311e+02
2.731700974214327005e+00 5.640095144816582433e+02
2.731800996219168276e+00 5.639736669424377169e+02
2.731901018224008659e+00 5.639377781367547868e+02
2.732001040228850375e+00 5.639018482483995740e+02
2.732101062233691202e+00 5.638658774628199808e+02
2.732201084238532474e+00 5.638298659671224868e+02
2.732301106243373301e+00 5.637938139500619172e+02
2.732401128248214572e+00 5.637577216020387141e+02
2.732501150253055400e+00 5.637215891150942753e+02
2.732601172257896227e+00 5.636854166829036785e+02
2.732701194262737943e+00 5.636492045007717024e+02
2.732801216267578326e+00 5.636129527656263463e+02
2.732901238272420041e+00 5.635766616760141687e+02
2.733001260277260869e+00 5.635403314320938080e+02
2.733101282282102140e+00 5.635039622356314339e+02
2.733201304286942968e+00 5.634675542899934726e+02
2.733301326291783795e+00 5.634311078001420583e+02
2.733401348296625066e+00 5.633946229726293495e+02
2.733501370301465894e+00 5.633581000155886613e+02
2.733601392306307609e+00 5.633215391387338968e+02
2.733701414311147992e+00 5.632849405533468143e+02
2.733801436315989708e+00 5.632483044722770273e+02
2.733901458320830535e+00 5.632116311099316590e+02
2.734001480325671363e+00 5.631749206822710221e+02
2.734101502330512634e+00 5.631381734068003198e+02
2.734201524335353461e+00 5.631013895025656666e+02
2.734301546340194733e+00 5.630645691901477221e+02
2.734401568345035560e+00 5.630277126916513453e+02
2.734501590349877276e+00 5.629908202307024112e+02
2.734601612354717659e+00 5.629538920324416722e+02
2.734701634359558930e+00 5.629169283235149805e+02
2.734801656364400202e+00 5.628799293320684001e+02
2.734901678369241029e+00 5.628428952877418396e+02
2.735001700374082301e+00 5.628058264216604130e+02
2.735101722378923128e+00 5.627687229664286406e+02
2.735201744383764400e+00 5.627315851561229465e+02
2.735301766388605227e+00 5.626944132262857465e+02
2.735401788393446054e+00 5.626572074139161259e+02
2.735501810398287326e+00 5.626199679574641550e+02
2.735601832403128597e+00 5.625826950968228175e+02
2.735701854407969869e+00 5.625453890733215303e+02
2.735801876412810696e+00 5.625080501297180717e+02
2.735901898417651967e+00 5.624706785101902824e+02
2.736001920422492795e+00 5.624332744603312904e+02
2.736101942427333622e+00 5.623958382271385972e+02
2.736201964432174893e+00 5.623583700590089620e+02
2.736301986437015721e+00 5.623208702057290793e+02
2.736402008441856992e+00 5.622833389184680755e+02
2.736502030446698264e+00 5.622457764497708013e+02
2.736602052451539535e+00 5.622081830535494191e+02
2.736702074456380362e+00 5.621705589850738534e+02
2.736802096461221190e+00 5.621329045009667880e+02
2.736902118466062461e+00 5.620952198591930937e+02
2.737002140470903289e+00 5.620575053190525523e+02
2.737102162475744560e+00 5.620197611411728076e+02
2.737202184480585387e+00 5.619819875874986792e+02
2.737302206485426215e+00 5.619441849212868192e+02
2.737402228490267930e+00 5.619063534070951391e+02
2.737502250495108314e+00 5.618684933107756478e+02
2.737602272499950029e+00 5.618306048994647881e+02
2.737702294504790856e+00 5.617926884415769564e+02
2.737802316509632128e+00 5.617547442067950669e+02
2.737902338514472955e+00 5.617167724660599788e+02
2.738002360519313783e+00 5.616787734915658348e+02
2.738102382524155054e+00 5.616407475567468737e+02
2.738202404528995881e+00 5.616026949362734513e+02
2.738302426533837597e+00 5.615646159060388527e+02
2.738402448538677980e+00 5.615265107431537217e+02
2.738502470543519696e+00 5.614883797259354878e+02
2.738602492548360523e+00 5.614502231338993852e+02
2.738702514553201350e+00 5.614120412477504942e+02
2.738802536558042622e+00 5.613738343493744196e+02
2.738902558562883449e+00 5.613356027218276267e+02
2.739002580567724721e+00 5.612973466493285741e+02
2.739102602572565548e+00 5.612590664172493007e+02
2.739202624577407263e+00 5.612207623121046254e+02
2.739302646582247647e+00 5.611824346215440755e+02
2.739402668587088918e+00 5.611440836343431329e+02
2.739502690591930190e+00 5.611057096403931155e+02
2.739602712596771017e+00 5.610673129306907185e+02
2.739702734601612288e+00 5.610288937973299426e+02
2.739802756606453116e+00 5.609904525334933396e+02
2.739902778611294387e+00 5.609519894334407581e+02
2.740002800616135215e+00 5.609135047925003619e+02
