2.400028006161355254e+00 5.568101038848886901e+02
2.400128028166196081e+00 5.568165459631590011e+02
2.400228050171037353e+00 5.568229002375776417e+02
2.400328072175878624e+00 5.568291664402919423e+02
2.400428094180719452e+00 5.568353443060269683e+02
2.400528116185560723e+00 5.568414335720938197e+02
2.400628138190401994e+00 5.568474339783988398e+02
2.400728160195242822e+00 5.568533452674520277e+02
2.400828182200083649e+00 5.568591671843772701e+02
2.400928204204924921e+00 5.568648994769180263e+02
2.401028226209765748e+00 5.568705418954488096e+02
2.401128248214607019e+00 5.568760941929820092e+02
2.401228270219448291e+00 5.568815561251767576e+02
2.401328292224289118e+00 5.568869274503482529e+02
2.401428314229129946e+00 5.568922079294728746e+02
2.401528336233971217e+00 5.568973973262000072e+02
2.401628358238812488e+00 5.569024954068578381e+02
2.401728380243653316e+00 5.569075019404612021e+02
2.401828402248494587e+00 5.569124166987209037e+02
2.401928424253335415e+00 5.569172394560506518e+02
2.402028446258176686e+00 5.569219699895724034e+02
2.402128468263017513e+00 5.569266080791302329e+02
2.402228490267858785e+00 5.569311535072891957e+02
2.402328512272699612e+00 5.569356060593507891e+02
2.402428534277540884e+00 5.569399655233542035e+02
2.402528556282382155e+00 5.569442316900876904e+02
2.402628578287222982e+00 5.569484043530924282e+02
2.402728600292064254e+00 5.569524833086720719e+02
2.402828622296905081e+00 5.569564683558978686e+02
2.402928644301746353e+00 5.569603592966170709e+02
2.403028666306587180e+00 5.569641559354573701e+02
2.403128688311428451e+00 5.569678580798366738e+02
2.403228710316269279e+00 5.569714655399662888e+02
2.403328732321110550e+00 5.569749781288599024e+02
2.403428754325951822e+00 5.569783956623386985e+02
2.403528776330792649e+00 5.569817179590374963e+02
2.403628798335633476e+00 5.569849448404119130e+02
2.403728820340474748e+00 5.569880761307437069e+02
2.403828842345316019e+00 5.569911116571461207e+02
2.403928864350156847e+00 5.569940512495713847e+02
2.404028886354998118e+00 5.569968947408144686e+02
2.404128908359838945e+00 5.569996419665204712e+02
2.404228930364679773e+00 5.570022927651903046e+02
2.404328952369521044e+00 5.570048469781833091e+02
2.404428974374362316e+00 5.570073044497260071e+02
2.404528996379203143e+00 5.570096650269167640e+02
2.404629018384044414e+00 5.570119285597288581e+02
2.404729040388885686e+00 5.570140949010180975e+02
2.404829062393726513e+00 5.570161639065261170e+02
2.404929084398567340e+00 5.570181354348859486e+02
2.405029106403408612e+00 5.570200093476265693e+02
2.405129128408249439e+00 5.570217855091790398e+02
2.405229150413090711e+00 5.570234637868774143e+02
2.405329172417931982e+00 5.570250440509684040e+02
2.405429194422772810e+00 5.570265261746111491e+02
2.405529216427614081e+00 5.570279100338832450e+02
2.405629238432454908e+00 5.570291955077871080e+02
2.405729260437295736e+00 5.570303824782502033e+02
2.405829282442137007e+00 5.570314708301309565e+02
2.405929304446978279e+00 5.570324604512239830e+02
2.406029326451819106e+00 5.570333512322613387e+02
2.406129348456660377e+00 5.570341430669179772e+02
2.406229370461501649e+00 5.570348358518145915e+02
2.406329392466342476e+00 5.570354294865211386e+02
2.406429414471183303e+00 5.570359238735607050e+02
2.406529436476024575e+00 5.570363189184122348e+02
2.406629458480865402e+00 5.570366145295159868e+02
2.406729480485706674e+00 5.570368106182717156e+02
2.406829502490547945e+00 5.570369070990459477e+02
2.406929524495388772e+00 5.570369038891742548e+02
2.407029546500229600e+00 5.570368009089630732e+02
2.407129568505070871e+00 5.570365980816931142e+02
2.407229590509912143e+00 5.570362953336200462e+02
2.407329612514752970e+00 5.570358925939800656e+02
2.407429634519594241e+00 5.570353897949904649e+02
2.407529656524435069e+00 5.570347868718534983e+02
2.407629678529276340e+00 5.570340837627544488e+02
2.407729700534117168e+00 5.570332804088700414e+02
2.407829722538958439e+00 5.570323767543645772e+02
2.407929744543799266e+00 5.570313727463949363e+02
2.408029766548640538e+00 5.570302683351135329e+02
2.408129788553481809e+00 5.570290634736659285e+02
2.408229810558322637e+00 5.570277581181956066e+02
2.408329832563163908e+00 5.570263522278452228e+02
2.408429854568004735e+00 5.570248457647563782e+02
2.408529876572846007e+00 5.570232386940734841e+02
2.408629898577686834e+00 5.570215309839417159e+02
2.408729920582528106e+00 5.570197226055113333e+02
2.408829942587368933e+00 5.570178135329352926e+02
2.408929964592210204e+00 5.570158037433747040e+02
2.409029986597051476e+00 5.570136932169945112e+02
2.409130008601892303e+00 5.570114819369669021e+02
2.409230030606733131e+00 5.570091698894736965e+02
2.409330052611574402e+00 5.570067570637023664e+02
2.409430074616415673e+00 5.570042434518502432e+02
2.409530096621256501e+00 5.570016290491224709e+02
2.409630118626097772e+00 5.569989138537337112e+02
2.409730140630938600e+00 5.569960978669068936e+02
2.409830162635779427e+00 5.569931810928748064e+02
2.409930184640620698e+00 5.569901635388782779e+02
2.410030206645461970e+00 5.569870452151677682e+02
2.410130228650302797e+00 5.569838261350007542e+02
2.410230250655144069e+00 5.569805063146430939e+02
2.410330272659985340e+00 5.569770857733686853e+02
2.410430294664826167e+00 5.569735645334575338e+02
2.410530316669666995e+00 5.569699426201954111e+02
2.410630338674508266e+00 5.569662200618736279e+02
2.410730360679349094e+00 5.569623968897882378e+02
2.410830382684190365e+00 5.569584731382376503e+02
2.410930404689031636e+00 5.569544488445221759e+02
2.411030426693872464e+00 5.569503240489447080e+02
2.411130448698713735e+00 5.569460987948056072e+02
2.411230470703554563e+00 5.569417731284047477e+02
2.411330492708395390e+00 5.569373470990383339e+02
2.411430514713236661e+00 5.569328207589967406e+02
2.411530536718077933e+00 5.569281941635646263e+02
2.411630558722918760e+00 5.569234673710178640e+02
2.411730580727760032e+00 5.569186404426211539e+02
2.411830602732601303e+00 5.569137134426271132e+02
2.411930624737442130e+00 5.569086864382736621e+02
2.412030646742282958e+00 5.569035594997823182e+02
2.412130668747124229e+00 5.568983327003538761e+02
2.412230690751965057e+00 5.568930061161694312e+02
2.412330712756806328e+00 5.568875798263841261e+02
2.412430734761647599e+00 5.568820539131270380e+02
2.412530756766488427e+00 5.568764284614981079e+02
2.412630778771329254e+00 5.568707035595642765e+02
2.412730800776170526e+00 5.568648792983573230e+02
2.412830822781011797e+00 5.568589557718706828e+02
2.412930844785852624e+00 5.568529330770570596e+02
2.413030866790693896e+00 5.568468113138230819e+02
2.413130888795534723e+00 5.568405905850289628e+02
2.413230910800375995e+00 5.568342709964819051e+02
2.413330932805216822e+00 5.568278526569356472e+02
2.413430954810058093e+00 5.568213356780847789e+02
2.413530976814898921e+00 5.568147201745609891e+02
2.413630998819740192e+00 5.568080062639321568e+02
2.413731020824581464e+00 5.568011940666930286e+02
2.413831042829422291e+00 5.567942837062669241e+02
2.413931064834263562e+00 5.567872753089981188e+02
2.414031086839104390e+00 5.567801690041484335e+02
2.414131108843945661e+00 5.567729649238946195e+02
2.414231130848786488e+00 5.567656632033191499e+02
2.414331152853627760e+00 5.567582639804131759e+02
2.414431174858468587e+00 5.567507673960649299e+02
2.414531196863309859e+00 5.567431735940594990e+02
2.414631218868150686e+00 5.567354827210713211e+02
2.414731240872991958e+00 5.567276949266614565e+02
2.414831262877832785e+00 5.567198103632717903e+02
2.414931284882674056e+00 5.567118291862186652e+02
2.415031306887515328e+00 5.567037515536898127e+02
2.415131328892356155e+00 5.566955776267386682e+02
2.415231350897197427e+00 5.566873075692762995e+02
2.415331372902038254e+00 5.566789415480709522e+02
2.415431394906879081e+00 5.566704797327389542e+02
2.415531416911720353e+00 5.566619222957382362e+02
2.415631438916561624e+00 5.566532694123662850e+02
2.415731460921402451e+00 5.566445212607516169e+02
2.415831482926243723e+00 5.566356780218485483e+02
2.415931504931084994e+00 5.566267398794313976e+02
2.416031526935925378e+00 5.566177070200877779e+02
2.416131548940766649e+00 5.566085796332125710e+02
2.416231570945607920e+00 5.565993579110029259e+02
2.416331592950448748e+00 5.565900420484505275e+02
2.416431614955290019e+00 5.565806322433350033e+02
2.416531636960131291e+00 5.565711286962175564e+02
2.416631658964972118e+00 5.565615316104363046e+02
2.416731680969812945e+00 5.565518411920954804e+02
2.416831702974654217e+00 5.565420576500627021e+02
2.416931724979495044e+00 5.565321811959596516e+02
2.417031746984336316e+00 5.565222120441553670e+02
2.417131768989177587e+00 5.565121504117603308e+02
2.417231790994018414e+00 5.565019965186174886e+02
2.417331812998859686e+00 5.564917505872963375e+02
2.417431835003700513e+00 5.564814128430854225e+02
2.417531857008541785e+00 5.564709835139842653e+02
2.417631879013382612e+00 5.564604628306963150e+02
2.417731901018223883e+00 5.564498510266205358e+02
2.417831923023064711e+00 5.564391483378451539e+02
2.417931945027905982e+00 5.564283550031379946e+02
2.418031967032747254e+00 5.564174712639404561e+02
2.418131989037588081e+00 5.564064973643579606e+02
2.418232011042428908e+00 5.563954335511527916e+02
2.418332033047270180e+00 5.563842800737357948e+02
2.418432055052111451e+00 5.563730371841581928e+02
2.418532077056952279e+00 5.563617051371023763e+02
2.418632099061793550e+00 5.563502841898747420e+02
2.418732121066634377e+00 5.563387746023965974e+02
2.418832143071475649e+00 5.563271766371952936e+02
2.418932165076316476e+00 5.563154905593959256e+02
2.419032187081157748e+00 5.563037166367132613e+02
2.419132209085998575e+00 5.562918551394410542e+02
2.419232231090839846e+00 5.562799063404451090e+02
2.419332253095681118e+00 5.562678705151525946e+02
2.419432275100521945e+00 5.562557479415452235e+02
2.419532297105362773e+00 5.562435389001464046e+02
2.419632319110204044e+00 5.562312436740157864e+02
2.419732341115045315e+00 5.562188625487383433e+02
2.419832363119886143e+00 5.562063958124135752e+02
2.419932385124727414e+00 5.561938437556487997e+02
2.420032407129568242e+00 5.561812066715475567e+02
2.420132429134409513e+00 5.561684848557007399e+02
2.420232451139250340e+00 5.561556786061769344e+02
2.420332473144091612e+00 5.561427882235107063e+02
2.420432495148932439e+00 5.561298140106962364e+02
2.420532517153773711e+00 5.561167562731752696e+02
2.420632539158614982e+00 5.561036153188254048e+02
2.420732561163455809e+00 5.560903914579537286e+02
2.420832583168297081e+00 5.560770850032840826e+02
2.420932605173137908e+00 5.560636962699463766e+02
2.421032627177978735e+00 5.560502255754686303e+02
2.421132649182820007e+00 5.560366732397635587e+02
2.421232671187661278e+00 5.560230395851208414e+02
2.421332693192502106e+00 5.560093249361951848e+02
2.421432715197343377e+00 5.559955296199948407e+02
2.421532737202184649e+00 5.559816539658720558e+02
2.421632759207025032e+00 5.559676983055119308e+02
2.421732781211866303e+00 5.559536629729227570e+02
2.421832803216707575e+00 5.559395483044211232e+02
2.421932825221548402e+00 5.559253546386265725e+02
2.422032847226389674e+00 5.559110823164450039e+02
2.422132869231230945e+00 5.558967316810617376e+02
2.422232891236071772e+00 5.558823030779275314e+02
2.422332913240912600e+00 5.558677968547483488e+02
2.422432935245753871e+00 5.558532133614741042e+02
2.422532957250594698e+00 5.558385529502862710e+02
2.422632979255435970e+00 5.558238159755878769e+02
2.422733001260277241e+00 5.558090027939904303e+02
2.422833023265118069e+00 5.557941137643027787e+02
2.422933045269959340e+00 5.557791492475190580e+02
2.423033067274800167e+00 5.557641096068074376e+02
2.423133089279641439e+00 5.557489952074988651e+02
2.423233111284482266e+00 5.557338064170727421e+02
2.423333133289323538e+00 5.557185436051472607e+02
2.423433155294164365e+00 5.557032071434661020e+02
2.423533177299005636e+00 5.556877974058863856e+02
2.423633199303846908e+00 5.556723147683678690e+02
2.423733221308687735e+00 5.556567596089576000e+02
2.423833243313528563e+00 5.556411323077800262e+02
2.423933265318369834e+00 5.556254332470250574e+02
2.424033287323211106e+00 5.556096628109338553e+02
2.424133309328051933e+00 5.555938213857862138e+02
2.424233331332893204e+00 5.555779093598891905e+02
2.424333353337734032e+00 5.555619271235644874e+02
2.424433375342575303e+00 5.555458750691338992e+02
2.424533397347416130e+00 5.555297535909082853e+02
2.424633419352257402e+00 5.555135630851748374e+02
2.424733441357098229e+00 5.554973039501828680e+02
2.424833463361939501e+00 5.554809765861313053e+02
2.424933485366780772e+00 5.554645813951558466e+02
2.425033507371621599e+00 5.554481187813163388e+02
2.425133529376462427e+00 5.554315891505827949e+02
2.425233551381303698e+00 5.554149929108220931e+02
2.425333573386144970e+00 5.553983304717864939e+02
2.425433595390985797e+00 5.553816022450961327e+02
2.425533617395827068e+00 5.553648086442312888e+02
2.425633639400667896e+00 5.553479500845155599e+02
2.425733661405509167e+00 5.553310269831011965e+02
2.425833683410349995e+00 5.553140397589585291e+02
2.425933705415191266e+00 5.552969888328606203e+02
2.426033727420032093e+00 5.552798746273709867e+02
2.426133749424873365e+00 5.552626975668275691e+02
2.426233771429714636e+00 5.552454580773310227e+02
2.426333793434555464e+00 5.552281565867297104e+02
2.426433815439396735e+00 5.552107935246071975e+02
2.426533837444237562e+00 5.551933693222664488e+02
2.426633859449078390e+00 5.551758844127174370e+02
2.426733881453919661e+00 5.551583392306623637e+02
2.426833903458760933e+00 5.551407342124816751e+02
2.426933925463601760e+00 5.551230697962193972e+02
2.427033947468443031e+00 5.551053464215706299e+02
2.427133969473284303e+00 5.550875645298657446e+02
2.427233991478124686e+00 5.550697245640551500e+02
2.427334013482965958e+00 5.550518269686992880e+02
2.427434035487807229e+00 5.550338721899487382e+02
2.427534057492648056e+00 5.550158606755338724e+02
2.427634079497489328e+00 5.549977928747484839e+02
2.427734101502330599e+00 5.549796692384358039e+02
2.427834123507171427e+00 5.549614902189733812e+02
2.427934145512012254e+00 5.549432562702592122e+02
2.428034167516853525e+00 5.549249678476979852e+02
2.428134189521694353e+00 5.549066254081839134e+02
2.428234211526535624e+00 5.548882294100872059e+02
2.428334233531376896e+00 5.548697803132397439e+02
2.428434255536217723e+00 5.548512785789210966e+02
2.428534277541058994e+00 5.548327246698402178e+02
2.428634299545899822e+00 5.548141190501257825e+02
2.428734321550741093e+00 5.547954621853057233e+02
2.428834343555581921e+00 5.547767545422955209e+02
2.428934365560423192e+00 5.547579965893835379e+02
2.429034387565264019e+00 5.547391887962137389e+02
2.429134409570105291e+00 5.547203316337719343e+02
2.429234431574946562e+00 5.547014255743721378e+02
2.429334453579787390e+00 5.546824710916368986e+02
2.429434475584628217e+00 5.546634686604870694e+02
2.429534497589469488e+00 5.546444187571241855e+02
2.429634519594310760e+00 5.546253218590142069e+02
2.429734541599151587e+00 5.546061784448754679e+02
2.429834563603992859e+00 5.545869889946591229e+02
2.429934585608833686e+00 5.545677539895377777e+02
2.430034607613674957e+00 5.545484739118874131e+02
2.430134629618515785e+00 5.545291492452726061e+02
2.430234651623357056e+00 5.545097804744318637e+02
2.430334673628197883e+00 5.544903680852606840e+02
2.430434695633039155e+00 5.544709125647980272e+02
2.430534717637880426e+00 5.544514144012078987e+02
2.430634739642721254e+00 5.544318740837668429e+02
2.430734761647562081e+00 5.544122921028456403e+02
2.430834783652403353e+00 5.543926689498962332e+02
2.430934805657244624e+00 5.543730051174331948e+02
2.431034827662085451e+00 5.543533010990213370e+02
2.431134849666926723e+00 5.543335573892555885e+02
2.431234871671767550e+00 5.543137744837499667e+02
2.431334893676608822e+00 5.542939528791184784e+02
2.431434915681449649e+00 5.542740930729614774e+02
2.431534937686290920e+00 5.542541955638471336e+02
2.431634959691131748e+00 5.542342608512984725e+02
2.431734981695973019e+00 5.542142894357756404e+02
2.431835003700814291e+00 5.541942818186605564e+02
2.431935025705655118e+00 5.541742385022413373e+02
2.432035047710495945e+00 5.541541599896959269e+02
2.432135069715337217e+00 5.541340467850756113e+02
2.432235091720178044e+00 5.541138993932901258e+02
2.432335113725019315e+00 5.540937183200906020e+02
2.432435135729860587e+00 5.540735040720546749e+02
2.432535157734701414e+00 5.540532571565695434e+02
2.432635179739542686e+00 5.540329780818160543e+02
2.432735201744383513e+00 5.540126673567517628e+02
2.432835223749224340e+00 5.539923254910974038e+02
2.432935245754065612e+00 5.539719529953180199e+02
2.433035267758906883e+00 5.539515503806081824e+02
2.433135289763747711e+00 5.539311181588749378e+02
2.433235311768588982e+00 5.539106568427237107e+02
2.433335333773430254e+00 5.538901669454389776e+02
2.433435355778271081e+00 5.538696489809710783e+02
2.433535377783111908e+00 5.538491034639176860e+02
2.433635399787953180e+00 5.538285309095089133e+02
2.433735421792794007e+00 5.538079318335907146e+02
2.433835443797635278e+00 5.537873067526088562e+02
2.433935465802476550e+00 5.537666561835924313e+02
2.434035487807317377e+00 5.537459806441364663e+02
2.434135509812158205e+00 5.537252806523880508e+02
2.434235531816999476e+00 5.537045567270291713e+02
2.434335553821840747e+00 5.536838093872581794e+02
2.434435575826681575e+00 5.536630391527763777e+02
2.434535597831522846e+00 5.536422465437713072e+02
2.434635619836363674e+00 5.536214320808979892e+02
2.434735641841204945e+00 5.536005962852660787e+02
2.434835663846045772e+00 5.535797396784215607e+02
2.434935685850887044e+00 5.535588627823291290e+02
2.435035707855727871e+00 5.535379661193588845e+02
2.435135729860569143e+00 5.535170502122682592e+02
2.435235751865410414e+00 5.534961155841856453e+02
2.435335773870251241e+00 5.534751627585949336e+02
2.435435795875092513e+00 5.534541922593166419e+02
2.435535817879933340e+00 5.534332046104956362e+02
2.435635839884774612e+00 5.534122003365812361e+02
2.435735861889615439e+00 5.533911799623133447e+02
2.435835883894456710e+00 5.533701440127035767e+02
2.435935905899297538e+00 5.533490930130215020e+02
2.436035927904138809e+00 5.533280274887756605e+02
2.436135949908980081e+00 5.533069479657001466e+02
2.436235971913820908e+00 5.532858549697356239e+02
2.436335993918661735e+00 5.532647490270143180e+02
2.436436015923503007e+00 5.532436306638443284e+02
2.436536037928344278e+00 5.532225004066908696e+02
2.436636059933185106e+00 5.532013587821625151e+02
2.436736081938026377e+00 5.531802063169933490e+02
2.436836103942867204e+00 5.531590435380272766e+02
2.436936125947708032e+00 5.531378709722014264e+02
2.437036147952549303e+00 5.531166891465304616e+02
2.437136169957390575e+00 5.530954985880887307e+02
2.437236191962231402e+00 5.530742998239959434e+02
2.437336213967072673e+00 5.530530933814000036e+02
2.437436235971913945e+00 5.530318797874595020e+02
2.437536257976754772e+00 5.530106595693299596e+02
2.437636279981595600e+00 5.529894332541454105e+02
2.437736301986436871e+00 5.529682013690033955e+02
2.437836323991277698e+00 5.529469644409483635e+02
2.437936345996118970e+00 5.529257229969555283e+02
2.438036368000960241e+00 5.529044775639131331e+02
2.438136390005801069e+00 5.528832286686098314e+02
2.438236412010642340e+00 5.528619768377151331e+02
2.438336434015483167e+00 5.528407225977648523e+02
2.438436456020323995e+00 5.528194664751434857e+02
2.438536478025165266e+00 5.527982089960703433e+02
2.438636500030006538e+00 5.527769506865831772e+02
2.438736522034847365e+00 5.527556920725179452e+02
2.438836544039688636e+00 5.527344336794985793e+02
2.438936566044529908e+00 5.527131760329178860e+02
2.439036588049370735e+00 5.526919196579206073e+02
2.439136610054211562e+00 5.526706650793902327e+02
2.439236632059052834e+00 5.526494128219306958e+02
2.439336654063893661e+00 5.526281634098501172e+02
2.439436676068734933e+00 5.526069173671479575e+02
2.439536698073576204e+00 5.525856752174952362e+02
2.439636720078417031e+00 5.525644374842208890e+02
2.439736742083257859e+00 5.525432046902949423e+02
2.439836764088099130e+00 5.525219773583129381e+02
2.439936786092940402e+00 5.525007560104811546e+02
2.440036808097781229e+00 5.524795411685983026e+02
2.440136830102622501e+00 5.524583333540419972e+02
2.440236852107463328e+00 5.524371330877511355e+02
2.440336874112304599e+00 5.524159408902128234e+02
2.440436896117145427e+00 5.523947572814430487e+02
2.440536918121986698e+00 5.523735827809738339e+02
2.440636940126827525e+00 5.523524179078369798e+02
2.440736962131668797e+00 5.523312631805467845e+02
2.440836984136510068e+00 5.523101191170861739e+02
2.440937006141350896e+00 5.522889862348916949e+02
2.441037028146192167e+00 5.522678650508344163e+02
2.441137050151032994e+00 5.522467560812096963e+02
2.441237072155874266e+00 5.522256598417159239e+02
2.441337094160715093e+00 5.522045768474441729e+02
2.441437116165556365e+00 5.521835076128593300e+02
2.441537138170397192e+00 5.521624526517861113e+02
2.441637160175238463e+00 5.521414124773933736e+02
2.441737182180079735e+00 5.521203876021789938e+02
2.441837204184920562e+00 5.520993785379541805e+02
2.441937226189761390e+00 5.520783857958278986e+02
2.442037248194602661e+00 5.520574098861934544e+02
2.442137270199443932e+00 5.520364513187112152e+02
2.442237292204284760e+00 5.520155106022941709e+02
2.442337314209126031e+00 5.519945882450912222e+02
2.442437336213966859e+00 5.519736847544777447e+02
2.442537358218807686e+00 5.519528006370319417e+02
2.442637380223648957e+00 5.519319363985274549e+02
2.442737402228490229e+00 5.519110925439135826e+02
2.442837424233331056e+00 5.518902695773019786e+02
2.442937446238172328e+00 5.518694680019535781e+02
2.443037468243013599e+00 5.518486883202594981e+02
2.443137490247854426e+00 5.518279310337302377e+02
2.443237512252695254e+00 5.518071966429786244e+02
2.443337534257536525e+00 5.517864856477059448e+02
2.443437556262377353e+00 5.517657985466869377e+02
2.443537578267218624e+00 5.517451358377547876e+02
2.443637600272059895e+00 5.517244980177879370e+02
2.443737622276900723e+00 5.517038855826932604e+02
2.443837644281741994e+00 5.516832990273937867e+02
2.443937666286582822e+00 5.516627388458128962e+02
2.444037688291423649e+00 5.516422055308594281e+02
2.444137710296264920e+00 5.516216995744151745e+02
2.444237732301106192e+00 5.516012214673182825e+02
2.444337754305947019e+00 5.515807716993512031e+02
2.444437776310788291e+00 5.515603507592237520e+02
2.444537798315629562e+00 5.515399591345624231e+02
2.444637820320470389e+00 5.515195973118920847e+02
2.444737842325311217e+00 5.514992657766254069e+02
2.444837864330152488e+00 5.514789650130460359e+02
2.444937886334993316e+00 5.514586955042976797e+02
2.445037908339834587e+00 5.514384577323676240e+02
2.445137930344675858e+00 5.514182521780719526e+02
2.445237952349516686e+00 5.513980793210461115e+02
2.445337974354357513e+00 5.513779396397260371e+02
2.445437996359198785e+00 5.513578336113371279e+02
2.445538018364040056e+00 5.513377617118799208e+02
2.445638040368880883e+00 5.513177244161170165e+02
2.445738062373722155e+00 5.512977221975587554e+02
2.445838084378562982e+00 5.512777555284496884e+02
2.445938106383404254e+00 5.512578248797550486e+02
2.446038128388245081e+00 5.512379307211469950e+02
2.446138150393086352e+00 5.512180735209938121e+02
2.446238172397927180e+00 5.511982537463412655e+02
2.446338194402768451e+00 5.511784718629047575e+02
2.446438216407609723e+00 5.511587283350534108e+02
2.446538238412450550e+00 5.511390236257968809e+02
2.446638260417291821e+00 5.511193581967722821e+02
2.446738282422132649e+00 5.510997325082329326e+02
2.446838304426973920e+00 5.510801470190324380e+02
2.446938326431814748e+00 5.510606021866137780e+02
2.447038348436656019e+00 5.510410984669958907e+02
2.447138370441496846e+00 5.510216363147603715e+02
2.447238392446338118e+00 5.510022161830397636e+02
2.447338414451179389e+00 5.509828385235039150e+02
2.447438436456020217e+00 5.509635037863473599e+02
2.447538458460861044e+00 5.509442124202776085e+02
2.447638480465702315e+00 5.509249648725008228e+02
2.447738502470543587e+00 5.509057615887122665e+02
2.447838524475384414e+00 5.508866030130798208e+02
2.447938546480225686e+00 5.508674895882353439e+02
2.448038568485066513e+00 5.508484217552618247e+02
2.448138590489907340e+00 5.508293999536783758e+02
2.448238612494748612e+00 5.508104246214309114e+02
2.448338634499589883e+00 5.507914961948795280e+02
2.448438656504430710e+00 5.507726151087863400e+02
2.448538678509271982e+00 5.507537817963011548e+02
2.448638700514113253e+00 5.507349966889538564e+02
2.448738722518954081e+00 5.507162602166398528e+02
2.448838744523794908e+00 5.506975728076082532e+02
2.448938766528636179e+00 5.506789348884509536e+02
2.449038788533477007e+00 5.506603468840911546e+02
2.449138810538318278e+00 5.506418092177709696e+02
2.449238832543159550e+00 5.506233223110406243e+02
2.449338854548000377e+00 5.506048865837467474e+02
2.449438876552841204e+00 5.505865024540204331e+02
2.449538898557682476e+00 5.505681703382671230e+02
2.449638920562523303e+00 5.505498906511543282e+02
2.449738942567364575e+00 5.505316638056009424e+02
2.449838964572205846e+00 5.505134902127659871e+02
2.449938986577046673e+00 5.504953702820376975e+02
2.450039008581887945e+00 5.504773044210228363e+02
2.450139030586728772e+00 5.504592930355340741e+02
2.450239052591570044e+00 5.504413365295830545e+02
2.450339074596410871e+00 5.504234353053650466e+02
2.450439096601252142e+00 5.504055897632500773e+02
2.450539118606092970e+00 5.503878003017747460e+02
2.450639140610934241e+00 5.503700673176273312e+02
2.450739162615775513e+00 5.503523912056409699e+02
2.450839184620616340e+00 5.503347723587812652e+02
2.450939206625457167e+00 5.503172111681360548e+02
2.451039228630298439e+00 5.502997080229069979e+02
2.451139250635139710e+00 5.502822633103959333e+02
2.451239272639980538e+00 5.502648774159990808e+02
2.451339294644821809e+00 5.502475507231929441e+02
2.451439316649662636e+00 5.502302836135274902e+02
2.451539338654503908e+00 5.502130764666136429e+02
2.451639360659344735e+00 5.501959296601165761e+02
2.451739382664186007e+00 5.501788435697429804e+02
2.451839404669026834e+00 5.501618185692328780e+02
2.451939426673868105e+00 5.501448550303493903e+02
2.452039448678709377e+00 5.501279533228705532e+02
2.452139470683550204e+00 5.501111138145785162e+02
2.452239492688391032e+00 5.500943368712505617e+02
2.452339514693232303e+00 5.500776228566498958e+02
2.452439536698073574e+00 5.500609721325165538e+02
2.452539558702914402e+00 5.500443850585586461e+02
2.452639580707755673e+00 5.500278619924413306e+02
2.452739602712596501e+00 5.500114032897815832e+02
2.452839624717437772e+00 5.499950093041351238e+02
2.452939646722278599e+00 5.499786803869908454e+02
2.453039668727119871e+00 5.499624168877606962e+02
2.453139690731960698e+00 5.499462191537694480e+02
2.453239712736801970e+00 5.499300875302504892e+02
2.453339734741643241e+00 5.499140223603329787e+02
2.453439756746484068e+00 5.498980239850350245e+02
2.453539778751325340e+00 5.498820927432557255e+02
2.453639800756166167e+00 5.498662289717676686e+02
2.453739822761006995e+00 5.498504330052055593e+02
2.453839844765848266e+00 5.498347051760617887e+02
2.453939866770689537e+00 5.498190458146769970e+02
2.454039888775530365e+00 5.498034552492310922e+02
2.454139910780371636e+00 5.497879338057366567e+02
2.454239932785212908e+00 5.497724818080308751e+02
2.454339954790053291e+00 5.497570995777682583e+02
2.454439976794894562e+00 5.497417874344112079e+02
2.454539998799735834e+00 5.497265456952259228e+02
2.454640020804576661e+00 5.497113746752712586e+02
2.454740042809417933e+00 5.496962746873933838e+02
2.454840064814259204e+00 5.496812460422187314e+02
2.454940086819100031e+00 5.496662890481447903e+02
2.455040108823940859e+00 5.496514040113357851e+02
2.455140130828782130e+00 5.496365912357135812e+02
2.455240152833622957e+00 5.496218510229510912e+02
2.455340174838464229e+00 5.496071836724667037e+02
2.455440196843305500e+00 5.495925894814151889e+02
2.455540218848146328e+00 5.495780687446825823e+02
2.455640240852987599e+00 5.495636217548812965e+02
2.455740262857828426e+00 5.495492488023378428e+02
2.455840284862669698e+00 5.495349501750930585e+02
2.455940306867510525e+00 5.495207261588916481e+02
2.456040328872351797e+00 5.495065770371780900e+02
2.456140350877192624e+00 5.494925030910870873e+02
2.456240372882033896e+00 5.494785045994420898e+02
2.456340394886875167e+00 5.494645818387459713e+02
2.456440416891715994e+00 5.494507350831760277e+02
2.456540438896556822e+00 5.494369646045787476e+02
2.456640460901398093e+00 5.494232706724623085e+02
2.456740482906239365e+00 5.494096535539924844e+02
2.456840504911080192e+00 5.493961135139883254e+02
2.456940526915921463e+00 5.493826508149114716e+02
2.457040548920762291e+00 5.493692657168670621e+02
2.457140570925603562e+00 5.493559584775945268e+02
2.457240592930444389e+00 5.493427293524637207e+02
2.457340614935285661e+00 5.493295785944670797e+02
2.457440636940126488e+00 5.493165064542204163e+02
2.457540658944967760e+00 5.493035131799520059e+02
2.457640680949809031e+00 5.492905990174996305e+02
2.457740702954649858e+00 5.492777642103080780e+02
2.457840724959490686e+00 5.492650089994199334e+02
2.457940746964331957e+00 5.492523336234756925e+02
2.458040768969173229e+00 5.492397383187053492e+02
2.458140790974014056e+00 5.492272233189258941e+02
2.458240812978855327e+00 5.492147888555372219e+02
2.458340834983696155e+00 5.492024351575164474e+02
2.458440856988537426e+00 5.491901624514135847e+02
2.458540878993378254e+00 5.491779709613499563e+02
2.458640900998219525e+00 5.491658609090117125e+02
2.458740923003060352e+00 5.491538325136449430e+02
2.458840945007901624e+00 5.491418859920563591e+02
2.458940967012742895e+00 5.491300215586045397e+02
2.459040989017583723e+00 5.491182394251984533e+02
2.459141011022424994e+00 5.491065398012942751e+02
2.459241033027265821e+00 5.490949228938907254e+02
2.459341055032106649e+00 5.490833889075272509e+02
2.459441077036947920e+00 5.490719380442777720e+02
2.459541099041789192e+00 5.490605705037518192e+02
2.459641121046630019e+00 5.490492864830858935e+02
2.459741143051471290e+00 5.490380861769460807e+02
2.459841165056312562e+00 5.490269697775202076e+02
2.459941187061152945e+00 5.490159374745180685e+02
2.460041209065994217e+00 5.490049894551676744e+02
2.460141231070835488e+00 5.489941259042119555e+02
2.460241253075676315e+00 5.489833470039072836e+02
2.460341275080517587e+00 5.489726529340196066e+02
2.460441297085358858e+00 5.489620438718229707e+02
2.460541319090199686e+00 5.489515199920963369e+02
2.460641341095040513e+00 5.489410814671224443e+02
2.460741363099881784e+00 5.489307284666841724e+02
2.460841385104722612e+00 5.489204611580647679e+02
2.460941407109563883e+00 5.489102797060418197e+02
2.461041429114405155e+00 5.489001842728899874e+02
2.461141451119245982e+00 5.488901750183756576e+02
2.461241473124087253e+00 5.488802520997569445e+02
2.461341495128928081e+00 5.488704156717814158e+02
2.461441517133769352e+00 5.488606658866842736e+02
2.461541539138610180e+00 5.488510028941882410e+02
2.461641561143451451e+00 5.488414268414992421e+02
2.461741583148292278e+00 5.488319378733100393e+02
2.461841605153133550e+00 5.488225361317925035e+02
2.461941627157974821e+00 5.488132217566020472e+02
2.462041649162815649e+00 5.488039948848734184e+02
2.462141671167656476e+00 5.487948556512222922e+02
2.462241693172497747e+00 5.487858041877407231e+02
2.462341715177339019e+00 5.487768406240001013e+02
2.462441737182179846e+00 5.487679650870477417e+02
2.462541759187021118e+00 5.487591777014076797e+02
2.462641781191861945e+00 5.487504785890808989e+02
2.462741803196703216e+00 5.487418678695416929e+02
2.462841825201544044e+00 5.487333456597407348e+02
2.462941847206385315e+00 5.487249120741042816e+02
2.463041869211226143e+00 5.487165672245307633e+02
2.463141891216067414e+00 5.487083112203957853e+02
2.463241913220908685e+00 5.487001441685472400e+02
2.463341935225749513e+00 5.486920661733092857e+02
2.463441957230590340e+00 5.486840773364796178e+02
2.463541979235431612e+00 5.486761777573317431e+02
2.463642001240272883e+00 5.486683675326142975e+02
2.463742023245113710e+00 5.486606467565518415e+02
2.463842045249954982e+00 5.486530155208440647e+02
2.463942067254795809e+00 5.486454739146689690e+02
2.464042089259637081e+00 5.486380220246815043e+02
2.464142111264477908e+00 5.486306599350153874e+02
2.464242133269319179e+00 5.486233877272827613e+02
2.464342155274160007e+00 5.486162054805765820e+02
2.464442177279001278e+00 5.486091132714699370e+02
2.464542199283842550e+00 5.486021111740196829e+02
2.464642221288683377e+00 5.485951992597647404e+02
2.464742243293524648e+00 5.485883775977299592e+02
2.464842265298365476e+00 5.485816462544258911e+02
2.464942287303206303e+00 5.485750052938493582e+02
2.465042309308047574e+00 5.485684547774886823e+02
2.465142331312888846e+00 5.485619947643206160e+02
2.465242353317729673e+00 5.485556253108168221e+02
2.465342375322570945e+00 5.485493464709396676e+02
2.465442397327412216e+00 5.485431582961516597e+02
2.465542419332252599e+00 5.485370608354105570e+02
2.465642441337093871e+00 5.485310541351750544e+02
2.465742463341935142e+00 5.485251382394064876e+02
2.465842485346775970e+00 5.485193131895697434e+02
2.465942507351617241e+00 5.485135790246372380e+02
2.466042529356458513e+00 5.485079357810898273e+02
2.466142551361299340e+00 5.485023834929208988e+02
2.466242573366140167e+00 5.484969221916371680e+02
2.466342595370981439e+00 5.484915519062626572e+02
2.466442617375822266e+00 5.484862726633399461e+02
2.466542639380663537e+00 5.484810844869346056e+02
2.466642661385504809e+00 5.484759873986374714e+02
2.466742683390345636e+00 5.484709814175663496e+02
2.466842705395186908e+00 5.484660665603715870e+02
2.466942727400027735e+00 5.484612428412364125e+02
2.467042749404869006e+00 5.484565102718830758e+02
2.467142771409709834e+00 5.484518688615731890e+02
2.467242793414551105e+00 5.484473186171129555e+02
2.467342815419391933e+00 5.484428595428555582e+02
2.467442837424233204e+00 5.484384916407058199e+02
2.467542859429074031e+00 5.484342149101233872e+02
2.467642881433915303e+00 5.484300293481251174e+02
2.467742903438756130e+00 5.484259349492915590e+02
2.467842925443597402e+00 5.484219317057677472e+02
2.467942947448438673e+00 5.484180196072686613e+02
2.468042969453279500e+00 5.484141986410851359e+02
2.468142991458120772e+00 5.484104687920828383e+02
2.468243013462961599e+00 5.484068300427120448e+02
2.468343035467802871e+00 5.484032823730073005e+02
2.468443057472643698e+00 5.483998257605953768e+02
2.468543079477484969e+00 5.483964601806976589e+02
2.468643101482325797e+00 5.483931856061354893e+02
2.468743123487167068e+00 5.483900020073321002e+02
2.468843145492008340e+00 5.483869093523223910e+02
2.468943167496849167e+00 5.483839076067524729e+02
2.469043189501689994e+00 5.483809967338874003e+02
2.469143211506531266e+00 5.483781766946153766e+02
2.469243233511372537e+00 5.483754474474525296e+02
2.469343255516213365e+00 5.483728089485466626e+02
2.469443277521054636e+00 5.483702611516853267e+02
2.469543299525895463e+00 5.483678040082993448e+02
2.469643321530736291e+00 5.483654374674662222e+02
2.469743343535577562e+00 5.483631614759184458e+02
2.469843365540418834e+00 5.483609759780472359e+02
2.469943387545259661e+00 5.483588809159082302e+02
2.470043409550100932e+00 5.483568762292278507e+02
2.470143431554942204e+00 5.483549618554075096e+02
2.470243453559783031e+00 5.483531377295303173e+02
2.470343475564623859e+00 5.483514037843658571e+02
2.470443497569465130e+00 5.483497599503782567e+02
2.470543519574305957e+00 5.483482061557284624e+02
2.470643541579147229e+00 5.483467423262839020e+02
2.470743563583988500e+00 5.483453683856213274e+02
2.470843585588829328e+00 5.483440842550357956e+02
2.470943607593670599e+00 5.483428898535448752e+02
2.471043629598511426e+00 5.483417850978959223e+02
2.471143651603352254e+00 5.483407699025709690e+02
2.471243673608193525e+00 5.483398441797950227e+02
2.471343695613034797e+00 5.483390078395419778e+02
2.471443717617875624e+00 5.483382607895401861e+02
2.471543739622716895e+00 5.483376029352793921e+02
2.471643761627558167e+00 5.483370341800189181e+02
2.471743783632398994e+00 5.483365544247919843e+02
2.471843805637239821e+00 5.483361635684144630e+02
2.471943827642081093e+00 5.483358615074902218e+02
2.472043849646921920e+00 5.483356481364203319e+02
2.472143871651763192e+00 5.483355233474072747e+02
2.472243893656604463e+00 5.483354870304633550e+02
2.472343915661445291e+00 5.483355390734188859e+02
2.472443937666286118e+00 5.483356793619274185e+02
2.472543959671127389e+00 5.483359077794746099e+02
2.472643981675968661e+00 5.483362242073847028e+02
2.472744003680809488e+00 5.483366285248280292e+02
2.472844025685650760e+00 5.483371206088281724e+02
2.472944047690491587e+00 5.483377003342709486e+02
2.473044069695332858e+00 5.483383675739105456e+02
2.473144091700173686e+00 5.483391221983766854e+02
2.473244113705014957e+00 5.483399640761855380e+02
2.473344135709855784e+00 5.483408930737427909e+02
2.473444157714697056e+00 5.483419090553558135e+02
2.473544179719538327e+00 5.483430118832383187e+02
2.473644201724379155e+00 5.483442014175216173e+02
2.473744223729220426e+00 5.483454775162585975e+02
2.473844245734061253e+00 5.483468400354353207e+02
2.473944267738902525e+00 5.483482888289785251e+02
2.474044289743743352e+00 5.483498237487616507e+02
2.474144311748584624e+00 5.483514446446154125e+02
2.474244333753425451e+00 5.483531513643360995e+02
2.474344355758266722e+00 5.483549437536928508e+02
2.474444377763107994e+00 5.483568216564345903e+02
2.474544399767948821e+00 5.483587849143049198e+02
2.474644421772789649e+00 5.483608333670417778e+02
2.474744443777630920e+00 5.483629668523931286e+02
2.474844465782472192e+00 5.483651852061227601e+02
2.474944487787313019e+00 5.483674882620184690e+02
2.475044509792154290e+00 5.483698758519030889e+02
2.475144531796995118e+00 5.483723478056411977e+02
2.475244553801835945e+00 5.483749039511491219e+02
2.475344575806677216e+00 5.483775441144026672e+02
2.475444597811518488e+00 5.483802681194499655e+02
2.475544619816359315e+00 5.483830757884142031e+02
2.475644641821200587e+00 5.483859669415091957e+02
2.475744663826041858e+00 5.483889413970434816e+02
2.475844685830882685e+00 5.483919989714328267e+02
2.475944707835723513e+00 5.483951394792088649e+02
2.476044729840564784e+00 5.483983627330273976e+02
2.476144751845405612e+00 5.484016685436780563e+02
2.476244773850246883e+00 5.484050567200949899e+02
2.476344795855088154e+00 5.484085270693644816e+02
2.476444817859928982e+00 5.484120793967367717e+02
2.476544839864770253e+00 5.484157135056334482e+02
2.476644861869611081e+00 5.484194291976585873e+02
2.476744883874451908e+00 5.484232262726070530e+02
2.476844905879293179e+00 5.484271045284767752e+02
2.476944927884134451e+00 5.484310637614750021e+02
2.477044949888975278e+00 5.484351037660310340e+02
2.477144971893816550e+00 5.484392243348045213e+02
2.477244993898657821e+00 5.484434252586979710e+02
2.477345015903498648e+00 5.484477063268616348e+02
2.477445037908339476e+00 5.484520673267093116e+02
2.477545059913180747e+00 5.484565080439249414e+02
2.477645081918021575e+00 5.484610282624723823e+02
2.477745103922862846e+00 5.484656277646085982e+02
2.477845125927704117e+00 5.484703063308917308e+02
2.477945147932544945e+00 5.484750637401906488e+02
2.478045169937385772e+00 5.484798997696971128e+02
2.478145191942227044e+00 5.484848141949357796e+02
2.478245213947068315e+00 5.484898067897725014e+02
2.478345235951909142e+00 5.484948773264283091e+02
2.478445257956750414e+00 5.485000255754870295e+02
2.478545279961591241e+00 5.485052513059063131e+02
2.478645301966432513e+00 5.485105542850292295e+02
2.478745323971273340e+00 5.485159342785939316e+02
2.478845345976114611e+00 5.485213910507457058e+02
2.478945367980955439e+00 5.485269243640447030e+02
2.479045389985796710e+00 5.485325339794796946e+02
2.479145411990637982e+00 5.485382196564778496e+02
2.479245433995478809e+00 5.485439811529140570e+02
2.479345456000320080e+00 5.485498182251246817e+02
2.479445478005160908e+00 5.485557306279162049e+02
2.479545500010002179e+00 5.485617181145754557e+02
2.479645522014843007e+00 5.485677804368837087e+02
2.479745544019684278e+00 5.485739173451240731e+02
2.479845566024525105e+00 5.485801285880952491e+02
2.479945588029366377e+00 5.485864139131219872e+02
2.480045610034207648e+00 5.485927730660639554e+02
2.480145632039048476e+00 5.485992057913305189e+02
2.480245654043889303e+00 5.486057118318884704e+02
2.480345676048730574e+00 5.486122909292753320e+02
2.480445698053571846e+00 5.486189428236098138e+02
2.480545720058412673e+00 5.486256672536040924e+02
2.480645742063253945e+00 5.486324639565724510e+02
2.480745764068094772e+00 5.486393326684456042e+02
2.480845786072935599e+00 5.486462731237817252e+02
2.480945808077776871e+00 5.486532850557738357e+02
2.481045830082618142e+00 5.486603681962673136e+02
2.481145852087458969e+00 5.486675222757662596e+02
2.481245874092300241e+00 5.486747470234486173e+02
2.481345896097141512e+00 5.486820421671745862e+02
2.481445918101982340e+00 5.486894074334995821e+02
2.481545940106823167e+00 5.486968425476868561e+02
2.481645962111664439e+00 5.487043472337174990e+02
2.481745984116505266e+00 5.487119212143019240e+02
2.481846006121346537e+00 5.487195642108924858e+02
2.481946028126187809e+00 5.487272759436946217e+02
2.482046050131028636e+00 5.487350561316794710e+02
2.482146072135869908e+00 5.487429044925931976e+02
2.482246094140710735e+00 5.487508207429708591e+02
2.482346116145551562e+00 5.487588045981478899e+02
2.482446138150392834e+00 5.487668557722715832e+02
2.482546160155234105e+00 5.487749739783116638e+02
2.482646182160074932e+00 5.487831589280744993e+02
2.482746204164916204e+00 5.487914103322135588e+02
2.482846226169757475e+00 5.487997279002404412e+02
2.482946248174598303e+00 5.488081113405382894e+02
2.483046270179439130e+00 5.488165603603731597e+02
2.483146292184280401e+00 5.488250746659053902e+02
2.483246314189121229e+00 5.488336539622025612e+02
2.483346336193962500e+00 5.488422979532513182e+02
2.483446358198803772e+00 5.488510063419672633e+02
2.483546380203644599e+00 5.488597788302100753e+02
2.483646402208485426e+00 5.488686151187940823e+02
2.483746424213326698e+00 5.488775149074986075e+02
2.483846446218167969e+00 5.488864778950837717e+02
2.483946468223008797e+00 5.488955037792989060e+02
2.484046490227850068e+00 5.489045922568965352e+02
2.484146512232690895e+00 5.489137430236442015e+02
2.484246534237532167e+00 5.489229557743369696e+02
2.484346556242372994e+00 5.489322302028073182e+02
2.484446578247214266e+00 5.489415660019402594e+02
2.484546600252055093e+00 5.489509628636844809e+02
2.484646622256896364e+00 5.489604204790625772e+02
2.484746644261737636e+00 5.489699385381873071e+02
2.484846666266578463e+00 5.489795167302672780e+02
2.484946688271419291e+00 5.489891547436275232e+02
2.485046710276260562e+00 5.489988522657145040e+02
2.485146732281101833e+00 5.490086089831119125e+02
2.485246754285942661e+00 5.490184245815524946e+02
2.485346776290783932e+00 5.490282987459279411e+02
2.485446798295624760e+00 5.490382311603054859e+02
2.485546820300466031e+00 5.490482215079362049e+02
2.485646842305306858e+00 5.490582694712690000e+02
2.485746864310148130e+00 5.490683747319632175e+02
2.485846886314988957e+00 5.490785369708983126e+02
2.485946908319830229e+00 5.490887558681906739e+02
2.486046930324671500e+00 5.490990311032016962e+02
2.486146952329512327e+00 5.491093623545516493e+02
2.486246974334353599e+00 5.491197493001318435e+02
2.486346996339194426e+00 5.491301916171175890e+02
2.486447018344035254e+00 5.491406889819801336e+02
2.486547040348876525e+00 5.491512410704974627e+02
2.486647062353717796e+00 5.491618475577689651e+02
2.486747084358558624e+00 5.491725081182263466e+02
2.486847106363399895e+00 5.491832224256455675e+02
2.486947128368241167e+00 5.491939901531603709e+02
2.487047150373081550e+00 5.492048109732737657e+02
2.487147172377922821e+00 5.492156845578704178e+02
2.487247194382764093e+00 5.492266105782290424e+02
2.487347216387604920e+00 5.492375887050345682e+02
2.487447238392446192e+00 5.492486186083904158e+02
2.487547260397287463e+00 5.492596999578316854e+02
2.487647282402128290e+00 5.492708324223355021e+02
2.487747304406969118e+00 5.492820156703355678e+02
2.487847326411810389e+00 5.492932493697326208e+02
2.487947348416651216e+00 5.493045331879069408e+02
2.488047370421492488e+00 5.493158667917325602e+02
2.488147392426333759e+00 5.493272498475866996e+02
2.488247414431174587e+00 5.493386820213640931e+02
2.488347436436015858e+00 5.493501629784880151e+02
2.488447458440856686e+00 5.493616923839238098e+02
2.488547480445697957e+00 5.493732699021899180e+02
2.488647502450538784e+00 5.493848951973701560e+02
2.488747524455380056e+00 5.493965679331270167e+02
2.488847546460220883e+00 5.494082877727130381e+02
2.488947568465062155e+00 5.494200543789828544e+02
2.489047590469903426e+00 5.494318674144062697e+02
2.489147612474744253e+00 5.494437265410788314e+02
2.489247634479585081e+00 5.494556314207371770e+02
2.489347656484426352e+00 5.494675817147676753e+02
2.489447678489267624e+00 5.494795770842190450e+02
2.489547700494108451e+00 5.494916171898166795e+02
2.489647722498949722e+00 5.495037016919750386e+02
2.489747744503790550e+00 5.495158302508051520e+02
2.489847766508631821e+00 5.495280025261323544e+02
2.489947788513472648e+00 5.495402181775048120e+02
2.490047810518313920e+00 5.495524768642069375e+02
2.490147832523154747e+00 5.495647782452704178e+02
2.490247854527996019e+00 5.495771219794892204e+02
2.490347876532837290e+00 5.495895077254274383e+02
2.490447898537678117e+00 5.496019351414338416e+02
2.490547920542518945e+00 5.496144038856535872e+02
2.490647942547360216e+00 5.496269136160401558e+02
2.490747964552201488e+00 5.496394639903668349e+02
2.490847986557042315e+00 5.496520546662394509e+02
2.490948008561883587e+00 5.496646853011068288e+02
2.491048030566724414e+00 5.496773555522753441e+02
2.491148052571565685e+00 5.496900650769177901e+02
2.491248074576406513e+00 5.497028135320873616e+02
2.491348096581247784e+00 5.497156005747276595e+02
2.491448118586088611e+00 5.497284258616884927e+02
2.491548140590929883e+00 5.497412890497316766e+02
2.491648162595771154e+00 5.497541897955479726e+02
2.491748184600611982e+00 5.497671277557668645e+02
2.491848206605453253e+00 5.497801025869666773e+02
2.491948228610294080e+00 5.497931139456895835e+02
2.492048250615134908e+00 5.498061614884522896e+02
2.492148272619976179e+00 5.498192448717556999e+02
2.492248294624817451e+00 5.498323637520981038e+02
2.492348316629658278e+00 5.498455177859881360e+02
2.492448338634499549e+00 5.498587066299523940e+02
2.492548360639340821e+00 5.498719299405530592e+02
2.492648382644181204e+00 5.498851873743931264e+02
2.492748404649022476e+00 5.498984785881320931e+02
2.492848426653863747e+00 5.499118032384961907e+02
2.492948448658704574e+00 5.499251609822894125e+02
2.493048470663545846e+00 5.499385514764054506e+02
2.493148492668387117e+00 5.499519743778389511e+02
2.493248514673227945e+00 5.499654293436980197e+02
2.493348536678068772e+00 5.499789160312136573e+02
2.493448558682910043e+00 5.499924340977513566e+02
2.493548580687750871e+00 5.500059832008255398e+02
2.493648602692592142e+00 5.500195629981055845e+02
2.493748624697433414e+00 5.500331731474312846e+02
2.493848646702274241e+00 5.500468133068226280e+02
2.493948668707115512e+00 5.500604831344911645e+02
2.494048690711956340e+00 5.500741822888495562e+02
2.494148712716797611e+00 5.500879104285262429e+02
2.494248734721638439e+00 5.501016672123735134e+02
2.494348756726479710e+00 5.501154522994784202e+02
2.494448778731320537e+00 5.501292653491766487e+02
2.494548800736161809e+00 5.501431060210601345e+02
2.494648822741003080e+00 5.501569739749910468e+02
2.494748844745843908e+00 5.501708688711104287e+02
2.494848866750684735e+00 5.501847903698492246e+02
2.494948888755526006e+00 5.501987381319412407e+02
2.495048910760367278e+00 5.502127118184316714e+02
2.495148932765208105e+00 5.502267110906893777e+02
2.495248954770049377e+00 5.502407356104162091e+02
2.495348976774890204e+00 5.502547850396582589e+02
2.495448998779731475e+00 5.502688590408184837e+02
2.495549020784572303e+00 5.502829572766640922e+02
2.495649042789413574e+00 5.502970794103383696e+02
2.495749064794254402e+00 5.503112251053734099e+02
2.495849086799095673e+00 5.503253940256965961e+02
2.495949108803936944e+00 5.503395858356448116e+02
2.496049130808777772e+00 5.503538001999722837e+02
2.496149152813618599e+00 5.503680367838627490e+02
2.496249174818459871e+00 5.503822952529383201e+02
2.496349196823301142e+00 5.503965752732705141e+02
2.496449218828141969e+00 5.504108765113921891e+02
2.496549240832983241e+00 5.504251986343033423e+02
2.496649262837824068e+00 5.504395413094871401e+02
2.496749284842665340e+00 5.504539042049144655e+02
2.496849306847506167e+00 5.504682869890583561e+02
2.496949328852347438e+00 5.504826893309007119e+02
2.497049350857188266e+00 5.504971108999458238e+02
2.497149372862029537e+00 5.505115513662266267e+02
2.497249394866870809e+00 5.505260104003178867e+02
2.497349416871711636e+00 5.505404876733435913e+02
2.497449438876552907e+00 5.505549828569885449e+02
2.497549460881393735e+00 5.505694956235070094e+02
2.497649482886234562e+00 5.505840256457335045e+02
2.497749504891075834e+00 5.505985725970909925e+02
2.497849526895917105e+00 5.506131361516024754e+02
2.497949548900757932e+00 5.506277159838998614e+02
2.498049570905599204e+00 5.506423117692318101e+02
2.498149592910440475e+00 5.506569231834760103e+02
2.498249614915280858e+00 5.506715499031472518e+02
2.498349636920122130e+00 5.506861916054069752e+02
2.498449658924963401e+00 5.507008479680724804e+02
2.498549680929804229e+00 5.507155186696272722e+02
2.498649702934645500e+00 5.507302033892279951e+02
2.498749724939486772e+00 5.507449018067162569e+02
2.498849746944327599e+00 5.507596136026273825e+02
2.498949768949168426e+00 5.507743384581975761e+02
2.499049790954009698e+00 5.507890760553760856e+02
2.499149812958850525e+00 5.508038260768307737e+02
2.499249834963691796e+00 5.508185882059602818e+02
2.499349856968533068e+00 5.508333621269009654e+02
2.499449878973373895e+00 5.508481475245362162e+02
2.499549900978215167e+00 5.508629440845064664e+02
2.499649922983055994e+00 5.508777514932157828e+02
2.499749944987897265e+00 5.508925694378427806e+02
2.499849966992738093e+00 5.509073976063474447e+02
2.499949988997579364e+00 5.509222356874820434e+02
2.500050011002420192e+00 5.495718204811660144e+02
2.500150033007261463e+00 5.495207175683694913e+02
2.500250055012102735e+00 5.494696288237623776e+02
2.500350077016943562e+00 5.494185544887458263e+02
2.500450099021784833e+00 5.493674948023287925e+02
2.500550121026625661e+00 5.493164500011268956e+02
2.500650143031466488e+00 5.492654203193635567e+02
2.500750165036307759e+00 5.492144059888681795e+02
2.500850187041148587e+00 5.491634072390788788e+02
2.500950209045989858e+00 5.491124242970417981e+02
2.501050231050831130e+00 5.490614573874119060e+02
2.501150253055672401e+00 5.490105067324531092e+02
2.501250275060513228e+00 5.489595725520415499e+02
2.501350297065354056e+00 5.489086550636634456e+02
2.501450319070195327e+00 5.488577544824178176e+02
2.501550341075036155e+00 5.488068710210184236e+02
2.501650363079877426e+00 5.487560048897951219e+02
2.501750385084718253e+00 5.487051562966937581e+02
2.501850407089559525e+00 5.486543254472796889e+02
2.501950429094400796e+00 5.486035125447399423e+02
2.502050451099241180e+00 5.485527177898832178e+02
2.502150473104082895e+00 5.485019413811436380e+02
2.502250495108923722e+00 5.484511835145840450e+02
2.502350517113764994e+00 5.484004443838962288e+02
2.502450539118605821e+00 5.483497241804037685e+02
2.502550561123447093e+00 5.482990230930672624e+02
2.502650583128287920e+00 5.482483413084834183e+02
2.502750605133128747e+00 5.481976790108924433e+02
2.502850627137970463e+00 5.481470363821777028e+02
2.502950649142810846e+00 5.480964136018692443e+02
2.503050671147652562e+00 5.480458108471506193e+02
2.503150693152493389e+00 5.479952282928575187e+02
2.503250715157334660e+00 5.479446661114856170e+02
2.503350737162175488e+00 5.478941244731926190e+02
2.503450759167016315e+00 5.478436035458023525e+02
2.503550781171857587e+00 5.477931034948094293e+02
2.503650803176698414e+00 5.477426244833825422e+02
2.503750825181540129e+00 5.476921666723696944e+02
2.503850847186380513e+00 5.476417302203028612e+02
2.503950869191222228e+00 5.475913152834029916e+02
2.504050891196063056e+00 5.475409220155825096e+02
2.504150913200903883e+00 5.474905505684539548e+02
2.504250935205745154e+00 5.474402010913316872e+02
2.504350957210585982e+00 5.473898737312397316e+02
2.504450979215427253e+00 5.473395686329147338e+02
2.504551001220268081e+00 5.472892859388148281e+02
2.504651023225109796e+00 5.472390257891212286e+02
2.504751045229950179e+00 5.471887883217467561e+02
2.504851067234791451e+00 5.471385736723422042e+02
2.504951089239632722e+00 5.470883819742997503e+02
2.505051111244473550e+00 5.470382133587612543e+02
2.505151133249314821e+00 5.469880679546247393e+02
2.505251155254155648e+00 5.469379458885496206e+02
2.505351177258996920e+00 5.468878472849627315e+02
2.505451199263837747e+00 5.468377722660685549e+02
2.505551221268678574e+00 5.467877209518521795e+02
2.505651243273519846e+00 5.467376934600882805e+02
2.505751265278361117e+00 5.466876899063481687e+02
2.505851287283202389e+00 5.466377104040070662e+02
2.505951309288043216e+00 5.465877550642495635e+02
2.506051331292884488e+00 5.465378239960817837e+02
2.506151353297725315e+00 5.464879173063336566e+02
2.506251375302566142e+00 5.464380350996707421e+02
2.506351397307407414e+00 5.463881774785998005e+02
2.506451419312248241e+00 5.463383445434785699e+02
2.506551441317089512e+00 5.462885363925229285e+02
2.506651463321930784e+00 5.462387531218151935e+02
2.506751485326772055e+00 5.461889948253133298e+02
2.506851507331612883e+00 5.461392615948597040e+02
2.506951529336453710e+00 5.460895535201876783e+02
2.507051551341294982e+00 5.460398706889337745e+02
2.507151573346135809e+00 5.459902131866441550e+02
2.507251595350977080e+00 5.459405810967849675e+02
2.507351617355817908e+00 5.458909745007504171e+02
2.507451639360659179e+00 5.458413934778747034e+02
2.507551661365500451e+00 5.457918381054386145e+02
2.507651683370340834e+00 5.457423084586793038e+02
2.507751705375182549e+00 5.456928046108041599e+02
2.507851727380023377e+00 5.456433266329950129e+02
2.507951749384864648e+00 5.455938745944220045e+02
2.508051771389705475e+00 5.455444485622522279e+02
2.508151793394546747e+00 5.454950486016615514e+02
2.508251815399387574e+00 5.454456747758415531e+02
2.508351837404228402e+00 5.453963271460144142e+02
2.508451859409070117e+00 5.453470057714406494e+02
2.508551881413910500e+00 5.452977107094313851e+02
2.508651903418752216e+00 5.452484420153572273e+02
2.508751925423593043e+00 5.451991997426626995e+02
2.508851947428434315e+00 5.451499839428737459e+02
2.508951969433275142e+00 5.451007946656114882e+02
2.509051991438115969e+00 5.450516319586025702e+02
2.509152013442957241e+00 5.450024958676915503e+02
2.509252035447798068e+00 5.449533864368509057e+02
2.509352057452639784e+00 5.449043037081937655e+02
2.509452079457480167e+00 5.448552477219870980e+02
2.509552101462321883e+00 5.448062185166611471e+02
2.509652123467162710e+00 5.447572161288237567e+02
2.509752145472003537e+00 5.447082405932708298e+02
2.509852167476844809e+00 5.446592919430005395e+02
2.509952189481685636e+00 5.446103702092240155e+02
2.510052211486526907e+00 5.445614754213786455e+02
2.510152233491367735e+00 5.445126076071418311e+02
2.510252255496209450e+00 5.444637667924421294e+02
2.510352277501049834e+00 5.444149530014726679e+02
2.510452299505891105e+00 5.443661662567051280e+02
2.510552321510732376e+00 5.443174065789024780e+02
2.510652343515573204e+00 5.442686739871312511e+02
2.510752365520414475e+00 5.442199684987753017e+02
2.510852387525255303e+00 5.441712901295512665e+02
2.510952409530096574e+00 5.441226388935192517e+02
2.511052431534937401e+00 5.440740148030987484e+02
2.511152453539778229e+00 5.440254178690818208e+02
2.511252475544619500e+00 5.439768481006458387e+02
2.511352497549460772e+00 5.439283055053697353e+02
2.511452519554302043e+00 5.438797900892467396e+02
2.511552541559142870e+00 5.438313018566989285e+02
2.511652563563984142e+00 5.437828408105918925e+02
2.511752585568824969e+00 5.437344069522478094e+02
2.511852607573665797e+00 5.436860002814637483e+02
2.511952629578507068e+00 5.436376207965217873e+02
2.512052651583347895e+00 5.435892684942064079e+02
2.512152673588189167e+00 5.435409433698197290e+02
2.512252695593030438e+00 5.434926454171944670e+02
2.512352717597871710e+00 5.434443746287109889e+02
2.512452739602712537e+00 5.433961309953132286e+02
2.512552761607553364e+00 5.433479145065194871e+02
2.512652783612394636e+00 5.432997251504447149e+02
2.512752805617235463e+00 5.432515629138101758e+02
2.512852827622076735e+00 5.432034277819612953e+02
2.512952849626917562e+00 5.431553197388847138e+02
2.513052871631758833e+00 5.431072387672218156e+02
2.513152893636600105e+00 5.430591848482855539e+02
2.513252915641440488e+00 5.430111579620771636e+02
2.513352937646282204e+00 5.429631580873020766e+02
2.513452959651123031e+00 5.429151852013848156e+02
2.513552981655964302e+00 5.428672392804865012e+02
2.513653003660805130e+00 5.428193202995216780e+02
2.513753025665646401e+00 5.427714282321736619e+02
2.513853047670487229e+00 5.427235630509121620e+02
2.513953069675328056e+00 5.426757247270081734e+02
2.514053091680169771e+00 5.426279132305544408e+02
2.514153113685010155e+00 5.425801285304775092e+02
2.514253135689851870e+00 5.425323705945586426e+02
2.514353157694692698e+00 5.424846393894488301e+02
2.514453179699533969e+00 5.424369348806873177e+02
2.514553201704374796e+00 5.423892570327166140e+02
2.514653223709215624e+00 5.423416058089026137e+02
2.514753245714056895e+00 5.422939811715491487e+02
2.514853267718897722e+00 5.422463830819186796e+02
2.514953289723739438e+00 5.421988115002466202e+02
2.515053311728579821e+00 5.421512663857615735e+02
2.515153333733421537e+00 5.421037476967009070e+02
2.515253355738262364e+00 5.420562553903314438e+02
2.515353377743103191e+00 5.420087894229635594e+02
2.515453399747944463e+00 5.419613497499726691e+02
2.515553421752785290e+00 5.419139363258161666e+02
2.515653443757626562e+00 5.418665491040494544e+02
2.515753465762467389e+00 5.418191880373473168e+02
2.515853487767309105e+00 5.417718530775216550e+02
2.515953509772149488e+00 5.417245441755379716e+02
2.516053531776990759e+00 5.416772612815341290e+02
2.516153553781832031e+00 5.416300043448430870e+02
2.516253575786672858e+00 5.415827733140038163e+02
2.516353597791514130e+00 5.415355681367875604e+02
2.516453619796354957e+00 5.414883887602128425e+02
2.516553641801196228e+00 5.414412351305636548e+02
2.516653663806037056e+00 5.413941071934112870e+02
2.516753685810877883e+00 5.413470048936296735e+02
2.516853707815719154e+00 5.412999281754180174e+02
2.516953729820560426e+00 5.412528769823176162e+02
2.517053751825401697e+00 5.412058512572310747e+02
2.517153773830242525e+00 5.411588509424424274e+02
2.517253795835083796e+00 5.411118759796373752e+02
2.517353817839924623e+00 5.410649263099194286e+02
2.517453839844765451e+00 5.410180018738333274e+02
2.517553861849606722e+00 5.409711026113817525e+02
2.517653883854447550e+00 5.409242284620452210e+02
2.517753905859288821e+00 5.408773793648025503e+02
2.517853927864130092e+00 5.408305552581507527e+02
2.517953949868971364e+00 5.407837560801242489e+02
2.518053971873812191e+00 5.407369817683146493e+02
2.518153993878653019e+00 5.406902322598898536e+02
2.518254015883494290e+00 5.406435074916161057e+02
2.518354037888335117e+00 5.405968073998756154e+02
2.518454059893176389e+00 5.405501319206889548e+02
2.518554081898017216e+00 5.405034809897325658e+02
2.518654103902858488e+00 5.404568545423612704e+02
2.518754125907699759e+00 5.404102525136265740e+02
2.518854147912540142e+00 5.403636748382988344e+02
2.518954169917381858e+00 5.403171214508853382e+02
2.519054191922222685e+00 5.402705922856532652e+02
2.519154213927063957e+00 5.402240872766476514e+02
2.519254235931904784e+00 5.401776063577135574e+02
2.519354257936746055e+00 5.401311494625140313e+02
2.519454279941586883e+00 5.400847165245561428e+02
2.519554301946427710e+00 5.400383074772042846e+02
2.519654323951269426e+00 5.399919222537073438e+02
2.519754345956109809e+00 5.399455607872146174e+02
2.519854367960951524e+00 5.398992230107994601e+02
2.519954389965792352e+00 5.398529088574780417e+02
2.520054411970633623e+00 5.398066182602325398e+02
2.520154433975474451e+00 5.397603511520302391e+02
2.520254455980315278e+00 5.397141074658441084e+02
2.520354477985156549e+00 5.396678871346755386e+02
2.520454499989997377e+00 5.396216900915733277e+02
2.520554521994839092e+00 5.395755162696559637e+02
2.520654543999679476e+00 5.395293656021323159e+02
2.520754566004521191e+00 5.394832380223216433e+02
2.520854588009362018e+00 5.394371334636780375e+02
2.520954610014202846e+00 5.393910518598067938e+02
2.521054632019044117e+00 5.393449931444893082e+02
2.521154654023884945e+00 5.392989572517029728e+02
2.521254676028726216e+00 5.392529441156420944e+02
2.521354698033567043e+00 5.392069536707392672e+02
2.521454720038408759e+00 5.391609858516878830e+02
2.521554742043249142e+00 5.391150405934612309e+02
2.521654764048090414e+00 5.390691178313361434e+02
2.521754786052931685e+00 5.390232175009116418e+02
2.521854808057772512e+00 5.389773395381348564e+02
2.521954830062613784e+00 5.389314838793154649e+02
2.522054852067454611e+00 5.388856504611555920e+02
2.522154874072295883e+00 5.388398392207626557e+02
2.522254896077136710e+00 5.387940500956792675e+02
2.522354918081977537e+00 5.387482830238958513e+02
2.522454940086818809e+00 5.387025379438808841e+02
2.522554962091660080e+00 5.386568147945959026e+02
2.522654984096501352e+00 5.386111135155202874e+02
2.522755006101342179e+00 5.385654340466721806e+02
2.522855028106183450e+00 5.385197763286290638e+02
2.522955050111024278e+00 5.384741403025509499e+02
2.523055072115865105e+00 5.384285259102009604e+02
2.523155094120706377e+00 5.383829330939668125e+02
2.523255116125547204e+00 5.383373617968827602e+02
2.523355138130388475e+00 5.382918119626515363e+02
2.523455160135229747e+00 5.382462835356657251e+02
2.523555182140071018e+00 5.382007764610289087e+02
2.523655204144911846e+00 5.381552906845777215e+02
2.523755226149752673e+00 5.381098261529034517e+02
2.523855248154593944e+00 5.380643828133744364e+02
2.523955270159434772e+00 5.380189606141567538e+02
2.524055292164276043e+00 5.379735595042351406e+02
2.524155314169116870e+00 5.379281794334359574e+02
2.524255336173958142e+00 5.378828203524496985e+02
2.524355358178799413e+00 5.378374822128508868e+02
2.524455380183639797e+00 5.377921649671192199e+02
2.524555402188481512e+00 5.377468685686633307e+02
2.524655424193322339e+00 5.377015929718414782e+02
2.524755446198163611e+00 5.376563381319826931e+02
2.524855468203004438e+00 5.376111040054086061e+02
2.524955490207845710e+00 5.375658905494558439e+02
2.525055512212686537e+00 5.375206977224960383e+02
2.525155534217527364e+00 5.374755254839600411e+02
2.525255556222369080e+00 5.374303737943562282e+02
2.525355578227209463e+00 5.373852426152948283e+02
2.525455600232051179e+00 5.373401319095081590e+02
2.525555622236892006e+00 5.372950416408727961e+02
2.525655644241733278e+00 5.372499717744293548e+02
2.525755666246574105e+00 5.372049222764071601e+02
2.525855688251414932e+00 5.371598931142430047e+02
2.525955710256256204e+00 5.371148842566038866e+02
2.526055732261097031e+00 5.370698956734084959e+02
2.526155754265938747e+00 5.370249273358480195e+02
2.526255776270779130e+00 5.369799792164075143e+02
2.526355798275620845e+00 5.369350512888887579e+02
2.526455820280461673e+00 5.368901435284301442e+02
2.526555842285302500e+00 5.368452559115280565e+02
2.526655864290143771e+00 5.368003884160592634e+02
2.526755886294984599e+00 5.367555410213011555e+02
2.526855908299825870e+00 5.367107137079536869e+02
2.526955930304666698e+00 5.366659064581606344e+02
2.527055952309508413e+00 5.366211192555298339e+02
2.527155974314348796e+00 5.365763520851563726e+02
2.527255996319190068e+00 5.365316049336404376e+02
2.527356018324031339e+00 5.364868777891127820e+02
2.527456040328872167e+00 5.364421706412517779e+02
2.527556062333713438e+00 5.363974834813077450e+02
2.527656084338554265e+00 5.363528163021214823e+02
2.527756106343395537e+00 5.363081690981457541e+02
2.527856128348236364e+00 5.362635418654679142e+02
2.527956150353077192e+00 5.362189346018287779e+02
2.528056172357918463e+00 5.361743473066445631e+02
2.528156194362759734e+00 5.361297799810274682e+02
2.528256216367601006e+00 5.360852326278068176e+02
2.528356238372441833e+00 5.360407052515482746e+02
2.528456260377282661e+00 5.359961978585773750e+02
2.528556282382123932e+00 5.359517104569966932e+02
2.528656304386964759e+00 5.359072430567103993e+02
2.528756326391806031e+00 5.358627956694409704e+02
2.528856348396646858e+00 5.358183683087515874e+02
2.528956370401488130e+00 5.357739609900677351e+02
2.529056392406329401e+00 5.357295737306942556e+02
2.529156414411169784e+00 5.356852065498403590e+02
2.529256436416011500e+00 5.356408594686349716e+02
2.529356458420852327e+00 5.355965325101508370e+02
2.529456480425693599e+00 5.355522256994228201e+02
2.529556502430534426e+00 5.355079390634685979e+02
2.529656524435375697e+00 5.354636726313080999e+02
2.529756546440216525e+00 5.354194264339849951e+02
2.529856568445057352e+00 5.353752005045853366e+02
2.529956590449899068e+00 5.353309948782581387e+02
2.530056612454739451e+00 5.352868095922344764e+02
2.530156634459581166e+00 5.352426446858482905e+02
2.530256656464421994e+00 5.351985002005560546e+02
2.530356678469263265e+00 5.351543761799548520e+02
2.530456700474104093e+00 5.351102726698040897e+02
2.530556722478944920e+00 5.350661897180449387e+02
2.530656744483786191e+00 5.350221273748172734e+02
2.530756766488627019e+00 5.349780856924818409e+02
2.530856788493468734e+00 5.349340647256381089e+02
2.530956810498309117e+00 5.348900645311452990e+02
2.531056832503150833e+00 5.348460851681383019e+02
2.531156854507991660e+00 5.348021266980500741e+02
2.531256876512832488e+00 5.347581891846293729e+02
2.531356898517673759e+00 5.347142726939607655e+02
2.531456920522514586e+00 5.346703772944795219e+02
2.531556942527355858e+00 5.346265030569969667e+02
2.531656964532196685e+00 5.345826500547144633e+02
2.531756986537038401e+00 5.345388183632430810e+02
2.531857008541878784e+00 5.344950080606231495e+02
2.531957030546720055e+00 5.344512192273409710e+02
2.532057052551561327e+00 5.344074519463505339e+02
2.532157074556402154e+00 5.343637063030890886e+02
2.532257096561243426e+00 5.343199823854949955e+02
2.532357118566084253e+00 5.342762802840286440e+02
2.532457140570925525e+00 5.342326000916882549e+02
2.532557162575766352e+00 5.341889419040288658e+02
2.532657184580607179e+00 5.341453058191809760e+02
2.532757206585448451e+00 5.341016919378664625e+02
2.532857228590289722e+00 5.340581003634172248e+02
2.532957250595130994e+00 5.340145312017947390e+02
2.533057272599971821e+00 5.339709845616051780e+02
2.533157294604813092e+00 5.339274605541168057e+02
2.533257316609653920e+00 5.338839592932798723e+02
2.533357338614494747e+00 5.338404808957418481e+02
2.533457360619336018e+00 5.337970254808649315e+02
2.533557382624176846e+00 5.337535931707437840e+02
2.533657404629018117e+00 5.337101840902232652e+02
2.533757426633859389e+00 5.336667983669112800e+02
2.533857448638700660e+00 5.336234361312029932e+02
2.533957470643541487e+00 5.335800975162899249e+02
2.534057492648382315e+00 5.335367826581825739e+02
2.534157514653223586e+00 5.334934916957222413e+02
2.534257536658064414e+00 5.334502247706006983e+02
2.534357558662905685e+00 5.334069820273751930e+02
2.534457580667746512e+00 5.333637636134859576e+02
2.534557602672587784e+00 5.333205696792701929e+02
2.534657624677429055e+00 5.332774003779792338e+02
2.534757646682269439e+00 5.332342558657962854e+02
2.534857668687111154e+00 5.331911363018483598e+02
2.534957690691951981e+00 5.331480418482256027e+02
2.535057712696793253e+00 5.331049726699952771e+02
2.535157734701634080e+00 5.330619289352164287e+02
2.535257756706475352e+00 5.330189108149581898e+02
2.535357778711316179e+00 5.329759184833112613e+02
2.535457800716157006e+00 5.329329521174071260e+02
2.535557822720998722e+00 5.328900118974283941e+02
2.535657844725839105e+00 5.328470980066296079e+02
2.535757866730680821e+00 5.328042106313455406e+02
2.535857888735521648e+00 5.327613499610117742e+02
2.535957910740362919e+00 5.327185161881759541e+02
2.536057932745203747e+00 5.326757095085122273e+02
2.536157954750044574e+00 5.326329301208378411e+02
2.536257976754885846e+00 5.325901782271250795e+02
2.536357998759726673e+00 5.325474540325171802e+02
2.536458020764568388e+00 5.325047577453403846e+02
2.536558042769408772e+00 5.324620895771206506e+02
2.536658064774250487e+00 5.324194497425947930e+02
2.536758086779091315e+00 5.323768384597244676e+02
2.536858108783932142e+00 5.323342559497114053e+02
2.536958130788773413e+00 5.322917024370103718e+02
2.537058152793614241e+00 5.322491781493389453e+02
2.537158174798455512e+00 5.322066833176972978e+02
2.537258196803296340e+00 5.321642181763753570e+02
2.537358218808138055e+00 5.321217829629676999e+02
2.537458240812978438e+00 5.320793779183873085e+02
2.537558262817819710e+00 5.320370032868776207e+02
2.537658284822660981e+00 5.319946593160238990e+02
2.537758306827501809e+00 5.319523462567673278e+02
2.537858328832343080e+00 5.319100643634154721e+02
2.537958350837183907e+00 5.318678138936570576e+02
2.538058372842025179e+00 5.318255951085704964e+02
2.538158394846866006e+00 5.317834082726394627e+02
2.538258416851706833e+00 5.317412536537608503e+02
2.538358438856548105e+00 5.316991315232596662e+02
2.538458460861389376e+00 5.316570421558986936e+02
2.538558482866230648e+00 5.316149858298896334e+02
2.538658504871071475e+00 5.315729628269057230e+02
2.538758526875912747e+00 5.315309734320907182e+02
2.538858548880753574e+00 5.314890179340723080e+02
2.538958570885594401e+00 5.314470966249714365e+02
2.539058592890435673e+00 5.314052098004118534e+02
2.539158614895276500e+00 5.313633577595329598e+02
2.539258636900117772e+00 5.313215408049989037e+02
2.539358658904959043e+00 5.312797592430080158e+02
2.539458680909800314e+00 5.312380133833050877e+02
2.539558702914641142e+00 5.311963035391884205e+02
2.539658724919481969e+00 5.311546300275227850e+02
2.539758746924323241e+00 5.311129931687461294e+02
2.539858768929164068e+00 5.310713932868802658e+02
2.539958790934005339e+00 5.310298307095417840e+02
2.540058812938846167e+00 5.309883057679484182e+02
2.540158834943687438e+00 5.309468187969289374e+02
2.540258856948528710e+00 5.309053701349344010e+02
2.540358878953369093e+00 5.308639601240431602e+02
2.540458900958210808e+00 5.308225891099729097e+02
2.540558922963051636e+00 5.307812574420861438e+02
2.540658944967892907e+00 5.307399654734005026e+02
2.540758966972733734e+00 5.306987135605968433e+02
2.540858988977575006e+00 5.306575020640251523e+02
2.540959010982415833e+00 5.306163313477161410e+02
2.541059032987256661e+00 5.305752017793846562e+02
2.541159054992098376e+00 5.305341137304399126e+02
2.541259076996938759e+00 5.304930675759926544e+02
2.541359099001780475e+00 5.304520636948619767e+02
2.541459121006621302e+00 5.304111024695820333e+02
2.541559143011462574e+00 5.303701842864091986e+02
2.541659165016303401e+00 5.303293095353294575e+02
2.541759187021144228e+00 5.302884786100642032e+02
2.541859209025985500e+00 5.302476919080769449e+02
2.541959231030826327e+00 5.302069498305791058e+02
2.542059253035668043e+00 5.301662527825380948e+02
2.542159275040508426e+00 5.301256011726813995e+02
2.542259297045350142e+00 5.300849954135010194e+02
2.542359319050190969e+00 5.300444359212638119e+02
2.542459341055031796e+00 5.300039231160119471e+02
2.542559363059873068e+00 5.299634574215713201e+02
2.542659385064713895e+00 5.299230392655558717e+02
2.542759407069555166e+00 5.298826690793720218e+02
2.542859429074395994e+00 5.298423472982244675e+02
2.542959451079237709e+00 5.298020743611210719e+02
2.543059473084078093e+00 5.297618507108741142e+02
2.543159495088919364e+00 5.297216767941102944e+02
2.543259517093760635e+00 5.296815530612709608e+02
2.543359539098601463e+00 5.296414799666155204e+02
2.543459561103442734e+00 5.296014579682283738e+02
2.543559583108283562e+00 5.295614875280209617e+02
2.543659605113124833e+00 5.295215691117348342e+02
2.543759627117965660e+00 5.294817031889451755e+02
2.543859649122806488e+00 5.294418902330647825e+02
2.543959671127647759e+00 5.294021307213472483e+02
2.544059693132489031e+00 5.293624251348883263e+02
2.544159715137330302e+00 5.293227739586292273e+02
2.544259737142171129e+00 5.292831776813601437e+02
2.544359759147012401e+00 5.292436367957216135e+02
2.544459781151853228e+00 5.292041517982062260e+02
2.544559803156694056e+00 5.291647231891627143e+02
2.544659825161535327e+00 5.291253514727941365e+02
2.544759847166376154e+00 5.290860371571642418e+02
2.544859869171217426e+00 5.290467807541945149e+02
2.544959891176058697e+00 5.290075827796678141e+02
2.545059913180899969e+00 5.289684437532301899e+02
2.545159935185740796e+00 5.289293641983897487e+02
2.545259957190581623e+00 5.288903446425185848e+02
2.545359979195422895e+00 5.288513856168531220e+02
2.545460001200263722e+00 5.288124876564954775e+02
2.545560023205104994e+00 5.287736513004117569e+02
2.545660045209945821e+00 5.287348770914351235e+02
2.545760067214787092e+00 5.286961655762625014e+02
2.545860089219628364e+00 5.286575173054553716e+02
2.545960111224468747e+00 5.286189328334418178e+02
2.546060133229310463e+00 5.285804127185118659e+02
2.546160155234151290e+00 5.285419575228195299e+02
2.546260177238992561e+00 5.285035678123804246e+02
2.546360199243833389e+00 5.284652441570726751e+02
2.546460221248674660e+00 5.284269871306321420e+02
2.546560243253515488e+00 5.283887973106543541e+02
2.546660265258356315e+00 5.283506752785908702e+02
2.546760287263198030e+00 5.283126216197474605e+02
2.546860309268038414e+00 5.282746369232841062e+02
2.546960331272880129e+00 5.282367217822090879e+02
2.547060353277720957e+00 5.281988767933810323e+02
2.547160375282562228e+00 5.281611025575031135e+02
2.547260397287403055e+00 5.281233996791208938e+02
2.547360419292243883e+00 5.280857687666198217e+02
2.547460441297085154e+00 5.280482104322231862e+02
2.547560463301925981e+00 5.280107252919866596e+02
2.547660485306767697e+00 5.279733139657970469e+02
2.547760507311608080e+00 5.279359770773662603e+02
2.547860529316449796e+00 5.278987152542297281e+02
2.547960551321290623e+00 5.278615291277411643e+02
2.548060573326131451e+00 5.278244193330691587e+02
2.548160595330972722e+00 5.277873865091913785e+02
2.548260617335813549e+00 5.277504312988920674e+02
2.548360639340654821e+00 5.277135543487545419e+02
2.548460661345495648e+00 5.276767563091603961e+02
2.548560683350337364e+00 5.276400378342804061e+02
2.548660705355177747e+00 5.276033995820712335e+02
2.548760727360019018e+00 5.275668422142700820e+02
2.548860749364860290e+00 5.275303663963878762e+02
2.548960771369701117e+00 5.274939727977040320e+02
2.549060793374542389e+00 5.274576620912615681e+02
2.549160815379383216e+00 5.274214349538599436e+02
2.549260837384224487e+00 5.273852920660475547e+02
2.549360859389065315e+00 5.273492341121168465e+02
2.549460881393906142e+00 5.273132617800973776e+02
2.549560903398747413e+00 5.272773757617492265e+02
2.549660925403588685e+00 5.272415767525542378e+02
2.549760947408429956e+00 5.272058654517097693e+02
2.549860969413270784e+00 5.271702425621230077e+02
2.549960991418112055e+00 5.271347087903991451e+02
2.550061013422952882e+00 5.270992648468379684e+02
2.550161035427793710e+00 5.270639114454232868e+02
2.550261057432634981e+00 5.270286493038152003e+02
2.550361079437475809e+00 5.269934791433429382e+02
2.550461101442317080e+00 5.269584016889929217e+02
2.550561123447158351e+00 5.269234176694051257e+02
2.550661145451999623e+00 5.268885278168605737e+02
2.550761167456840450e+00 5.268537328672721287e+02
2.550861189461681278e+00 5.268190335601775587e+02
2.550961211466522549e+00 5.267844306387274855e+02
2.551061233471363376e+00 5.267499248496786777e+02
2.551161255476204648e+00 5.267155169433810897e+02
2.551261277481045475e+00 5.266812076737700181e+02
2.551361299485886747e+00 5.266469977983537092e+02
2.551461321490728018e+00 5.266128880782072201e+02
2.551561343495568401e+00 5.265788792779572987e+02
2.551661365500410117e+00 5.265449721657734017e+02
2.551761387505250944e+00 5.265111675133568951e+02
2.551861409510092216e+00 5.264774660959311632e+02
2.551961431514933043e+00 5.264438686922273973e+02
2.552061453519774314e+00 5.264103760844759563e+02
2.552161475524615142e+00 5.263769890583932920e+02
2.552261497529455969e+00 5.263437084031693303e+02
2.552361519534297685e+00 5.263105349114591718e+02
2.552461541539138068e+00 5.262774693793652432e+02
2.552561563543979783e+00 5.262445126064297938e+02
2.552661585548820611e+00 5.262116653956200025e+02
2.552761607553661882e+00 5.261789285533162683e+02
2.552861629558502710e+00 5.261463028892974307e+02
2.552961651563343537e+00 5.261137892167304244e+02
2.553061673568184808e+00 5.260813883521549315e+02
2.553161695573025636e+00 5.260491011154715579e+02
2.553261717577867351e+00 5.260169283299254630e+02
2.553361739582707735e+00 5.259848708220960134e+02
2.553461761587549450e+00 5.259529294218807536e+02
2.553561783592390277e+00 5.259211049624808538e+02
2.553661805597231105e+00 5.258893982803882636e+02
2.553761827602072376e+00 5.258578102153710461e+02
2.553861849606913204e+00 5.258263416104558701e+02
2.553961871611754475e+00 5.257949933119189154e+02
2.554061893616595302e+00 5.257637661692633628e+02
2.554161915621437018e+00 5.257326610352105263e+02
2.554261937626277401e+00 5.257016787656816632e+02
2.554361959631118673e+00 5.256708202197816036e+02
2.554461981635959944e+00 5.256400862597849937e+02
2.554562003640800771e+00 5.256094777511198117e+02
2.554662025645642043e+00 5.255789955623492915e+02
2.554762047650482870e+00 5.255486405651588484e+02
2.554862069655324142e+00 5.255184136343370938e+02
2.554962091660164969e+00 5.254883156477604871e+02
2.555062113665005796e+00 5.254583474863758283e+02
2.555162135669847068e+00 5.254285100341828638e+02
2.555262157674688339e+00 5.253988041782188247e+02
2.555362179679529611e+00 5.253692308085405784e+02
2.555462201684370438e+00 5.253397908182042784e+02
2.555562223689211709e+00 5.253104851032526312e+02
2.555662245694052537e+00 5.252813145626918185e+02
2.555762267698893364e+00 5.252522800984787636e+02
2.555862289703734636e+00 5.252233826154977123e+02
2.555962311708575463e+00 5.251946230215463629e+02
2.556062333713416734e+00 5.251660022273133563e+02
2.556162355718258006e+00 5.251375211463631558e+02
2.556262377723099277e+00 5.251091806951149010e+02
2.556362399727940105e+00 5.250809817928231951e+02
2.556462421732780932e+00 5.250529253615615062e+02
2.556562443737622203e+00 5.250250123261985209e+02
2.556662465742463031e+00 5.249972436143830237e+02
2.556762487747304302e+00 5.249696201565213869e+02
2.556862509752145129e+00 5.249421428857577894e+02
2.556962531756986401e+00 5.249148127379560265e+02
2.557062553761827672e+00 5.248876306516763179e+02
2.557162575766668056e+00 5.248605975681584823e+02
2.557262597771509771e+00 5.248337144312981764e+02
2.557362619776350598e+00 5.248069821876281367e+02
2.557462641781191870e+00 5.247804017862960109e+02
2.557562663786032697e+00 5.247539741790444623e+02
2.557662685790873969e+00 5.247277003201895695e+02
2.557762707795714796e+00 5.247015811665993397e+02
2.557862729800555623e+00 5.246756176776707434e+02
2.557962751805397339e+00 5.246498108153111843e+02
2.558062773810237722e+00 5.246241615439143970e+02
2.558162795815079438e+00 5.245986708303379373e+02
2.558262817819920265e+00 5.245733396438822638e+02
2.558362839824761537e+00 5.245481689562689098e+02
2.558462861829602364e+00 5.245231597416162685e+02
2.558562883834443191e+00 5.244983129764170826e+02
2.558662905839284463e+00 5.244736296395190038e+02
2.558762927844125290e+00 5.244491107120951483e+02
2.558862949848967006e+00 5.244247571776273844e+02
2.558962971853807389e+00 5.244005700218795027e+02
2.559062993858649104e+00 5.243765502328744788e+02
2.559163015863489932e+00 5.243526988008715080e+02
2.559263037868330759e+00 5.243290167183407675e+02
2.559363059873172030e+00 5.243055049799415883e+02
2.559463081878012858e+00 5.242821645824965344e+02
2.559563103882854129e+00 5.242589965249680972e+02
2.559663125887694957e+00 5.242360018084344802e+02
2.559763147892536672e+00 5.242131814360641329e+02
2.559863169897377055e+00 5.241905364130931275e+02
2.559963191902218327e+00 5.241680677467959413e+02
2.560063213907059598e+00 5.241457764464666980e+02
2.560163235911900426e+00 5.241236635233888137e+02
2.560263257916741697e+00 5.241017299908128280e+02
2.560363279921582524e+00 5.240799768639286640e+02
2.560463301926423796e+00 5.240584051598417545e+02
2.560563323931264623e+00 5.240370158975474624e+02
2.560663345936105451e+00 5.240158100979040228e+02
2.560763367940946722e+00 5.239947887836076461e+02
2.560863389945787993e+00 5.239739529791652330e+02
2.560963411950629265e+00 5.239533037108683402e+02
2.561063433955470092e+00 5.239328420067682828e+02
2.561163455960311364e+00 5.239125688966478265e+02
2.561263477965152191e+00 5.238924854119954944e+02
2.561363499969993018e+00 5.238725925859772588e+02
2.561463521974834290e+00 5.238528914534127807e+02
2.561563543979675117e+00 5.238333830507430093e+02
2.561663565984516389e+00 5.238140684160081264e+02
2.561763587989357660e+00 5.237949485888179879e+02
2.561863609994198931e+00 5.237760246103238160e+02
2.561963631999039759e+00 5.237572975231922783e+02
2.562063654003880586e+00 5.237387683715754747e+02
2.562163676008721858e+00 5.237204382010860400e+02
2.562263698013562685e+00 5.237023080587655386e+02
2.562363720018403956e+00 5.236843789930592266e+02
2.562463742023244784e+00 5.236666520537863789e+02
2.562563764028086055e+00 5.236491282921120956e+02
2.562663786032927327e+00 5.236318087605172877e+02
2.562763808037767710e+00 5.236146945127732124e+02
2.562863830042609425e+00 5.235977866039091850e+02
2.562963852047450253e+00 5.235810860901863180e+02
2.563063874052291524e+00 5.235645940290670524e+02
2.563163896057132352e+00 5.235483114791843491e+02
2.563263918061973179e+00 5.235322395003162228e+02
2.563363940066814450e+00 5.235163791533536823e+02
2.563463962071655278e+00 5.235007315002700352e+02
2.563563984076496993e+00 5.234852976040956491e+02
2.563664006081337376e+00 5.234700785288819134e+02
2.563764028086179092e+00 5.234550753396769096e+02
2.563864050091019919e+00 5.234402891024921018e+02
2.563964072095860747e+00 5.234257208842730051e+02
2.564064094100702018e+00 5.234113717528687175e+02
2.564164116105542846e+00 5.233972427770023614e+02
2.564264138110384117e+00 5.233833350262389104e+02
2.564364160115224944e+00 5.233696495709568808e+02
2.564464182120066660e+00 5.233561874823141125e+02
2.564564204124907043e+00 5.233429498322209383e+02
2.564664226129748315e+00 5.233299376933059648e+02
2.564764248134589586e+00 5.233171521388873089e+02
2.564864270139430413e+00 5.233045942429382649e+02
2.564964292144271685e+00 5.232922650800593374e+02
2.565064314149112512e+00 5.232801657254459542e+02
2.565164336153953784e+00 5.232682972548559519e+02
2.565264358158794611e+00 5.232566607445771751e+02
2.565364380163635438e+00 5.232452572713989412e+02
2.565464402168476710e+00 5.232340879125769106e+02
2.565564424173317981e+00 5.232231537458035291e+02
2.565664446178159253e+00 5.232124558491725566e+02
2.565764468183000080e+00 5.232019953011532607e+02
2.565864490187841351e+00 5.231917731805488074e+02
2.565964512192682179e+00 5.231817905664743193e+02
2.566064534197523006e+00 5.231720485383169716e+02
2.566164556202364277e+00 5.231625481757052967e+02
2.566264578207205105e+00 5.231532905584781474e+02
2.566364600212046376e+00 5.231442767666507052e+02
2.566464622216887648e+00 5.231355078803813967e+02
2.566564644221728919e+00 5.231269849799399481e+02
2.566664666226569746e+00 5.231187091456731650e+02
2.566764688231410574e+00 5.231106814579729871e+02
2.566864710236251845e+00 5.231029029972424951e+02
2.566964732241092673e+00 5.230953748438627144e+02
2.567064754245933944e+00 5.230880980781607832e+02
2.567164776250774771e+00 5.230810737803731172e+02
2.567264798255616043e+00 5.230743030306157380e+02
2.567364820260457314e+00 5.230677869088473244e+02
2.567464842265297698e+00 5.230615264948380627e+02
2.567564864270139413e+00 5.230555228681347444e+02
2.567664886274980240e+00 5.230497771080255234e+02
2.567764908279821512e+00 5.230442902935094480e+02
2.567864930284662339e+00 5.230390635032599675e+02
2.567964952289503611e+00 5.230340978155893481e+02
2.568064974294344438e+00 5.230293943084180910e+02
2.568164996299185265e+00 5.230249540592396897e+02
2.568265018304026981e+00 5.230207781450829998e+02
2.568365040308867364e+00 5.230168676424831347e+02
2.568465062313709080e+00 5.230132236274421302e+02
2.568565084318549907e+00 5.230098471753977947e+02
2.568665106323391178e+00 5.230067393611873285e+02
2.568765128328232006e+00 5.230039012590133325e+02
2.568865150333072833e+00 5.230013339424092464e+02
2.568965172337914105e+00 5.229990384842028561e+02
2.569065194342754932e+00 5.229970159564843470e+02
2.569165216347596647e+00 5.229952674305684468e+02
2.569265238352437031e+00 5.229937939769610011e+02
2.569365260357278746e+00 5.229925966653240721e+02
2.569465282362119574e+00 5.229916765644395582e+02
2.569565304366960401e+00 5.229910347421753158e+02
2.569665326371801672e+00 5.229906722654493478e+02
2.569765348376642500e+00 5.229905902001945606e+02
2.569865370381483771e+00 5.229907896113227252e+02
2.569965392386324599e+00 5.229912715626903719e+02
2.570065414391166314e+00 5.229920371170624094e+02
2.570165436396006697e+00 5.229930873360762007e+02
2.570265458400847969e+00 5.229944232802080251e+02
2.570365480405689240e+00 5.229960460087348793e+02
2.570465502410530068e+00 5.229979565796998031e+02
2.570565524415371339e+00 5.230001560498780009e+02
2.570665546420212166e+00 5.230026454747371645e+02
2.570765568425053438e+00 5.230054259084063233e+02
2.570865590429894265e+00 5.230084984036345759e+02
2.570965612434735093e+00 5.230118640117611903e+02
2.571065634439576364e+00 5.230155237826747907e+02
2.571165656444417635e+00 5.230194787647801604e+02
2.571265678449258907e+00 5.230237300049608393e+02
2.571365700454099734e+00 5.230282785485433124e+02
2.571465722458941006e+00 5.230331254392621076e+02
2.571565744463781833e+00 5.230382717192227346e+02
2.571665766468622660e+00 5.230437184288641674e+02
2.571765788473463932e+00 5.230494666069250798e+02
2.571865810478304759e+00 5.230555172904062147e+02
2.571965832483146031e+00 5.230618715145342321e+02
2.572065854487987302e+00 5.230685303127264660e+02
2.572165876492828573e+00 5.230754947165534077e+02
2.572265898497669401e+00 5.230827657557026669e+02
2.572365920502510228e+00 5.230903444579424786e+02
2.572465942507351500e+00 5.230982318490853231e+02
2.572565964512192327e+00 5.231064289529525695e+02
2.572665986517033598e+00 5.231149367913371862e+02
2.572766008521874426e+00 5.231237563839663380e+02
2.572866030526715697e+00 5.231328887484667121e+02
2.572966052531556969e+00 5.231423349003266594e+02
2.573066074536397352e+00 5.231520958528612937e+02
2.573166096541239067e+00 5.231621726171733826e+02
2.573266118546079895e+00 5.231725662021194694e+02
2.573366140550921166e+00 5.231832776142720149e+02
2.573466162555761994e+00 5.231943078578821087e+02
2.573566184560603265e+00 5.232056579348458172e+02
2.573666206565444092e+00 5.232173288446625747e+02
2.573766228570284920e+00 5.232293215844044880e+02
2.573866250575126635e+00 5.232416371486756361e+02
2.573966272579967018e+00 5.232542765295773961e+02
2.574066294584808734e+00 5.232672407166691073e+02
2.574166316589649561e+00 5.232805306969357844e+02
2.574266338594490833e+00 5.232941474547487815e+02
2.574366360599331660e+00 5.233080919718281621e+02
2.574466382604172487e+00 5.233223652272097297e+02
2.574566404609013759e+00 5.233369681972050103e+02
2.574666426613854586e+00 5.233519018553661226e+02
2.574766448618696302e+00 5.233671671724493990e+02
2.574866470623536685e+00 5.233827651163768451e+02
2.574966492628378401e+00 5.233986966522032844e+02
2.575066514633219228e+00 5.234149627420755451e+02
2.575166536638060055e+00 5.234315643451999449e+02
2.575266558642901327e+00 5.234485024178022741e+02
2.575366580647742154e+00 5.234657779130932340e+02
2.575466602652583425e+00 5.234833917812308073e+02
2.575566624657424253e+00 5.235013449692861514e+02
2.575666646662265968e+00 5.235196384212033536e+02
2.575766668667106352e+00 5.235382730777652114e+02
2.575866690671947623e+00 5.235572498765573073e+02
2.575966712676788894e+00 5.235765697519302648e+02
2.576066734681629722e+00 5.235962336349645057e+02
2.576166756686470993e+00 5.236162424534314823e+02
2.576266778691311821e+00 5.236365971317615049e+02
2.576366800696153092e+00 5.236572985910024727e+02
2.576466822700993919e+00 5.236783477487874734e+02
2.576566844705834747e+00 5.236997455192966981e+02
2.576666866710676018e+00 5.237214928132211753e+02
2.576766888715517290e+00 5.237435905377278687e+02
2.576866910720358561e+00 5.237660395964214786e+02
2.576966932725199388e+00 5.237888408893088581e+02
2.577066954730040660e+00 5.238119953127660438e+02
2.577166976734881487e+00 5.238355037594965324e+02
2.577266998739722315e+00 5.238593671184992218e+02
2.577367020744563586e+00 5.238835862750324850e+02
2.577467042749404413e+00 5.239081621105751765e+02
2.577567064754245685e+00 5.239330955027942309e+02
2.577667086759086956e+00 5.239583873255066919e+02
2.577767108763928228e+00 5.239840384486437870e+02
2.577867130768769055e+00 5.240100497382161393e+02
2.577967152773609882e+00 5.240364220562767059e+02
2.578067174778451154e+00 5.240631562608894001e+02
2.578167196783291981e+00 5.240902532060852081e+02
2.578267218788133253e+00 5.241177137418346774e+02
2.578367240792974080e+00 5.241455387140071025e+02
2.578467262797815351e+00 5.241737289643390341e+02
2.578567284802656623e+00 5.242022853303948295e+02
2.578667306807497006e+00 5.242312086455347071e+02
2.578767328812338722e+00 5.242604997388771153e+02
2.578867350817179549e+00 5.242901594352646271e+02
2.578967372822020820e+00 5.243201885552285830e+02
2.579067394826861648e+00 5.243505879149533939e+02
2.579167416831702919e+00 5.243813583262416387e+02
2.579267438836543747e+00 5.244125005964802995e+02
2.579367460841384574e+00 5.244440155286033587e+02
2.579467482846226289e+00 5.244759039210596256e+02
2.579567504851066673e+00 5.245081665677754472e+02
2.579667526855908388e+00 5.245408042581220798e+02
2.579767548860749216e+00 5.245738177768783999e+02
2.579867570865590487e+00 5.246072079041997540e+02
2.579967592870431314e+00 5.246409754155807832e+02
2.580067614875272142e+00 5.246751210818216578e+02
2.580167636880113413e+00 5.247096456689932893e+02
2.580267658884954241e+00 5.247445499384048162e+02
2.580367680889795956e+00 5.247798346465666555e+02
2.580467702894636339e+00 5.248155005451581019e+02
2.580567724899478055e+00 5.248515483809932221e+02
2.580667746904318882e+00 5.248879788959867483e+02
2.580767768909159710e+00 5.249247928271186083e+02
2.580867790914000981e+00 5.249619909064026615e+02
2.580967812918841808e+00 5.249995738608510010e+02
2.581067834923683080e+00 5.250375424124416668e+02
2.581167856928523907e+00 5.250758972780834029e+02
2.581267878933365623e+00 5.251146391695834836e+02
2.581367900938206006e+00 5.251537687936149723e+02
2.581467922943047277e+00 5.251932868516804547e+02
2.581567944947888549e+00 5.252331940400824806e+02
2.581667966952729376e+00 5.252734910498888894e+02
2.581767988957570648e+00 5.253141785668977946e+02
2.581868010962411475e+00 5.253552572716092754e+02
2.581968032967252746e+00 5.253967278391874061e+02
2.582068054972093574e+00 5.254385909394310374e+02
2.582168076976934401e+00 5.254808472367395780e+02
2.582268098981775672e+00 5.255234973900818432e+02
2.582368120986616944e+00 5.255665420529618359e+02
2.582468142991458215e+00 5.256099818733882785e+02
2.582568164996299043e+00 5.256538174938401653e+02
2.582668187001140314e+00 5.256980495512375455e+02
2.582768209005981142e+00 5.257426786769066211e+02
2.582868231010821969e+00 5.257877054965496200e+02
2.582968253015663240e+00 5.258331306302136454e+02
2.583068275020504068e+00 5.258789546922565705e+02
2.583168297025345339e+00 5.259251782913164561e+02
2.583268319030186611e+00 5.259718020302825607e+02
2.583368341035027882e+00 5.260188265062602113e+02
2.583468363039868709e+00 5.260662523105418131e+02
2.583568385044709537e+00 5.261140800285758132e+02
2.583668407049550808e+00 5.261623102399348682e+02
2.583768429054391635e+00 5.262109435182845800e+02
2.583868451059232907e+00 5.262599804313548475e+02
2.583968473064073734e+00 5.263094215409075787e+02
2.584068495068915006e+00 5.263592674027069052e+02
2.584168517073756277e+00 5.264095185664860992e+02
2.584268539078596660e+00 5.264601755759230173e+02
2.584368561083438376e+00 5.265112389686054257e+02
2.584468583088279203e+00 5.265627092760008736e+02
2.584568605093120475e+00 5.266145870234306585e+02
2.584668627097961302e+00 5.266668727300364026e+02
2.584768649102802573e+00 5.267195669087512897e+02
2.584868671107643401e+00 5.267726700662720987e+02
2.584968693112484228e+00 5.268261827030289624e+02
2.585068715117325944e+00 5.268801053131554681e+02
2.585168737122166327e+00 5.269344383844605773e+02
2.585268759127008042e+00 5.269891823983989525e+02
2.585368781131848870e+00 5.270443378300432187e+02
2.585468803136690141e+00 5.270999051480544040e+02
2.585568825141530969e+00 5.271558848146542005e+02
2.585668847146371796e+00 5.272122772855954054e+02
2.585768869151213067e+00 5.272690830101350912e+02
2.585868891156053895e+00 5.273263024310056153e+02
2.585968913160895610e+00 5.273839359843880175e+02
2.586068935165735994e+00 5.274419840998816653e+02
2.586168957170577709e+00 5.275004472004791296e+02
2.586268979175418536e+00 5.275593257025383309e+02
2.586369001180259364e+00 5.276186200157540043e+02
2.586469023185100635e+00 5.276783305431314375e+02
2.586569045189941463e+00 5.277384576809588452e+02
2.586669067194782734e+00 5.277990018187817896e+02
2.586769089199623561e+00 5.278599633393748718e+02
2.586869111204465277e+00 5.279213426187164941e+02
2.586969133209305660e+00 5.279831400259613474e+02
2.587069155214146932e+00 5.280453559234143768e+02
2.587169177218988203e+00 5.281079906665065664e+02
2.587269199223829030e+00 5.281710446037649263e+02
2.587369221228670302e+00 5.282345180767921420e+02
2.587469243233511129e+00 5.282984114202365618e+02
2.587569265238352401e+00 5.283627249617678672e+02
2.587669287243193228e+00 5.284274590220531991e+02
2.587769309248034055e+00 5.284926139147301001e+02
2.587869331252875327e+00 5.285581899463841182e+02
2.587969353257716598e+00 5.286241874165211811e+02
2.588069375262557870e+00 5.286906066175451997e+02
2.588169397267398697e+00 5.287574478347311242e+02
2.588269419272239968e+00 5.288247113462033440e+02
2.588369441277080796e+00 5.288923974229112446e+02
2.588469463281921623e+00 5.289605063286031736e+02
2.588569485286762895e+00 5.290290383198055224e+02
2.588669507291603722e+00 5.290979936457964641e+02
2.588769529296444993e+00 5.291673725485835575e+02
2.588869551301286265e+00 5.292371752628824879e+02
2.588969573306127536e+00 5.293074020160904638e+02
2.589069595310968364e+00 5.293780530282659811e+02
2.589169617315809191e+00 5.294491285121059718e+02
2.589269639320650462e+00 5.295206286729213616e+02
2.589369661325491290e+00 5.295925537086166059e+02
2.589469683330332561e+00 5.296649038096675213e+02
2.589569705335173389e+00 5.297376791590980929e+02
2.589669727340014660e+00 5.298108799324592155e+02
2.589769749344855931e+00 5.298845062978082296e+02
2.589869771349696315e+00 5.299585584156852747e+02
2.589969793354538030e+00 5.300330364390950990e+02
2.590069815359378858e+00 5.301079405134812532e+02
2.590169837364220129e+00 5.301832707767118791e+02
2.590269859369060956e+00 5.302590273590537890e+02
2.590369881373902228e+00 5.303352103831523436e+02
2.590469903378743055e+00 5.304118199640150806e+02
2.590569925383583882e+00 5.304888562089864763e+02
2.590669947388425598e+00 5.305663192177330529e+02
2.590769969393265981e+00 5.306442090822192768e+02
2.590869991398107697e+00 5.307225258866914146e+02
2.590970013402948524e+00 5.308012697076560471e+02
2.591070035407789796e+00 5.308804406138621061e+02
2.591170057412630623e+00 5.309600386662808660e+02
2.591270079417471450e+00 5.310400639180894586e+02
2.591370101422312722e+00 5.311205164146504103e+02
2.591470123427153549e+00 5.312013961934927693e+02
2.591570145431995265e+00 5.312827032842960762e+02
2.591670167436835648e+00 5.313644377088716055e+02
2.591770189441677363e+00 5.314465994811433802e+02
2.591870211446518191e+00 5.315291886071330509e+02
2.591970233451359018e+00 5.316122050849401148e+02
2.592070255456200290e+00 5.316956489047277046e+02
2.592170277461041117e+00 5.317795200487024658e+02
2.592270299465882388e+00 5.318638184910996642e+02
2.592370321470723216e+00 5.319485441981672693e+02
2.592470343475564931e+00 5.320336971281487877e+02
2.592570365480405314e+00 5.321192772312660964e+02
2.592670387485246586e+00 5.322052844497063688e+02
2.592770409490087857e+00 5.322917187176044536e+02
2.592870431494928685e+00 5.323785799610275262e+02
2.592970453499769956e+00 5.324658680979604242e+02
2.593070475504610783e+00 5.325535830382908671e+02
2.593170497509452055e+00 5.326417246837939956e+02
2.593270519514292882e+00 5.327302929281175921e+02
2.593370541519133710e+00 5.328192876567691201e+02
2.593470563523974981e+00 5.329087087471006043e+02
2.593570585528816252e+00 5.329985560682936239e+02
2.593670607533657524e+00 5.330888294813480570e+02
2.593770629538498351e+00 5.331795288390671885e+02
2.593870651543339623e+00 5.332706539860430439e+02
2.593970673548180450e+00 5.333622047586479766e+02
2.594070695553021277e+00 5.334541809850152276e+02
2.594170717557862549e+00 5.335465824850321042e+02
2.594270739562703376e+00 5.336394090703238362e+02
2.594370761567544648e+00 5.337326605442439131e+02
2.594470783572385919e+00 5.338263367018610097e+02
2.594570805577227190e+00 5.339204373299469353e+02
2.594670827582068018e+00 5.340149622069653788e+02
2.594770849586908845e+00 5.341099111030604263e+02
2.594870871591750117e+00 5.342052837800476937e+02
2.594970893596590944e+00 5.343010799913997744e+02
2.595070915601432215e+00 5.343972994822385090e+02
2.595170937606273043e+00 5.344939419893224795e+02
2.595270959611114314e+00 5.345910072410398470e+02
2.595370981615955586e+00 5.346884949573957329e+02
2.595471003620795969e+00 5.347864048500030094e+02
2.595571025625637684e+00 5.348847366220735466e+02
2.595671047630478512e+00 5.349834899684083211e+02
2.595771069635319783e+00 5.350826645753901403e+02
2.595871091640160611e+00 5.351822601209718187e+02
2.595971113645001882e+00 5.352822762746704939e+02
2.596071135649842709e+00 5.353827126975578494e+02
2.596171157654683537e+00 5.354835690422517018e+02
2.596271179659525252e+00 5.355848449529100890e+02
2.596371201664365636e+00 5.356865400652206972e+02
2.596471223669207351e+00 5.357886540063972234e+02
2.596571245674048178e+00 5.358911863951686883e+02
2.596671267678889450e+00 5.359941368417737522e+02
2.596771289683730277e+00 5.360975049479557129e+02
2.596871311688571105e+00 5.362012903069542062e+02
2.596971333693412376e+00 5.363054925034984990e+02
2.597071355698253203e+00 5.364101111138039641e+02
2.597171377703094919e+00 5.365151457055641231e+02
2.597271399707935302e+00 5.366205958379453023e+02
2.597371421712777018e+00 5.367264610615837910e+02
2.597471443717617845e+00 5.368327409185772012e+02
2.597571465722458672e+00 5.369394349424826487e+02
2.597671487727299944e+00 5.370465426583110684e+02
2.597771509732140771e+00 5.371540635825225536e+02
2.597871531736982043e+00 5.372619972230227177e+02
2.597971553741822870e+00 5.373703430791596247e+02
2.598071575746663697e+00 5.374791006417193557e+02
2.598171597751504969e+00 5.375882693929213474e+02
2.598271619756346240e+00 5.376978488064185058e+02
2.598371641761187512e+00 5.378078383472918631e+02
2.598471663766028339e+00 5.379182374720494408e+02
2.598571685770869610e+00 5.380290456286211338e+02
2.598671707775710438e+00 5.381402622563615523e+02
2.598771729780551265e+00 5.382518867860433147e+02
2.598871751785392537e+00 5.383639186398575021e+02
2.598971773790233364e+00 5.384763572314124076e+02
2.599071795795074635e+00 5.385892019657326273e+02
2.599171817799915907e+00 5.387024522392561039e+02
2.599271839804757178e+00 5.388161074398369692e+02
2.599371861809598006e+00 5.389301669467408828e+02
2.599471883814438833e+00 5.390446301306490113e+02
2.599571905819280104e+00 5.391594963536554133e+02
2.599671927824120932e+00 5.392747649692677214e+02
2.599771949828962203e+00 5.393904353224089618e+02
2.599871971833803030e+00 5.395065067494176674e+02
2.599971993838644302e+00 5.396229785780479915e+02
2.600072015843485573e+00 5.397398501274720957e+02
2.600172037848325957e+00 5.398571207082816272e+02
2.600272059853167672e+00 5.399747896224905617e+02
2.600372081858008499e+00 5.400928561635340657e+02
2.600472103862849771e+00 5.402113196162732720e+02
2.600572125867690598e+00 5.403301792569977806e+02
2.600672147872531870e+00 5.404494343534283871e+02
2.600772169877372697e+00 5.405690841647191291e+02
2.600872191882213524e+00 5.406891279414616065e+02
2.600972213887055240e+00 5.408095649256870274e+02
2.601072235891895623e+00 5.409303943508720067e+02
2.601172257896737339e+00 5.410516154419423174e+02
2.601272279901578166e+00 5.411732274152750506e+02
2.601372301906419438e+00 5.412952294787054370e+02
2.601472323911260265e+00 5.414176208315308259e+02
2.601572345916101092e+00 5.415404006645152322e+02
2.601672367920942364e+00 5.416635681598949077e+02
2.601772389925783191e+00 5.417871224913849346e+02
2.601872411930624907e+00 5.419110628241840004e+02
2.601972433935465290e+00 5.420353883149791727e+02
2.602072455940307005e+00 5.421600981119548806e+02
2.602172477945147833e+00 5.422851913547974618e+02
2.602272499949988660e+00 5.424106671747034625e+02
2.602372521954829931e+00 5.425365246943829334e+02
2.602472543959670759e+00 5.426627630280744370e+02
2.602572565964512030e+00 5.427893812815417505e+02
2.602672587969352858e+00 5.429163785520920555e+02
2.602772609974194573e+00 5.430437539285778712e+02
2.602872631979034956e+00 5.431715064914061486e+02
2.602972653983876228e+00 5.432996353125486166e+02
2.603072675988717499e+00 5.434281394555480347e+02
2.603172697993558327e+00 5.435570179755308118e+02
2.603272719998399598e+00 5.436862699192116679e+02
2.603372742003240425e+00 5.438158943249073900e+02
2.603472764008081697e+00 5.439458902225430847e+02
2.603572786012922524e+00 5.440762566336653663e+02
2.603672808017763352e+00 5.442069925714499732e+02
2.603772830022604623e+00 5.443380970407143877e+02
2.603872852027445894e+00 5.444695690379257940e+02
2.603972874032287166e+00 5.446014075512169939e+02
2.604072896037127993e+00 5.447336115603905000e+02
2.604172918041969265e+00 5.448661800369379762e+02
2.604272940046810092e+00 5.449991119440453531e+02
2.604372962051650919e+00 5.451324062366091994e+02
2.604472984056492191e+00 5.452660618612458165e+02
2.604573006061333018e+00 5.454000777563072688e+02
2.604673028066174290e+00 5.455344528518896823e+02
2.604773050071015561e+00 5.456691860698504115e+02
2.604873072075856832e+00 5.458042763238194084e+02
2.604973094080697660e+00 5.459397225192118412e+02
2.605073116085538487e+00 5.460755235532435563e+02
2.605173138090379759e+00 5.462116783149439243e+02
2.605273160095220586e+00 5.463481856851705061e+02
2.605373182100061857e+00 5.464850445366234908e+02
2.605473204104902685e+00 5.466222537338603615e+02
2.605573226109743956e+00 5.467598121333105610e+02
2.605673248114585228e+00 5.468977185832915211e+02
2.605773270119425611e+00 5.470359719240232153e+02
2.605873292124267326e+00 5.471745709876443016e+02
2.605973314129108154e+00 5.473135145982273571e+02
2.606073336133949425e+00 5.474528015717962717e+02
2.606173358138790253e+00 5.475924307163423919e+02
2.606273380143631524e+00 5.477324008318398683e+02
2.606373402148472351e+00 5.478727107102648688e+02
2.606473424153313179e+00 5.480133591356100169e+02
2.606573446158154894e+00 5.481543448839040593e+02
2.606673468162995277e+00 5.482956667232284644e+02
2.606773490167836993e+00 5.484373234137352711e+02
2.606873512172677820e+00 5.485793137076659605e+02
2.606973534177519092e+00 5.487216363493685094e+02
2.607073556182359919e+00 5.488642900753175127e+02
2.607173578187200746e+00 5.490072736141321457e+02
2.607273600192042018e+00 5.491505856865946953e+02
2.607373622196882845e+00 5.492942250056714784e+02
2.607473644201724561e+00 5.494381902765314862e+02
2.607573666206564944e+00 5.495824801965658253e+02
2.607673688211406660e+00 5.497270934554072710e+02
2.607773710216247487e+00 5.498720287349538012e+02
2.607873732221088314e+00 5.500172847093843984e+02
2.607973754225929586e+00 5.501628600451836064e+02
2.608073776230770413e+00 5.503087534011613116e+02
2.608173798235611685e+00 5.504549634284716149e+02
2.608273820240452512e+00 5.506014887706390937e+02
2.608373842245294227e+00 5.507483280635761957e+02
2.608473864250134611e+00 5.508954799356067724e+02
2.608573886254975882e+00 5.510429430074899528e+02
2.608673908259817154e+00 5.511907158924384476e+02
2.608773930264657981e+00 5.513387971961456060e+02
2.608873952269499252e+00 5.514871855168054253e+02
2.608973974274340080e+00 5.516358794451365384e+02
2.609073996279181351e+00 5.517848775644063153e+02
2.609174018284022178e+00 5.519341784504531461e+02
2.609274040288863006e+00 5.520837806717090643e+02
2.609374062293704277e+00 5.522336827892295332e+02
2.609474084298545549e+00 5.523838833567093616e+02
2.609574106303386820e+00 5.525343809205145362e+02
2.609674128308227647e+00 5.526851740197018898e+02
2.609774150313068919e+00 5.528362611860472953e+02
2.609874172317909746e+00 5.529876409440682892e+02
2.609974194322750574e+00 5.531393118110529485e+02
2.610074216327591845e+00 5.532912722970806954e+02
2.610174238332432672e+00 5.534435209050523099e+02
2.610274260337273944e+00 5.535960561307144872e+02
2.610374282342115215e+00 5.537488764626850752e+02
2.610474304346956487e+00 5.539019803824816108e+02
2.610574326351797314e+00 5.540553663645470124e+02
2.610674348356638141e+00 5.542090328762760691e+02
2.610774370361479413e+00 5.543629783780438629e+02
2.610874392366320240e+00 5.545172013232312338e+02
2.610974414371161512e+00 5.546717001582554758e+02
2.611074436376002339e+00 5.548264733225950067e+02
2.611174458380843610e+00 5.549815192488194953e+02
2.611274480385684882e+00 5.551368363626165774e+02
2.611374502390525265e+00 5.552924230828225518e+02
2.611474524395366981e+00 5.554482778214487553e+02
2.611574546400207808e+00 5.556043989837121444e+02
2.611674568405049079e+00 5.557607849680630352e+02
2.611774590409889907e+00 5.559174341662160259e+02
2.611874612414731178e+00 5.560743449631797830e+02
2.611974634419572006e+00 5.562315157372829617e+02
2.612074656424412833e+00 5.563889448602096763e+02
2.612174678429254548e+00 5.565466306970265578e+02
2.612274700434094932e+00 5.567045716062132215e+02
2.612374722438936647e+00 5.568627659396943272e+02
2.612474744443777475e+00 5.570212120428682283e+02
2.612574766448618746e+00 5.571799082546410773e+02
2.612674788453459573e+00 5.573388529074557027e+02
2.612774810458300401e+00 5.574980443273231003e+02
2.612874832463141672e+00 5.576574808338552884e+02
2.612974854467982500e+00 5.578171607402972541e+02
2.613074876472824215e+00 5.579770823535573072e+02
2.613174898477664598e+00 5.581372439742411871e+02
2.613274920482506314e+00 5.582976438966844626e+02
2.613374942487347141e+00 5.584582804089832280e+02
2.613474964492187969e+00 5.586191517930294594e+02
2.613574986497029240e+00 5.587802563245429610e+02
2.613675008501870067e+00 5.589415922731045612e+02
2.613775030506711339e+00 5.591031579021897642e+02
2.613875052511552166e+00 5.592649514692026287e+02
2.613975074516393882e+00 5.594269712255097602e+02
2.614075096521234265e+00 5.595892154164735075e+02
2.614175118526075536e+00 5.597516822814869784e+02
2.614275140530916808e+00 5.599143700540091686e+02
2.614375162535757635e+00 5.600772769615980451e+02
2.614475184540598907e+00 5.602404012259464707e+02
2.614575206545439734e+00 5.604037410629177884e+02
2.614675228550281005e+00 5.605672946825784493e+02
2.614775250555121833e+00 5.607310602892366660e+02
2.614875272559962660e+00 5.608950360814764053e+02
2.614975294564803932e+00 5.610592202521928584e+02
2.615075316569645203e+00 5.612236109886296163e+02
2.615175338574486474e+00 5.613882064724137990e+02
2.615275360579327302e+00 5.615530048795930043e+02
2.615375382584168573e+00 5.617180043806715730e+02
2.615475404589009401e+00 5.618832031406467422e+02
2.615575426593850228e+00 5.620485993190463887e+02
2.615675448598691499e+00 5.622141910699679102e+02
2.615775470603532327e+00 5.623799765421100574e+02
2.615875492608373598e+00 5.625459538788163627e+02
2.615975514613214870e+00 5.627121212181089049e+02
2.616075536618056141e+00 5.628784766927286682e+02
2.616175558622896968e+00 5.630450184301696481e+02
2.616275580627737796e+00 5.632117445527223936e+02
2.616375602632579067e+00 5.633786531775083404e+02
2.616475624637419894e+00 5.635457424165185785e+02
2.616575646642261166e+00 5.637130103766550064e+02
2.616675668647101993e+00 5.638804551597667114e+02
2.616775690651943265e+00 5.640480748626890772e+02
2.616875712656784536e+00 5.642158675772850529e+02
2.616975734661624919e+00 5.643838313904814186e+02
2.617075756666466635e+00 5.645519643843115318e+02
2.617175778671307462e+00 5.647202646359520486e+02
2.617275800676148734e+00 5.648887302177652145e+02
2.617375822680989561e+00 5.650573591973374050e+02
2.617475844685830833e+00 5.652261496375183469e+02
2.617575866690671660e+00 5.653950995964647745e+02
2.617675888695512487e+00 5.655642071276764682e+02
2.617775910700354203e+00 5.657334702800413879e+02
2.617875932705194586e+00 5.659028870978717123e+02
2.617975954710036302e+00 5.660724556209503362e+02
2.618075976714877129e+00 5.662421738845658865e+02
2.618175998719718400e+00 5.664120399195592199e+02
2.618276020724559228e+00 5.665820517523613944e+02
2.618376042729400055e+00 5.667522074050365291e+02
2.618476064734241326e+00 5.669225048953231862e+02
2.618576086739082154e+00 5.670929422366775725e+02
2.618676108743923869e+00 5.672635174383133290e+02
2.618776130748764253e+00 5.674342285052432544e+02
2.618876152753605968e+00 5.676050734383256895e+02
2.618976174758446795e+00 5.677760502343026019e+02
2.619076196763287623e+00 5.679471568858444925e+02
2.619176218768128894e+00 5.681183913815916640e+02
2.619276240772969722e+00 5.682897517061979897e+02
2.619376262777810993e+00 5.684612358403730923e+02
2.619476284782651820e+00 5.686328417609284998e+02
2.619576306787493536e+00 5.688045674408148216e+02
2.619676328792333919e+00 5.689764108491715433e+02
2.619776350797175191e+00 5.691483699513660213e+02
2.619876372802016462e+00 5.693204427090400941e+02
2.619976394806857289e+00 5.694926270801516921e+02
2.620076416811698561e+00 5.696649210190203121e+02
2.620176438816539388e+00 5.698373224763703320e+02
2.620276460821380660e+00 5.700098293993750076e+02
2.620376482826221487e+00 5.701824397317011517e+02
2.620476504831062314e+00 5.703551514135536991e+02
2.620576526835903586e+00 5.705279623817191350e+02
2.620676548840744857e+00 5.707008705696133575e+02
2.620776570845586129e+00 5.708738739073205579e+02
2.620876592850426956e+00 5.710469703216444941e+02
2.620976614855268227e+00 5.712201577361494174e+02
2.621076636860109055e+00 5.713934340712078210e+02
2.621176658864949882e+00 5.715667972440426183e+02
2.621276680869791154e+00 5.717402451687750045e+02
2.621376702874631981e+00 5.719137757564699314e+02
2.621476724879473252e+00 5.720873869151806730e+02
2.621576746884314524e+00 5.722610765499935042e+02
2.621676768889155795e+00 5.724348425630776092e+02
2.621776790893996623e+00 5.726086828537249858e+02
2.621876812898837450e+00 5.727825953184014907e+02
2.621976834903678721e+00 5.729565778507917457e+02
2.622076856908519549e+00 5.731306283418449539e+02
2.622176878913360820e+00 5.733047446798186684e+02
2.622276900918201648e+00 5.734789247503309753e+02
2.622376922923042919e+00 5.736531664364010794e+02
2.622476944927884190e+00 5.738274676185002363e+02
2.622576966932724574e+00 5.740018261745962036e+02
2.622676988937566289e+00 5.741762399802016716e+02
2.622777010942407117e+00 5.743507069084187151e+02
2.622877032947248388e+00 5.745252248299887015e+02
2.622977054952089215e+00 5.746997916133371973e+02
2.623077076956930487e+00 5.748744051246231948e+02
2.623177098961771314e+00 5.750490632277834493e+02
2.623277120966612141e+00 5.752237637845830704e+02
2.623377142971453857e+00 5.753985046546608828e+02
2.623477164976294240e+00 5.755732836955779703e+02
2.623577186981135956e+00 5.757480987628651974e+02
2.623677208985976783e+00 5.759229477100699341e+02
2.623777230990818055e+00 5.760978283888052829e+02
2.623877252995658882e+00 5.762727386487965759e+02
2.623977275000499709e+00 5.764476763379308295e+02
2.624077297005340981e+00 5.766226393023039236e+02
2.624177319010181808e+00 5.767976253862675549e+02
2.624277341015023524e+00 5.769726324324799407e+02
2.624377363019863907e+00 5.771476582819520900e+02
2.624477385024705622e+00 5.773227007740970294e+02
2.624577407029546450e+00 5.774977577467773244e+02
2.624677429034387277e+00 5.776728270363545334e+02
2.624777451039228549e+00 5.778479064777370695e+02
2.624877473044069376e+00 5.780229939044293133e+02
2.624977495048910647e+00 5.781980871485790203e+02
2.625077517053751475e+00 5.783731840410281393e+02
2.625177539058593190e+00 5.785482824113598781e+02
2.625277561063433573e+00 5.787233800879474757e+02
2.625377583068274845e+00 5.788984748980045651e+02
2.625477605073116116e+00 5.790735646676326951e+02
2.625577627077956944e+00 5.792486472218705558e+02
2.625677649082798215e+00 5.794237203847434330e+02
2.625777671087639042e+00 5.795987819793123208e+02
2.625877693092480314e+00 5.797738298277225795e+02
2.625977715097321141e+00 5.799488617512537303e+02
2.626077737102161969e+00 5.801238755703674315e+02
2.626177759107003240e+00 5.802988691047600014e+02
2.626277781111844511e+00 5.804738401734069839e+02
2.626377803116685783e+00 5.806487865946158990e+02
2.626477825121526610e+00 5.808237061860751282e+02
2.626577847126367882e+00 5.809985967649020040e+02
2.626677869131208709e+00 5.811734561476956742e+02
2.626777891136049536e+00 5.813482821505817810e+02
2.626877913140890808e+00 5.815230725892647570e+02
2.626977935145731635e+00 5.816978252790788702e+02
2.627077957150572907e+00 5.818725380350333580e+02
2.627177979155414178e+00 5.820472086718687024e+02
2.627278001160255450e+00 5.822218350040982386e+02
2.627378023165096277e+00 5.823964148460657952e+02
2.627478045169937104e+00 5.825709460119899177e+02
2.627578067174778376e+00 5.827454263160159371e+02
2.627678089179619203e+00 5.829198535722654242e+02
2.627778111184460474e+00 5.830942255948850743e+02
2.627878133189301302e+00 5.832685401980984352e+02
2.627978155194142573e+00 5.834427951962545649e+02
2.628078177198983845e+00 5.836169884038781674e+02
2.628178199203824228e+00 5.837911176357185923e+02
2.628278221208665943e+00 5.839651807068007656e+02
2.628378243213506771e+00 5.841391754324761223e+02
2.628478265218348042e+00 5.843130996284694447e+02
2.628578287223188870e+00 5.844869511109314999e+02
2.628678309228030141e+00 5.846607276964884932e+02
2.628778331232870968e+00 5.848344272022909536e+02
2.628878353237711796e+00 5.850080474460646656e+02
2.628978375242553511e+00 5.851815862461608049e+02
2.629078397247393895e+00 5.853550414216042554e+02
2.629178419252235610e+00 5.855284107921461327e+02
2.629278441257076437e+00 5.857016921783121006e+02
2.629378463261917709e+00 5.858748834014513704e+02
2.629478485266758536e+00 5.860479822837901338e+02
2.629578507271599364e+00 5.862209866484773784e+02
2.629678529276440635e+00 5.863938943196374112e+02
2.629778551281281462e+00 5.865667031224195398e+02
2.629878573286123178e+00 5.867394108830476398e+02
2.629978595290963561e+00 5.869120154288689264e+02
2.630078617295805277e+00 5.870845145884065914e+02
2.630178639300646104e+00 5.872569061914072108e+02
2.630278661305486931e+00 5.874291880688913352e+02
2.630378683310328203e+00 5.876013580532045353e+02
2.630478705315169030e+00 5.877734139780652640e+02
2.630578727320010302e+00 5.879453536786160157e+02
2.630678749324851129e+00 5.881171749914731208e+02
2.630778771329692844e+00 5.882888757547759724e+02
2.630878793334533228e+00 5.884604538082367071e+02
2.630978815339374499e+00 5.886319069931903414e+02
2.631078837344215771e+00 5.888032331526443386e+02
2.631178859349056598e+00 5.889744301313294272e+02
2.631278881353897869e+00 5.891454957757457578e+02
2.631378903358738697e+00 5.893164279342176997e+02
2.631478925363579968e+00 5.894872244569382929e+02
2.631578947368420796e+00 5.896578831960218849e+02
2.631678969373261623e+00 5.898284020055535848e+02
2.631778991378102894e+00 5.899987787416374658e+02
2.631879013382944166e+00 5.901690112624454514e+02
2.631979035387785437e+00 5.903390974282706338e+02
2.632079057392626265e+00 5.905090351015703618e+02
2.632179079397467536e+00 5.906788221470206963e+02
2.632279101402308363e+00 5.908484564315645002e+02
2.632379123407149191e+00 5.910179358244582772e+02
2.632479145411990462e+00 5.911872581973251499e+02
2.632579167416831289e+00 5.913564214242003345e+02
2.632679189421672561e+00 5.915254233815830958e+02
2.632779211426513832e+00 5.916942619484827901e+02
2.632879233431354216e+00 5.918629350064712753e+02
2.632979255436195931e+00 5.920314404397290673e+02
2.633079277441036758e+00 5.921997761350952487e+02
2.633179299445878030e+00 5.923679399821166953e+02
2.633279321450718857e+00 5.925359298730948012e+02
2.633379343455560129e+00 5.927037437031377749e+02
2.633479365460400956e+00 5.928713793702048633e+02
2.633579387465241783e+00 5.930388347751585343e+02
2.633679409470083499e+00 5.932061078218110879e+02
2.633779431474923882e+00 5.933731964169730873e+02
2.633879453479765598e+00 5.935400984705021301e+02
2.633979475484606425e+00 5.937068118953511657e+02
2.634079497489447697e+00 5.938733346076170392e+02
2.634179519494288524e+00 5.940396645265868756e+02
2.634279541499129351e+00 5.942057995747884434e+02
2.634379563503970623e+00 5.943717376780364248e+02
2.634479585508811450e+00 5.945374767654809602e+02
2.634579607513653166e+00 5.947030147696566473e+02
2.634679629518493549e+00 5.948683496265261965e+02
2.634779651523335264e+00 5.950334792755331819e+02
2.634879673528176092e+00 5.951984016596466063e+02
2.634979695533016919e+00 5.953631147254089910e+02
2.635079717537858190e+00 5.955276164229840106e+02
2.635179739542699018e+00 5.956919047062033314e+02
2.635279761547540289e+00 5.958559775326143608e+02
2.635379783552381117e+00 5.960198328635268581e+02
2.635479805557222832e+00 5.961834686640609107e+02
2.635579827562063215e+00 5.963468829031920677e+02
2.635679849566904487e+00 5.965100735537995433e+02
2.635779871571745758e+00 5.966730385927139650e+02
2.635879893576586586e+00 5.968357760007610295e+02
2.635979915581427857e+00 5.969982837628103880e+02
2.636079937586268684e+00 5.971605598678221440e+02
2.636179959591109956e+00 5.973226023088917600e+02
2.636279981595950783e+00 5.974844090832967822e+02
2.636380003600791611e+00 5.976459781925441348e+02
2.636480025605632882e+00 5.978073076424147985e+02
2.636580047610474153e+00 5.979683954430099675e+02
2.636680069615315425e+00 5.981292396087974339e+02
2.636780091620156252e+00 5.982898381586575169e+02
2.636880113624997524e+00 5.984501891159259230e+02
2.636980135629838351e+00 5.986102905084442227e+02
2.637080157634679178e+00 5.987701403686000958e+02
2.637180179639520450e+00 5.989297367333772399e+02
2.637280201644361277e+00 5.990890776443945924e+02
2.637380223649202549e+00 5.992481611479578305e+02
2.637480245654043820e+00 5.994069852951001849e+02
2.637580267658885091e+00 5.995655481416285966e+02
2.637680289663725919e+00 5.997238477481680547e+02
2.637780311668566746e+00 5.998818821802057073e+02
2.637880333673408018e+00 6.000396495081355397e+02
2.637980355678248845e+00 6.001971478073036224e+02
2.638080377683090116e+00 6.003543751580516528e+02
2.638180399687930944e+00 6.005113296457585648e+02
2.638280421692772215e+00 6.006680093608898687e+02
2.638380443697613487e+00 6.008244123990347134e+02
2.638480465702453870e+00 6.009805368609556808e+02
2.638580487707295585e+00 6.011363808526272123e+02
2.638680509712136413e+00 6.012919424852833572e+02
2.638780531716977684e+00 6.014472198754574492e+02
2.638880553721818512e+00 6.016022111450263310e+02
2.638980575726659783e+00 6.017569144212548053e+02
2.639080597731500610e+00 6.019113278368362216e+02
2.639180619736341438e+00 6.020654495299361315e+02
2.639280641741183153e+00 6.022192776442352624e+02
2.639380663746023536e+00 6.023728103289704450e+02
2.639480685750865252e+00 6.025260457389781550e+02
2.639580707755706079e+00 6.026789820347366913e+02
2.639680729760547351e+00 6.028316173824059661e+02
2.639780751765388178e+00 6.029839499538725249e+02
2.639880773770229005e+00 6.031359779267884278e+02
2.639980795775070277e+00 6.032876994846135403e+02
