2.100004000960230321e+00 5.120064130227329997e+02
2.100104024965991467e+00 5.118591614059117205e+02
2.100204048971753057e+00 5.117162449664591009e+02
2.100304072977514647e+00 5.115777243093356788e+02
2.100404096983275792e+00 5.114436584488782955e+02
2.100504120989037382e+00 5.113141047834955657e+02
2.100604144994798972e+00 5.111891190710961155e+02
2.100704169000560118e+00 5.110687554052579458e+02
2.100804193006321263e+00 5.109530661921568253e+02
2.100904217012082853e+00 5.108421021282597962e+02
2.101004241017844443e+00 5.107359121788005041e+02
2.101104265023605588e+00 5.106345435570433438e+02
2.101204289029366734e+00 5.105380417043464263e+02
2.101304313035128324e+00 5.104464502710374632e+02
2.101404337040889914e+00 5.103598110981068317e+02
2.101504361046651059e+00 5.102781641997364659e+02
2.101604385052412205e+00 5.102015477466570132e+02
2.101704409058173795e+00 5.101299980503625875e+02
2.101804433063935384e+00 5.100635495481723751e+02
2.101904457069696530e+00 5.100022347891597860e+02
2.102004481075457676e+00 5.099460844209457946e+02
2.102104505081219266e+00 5.098951271773757981e+02
2.102204529086980855e+00 5.098493898670707267e+02
2.102304553092742445e+00 5.098088973628738358e+02
2.102404577098503591e+00 5.097736725921844254e+02
2.102504601104265181e+00 5.097437365281983830e+02
2.102604625110026326e+00 5.097191081820398040e+02
2.102704649115787916e+00 5.096998045958133616e+02
2.102804673121549062e+00 5.096858408365557693e+02
2.102904697127310651e+00 5.096772299911073105e+02
2.103004721133071797e+00 5.096739831618953076e+02
2.103104745138833387e+00 5.096761094636383405e+02
2.103204769144594533e+00 5.096836160209719537e+02
2.103304793150356122e+00 5.096965079669884631e+02
2.103404817156117268e+00 5.097147884427060376e+02
2.103504841161878858e+00 5.097384585974548372e+02
2.103604865167640003e+00 5.097675175901869125e+02
2.103704889173401593e+00 5.098019625917060011e+02
2.103804913179162739e+00 5.098417887878165402e+02
2.103904937184924329e+00 5.098869893833913807e+02
2.104004961190685918e+00 5.099375556073581492e+02
2.104104985196447064e+00 5.099934767185887949e+02
2.104205009202208654e+00 5.100547400127142055e+02
2.104305033207969799e+00 5.101213308298310949e+02
2.104405057213731389e+00 5.101932325631207732e+02
2.104505081219492535e+00 5.102704266683616652e+02
2.104605105225254125e+00 5.103528926743356351e+02
2.104705129231015270e+00 5.104406081941201023e+02
2.104805153236776860e+00 5.105335489372679376e+02
2.104905177242538006e+00 5.106316887228549035e+02
2.105005201248299596e+00 5.107349994934004371e+02
2.105105225254060741e+00 5.108434513296473369e+02
2.105205249259822331e+00 5.109570124661980799e+02
2.105305273265583477e+00 5.110756493079935581e+02
2.105405297271345066e+00 5.111993264476301420e+02
2.105505321277106212e+00 5.113280066835042703e+02
2.105605345282867802e+00 5.114616510387761537e+02
2.105705369288628948e+00 5.116002187811423028e+02
2.105805393294390537e+00 5.117436674434045472e+02
2.105905417300152127e+00 5.118919528448307119e+02
2.106005441305913273e+00 5.120450291132858638e+02
2.106105465311674863e+00 5.122028487081366848e+02
2.106205489317436008e+00 5.123653624439011764e+02
2.106305513323197598e+00 5.125325195146471060e+02
2.106405537328958744e+00 5.127042675191120225e+02
2.106505561334720333e+00 5.128805524865413190e+02
2.106605585340481479e+00 5.130613189032328592e+02
2.106705609346243069e+00 5.132465097397616773e+02
2.106805633352004214e+00 5.134360664788838449e+02
2.106905657357765804e+00 5.136299291441027890e+02
2.107005681363526950e+00 5.138280363288719172e+02
2.107105705369288540e+00 5.140303252264366165e+02
2.107205729375049685e+00 5.142367316602845904e+02
2.107305753380811275e+00 5.144471901151979409e+02
2.107405777386572421e+00 5.146616337688864178e+02
2.107505801392334011e+00 5.148799945241878504e+02
2.107605825398095156e+00 5.151022030418183704e+02
2.107705849403856746e+00 5.153281887736534372e+02
2.107805873409618336e+00 5.155578799965298913e+02
2.107905897415379926e+00 5.157912038465389060e+02
2.108005921421141071e+00 5.160280863538057474e+02
2.108105945426902217e+00 5.162684524777289425e+02
2.108205969432663807e+00 5.165122261426635077e+02
2.108305993438425396e+00 5.167593302740338004e+02
2.108406017444186542e+00 5.170096868348485941e+02
2.108506041449947688e+00 5.172632168626108751e+02
2.108606065455709278e+00 5.175198405065922316e+02
2.108706089461470867e+00 5.177794770654609238e+02
2.108806113467232013e+00 5.180420450252397586e+02
2.108906137472993159e+00 5.183074620975755806e+02
2.109006161478754748e+00 5.185756452583041209e+02
2.109106185484516338e+00 5.188465107862809873e+02
2.109206209490277484e+00 5.191199743024714053e+02
2.109306233496038629e+00 5.193959508092682427e+02
2.109406257501800219e+00 5.196743547300244472e+02
2.109506281507561809e+00 5.199550999487768195e+02
2.109606305513323399e+00 5.202380998501421345e+02
2.109706329519084544e+00 5.205232673593627624e+02
2.109806353524846134e+00 5.208105149824855289e+02
2.109906377530607280e+00 5.210997548466496028e+02
2.110006401536368870e+00 5.213908987404666959e+02
2.110106425542130015e+00 5.216838581544652698e+02
2.110206449547891605e+00 5.219785443215890837e+02
2.110306473553652751e+00 5.222748682577224599e+02
2.110406497559414341e+00 5.225727408022200962e+02
2.110506521565175486e+00 5.228720726584288059e+02
2.110606545570937076e+00 5.231727744341703783e+02
2.110706569576698222e+00 5.234747566821763485e+02
2.110806593582459811e+00 5.237779299404426183e+02
2.110906617588220957e+00 5.240822047724924460e+02
2.111006641593982547e+00 5.243874918075246114e+02
2.111106665599743692e+00 5.246937017804231118e+02
2.111206689605505282e+00 5.250007455716158802e+02
2.111306713611266428e+00 5.253085342467525152e+02
2.111406737617028018e+00 5.256169790961915851e+02
2.111506761622789607e+00 5.259259916742680616e+02
2.111606785628550753e+00 5.262354838383298556e+02
2.111706809634312343e+00 5.265453677875175345e+02
2.111806833640073489e+00 5.268555561012678936e+02
2.111906857645835078e+00 5.271659617775329707e+02
2.112006881651596224e+00 5.274764982706739147e+02
2.112106905657357814e+00 5.277870795290367596e+02
2.112206929663118959e+00 5.280976200321705392e+02
2.112306953668880549e+00 5.284080348276793302e+02
2.112406977674641695e+00 5.287182395676916258e+02
2.112507001680403285e+00 5.290281505449202086e+02
2.112607025686164430e+00 5.293376847283024063e+02
2.112707049691926020e+00 5.296467597982050393e+02
2.112807073697687166e+00 5.299552941811646178e+02
2.112907097703448756e+00 5.302632070841610812e+02
2.113007121709209901e+00 5.305704185283992729e+02
2.113107145714971491e+00 5.308768493825815540e+02
2.113207169720732637e+00 5.311824213956612084e+02
2.113307193726494226e+00 5.314870572290560631e+02
2.113407217732255816e+00 5.317906804883052700e+02
2.113507241738016962e+00 5.320932157541628840e+02
2.113607265743778552e+00 5.323945886131016323e+02
2.113707289749539697e+00 5.326947256872219896e+02
2.113807313755301287e+00 5.329935546635471155e+02
2.113907337761062433e+00 5.332910043226903554e+02
2.114007361766824022e+00 5.335870045668854118e+02
2.114107385772585168e+00 5.338814864473602029e+02
2.114207409778346758e+00 5.341743821910475845e+02
2.114307433784107904e+00 5.344656252266177034e+02
2.114407457789869493e+00 5.347551502098175433e+02
2.114507481795630639e+00 5.350428930481123189e+02
2.114607505801392229e+00 5.353287909246126901e+02
2.114707529807153374e+00 5.356127823212754038e+02
2.114807553812914964e+00 5.358948070413764526e+02
2.114907577818676110e+00 5.361748062312321963e+02
2.115007601824437700e+00 5.364527224011760609e+02
2.115107625830199289e+00 5.367284994457621679e+02
2.115207649835960879e+00 5.370020826632070339e+02
2.115307673841722025e+00 5.372734187740467178e+02
2.115407697847483171e+00 5.375424559390070272e+02
2.115507721853244760e+00 5.378091437760800773e+02
2.115607745859006350e+00 5.380734333767970838e+02
2.115707769864767496e+00 5.383352773216975038e+02
2.115807793870528641e+00 5.385946296949766747e+02
2.115907817876290231e+00 5.388514460983211620e+02
2.116007841882051821e+00 5.391056836639114636e+02
2.116107865887812967e+00 5.393573010666040091e+02
2.116207889893574112e+00 5.396062585352697170e+02
2.116307913899335702e+00 5.398525178633020687e+02
2.116407937905097292e+00 5.400960424182803763e+02
2.116507961910858437e+00 5.403367971507907441e+02
2.116607985916619583e+00 5.405747486023997226e+02
2.116708009922381173e+00 5.408098649127812223e+02
2.116808033928142763e+00 5.410421158259933918e+02
2.116908057933903908e+00 5.412714726959035261e+02
2.117008081939665498e+00 5.414979084907650986e+02
2.117108105945427088e+00 5.417213977969394136e+02
2.117208129951188234e+00 5.419419168217710876e+02
2.117308153956949823e+00 5.421594433956108787e+02
2.117408177962710969e+00 5.423739569729910954e+02
2.117508201968472559e+00 5.425854386329538102e+02
2.117608225974233704e+00 5.427938710785356307e+02
2.117708249979995294e+00 5.429992386354115297e+02
2.117808273985756440e+00 5.432015272496972784e+02
2.117908297991518030e+00 5.434007244849206018e+02
2.118008321997279175e+00 5.435968195181599185e+02
2.118108346003040765e+00 5.437898031353574879e+02
2.118208370008801911e+00 5.439796677258107138e+02
2.118308394014563500e+00 5.441664072758487691e+02
2.118408418020324646e+00 5.443500173617007931e+02
2.118508442026086236e+00 5.445304951415549795e+02
2.118608466031847382e+00 5.447078393468292461e+02
2.118708490037608971e+00 5.448820502726445056e+02
2.118808514043370561e+00 5.450531297675211135e+02
2.118908538049131707e+00 5.452210812222999721e+02
2.119008562054893297e+00 5.453859095582960208e+02
2.119108586060654442e+00 5.455476212146979833e+02
2.119208610066416032e+00 5.457062241352194860e+02
2.119308634072177178e+00 5.458617277540091663e+02
2.119408658077938767e+00 5.460141429808397788e+02
2.119508682083699913e+00 5.461634821855736845e+02
2.119608706089461503e+00 5.463097591819228001e+02
2.119708730095222649e+00 5.464529892105142608e+02
2.119808754100984238e+00 5.465931889212720307e+02
2.119908778106745384e+00 5.467303763551244629e+02
2.120008802112506974e+00 5.468645709250539539e+02
2.120108826118268119e+00 5.469957933964965378e+02
2.120208850124029709e+00 5.471240658671084702e+02
2.120308874129790855e+00 5.472494117459116296e+02
2.120408898135552445e+00 5.473718557318297826e+02
2.120508922141313590e+00 5.474914237916309503e+02
2.120608946147075180e+00 5.476081431372894031e+02
2.120708970152836770e+00 5.477220422027849054e+02
2.120808994158597915e+00 5.478331506203447816e+02
2.120909018164359505e+00 5.479414991961574515e+02
2.121009042170120651e+00 5.480471198855600505e+02
2.121109066175882241e+00 5.481500457677226450e+02
2.121209090181643386e+00 5.482503110198424565e+02
2.121309114187404976e+00 5.483479508908660591e+02
2.121409138193166122e+00 5.484430016747526224e+02
2.121509162198927712e+00 5.485355006832963909e+02
2.121609186204688857e+00 5.486254862185254524e+02
2.121709210210450447e+00 5.487129975446957815e+02
2.121809234216211593e+00 5.487980748598874925e+02
2.121909258221973182e+00 5.488807592672363853e+02
2.122009282227734328e+00 5.489610927458077185e+02
2.122109306233495918e+00 5.490391181211250569e+02
2.122209330239257064e+00 5.491148790353873892e+02
2.122309354245018653e+00 5.491884199173803154e+02
2.122409378250779799e+00 5.492597859520998327e+02
2.122509402256541833e+00 5.493290230501145288e+02
2.122609426262302978e+00 5.493961778166743670e+02
2.122709450268064124e+00 5.494612975205936891e+02
2.122809474273825714e+00 5.495244300629174177e+02
2.122909498279587304e+00 5.495856239453996750e+02
2.123009522285348449e+00 5.496449282388028905e+02
2.123109546291109595e+00 5.497023925510419531e+02
2.123209570296871185e+00 5.497580669951915979e+02
2.123309594302632775e+00 5.498120021573745362e+02
2.123409618308393920e+00 5.498642490645476073e+02
2.123509642314155066e+00 5.499148591522071001e+02
2.123609666319916656e+00 5.499638842320321146e+02
2.123709690325678245e+00 5.500113764594805161e+02
2.123809714331439391e+00 5.500573883013637442e+02
2.123909738337200537e+00 5.501019725034082057e+02
2.124009762342962127e+00 5.501451820578336083e+02
2.124109786348723716e+00 5.501870701709590321e+02
2.124209810354484862e+00 5.502276902308549325e+02
2.124309834360246008e+00 5.502670957750659682e+02
2.124409858366008041e+00 5.503053404584157988e+02
2.124509882371769187e+00 5.503424780209171558e+02
2.124609906377530777e+00 5.503785622557993520e+02
2.124709930383291923e+00 5.504136469776788090e+02
2.124809954389053512e+00 5.504477859908868140e+02
2.124909978394814658e+00 5.504810330579670108e+02
2.125010002400576248e+00 5.505134418683700233e+02
2.125110026406337393e+00 5.505450660073569225e+02
2.125210050412098983e+00 5.505759589251265425e+02
2.125310074417860129e+00 5.506061739061902927e+02
2.125410098423621719e+00 5.506357640390050392e+02
2.125510122429382864e+00 5.506647821858872476e+02
2.125610146435144454e+00 5.506932809532127067e+02
2.125710170440905600e+00 5.507213126619391232e+02
2.125810194446667190e+00 5.507489293184419239e+02
2.125910218452428335e+00 5.507761825857016902e+02
2.126010242458189925e+00 5.508031237548424315e+02
2.126110266463951071e+00 5.508298037170472981e+02
2.126210290469712660e+00 5.508562729358620800e+02
2.126310314475474250e+00 5.508825814198949047e+02
2.126410338481235396e+00 5.509087786959423738e+02
2.126510362486996986e+00 5.509349137825408889e+02
2.126610386492758131e+00 5.509610351639649934e+02
2.126710410498519721e+00 5.509871907646866021e+02
2.126810434504280867e+00 5.510134279243022775e+02
2.126910458510042456e+00 5.510397933729498163e+02
2.127010482515803602e+00 5.510663332072206231e+02
2.127110506521565192e+00 5.510930928665850388e+02
2.127210530527326338e+00 5.511201171103363095e+02
2.127310554533087927e+00 5.511474499950719519e+02
2.127410578538849073e+00 5.511751348527207028e+02
2.127510602544610663e+00 5.512032142691224408e+02
2.127610626550371808e+00 5.512317300631793842e+02
2.127710650556133398e+00 5.512607232665832271e+02
2.127810674561894544e+00 5.512902341041283307e+02
2.127910698567656134e+00 5.513203019746249538e+02
2.128010722573417279e+00 5.513509654324162739e+02
2.128110746579178869e+00 5.513822621695103408e+02
2.128210770584940459e+00 5.514142289983365117e+02
2.128310794590701605e+00 5.514469018351322802e+02
2.128410818596463194e+00 5.514803156839702751e+02
2.128510842602224340e+00 5.515145046214286140e+02
2.128610866607985930e+00 5.515495017819192753e+02
2.128710890613747075e+00 5.515853393436692613e+02
2.128810914619508665e+00 5.516220485153736490e+02
2.128910938625269811e+00 5.516596595235143923e+02
2.129010962631031401e+00 5.516982016003590843e+02
2.129110986636792546e+00 5.517377029726370665e+02
2.129211010642554136e+00 5.517781908509042523e+02
2.129311034648315282e+00 5.518196914195951877e+02
2.129411058654076871e+00 5.518622298277664413e+02
2.129511082659838017e+00 5.519058301805396241e+02
2.129611106665599607e+00 5.519505155312381248e+02
2.129711130671360753e+00 5.519963078742270000e+02
2.129811154677122342e+00 5.520432281384564703e+02
2.129911178682883932e+00 5.520912961817050473e+02
2.130011202688645078e+00 5.521405307855314959e+02
2.130111226694406668e+00 5.521909496509283599e+02
2.130211250700168257e+00 5.522425693946845513e+02
2.130311274705929403e+00 5.522954055464491603e+02
2.130411298711690549e+00 5.523494725465019428e+02
2.130511322717452138e+00 5.524047837442261653e+02
2.130611346723213728e+00 5.524613513972815326e+02
2.130711370728974874e+00 5.525191866714786784e+02
2.130811394734736020e+00 5.525782996413497585e+02
2.130911418740497609e+00 5.526386992914108305e+02
2.131011442746259199e+00 5.527003935181198813e+02
2.131111466752020345e+00 5.527633891325174318e+02
2.131211490757781490e+00 5.528276918635531274e+02
2.131311514763543080e+00 5.528933063620892199e+02
2.131411538769304670e+00 5.529602362055794629e+02
2.131511562775065816e+00 5.530284839034131892e+02
2.131611586780826961e+00 5.530980509029282075e+02
2.131711610786588551e+00 5.531689375960735333e+02
2.131811634792350141e+00 5.532411433267279790e+02
2.131911658798111731e+00 5.533146663986577778e+02
2.132011682803872876e+00 5.533895040841155151e+02
2.132111706809634466e+00 5.534656526330617226e+02
2.132211730815395612e+00 5.535431072830134553e+02
2.132311754821157201e+00 5.536218622695020031e+02
2.132411778826918347e+00 5.537019108371335960e+02
2.132511802832679937e+00 5.537832452512493546e+02
2.132611826838441083e+00 5.538658568101666333e+02
2.132711850844202672e+00 5.539497358579970978e+02
2.132811874849963818e+00 5.540348717980339188e+02
2.132911898855725408e+00 5.541212531066909150e+02
2.133011922861486553e+00 5.542088673479892122e+02
2.133111946867248143e+00 5.542977011885769798e+02
2.133211970873009289e+00 5.543877404132717857e+02
2.133311994878770879e+00 5.544789699411168158e+02
2.133412018884532024e+00 5.545713738419327683e+02
2.133512042890293614e+00 5.546649353533624662e+02
2.133612066896055204e+00 5.547596368983844286e+02
2.133712090901816349e+00 5.548554601032959681e+02
2.133812114907577939e+00 5.549523858161393264e+02
2.133912138913339085e+00 5.550503941255713016e+02
2.134012162919100675e+00 5.551494643801496522e+02
2.134112186924861820e+00 5.552495752080338889e+02
2.134212210930623410e+00 5.553507045370804462e+02
2.134312234936384556e+00 5.554528296153200699e+02
2.134412258942146146e+00 5.555559270318009339e+02
2.134512282947907291e+00 5.556599727377899853e+02
2.134612306953668881e+00 5.557649420683084145e+02
2.134712330959430027e+00 5.558708097639920425e+02
2.134812354965191616e+00 5.559775499932636649e+02
2.134912378970952762e+00 5.560851363747951837e+02
2.135012402976714352e+00 5.561935420002540695e+02
2.135112426982475498e+00 5.563027394573074389e+02
2.135212450988237087e+00 5.564127008528772649e+02
2.135312474993998233e+00 5.565233978366278507e+02
2.135412498999759823e+00 5.566348016246702173e+02
2.135512523005521413e+00 5.567468830234661255e+02
2.135612547011282558e+00 5.568596124539183165e+02
2.135712571017044148e+00 5.569729599756274183e+02
2.135812595022805294e+00 5.570868953113068756e+02
2.135912619028566883e+00 5.572013878713288477e+02
2.136012643034328029e+00 5.573164067783936844e+02
2.136112667040089619e+00 5.574319208923058113e+02
2.136212691045850764e+00 5.575478988348337452e+02
2.136312715051612354e+00 5.576643090146440045e+02
2.136412739057373500e+00 5.577811196522936825e+02
2.136512763063135090e+00 5.578982988052575820e+02
2.136612787068896235e+00 5.580158143929817243e+02
2.136712811074657825e+00 5.581336342219447033e+02
2.136812835080418971e+00 5.582517260107081256e+02
2.136912859086180561e+00 5.583700574149409022e+02
2.137012883091941706e+00 5.584885960524065922e+02
2.137112907097703296e+00 5.586073095278895835e+02
2.137212931103464442e+00 5.587261654580496497e+02
2.137312955109226031e+00 5.588451314961858998e+02
2.137412979114987621e+00 5.589641753568982949e+02
2.137513003120749211e+00 5.590832648406261569e+02
2.137613027126510357e+00 5.592023678580540036e+02
2.137713051132271502e+00 5.593214524543598145e+02
2.137813075138033092e+00 5.594404868333028844e+02
2.137913099143794682e+00 5.595594393811245482e+02
2.138013123149555827e+00 5.596782786902550697e+02
2.138113147155316973e+00 5.597969735828081639e+02
2.138213171161078563e+00 5.599154931338425740e+02
2.138313195166840153e+00 5.600338066943946842e+02
2.138413219172601298e+00 5.601518839142419210e+02
2.138513243178362444e+00 5.602696947644055854e+02
2.138613267184124034e+00 5.603872095593652602e+02
2.138713291189885624e+00 5.605043989789766101e+02
2.138813315195646769e+00 5.606212340900797244e+02
2.138913339201407915e+00 5.607376863677769734e+02
2.139013363207169505e+00 5.608537277163834460e+02
2.139113387212931094e+00 5.609693304900143858e+02
2.139213411218692684e+00 5.610844675128196286e+02
2.139313435224453830e+00 5.611991120988359398e+02
2.139413459230215420e+00 5.613132380714555438e+02
2.139513483235976565e+00 5.614268197824924300e+02
2.139613507241738155e+00 5.615398321308393861e+02
2.139713531247499301e+00 5.616522505807001835e+02
2.139813555253260891e+00 5.617640511793911173e+02
2.139913579259022036e+00 5.618752105746971210e+02
2.140013603264783626e+00 5.619857060317708601e+02
2.140113627270544772e+00 5.620955154495727584e+02
2.140213651276306361e+00 5.622046173768304698e+02
2.140313675282067507e+00 5.623129910275187058e+02
2.140413699287829097e+00 5.624206162958425921e+02
2.140513723293590242e+00 5.625274737707203485e+02
2.140613747299351832e+00 5.626335447497596078e+02
2.140713771305112978e+00 5.627388112527060002e+02
2.140813795310874568e+00 5.628432560343751447e+02
2.140913819316635713e+00 5.629468625970420135e+02
2.141013843322397303e+00 5.630496152022968772e+02
2.141113867328158893e+00 5.631514988823490739e+02
2.141213891333920039e+00 5.632524994507755309e+02
2.141313915339681628e+00 5.633526035127136993e+02
2.141413939345442774e+00 5.634517984744840078e+02
2.141513963351204364e+00 5.635500725526451333e+02
2.141613987356965509e+00 5.636474147824667398e+02
2.141714011362727099e+00 5.637438150258307132e+02
2.141814035368488245e+00 5.638392639785395204e+02
2.141914059374249835e+00 5.639337531770382839e+02
2.142014083380010980e+00 5.640272750045462544e+02
2.142114107385772570e+00 5.641198226965926779e+02
2.142214131391533716e+00 5.642113903459518269e+02
2.142314155397295306e+00 5.643019729069815185e+02
2.142414179403056451e+00 5.643915661993569302e+02
2.142514203408818041e+00 5.644801669112032414e+02
2.142614227414579187e+00 5.645677726016201632e+02
2.142714251420340776e+00 5.646543817026049510e+02
2.142814275426101922e+00 5.647399935203645782e+02
2.142914299431863512e+00 5.648246082360299170e+02
2.143014323437625102e+00 5.649082269057527128e+02
2.143114347443386247e+00 5.649908514602105924e+02
2.143214371449147837e+00 5.650724847034981622e+02
2.143314395454908983e+00 5.651531303114252296e+02
2.143414419460670572e+00 5.652327928292049819e+02
2.143514443466431718e+00 5.653114776685533798e+02
2.143614467472193308e+00 5.653891911041896492e+02
2.143714491477954454e+00 5.654659402697435553e+02
2.143814515483716043e+00 5.655417331530771889e+02
2.143914539489477189e+00 5.656165785910175146e+02
2.144014563495238779e+00 5.656904862635160498e+02
2.144114587500999924e+00 5.657634666872227172e+02
2.144214611506761514e+00 5.658355312084960360e+02
2.144314635512522660e+00 5.659066919958445396e+02
2.144414659518284250e+00 5.659769620318071475e+02
2.144514683524045395e+00 5.660463551042794279e+02
2.144614707529806985e+00 5.661148857972946189e+02
2.144714731535568575e+00 5.661825694812570191e+02
2.144814755541330165e+00 5.662494223026478721e+02
2.144914779547091310e+00 5.663154611731982868e+02
2.145014803552852456e+00 5.663807037585459057e+02
2.145114827558614046e+00 5.664451684663781634e+02
2.145214851564375635e+00 5.665088744340730500e+02
2.145314875570136781e+00 5.665718415158428343e+02
2.145414899575897927e+00 5.666340902693951875e+02
2.145514923581659517e+00 5.666956419421138662e+02
2.145614947587421106e+00 5.667565184567745291e+02
2.145714971593182252e+00 5.668167423968006915e+02
2.145814995598943398e+00 5.668763369910743677e+02
2.145915019604704987e+00 5.669353260983052678e+02
2.146015043610466577e+00 5.669937341909782162e+02
2.146115067616227723e+00 5.670515863388816342e+02
2.146215091621988869e+00 5.671089081922272044e+02
2.146315115627750458e+00 5.671657259643861835e+02
2.146415139633512048e+00 5.672220664142303121e+02
2.146515163639273194e+00 5.672779568281141565e+02
2.146615187645034784e+00 5.673334250014894451e+02
2.146715211650796373e+00 5.673884992201815294e+02
2.146815235656557519e+00 5.674432082413234184e+02
2.146915259662319109e+00 5.674975812739769481e+02
2.147015283668080254e+00 5.675516479594369912e+02
2.147115307673841844e+00 5.676054383512490631e+02
2.147215331679602990e+00 5.676589828949360026e+02
2.147315355685364580e+00 5.677123124074628322e+02
2.147415379691125725e+00 5.677654580564401385e+02
2.147515403696887315e+00 5.678184513390892789e+02
2.147615427702648461e+00 5.678713240609783952e+02
2.147715451708410050e+00 5.679241083145424227e+02
2.147815475714171196e+00 5.679768364574050565e+02
2.147915499719932786e+00 5.680295410905140443e+02
2.148015523725693932e+00 5.680822550361024241e+02
2.148115547731455521e+00 5.681350113154946939e+02
2.148215571737216667e+00 5.681878431267684846e+02
2.148315595742978257e+00 5.682407838222854934e+02
2.148415619748739847e+00 5.682938668861127098e+02
2.148515643754500992e+00 5.683471259113392762e+02
2.148615667760262582e+00 5.684005945773113808e+02
2.148715691766023728e+00 5.684543066267948461e+02
2.148815715771785317e+00 5.685082958430830331e+02
2.148915739777546463e+00 5.685625960270642736e+02
2.149015763783308053e+00 5.686172409742607670e+02
2.149115787789069199e+00 5.686722644518603147e+02
2.149215811794830788e+00 5.687277001757455537e+02
2.149315835800591934e+00 5.687835817875475186e+02
2.149415859806353524e+00 5.688399428317270576e+02
2.149515883812114669e+00 5.688968167327071797e+02
2.149615907817876259e+00 5.689542367720631546e+02
2.149715931823637405e+00 5.690122360657948093e+02
2.149815955829398995e+00 5.690708475416845431e+02
2.149915979835160140e+00 5.691301039167656199e+02
2.150016003840921730e+00 5.691900376749057386e+02
2.150116027846682876e+00 5.692506810445293013e+02
2.150216051852444465e+00 5.693120659764844049e+02
2.150316075858206055e+00 5.693742241220750202e+02
2.150416099863967201e+00 5.694371868112673383e+02
2.150516123869728791e+00 5.695009850310872253e+02
2.150616147875489936e+00 5.695656494042240183e+02
2.150716171881251526e+00 5.696312101678450972e+02
2.150816195887012672e+00 5.696976971526503348e+02
2.150916219892774262e+00 5.697651397621626757e+02
2.151016243898535407e+00 5.698335669522824674e+02
2.151116267904296997e+00 5.699030072111048639e+02
2.151216291910058143e+00 5.699734885390280397e+02
2.151316315915819732e+00 5.700450384291489172e+02
2.151416339921580878e+00 5.701176838479751723e+02
2.151516363927342468e+00 5.701914512164477173e+02
2.151616387933103614e+00 5.702663663913033361e+02
2.151716411938865203e+00 5.703424546467763321e+02
2.151816435944626349e+00 5.704197406566548807e+02
2.151916459950387939e+00 5.704982484767069764e+02
2.152016483956149084e+00 5.705780015274813195e+02
2.152116507961911118e+00 5.706590225774962164e+02
2.152216531967672264e+00 5.707413337268283158e+02
2.152316555973433410e+00 5.708249563911083442e+02
2.152416579979194999e+00 5.709099112859390743e+02
2.152516603984956589e+00 5.709962184117374591e+02
2.152616627990717735e+00 5.710838970390188933e+02
2.152716651996478880e+00 5.711729656941256508e+02
2.152816676002240470e+00 5.712634421454132507e+02
2.152916700008002060e+00 5.713553433899007814e+02
2.153016724013763206e+00 5.714486856403949560e+02
2.153116748019524351e+00 5.715434843130919944e+02
2.153216772025285941e+00 5.716397540156751802e+02
2.153316796031047531e+00 5.717375085358992237e+02
2.153416820036808677e+00 5.718367608306853072e+02
2.153516844042569822e+00 5.719375230157206715e+02
2.153616868048331412e+00 5.720398063555790031e+02
2.153716892054093002e+00 5.721436212543595730e+02
2.153816916059854147e+00 5.722489772468547926e+02
2.153916940065615293e+00 5.723558829902531215e+02
2.154016964071377327e+00 5.724643462563792582e+02
2.154116988077138473e+00 5.725743739244757080e+02
2.154217012082900062e+00 5.726859719745360735e+02
2.154317036088661208e+00 5.727991454811887024e+02
2.154417060094422798e+00 5.729138986081300118e+02
2.154517084100183943e+00 5.730302346031265870e+02
2.154617108105945533e+00 5.731481557935700266e+02
2.154717132111706679e+00 5.732676635826035181e+02
2.154817156117468269e+00 5.733887584458063884e+02
2.154917180123229414e+00 5.735114399284568663e+02
2.155017204128991004e+00 5.736357066433579348e+02
2.155117228134752150e+00 5.737615562692371896e+02
2.155217252140513740e+00 5.738889855497196777e+02
2.155317276146274885e+00 5.740179902928712181e+02
2.155417300152036475e+00 5.741485653713178863e+02
2.155517324157797621e+00 5.742807047229335922e+02
2.155617348163559210e+00 5.744144013521060970e+02
2.155717372169320356e+00 5.745496473315669164e+02
2.155817396175081946e+00 5.746864338047968204e+02
2.155917420180843536e+00 5.748247509889985167e+02
2.156017444186604681e+00 5.749645881786326527e+02
2.156117468192366271e+00 5.751059337495222508e+02
2.156217492198127417e+00 5.752487751635148925e+02
2.156317516203889006e+00 5.753930989737060600e+02
2.156417540209650152e+00 5.755388908302140862e+02
2.156517564215411742e+00 5.756861354865096700e+02
2.156617588221172888e+00 5.758348168062908599e+02
2.156717612226934477e+00 5.759849177709004380e+02
2.156817636232695623e+00 5.761364204872835444e+02
2.156917660238457213e+00 5.762893061964739445e+02
2.157017684244218358e+00 5.764435552826149660e+02
2.157117708249979948e+00 5.765991472824945276e+02
2.157217732255741094e+00 5.767560608956000578e+02
2.157317756261502684e+00 5.769142739946855727e+02
2.157417780267263829e+00 5.770737636368349968e+02
2.157517804273025419e+00 5.772345060750276389e+02
2.157617828278786565e+00 5.773964767701893379e+02
2.157717852284548155e+00 5.775596504037247314e+02
2.157817876290309744e+00 5.777240008905239392e+02
2.157917900296070890e+00 5.778895013924327486e+02
2.158017924301832480e+00 5.780561243321841403e+02
2.158117948307593625e+00 5.782238414077705784e+02
2.158217972313355215e+00 5.783926236072596794e+02
2.158317996319116361e+00 5.785624412240415495e+02
2.158418020324877951e+00 5.787332638724931257e+02
2.158518044330639096e+00 5.789050605040546316e+02
2.158618068336400686e+00 5.790777994237037092e+02
2.158718092342161832e+00 5.792514483068276832e+02
2.158818116347923421e+00 5.794259742164656473e+02
2.158918140353684567e+00 5.796013436209302654e+02
2.159018164359446157e+00 5.797775224117775679e+02
2.159118188365207303e+00 5.799544759221321328e+02
2.159218212370968892e+00 5.801321689453448016e+02
2.159318236376730038e+00 5.803105657539748563e+02
2.159418260382491628e+00 5.804896301190855183e+02
2.159518284388253218e+00 5.806693253298413993e+02
2.159618308394014363e+00 5.808496142133907369e+02
2.159718332399775953e+00 5.810304591550304849e+02
2.159818356405537543e+00 5.812118221186286746e+02
2.159918380411298688e+00 5.813936646673035966e+02
2.160018404417059834e+00 5.815759479843395638e+02
2.160118428422821424e+00 5.817586328943299350e+02
2.160218452428583014e+00 5.819416798845309131e+02
2.160318476434344159e+00 5.821250491264182756e+02
2.160418500440105305e+00 5.823087004974294132e+02
2.160518524445866895e+00 5.824925936028788556e+02
2.160618548451628484e+00 5.826766877980348909e+02
2.160718572457389630e+00 5.828609422103418183e+02
2.160818596463150776e+00 5.830453157617756688e+02
2.160918620468912366e+00 5.832297671913215709e+02
2.161018644474673955e+00 5.834142550775512746e+02
2.161118668480435101e+00 5.835987378613008332e+02
2.161218692486196247e+00 5.837831738684192260e+02
2.161318716491957836e+00 5.839675213325856475e+02
2.161418740497719426e+00 5.841517384181768193e+02
2.161518764503481016e+00 5.843357832431712495e+02
2.161618788509242162e+00 5.845196139020731607e+02
2.161718812515003751e+00 5.847031884888518789e+02
2.161818836520764897e+00 5.848864651198709907e+02
2.161918860526526487e+00 5.850694019567987425e+02
2.162018884532287633e+00 5.852519572294934278e+02
2.162118908538049222e+00 5.854340892588313636e+02
2.162218932543810368e+00 5.856157564794827977e+02
2.162318956549571958e+00 5.857969174626136919e+02
2.162418980555333103e+00 5.859775309384942830e+02
2.162519004561094693e+00 5.861575558190147603e+02
2.162619028566855839e+00 5.863369512200805502e+02
2.162719052572617429e+00 5.865156764838824301e+02
2.162819076578378574e+00 5.866936912010249898e+02
2.162919100584140164e+00 5.868709552325003642e+02
2.163019124589901310e+00 5.870474287314956428e+02
2.163119148595662899e+00 5.872230721650186069e+02
2.163219172601424489e+00 5.873978463353306552e+02
2.163319196607185635e+00 5.875717124011746364e+02
2.163419220612947225e+00 5.877446318987804261e+02
2.163519244618708370e+00 5.879165667626458571e+02
2.163619268624469960e+00 5.880874793460685623e+02
2.163719292630231106e+00 5.882573324414232729e+02
2.163819316635992696e+00 5.884260893001741124e+02
2.163919340641753841e+00 5.885937136526058566e+02
2.164019364647515431e+00 5.887601697272649517e+02
2.164119388653276577e+00 5.889254222700961918e+02
2.164219412659038166e+00 5.890894365632711924e+02
2.164319436664799312e+00 5.892521784436837606e+02
2.164419460670560902e+00 5.894136143211196668e+02
2.164519484676322048e+00 5.895737111960747825e+02
2.164619508682083637e+00 5.897324366772170379e+02
2.164719532687844783e+00 5.898897589984835577e+02
2.164819556693606373e+00 5.900456470358012666e+02
2.164919580699367518e+00 5.902000703234236880e+02
2.165019604705129108e+00 5.903529990698675647e+02
2.165119628710890698e+00 5.905044041734490747e+02
2.165219652716651844e+00 5.906542572374057727e+02
2.165319676722413433e+00 5.908025305845969797e+02
2.165419700728174579e+00 5.909491972717737553e+02
2.165519724733936169e+00 5.910942311034066279e+02
2.165619748739697314e+00 5.912376066450771077e+02
2.165719772745458904e+00 5.913792992364041083e+02
2.165819796751220050e+00 5.915192850035169840e+02
2.165919820756981640e+00 5.916575408710580177e+02
2.166019844762742785e+00 5.917940445737108348e+02
2.166119868768504375e+00 5.919287746672499679e+02
2.166219892774265521e+00 5.920617105390975894e+02
2.166319916780027111e+00 5.921928324183974155e+02
2.166419940785788256e+00 5.923221213855803171e+02
2.166519964791549846e+00 5.924495593814351651e+02
2.166619988797310992e+00 5.925751292156662657e+02
2.166720012803072581e+00 5.926988145749414798e+02
2.166820036808833727e+00 5.928206000304221561e+02
2.166920060814595317e+00 5.929404710447745401e+02
2.167020084820356907e+00 5.930584139786552669e+02
2.167120108826118496e+00 5.931744160966723030e+02
2.167220132831879642e+00 5.932884655728108783e+02
2.167320156837640788e+00 5.934005514953355487e+02
2.167420180843402377e+00 5.935106638711491769e+02
2.167520204849163967e+00 5.936187936296190628e+02
2.167620228854925113e+00 5.937249326258681776e+02
2.167720252860686259e+00 5.938290736435181998e+02
2.167820276866447848e+00 5.939312103969051577e+02
2.167920300872209438e+00 5.940313375327406220e+02
2.168020324877970584e+00 5.941294506312433441e+02
2.168120348883731729e+00 5.942255462067237204e+02
2.168220372889493319e+00 5.943196217076306311e+02
2.168320396895254909e+00 5.944116755160581533e+02
2.168420420901016055e+00 5.945017069467128294e+02
2.168520444906777200e+00 5.945897162453453575e+02
2.168620468912538790e+00 5.946757045866486351e+02
2.168720492918300380e+00 5.947596740716172690e+02
2.168820516924061970e+00 5.948416277243834429e+02
2.168920540929823115e+00 5.949215694885198218e+02
2.169020564935584705e+00 5.949995042228197235e+02
2.169120588941345851e+00 5.950754376965554684e+02
2.169220612947107441e+00 5.951493765842182029e+02
2.169320636952868586e+00 5.952213284597468146e+02
2.169420660958630176e+00 5.952913017902426418e+02
2.169520684964391322e+00 5.953593059291838472e+02
2.169620708970152911e+00 5.954253511091388873e+02
2.169720732975914057e+00 5.954894484339820337e+02
2.169820756981675647e+00 5.955516098706249295e+02
2.169920780987436792e+00 5.956118482402606560e+02
2.170020804993198382e+00 5.956701772091338398e+02
2.170120828998959528e+00 5.957266112788354349e+02
2.170220853004721118e+00 5.957811657761401420e+02
2.170320877010482263e+00 5.958338568423806691e+02
2.170420901016243853e+00 5.958847014223717906e+02
2.170520925022004999e+00 5.959337172528995552e+02
2.170620949027766589e+00 5.959809228507651824e+02
2.170720973033528178e+00 5.960263375004095678e+02
2.170820997039289324e+00 5.960699812411165794e+02
2.170921021045050914e+00 5.961118748538065120e+02
2.171021045050812059e+00 5.961520398474269768e+02
2.171121069056573649e+00 5.961904984449557787e+02
2.171221093062334795e+00 5.962272735690127092e+02
2.171321117068096385e+00 5.962623888271067472e+02
2.171421141073857530e+00 5.962958684965104794e+02
2.171521165079619120e+00 5.963277375087873224e+02
2.171621189085380266e+00 5.963580214339675649e+02
2.171721213091141856e+00 5.963867464643972198e+02
2.171821237096903001e+00 5.964139393982561614e+02
2.171921261102664591e+00 5.964396276227689668e+02
2.172021285108425737e+00 5.964638390971103945e+02
2.172121309114187326e+00 5.964866023350173236e+02
2.172221333119948472e+00 5.965079463871257985e+02
2.172321357125710062e+00 5.965279008230337467e+02
2.172421381131471652e+00 5.965464957131092660e+02
2.172521405137232797e+00 5.965637616100483456e+02
2.172621429142994387e+00 5.965797295302056682e+02
2.172721453148755533e+00 5.965944309346923546e+02
2.172821477154517122e+00 5.966078977102710041e+02
2.172921501160278268e+00 5.966201621500488272e+02
2.173021525166039858e+00 5.966312569339833090e+02
2.173121549171801004e+00 5.966412151092129079e+02
2.173221573177562593e+00 5.966500700702274571e+02
2.173321597183323739e+00 5.966578555388879295e+02
2.173421621189085329e+00 5.966646055443043224e+02
2.173521645194846474e+00 5.966703544025961037e+02
2.173621669200608064e+00 5.966751366965343095e+02
2.173721693206369210e+00 5.966789872550848486e+02
2.173821717212130800e+00 5.966819411328640399e+02
2.173921741217891945e+00 5.966840335895227554e+02
2.174021765223653535e+00 5.966853000690634872e+02
2.174121789229414681e+00 5.966857761791117127e+02
2.174221813235176270e+00 5.966854976701480382e+02
2.174321837240937860e+00 5.966845004147190821e+02
2.174421861246699450e+00 5.966828203866336935e+02
2.174521885252460596e+00 5.966804936401632631e+02
2.174621909258221741e+00 5.966775562892562448e+02
2.174721933263983331e+00 5.966740444867749602e+02
2.174821957269744921e+00 5.966699944037769683e+02
2.174921981275506067e+00 5.966654422088440697e+02
2.175022005281267212e+00 5.966604240474775906e+02
2.175122029287028802e+00 5.966549760215710876e+02
2.175222053292790392e+00 5.966491341689647925e+02
2.175322077298551537e+00 5.966429344431129493e+02
2.175422101304312683e+00 5.966364126928519909e+02
2.175522125310074273e+00 5.966296046423033204e+02
2.175622149315835863e+00 5.966225458709063787e+02
2.175722173321597008e+00 5.966152717936060981e+02
2.175822197327358154e+00 5.966078176411966751e+02
2.175922221333119744e+00 5.966002184408384892e+02
2.176022245338881334e+00 5.965925089967627173e+02
2.176122269344642923e+00 5.965847238711652381e+02
2.176222293350404069e+00 5.965768973653088096e+02
2.176322317356165659e+00 5.965690635008426170e+02
2.176422341361926804e+00 5.965612560013512393e+02
2.176522365367688394e+00 5.965535082741411088e+02
2.176622389373449540e+00 5.965458533922713968e+02
2.176722413379211130e+00 5.965383240768564974e+02
2.176822437384972275e+00 5.965309526796224873e+02
2.176922461390733865e+00 5.965237711657579212e+02
2.177022485396495011e+00 5.965168110970425914e+02
2.177122509402256600e+00 5.965101036152835832e+02
2.177222533408017746e+00 5.965036794260527131e+02
2.177322557413779336e+00 5.964975687827469528e+02
2.177422581419540482e+00 5.964918014709729732e+02
2.177522605425302071e+00 5.964864067932641092e+02
2.177622629431063217e+00 5.964814135541466840e+02
2.177722653436824807e+00 5.964768500455501226e+02
2.177822677442585952e+00 5.964727440325871157e+02
2.177922701448347542e+00 5.964691227396880322e+02
2.178022725454109132e+00 5.964660128371234578e+02
2.178122749459870278e+00 5.964634404278998545e+02
2.178222773465631867e+00 5.964614310350461892e+02
2.178322797471393013e+00 5.964600095893006255e+02
2.178422821477154603e+00 5.964592004171910276e+02
2.178522845482915749e+00 5.964590272295350815e+02
2.178622869488677338e+00 5.964595131103428685e+02
2.178722893494438484e+00 5.964606805061492878e+02
2.178822917500200074e+00 5.964625512157630283e+02
2.178922941505961219e+00 5.964651463804550531e+02
2.179022965511722809e+00 5.964684864745745472e+02
2.179122989517483955e+00 5.964725912966082433e+02
2.179223013523245545e+00 5.964774799606823308e+02
2.179323037529006690e+00 5.964831708885128592e+02
2.179423061534768280e+00 5.964896818018072508e+02
2.179523085540529426e+00 5.964970297151194245e+02
2.179623109546291015e+00 5.965052309291654637e+02
2.179723133552052161e+00 5.965143010245956248e+02
2.179823157557813751e+00 5.965242548562321190e+02
2.179923181563575341e+00 5.965351065477723296e+02
2.180023205569336486e+00 5.965468694869559840e+02
2.180123229575098076e+00 5.965595563212034449e+02
2.180223253580859222e+00 5.965731789537218219e+02
2.180323277586620812e+00 5.965877485400834530e+02
2.180423301592381957e+00 5.966032754852731159e+02
2.180523325598143547e+00 5.966197694412061310e+02
2.180623349603904693e+00 5.966372393047247442e+02
2.180723373609666282e+00 5.966556932160559654e+02
2.180823397615427428e+00 5.966751385577451856e+02
2.180923421621189018e+00 5.966955819540612538e+02
2.181023445626950164e+00 5.967170292708653960e+02
2.181123469632711753e+00 5.967394856159496612e+02
2.181223493638472899e+00 5.967629553398412554e+02
2.181323517644234489e+00 5.967874420370683310e+02
2.181423541649995634e+00 5.968129485478880270e+02
2.181523565655757224e+00 5.968394769604717567e+02
2.181623589661518370e+00 5.968670286135450169e+02
2.181723613667280404e+00 5.968956040994809200e+02
2.181823637673041549e+00 5.969252032678426758e+02
2.181923661678802695e+00 5.969558252293677469e+02
2.182023685684564285e+00 5.969874683603941321e+02
2.182123709690325875e+00 5.970201303077246848e+02
2.182223733696087020e+00 5.970538079939192357e+02
2.182323757701848166e+00 5.970884976230186112e+02
2.182423781707609756e+00 5.971241946866859962e+02
2.182523805713371345e+00 5.971608939707659829e+02
2.182623829719132491e+00 5.971985895622550515e+02
2.182723853724893637e+00 5.972372748566740484e+02
2.182823877730655227e+00 5.972769425658441378e+02
2.182923901736416816e+00 5.973175847260494038e+02
2.183023925742177962e+00 5.973591927065891696e+02
2.183123949747939108e+00 5.974017572187062797e+02
2.183223973753700697e+00 5.974452683248875928e+02
2.183323997759462287e+00 5.974897154485299779e+02
2.183424021765223433e+00 5.975350873839623773e+02
2.183524045770985023e+00 5.975813723068145009e+02
2.183624069776746612e+00 5.976285577847306740e+02
2.183724093782507758e+00 5.976766307884145135e+02
2.183824117788269348e+00 5.977255777029962474e+02
2.183924141794030493e+00 5.977753843397183573e+02
2.184024165799792083e+00 5.978260359479291992e+02
2.184124189805553229e+00 5.978775172273719818e+02
2.184224213811314819e+00 5.979298123407660341e+02
2.184324237817075964e+00 5.979829049266650145e+02
2.184424261822837554e+00 5.980367781125903548e+02
2.184524285828598700e+00 5.980914145284186816e+02
2.184624309834360290e+00 5.981467963200291251e+02
2.184724333840121435e+00 5.982029051631850507e+02
2.184824357845883025e+00 5.982597222776511217e+02
2.184924381851644171e+00 5.983172284415313698e+02
2.185024405857405760e+00 5.983754040058170176e+02
2.185124429863166906e+00 5.984342289091376870e+02
2.185224453868928496e+00 5.984936826926995082e+02
2.185324477874689642e+00 5.985537445154087663e+02
2.185424501880451231e+00 5.986143931691585749e+02
2.185524525886212821e+00 5.986756070942785755e+02
2.185624549891973967e+00 5.987373643951318627e+02
2.185724573897735556e+00 5.987996428558450361e+02
2.185824597903496702e+00 5.988624199561734258e+02
2.185924621909258292e+00 5.989256728874692044e+02
2.186024645915019438e+00 5.989893785687644367e+02
2.186124669920781027e+00 5.990535136629418957e+02
2.186224693926542173e+00 5.991180545929869368e+02
2.186324717932303763e+00 5.991829775583146329e+02
2.186424741938064908e+00 5.992482585511539810e+02
2.186524765943826498e+00 5.993138733729782643e+02
2.186624789949587644e+00 5.993797976509798673e+02
2.186724813955349234e+00 5.994460068545627109e+02
2.186824837961110379e+00 5.995124763118578812e+02
2.186924861966871969e+00 5.995791812262381200e+02
2.187024885972633115e+00 5.996460966928261769e+02
2.187124909978394705e+00 5.997131977149894055e+02
2.187224933984156294e+00 5.997804592207977521e+02
2.187324957989917440e+00 5.998478560794484338e+02
2.187424981995679030e+00 5.999153631176366162e+02
2.187525006001440175e+00 5.999829551358648132e+02
2.187625030007201765e+00 6.000506069246805509e+02
2.187725054012962911e+00 6.001182932808292207e+02
2.187825078018724501e+00 6.001859890233147325e+02
2.187925102024485646e+00 6.002536690093544394e+02
2.188025126030247236e+00 6.003213081502213981e+02
2.188125150036008382e+00 6.003888814269591876e+02
2.188225174041769971e+00 6.004563639059624620e+02
2.188325198047531117e+00 6.005237307544123269e+02
2.188425222053292707e+00 6.005909572555561908e+02
2.188525246059053853e+00 6.006580188238225446e+02
2.188625270064815442e+00 6.007248910197610030e+02
2.188725294070576588e+00 6.007915495647963553e+02
2.188825318076338178e+00 6.008579703557909397e+02
2.188925342082099323e+00 6.009241294794036321e+02
2.189025366087860913e+00 6.009900032262347622e+02
2.189125390093622503e+00 6.010555681047517282e+02
2.189225414099383649e+00 6.011208008549843953e+02
2.189325438105145238e+00 6.011856784619828886e+02
2.189425462110906828e+00 6.012501781690231155e+02
2.189525486116667974e+00 6.013142774905682018e+02
2.189625510122429120e+00 6.013779542249558290e+02
2.189725534128190709e+00 6.014411864668204544e+02
2.189825558133952299e+00 6.015039526192360881e+02
2.189925582139713445e+00 6.015662314055720117e+02
2.190025606145474590e+00 6.016280018810589354e+02
2.190125630151236180e+00 6.016892434440500210e+02
2.190225654156997770e+00 6.017499358469793833e+02
2.190325678162758916e+00 6.018100592070061339e+02
2.190425702168520061e+00 6.018695940163370324e+02
2.190525726174281651e+00 6.019285211522270629e+02
2.190625750180043241e+00 6.019868218866457710e+02
2.190725774185804386e+00 6.020444778956070877e+02
2.190825798191565532e+00 6.021014712681594574e+02
2.190925822197327566e+00 6.021577845150250141e+02
2.191025846203088712e+00 6.022134005768881480e+02
2.191125870208850301e+00 6.022683028323290273e+02
2.191225894214611447e+00 6.023224751053907084e+02
2.191325918220373037e+00 6.023759016727909739e+02
2.191425942226134183e+00 6.024285672707541153e+02
2.191525966231895772e+00 6.024804571014755084e+02
2.191625990237656918e+00 6.025315568392153409e+02
2.191726014243418508e+00 6.025818526360034184e+02
2.191826038249179653e+00 6.026313311269702808e+02
2.191926062254941243e+00 6.026799794352922390e+02
2.192026086260702389e+00 6.027277851767504444e+02
2.192126110266463979e+00 6.027747364639009220e+02
2.192226134272225124e+00 6.028208219098573863e+02
2.192326158277986714e+00 6.028660306316804736e+02
2.192426182283747860e+00 6.029103522533778232e+02
2.192526206289509449e+00 6.029537769085088712e+02
2.192626230295270595e+00 6.029962952423979914e+02
2.192726254301032185e+00 6.030378984139538261e+02
2.192826278306793775e+00 6.030785780970936685e+02
2.192926302312554920e+00 6.031183264817773306e+02
2.193026326318316510e+00 6.031571362746444720e+02
2.193126350324077656e+00 6.031950006992647104e+02
2.193226374329839246e+00 6.032319134959927851e+02
2.193326398335600391e+00 6.032678689214383212e+02
2.193426422341361981e+00 6.033028617475437159e+02
2.193526446347123127e+00 6.033368872602821966e+02
2.193626470352884716e+00 6.033699412579646832e+02
2.193726494358645862e+00 6.034020200491711421e+02
2.193826518364407452e+00 6.034331204503052959e+02
2.193926542370168598e+00 6.034632397827651857e+02
2.194026566375930187e+00 6.034923758697553922e+02
2.194126590381691333e+00 6.035205270327153357e+02
2.194226614387452923e+00 6.035476920873948075e+02
2.194326638393214068e+00 6.035738703395632001e+02
2.194426662398975658e+00 6.035990615803632409e+02
2.194526686404736804e+00 6.036232660813138864e+02
2.194626710410498394e+00 6.036464845889638582e+02
2.194726734416259983e+00 6.036687183192062776e+02
2.194826758422021129e+00 6.036899689512501936e+02
2.194926782427782719e+00 6.037102386212692409e+02
2.195026806433543864e+00 6.037295299157184445e+02
2.195126830439305454e+00 6.037478458643296335e+02
2.195226854445066600e+00 6.037651899328006948e+02
2.195326878450828190e+00 6.037815660151675274e+02
2.195426902456589335e+00 6.037969784258854133e+02
2.195526926462350925e+00 6.038114318916061620e+02
2.195626950468112071e+00 6.038249315426739940e+02
2.195726974473873661e+00 6.038374829043425507e+02
2.195826998479634806e+00 6.038490918877141667e+02
2.195927022485396396e+00 6.038597647804169810e+02
2.196027046491157542e+00 6.038695082370245473e+02
2.196127070496919131e+00 6.038783292692249915e+02
2.196227094502680277e+00 6.038862352357473355e+02
2.196327118508441867e+00 6.038932338320598774e+02
2.196427142514203013e+00 6.038993330798347188e+02
2.196527166519964602e+00 6.039045413162046998e+02
2.196627190525726192e+00 6.039088671828059205e+02
2.196727214531487782e+00 6.039123196146244936e+02
2.196827238537248927e+00 6.039149078286520762e+02
2.196927262543010073e+00 6.039166413123621169e+02
2.197027286548771663e+00 6.039175298120087518e+02
2.197127310554533253e+00 6.039175833207737014e+02
2.197227334560294398e+00 6.039168120667455923e+02
2.197327358566055544e+00 6.039152265007686538e+02
2.197427382571817134e+00 6.039128372841501005e+02
2.197527406577578724e+00 6.039096552762449619e+02
2.197627430583339869e+00 6.039056915219250641e+02
2.197727454589101015e+00 6.039009572389461482e+02
2.197827478594862605e+00 6.038954638052168775e+02
2.197927502600624194e+00 6.038892227459843980e+02
2.198027526606385340e+00 6.038822457209438426e+02
2.198127550612146486e+00 6.038745445112857624e+02
2.198227574617908076e+00 6.038661310066823944e+02
2.198327598623669665e+00 6.038570171922387999e+02
2.198427622629431255e+00 6.038472151354010293e+02
2.198527646635192401e+00 6.038367369728430276e+02
2.198627670640953990e+00 6.038255948973385330e+02
2.198727694646715136e+00 6.038138011446341125e+02
2.198827718652476726e+00 6.038013679803193554e+02
2.198927742658237872e+00 6.037883076867198042e+02
2.199027766663999461e+00 6.037746325498156921e+02
2.199127790669760607e+00 6.037603548461956962e+02
2.199227814675522197e+00 6.037454868300579847e+02
2.199327838681283342e+00 6.037300407202690167e+02
2.199427862687044932e+00 6.037140286874881667e+02
2.199527886692806078e+00 6.036974628413695427e+02
2.199627910698567668e+00 6.036803552178510017e+02
2.199727934704328813e+00 6.036627177665388899e+02
2.199827958710090403e+00 6.036445623382001031e+02
2.199927982715851549e+00 6.036259006723674929e+02
2.200028006721613139e+00 6.036067443850773770e+02
2.200128030727374284e+00 6.035871049567341515e+02
2.200228054733135874e+00 6.035669937201241737e+02
2.200328078738897464e+00 6.035464218485835772e+02
2.200428102744658609e+00 6.035254003443282045e+02
2.200528126750420199e+00 6.035039400269535008e+02
2.200628150756181345e+00 6.034820515221219921e+02
2.200728174761942935e+00 6.034597452504314106e+02
2.200828198767704080e+00 6.034370314164917772e+02
2.200928222773465670e+00 6.034139199981985939e+02
2.201028246779226816e+00 6.033904207362337502e+02
2.201128270784988405e+00 6.033665431237781149e+02
2.201228294790749551e+00 6.033422963964659402e+02
2.201328318796511141e+00 6.033176895225724365e+02
2.201428342802272287e+00 6.032927311934521413e+02
2.201528366808033876e+00 6.032674298142319458e+02
2.201628390813795022e+00 6.032417934947651474e+02
2.201728414819556612e+00 6.032158300408576679e+02
2.201828438825317757e+00 6.031895469457672334e+02
2.201928462831079347e+00 6.031629513819916610e+02
2.202028486836840937e+00 6.031360501933404521e+02
2.202128510842602083e+00 6.031088498873070876e+02
2.202228534848363672e+00 6.030813566277442987e+02
2.202328558854124818e+00 6.030535762278466336e+02
2.202428582859886408e+00 6.030255141434448660e+02
2.202528606865647554e+00 6.029971754666255492e+02
2.202628630871409143e+00 6.029685649196724171e+02
2.202728654877170289e+00 6.029396868493387274e+02
2.202828678882931879e+00 6.029105452214517982e+02
2.202928702888693024e+00 6.028811436158657671e+02
2.203028726894454614e+00 6.028514852217459747e+02
2.203128750900215760e+00 6.028215728332140770e+02
2.203228774905977350e+00 6.027914088453341037e+02
2.203328798911738495e+00 6.027609952504610646e+02
2.203428822917500085e+00 6.027303336349473284e+02
2.203528846923261231e+00 6.026994251762085923e+02
2.203628870929022820e+00 6.026682706401571750e+02
2.203728894934783966e+00 6.026368703790012660e+02
2.203828918940545556e+00 6.026052243294136588e+02
2.203928942946307146e+00 6.025733320110747400e+02
2.204028966952068735e+00 6.025411925255860979e+02
2.204128990957829881e+00 6.025088045557614578e+02
2.204229014963591027e+00 6.024761663652914194e+02
2.204329038969352617e+00 6.024432757987879086e+02
2.204429062975114206e+00 6.024101302822069783e+02
2.204529086980875352e+00 6.023767268236463224e+02
2.204629110986636498e+00 6.023430620145277317e+02
2.204729134992398087e+00 6.023091320311507388e+02
2.204829158998159677e+00 6.022749326366296145e+02
2.204929183003920823e+00 6.022404591832082588e+02
2.205029207009681969e+00 6.022057066149467346e+02
2.205129231015443558e+00 6.021706694707893348e+02
2.205229255021205148e+00 6.021353418880021309e+02
2.205329279026966294e+00 6.020997176059842104e+02
2.205429303032727439e+00 6.020637899704501024e+02
2.205529327038489029e+00 6.020275519379802063e+02
2.205629351044250619e+00 6.019909960809350196e+02
2.205729375050012209e+00 6.019541145927324806e+02
2.205829399055773354e+00 6.019168992934871767e+02
2.205929423061534944e+00 6.018793416360024366e+02
2.206029447067296090e+00 6.018414327121189444e+02
2.206129471073057680e+00 6.018031632594088478e+02
2.206229495078818825e+00 6.017645236682168388e+02
2.206329519084580415e+00 6.017255039890409307e+02
2.206429543090341561e+00 6.016860939402499753e+02
2.206529567096103150e+00 6.016462829161290529e+02
2.206629591101864296e+00 6.016060599952579651e+02
2.206729615107625886e+00 6.015654139492007744e+02
2.206829639113387032e+00 6.015243332515200336e+02
2.206929663119148621e+00 6.014828060870926265e+02
2.207029687124909767e+00 6.014408203617349500e+02
2.207129711130671357e+00 6.013983637121204993e+02
2.207229735136432502e+00 6.013554235159906511e+02
2.207329759142194092e+00 6.013119869026490960e+02
2.207429783147955238e+00 6.012680407637330973e+02
2.207529807153716828e+00 6.012235717642552117e+02
2.207629831159478417e+00 6.011785663539051257e+02
2.207729855165239563e+00 6.011330107786109238e+02
2.207829879171001153e+00 6.010868910923458088e+02
2.207929903176762299e+00 6.010401931691700383e+02
2.208029927182523888e+00 6.009929027155144468e+02
2.208129951188285034e+00 6.009450052826757656e+02
2.208229975194046624e+00 6.008964862795355657e+02
2.208329999199807769e+00 6.008473309854804256e+02
2.208430023205569359e+00 6.007975245635213923e+02
2.208530047211330505e+00 6.007470520736015942e+02
2.208630071217092095e+00 6.006958984860824557e+02
2.208730095222853240e+00 6.006440486954031712e+02
2.208830119228614830e+00 6.005914875338958154e+02
2.208930143234375976e+00 6.005381997857582519e+02
2.209030167240137565e+00 6.004841702011627831e+02
2.209130191245898711e+00 6.004293835105007702e+02
2.209230215251660301e+00 6.003738244387468512e+02
2.209330239257421447e+00 6.003174777199382106e+02
2.209430263263183036e+00 6.002603281117549159e+02
2.209530287268944626e+00 6.002023604101890442e+02
2.209630311274705772e+00 6.001435594643010063e+02
2.209730335280467362e+00 6.000839101910437421e+02
2.209830359286228507e+00 6.000233975901476242e+02
2.209930383291990097e+00 5.999620067590593635e+02
2.210030407297751243e+00 5.998997229079175213e+02
2.210130431303512832e+00 5.998365313745575804e+02
2.210230455309273978e+00 5.997724176395394124e+02
2.210330479315035568e+00 5.997073673411784966e+02
2.210430503320796713e+00 5.996413662905761157e+02
2.210530527326558303e+00 5.995744004866390924e+02
2.210630551332319449e+00 5.995064561310703084e+02
2.210730575338081039e+00 5.994375196433281872e+02
2.210830599343842184e+00 5.993675776755405877e+02
2.210930623349603774e+00 5.992966171273593545e+02
2.211030647355364920e+00 5.992246251607521117e+02
2.211130671361126510e+00 5.991515892147115210e+02
2.211230695366887655e+00 5.990774970198815481e+02
2.211330719372649689e+00 5.990023366130778868e+02
2.211430743378410835e+00 5.989260963517048140e+02
2.211530767384171980e+00 5.988487649280482401e+02
2.211630791389933570e+00 5.987703313834380197e+02
2.211730815395695160e+00 5.986907851222699719e+02
2.211830839401456306e+00 5.986101159258747657e+02
2.211930863407217451e+00 5.985283139662263920e+02
2.212030887412979041e+00 5.984453698194749904e+02
2.212130911418740631e+00 5.983612744793018692e+02
2.212230935424501777e+00 5.982760193700753462e+02
2.212330959430262922e+00 5.981895963598119579e+02
2.212430983436024512e+00 5.981019977729171160e+02
2.212531007441786102e+00 5.980132164027085082e+02
2.212631031447547247e+00 5.979232455237064414e+02
2.212731055453308393e+00 5.978320789036824863e+02
2.212831079459069983e+00 5.977397108154564194e+02
2.212931103464831573e+00 5.976461360484344141e+02
2.213031127470592718e+00 5.975513499198787031e+02
2.213131151476354308e+00 5.974553482858968891e+02
2.213231175482115898e+00 5.973581275521461293e+02
2.213331199487877043e+00 5.972596846842417335e+02
2.213431223493638633e+00 5.971600172178624462e+02
2.213531247499399779e+00 5.970591232685417253e+02
2.213631271505161369e+00 5.969570015411393342e+02
2.213731295510922514e+00 5.968536513389893798e+02
2.213831319516684104e+00 5.967490725727052450e+02
2.213931343522445250e+00 5.966432657686455059e+02
2.214031367528206840e+00 5.965362320770300357e+02
2.214131391533967985e+00 5.964279732796968574e+02
2.214231415539729575e+00 5.963184917974936070e+02
2.214331439545490721e+00 5.962077906973011068e+02
2.214431463551252310e+00 5.960958736986776785e+02
2.214531487557013456e+00 5.959827451801179450e+02
2.214631511562775046e+00 5.958684101849253238e+02
2.214731535568536192e+00 5.957528744266866170e+02
2.214831559574297781e+00 5.956361442943484690e+02
2.214931583580058927e+00 5.955182268568838708e+02
2.215031607585820517e+00 5.953991298675517783e+02
2.215131631591582106e+00 5.952788617677380216e+02
2.215231655597343252e+00 5.951574316903778481e+02
2.215331679603104842e+00 5.950348494629530478e+02
2.215431703608865988e+00 5.949111256100594574e+02
2.215531727614627577e+00 5.947862713555466598e+02
2.215631751620388723e+00 5.946602986242172619e+02
2.215731775626150313e+00 5.945332200430904095e+02
2.215831799631911458e+00 5.944050489422234023e+02
2.215931823637673048e+00 5.942757993550883384e+02
2.216031847643434194e+00 5.941454860185044708e+02
2.216131871649195784e+00 5.940141243721194542e+02
2.216231895654956929e+00 5.938817305574428929e+02
2.216331919660718519e+00 5.937483214164249148e+02
2.216431943666479665e+00 5.936139144895881827e+02
2.216531967672241255e+00 5.934785280136979964e+02
2.216631991678002400e+00 5.933421809189859459e+02
2.216732015683763990e+00 5.932048928259148397e+02
2.216832039689525580e+00 5.930666840414861554e+02
2.216932063695286725e+00 5.929275755551027487e+02
2.217032087701048315e+00 5.927875890339669240e+02
2.217132111706809461e+00 5.926467468180319429e+02
2.217232135712571051e+00 5.925050719145003768e+02
2.217332159718332196e+00 5.923625879918730561e+02
2.217432183724093786e+00 5.922193193735462273e+02
2.217532207729854932e+00 5.920752910309651043e+02
2.217632231735616521e+00 5.919305285763324491e+02
2.217732255741377667e+00 5.917850582548746843e+02
2.217832279747139257e+00 5.916389069366692866e+02
2.217932303752900403e+00 5.914921021080375567e+02
2.218032327758661992e+00 5.913446718625039011e+02
2.218132351764423138e+00 5.911966448913267413e+02
2.218232375770184728e+00 5.910480504736053717e+02
2.218332399775945873e+00 5.908989184659660623e+02
2.218432423781707463e+00 5.907492792918327495e+02
2.218532447787468609e+00 5.905991639302874319e+02
2.218632471793230199e+00 5.904486039045234520e+02
2.218732495798991788e+00 5.902976312698988295e+02
2.218832519804752934e+00 5.901462786015964639e+02
2.218932543810514524e+00 5.899945789818923458e+02
2.219032567816276114e+00 5.898425659870439404e+02
2.219132591822037259e+00 5.896902736738013573e+02
2.219232615827798405e+00 5.895377365655483572e+02
2.219332639833559995e+00 5.893849896380793325e+02
2.219432663839321584e+00 5.892320683050260186e+02
2.219532687845082730e+00 5.890790084029297304e+02
2.219632711850843876e+00 5.889258461759751526e+02
2.219732735856605466e+00 5.887726182603945517e+02
2.219832759862367055e+00 5.886193616685435472e+02
2.219932783868128201e+00 5.884661137726623110e+02
2.220032807873889347e+00 5.883129122883275386e+02
2.220132831879650936e+00 5.881597952576083799e+02
2.220232855885412526e+00 5.880068010319308769e+02
2.220332879891173672e+00 5.878539682546581844e+02
2.220432903896934818e+00 5.877013358434070369e+02
2.220532927902696851e+00 5.875489429720937551e+02
2.220632951908457997e+00 5.873968290527327554e+02
2.220732975914219587e+00 5.872450337169943850e+02
2.220832999919980733e+00 5.870935967975228778e+02
2.220933023925742322e+00 5.869425583090428518e+02
2.221033047931503468e+00 5.867919584292446871e+02
2.221133071937265058e+00 5.866418374794754982e+02
2.221233095943026203e+00 5.864922359052346792e+02
2.221333119948787793e+00 5.863431942564959627e+02
2.221433143954548939e+00 5.861947531678542873e+02
2.221533167960310529e+00 5.860469533385212344e+02
2.221633191966071674e+00 5.858998355121700570e+02
2.221733215971833264e+00 5.857534404566498552e+02
2.221833239977594410e+00 5.856078089435727634e+02
2.221933263983355999e+00 5.854629817277916572e+02
2.222033287989117145e+00 5.853189995267790664e+02
2.222133311994878735e+00 5.851759029999149107e+02
2.222233336000639881e+00 5.850337327276993165e+02
2.222333360006401470e+00 5.848925291909027919e+02
2.222433384012163060e+00 5.847523327496603542e+02
2.222533408017924206e+00 5.846131836225280267e+02
2.222633432023685796e+00 5.844751218655110279e+02
2.222733456029446941e+00 5.843381873510747937e+02
2.222833480035208531e+00 5.842024197471515663e+02
2.222933504040969677e+00 5.840678584961567594e+02
2.223033528046731266e+00 5.839345427940256741e+02
2.223133552052492412e+00 5.838025115692817053e+02
2.223233576058254002e+00 5.836718034621502511e+02
2.223333600064015148e+00 5.835424568037318522e+02
2.223433624069776737e+00 5.834145095952408155e+02
2.223533648075537883e+00 5.832879994873300120e+02
2.223633672081299473e+00 5.831629637595067379e+02
2.223733696087060618e+00 5.830394392996552142e+02
2.223833720092822208e+00 5.829174625836797077e+02
2.223933744098583354e+00 5.827970696552739582e+02
2.224033768104344944e+00 5.826782961058393084e+02
2.224133792110106089e+00 5.825611770545498302e+02
2.224233816115867679e+00 5.824457471285902557e+02
2.224333840121629269e+00 5.823320404435696673e+02
2.224433864127390414e+00 5.822200905841244776e+02
2.224533888133152004e+00 5.821099305847252481e+02
2.224633912138913150e+00 5.820015929106953081e+02
2.224733936144674740e+00 5.818951094394553820e+02
2.224833960150435885e+00 5.817905114420037762e+02
2.224933984156197475e+00 5.816878295646439483e+02
2.225034008161958621e+00 5.815870938109721919e+02
2.225134032167720211e+00 5.814883335241330542e+02
2.225234056173481356e+00 5.813915773693562414e+02
2.225334080179242946e+00 5.812968533167858141e+02
2.225434104185004092e+00 5.812041886246087188e+02
2.225534128190765681e+00 5.811136098224991429e+02
2.225634152196526827e+00 5.810251426953811915e+02
2.225734176202288417e+00 5.809388122675281920e+02
2.225834200208049563e+00 5.808546427870024900e+02
2.225934224213811152e+00 5.807726577104468788e+02
2.226034248219572298e+00 5.806928796882393726e+02
2.226134272225333888e+00 5.806153305500184842e+02
2.226234296231095477e+00 5.805400312905885585e+02
2.226334320236857067e+00 5.804670020562145965e+02
2.226434344242618213e+00 5.803962621313148702e+02
2.226534368248379359e+00 5.803278299255598540e+02
2.226634392254140948e+00 5.802617229613856580e+02
2.226734416259902538e+00 5.801979578619313997e+02
2.226834440265663684e+00 5.801365503394056304e+02
2.226934464271424829e+00 5.800775151838918191e+02
2.227034488277186419e+00 5.800208662525976706e+02
2.227134512282948009e+00 5.799666164595602140e+02
2.227234536288709155e+00 5.799147777658085943e+02
2.227334560294470300e+00 5.798653611699893418e+02
2.227434584300231890e+00 5.798183766994712869e+02
2.227534608305993480e+00 5.797738334019226158e+02
2.227634632311754626e+00 5.797317393373742789e+02
2.227734656317515771e+00 5.796921015707735023e+02
2.227834680323277361e+00 5.796549261650299059e+02
2.227934704329038951e+00 5.796202181745672988e+02
2.228034728334800540e+00 5.795879816393706960e+02
2.228134752340561686e+00 5.795582195795495863e+02
2.228234776346323276e+00 5.795309339904130184e+02
2.228334800352084422e+00 5.795061258380585514e+02
2.228434824357846011e+00 5.794837950554847339e+02
2.228534848363607157e+00 5.794639405392242679e+02
2.228634872369368747e+00 5.794465601465050213e+02
2.228734896375129892e+00 5.794316506929420711e+02
2.228834920380891482e+00 5.794192079507565722e+02
2.228934944386652628e+00 5.794092266475327051e+02
2.229034968392414218e+00 5.794017004655067922e+02
2.229134992398175363e+00 5.793966220413911969e+02
2.229235016403936953e+00 5.793939829667434651e+02
2.229335040409698099e+00 5.793937737888644506e+02
2.229435064415459689e+00 5.793959840122403193e+02
2.229535088421220834e+00 5.794006021005241109e+02
2.229635112426982424e+00 5.794076154790526516e+02
2.229735136432743570e+00 5.794170105379070037e+02
2.229835160438505159e+00 5.794287726355040604e+02
2.229935184444266749e+00 5.794428861027316771e+02
2.230035208450027895e+00 5.794593342476130147e+02
2.230135232455789485e+00 5.794780993605078265e+02
2.230235256461550630e+00 5.794991627198454580e+02
2.230335280467312220e+00 5.795225045983844439e+02
2.230435304473073366e+00 5.795481042700017724e+02
2.230535328478834955e+00 5.795759400170029494e+02
2.230635352484596101e+00 5.796059891379545661e+02
2.230735376490357691e+00 5.796382279560343704e+02
2.230835400496118837e+00 5.796726318278913368e+02
2.230935424501880426e+00 5.797091751530189185e+02
2.231035448507641572e+00 5.797478313836286361e+02
2.231135472513403162e+00 5.797885730350271842e+02
2.231235496519164307e+00 5.798313716964876221e+02
2.231335520524925897e+00 5.798761980426090759e+02
2.231435544530687043e+00 5.799230218451591554e+02
2.231535568536448633e+00 5.799718119854019278e+02
2.231635592542210222e+00 5.800225364668859811e+02
2.231735616547971368e+00 5.800751624287117920e+02
2.231835640553732958e+00 5.801296561592469061e+02
2.231935664559494104e+00 5.801859831103004126e+02
2.232035688565255693e+00 5.802441079117388654e+02
2.232135712571016839e+00 5.803039943865412624e+02
2.232235736576778429e+00 5.803656055662843301e+02
2.232335760582539574e+00 5.804289037070475388e+02
2.232435784588301164e+00 5.804938503057342132e+02
2.232535808594062310e+00 5.805604061167977079e+02
2.232635832599823900e+00 5.806285311693624180e+02
2.232735856605585045e+00 5.806981847847341669e+02
2.232835880611346635e+00 5.807693255942886026e+02
2.232935904617107781e+00 5.808419115577303273e+02
2.233035928622869370e+00 5.809158999817079803e+02
2.233135952628630516e+00 5.809912475387852737e+02
2.233235976634392106e+00 5.810679102867462689e+02
2.233336000640153252e+00 5.811458436882332990e+02
2.233436024645914841e+00 5.812250026307051485e+02
2.233536048651676431e+00 5.813053414467012772e+02
2.233636072657438021e+00 5.813868139344092469e+02
2.233736096663199167e+00 5.814693733785131826e+02
2.233836120668960312e+00 5.815529725713246307e+02
2.233936144674721902e+00 5.816375638341739887e+02
2.234036168680483492e+00 5.817230990390590932e+02
2.234136192686244637e+00 5.818095296305331203e+02
2.234236216692005783e+00 5.818968066478254286e+02
2.234336240697767373e+00 5.819848807471823875e+02
2.234436264703528963e+00 5.820737022244086347e+02
2.234536288709290108e+00 5.821632210376119474e+02
2.234636312715051254e+00 5.822533868301267148e+02
2.234736336720812844e+00 5.823441489536039626e+02
2.234836360726574433e+00 5.824354564912695196e+02
2.234936384732335579e+00 5.825272582813174722e+02
2.235036408738096725e+00 5.826195029404445904e+02
2.235136432743858315e+00 5.827121388875010553e+02
2.235236456749619904e+00 5.828051143672515764e+02
2.235336480755381494e+00 5.828983774742306423e+02
2.235436504761142640e+00 5.829918761766812167e+02
2.235536528766904230e+00 5.830855583405624429e+02
2.235636552772665375e+00 5.831793717536138502e+02
2.235736576778426965e+00 5.832732641494663994e+02
2.235836600784188111e+00 5.833671832317809276e+02
2.235936624789949700e+00 5.834610766984080783e+02
2.236036648795710846e+00 5.835548922655499382e+02
2.236136672801472436e+00 5.836485776919191721e+02
2.236236696807233582e+00 5.837420808028726924e+02
2.236336720812995171e+00 5.838353495145154284e+02
2.236436744818756317e+00 5.839283318577548698e+02
2.236536768824517907e+00 5.840209760022981982e+02
2.236636792830279052e+00 5.841132302805791596e+02
2.236736816836040642e+00 5.842050432115963758e+02
2.236836840841801788e+00 5.842963635246574086e+02
2.236936864847563378e+00 5.843871401830101604e+02
2.237036888853324523e+00 5.844773224073560414e+02
2.237136912859086113e+00 5.845668596992214816e+02
2.237236936864847703e+00 5.846557018641861987e+02
2.237336960870608848e+00 5.847437990349542360e+02
2.237436984876370438e+00 5.848311016942444667e+02
2.237537008882131584e+00 5.849175606975047685e+02
2.237637032887893174e+00 5.850031272954253154e+02
2.237737056893654319e+00 5.850877531562464355e+02
2.237837080899415909e+00 5.851713903878435303e+02
2.237937104905177055e+00 5.852539915595830280e+02
2.238037128910938645e+00 5.853355097239341376e+02
2.238137152916699790e+00 5.854158984378237847e+02
2.238237176922461380e+00 5.854951117837319998e+02
2.238337200928222526e+00 5.855731043905014985e+02
2.238437224933984115e+00 5.856498314538678187e+02
2.238537248939745261e+00 5.857252487566859145e+02
2.238637272945506851e+00 5.857993126888494544e+02
2.238737296951267997e+00 5.858719802668904322e+02
2.238837320957029586e+00 5.859432091532498816e+02
2.238937344962790732e+00 5.860129576752077583e+02
2.239037368968552322e+00 5.860811848434639160e+02
2.239137392974313912e+00 5.861478503703613114e+02
2.239237416980075057e+00 5.862129146877373387e+02
2.239337440985836647e+00 5.862763389644034078e+02
2.239437464991597793e+00 5.863380851232332134e+02
2.239537488997359382e+00 5.863981158578570785e+02
2.239637513003120528e+00 5.864563946489533919e+02
2.239737537008882118e+00 5.865128857801274762e+02
2.239837561014643263e+00 5.865675543533725431e+02
2.239937585020404853e+00 5.866203663040994343e+02
2.240037609026165999e+00 5.866712884157344661e+02
2.240137633031927589e+00 5.867202883338734409e+02
2.240237657037688734e+00 5.867673345799853450e+02
2.240337681043450324e+00 5.868123965646632314e+02
2.240437705049211470e+00 5.868554446004083047e+02
2.240537729054973060e+00 5.868964499139474356e+02
2.240637753060734205e+00 5.869353846580766003e+02
2.240737777066495795e+00 5.869722219230222890e+02
2.240837801072256941e+00 5.870069357473181526e+02
2.240937825078018975e+00 5.870395011281896132e+02
2.241037849083780120e+00 5.870698940314450738e+02
2.241137873089541266e+00 5.870980914008629270e+02
2.241237897095302856e+00 5.871240711670791370e+02
2.241337921101064445e+00 5.871478122559627764e+02
2.241437945106825591e+00 5.871692945964796309e+02
2.241537969112586737e+00 5.871884991280421673e+02
2.241637993118348327e+00 5.872054078073394976e+02
2.241738017124109916e+00 5.872200036146468847e+02
2.241838041129871062e+00 5.872322705596105834e+02
2.241938065135632208e+00 5.872421936865071075e+02
2.242038089141393797e+00 5.872497590789740798e+02
2.242138113147155387e+00 5.872549538642156222e+02
2.242238137152916533e+00 5.872577662166679602e+02
2.242338161158677678e+00 5.872581853611440010e+02
2.242438185164439268e+00 5.872562015754381264e+02
2.242538209170200858e+00 5.872518061924013182e+02
2.242638233175962004e+00 5.872449916014820701e+02
2.242738257181723593e+00 5.872357512497378593e+02
2.242838281187485183e+00 5.872240796423076290e+02
2.242938305193246329e+00 5.872099723423635851e+02
2.243038329199007919e+00 5.871934259705226395e+02
2.243138353204769064e+00 5.871744382037336436e+02
2.243238377210530654e+00 5.871530077736392741e+02
2.243338401216291800e+00 5.871291344644096171e+02
2.243438425222053390e+00 5.871028191100563163e+02
2.243538449227814535e+00 5.870740635912244443e+02
2.243638473233576125e+00 5.870428708314660753e+02
2.243738497239337271e+00 5.870092447930043136e+02
2.243838521245098860e+00 5.869731904719810700e+02
2.243938545250860006e+00 5.869347138932050711e+02
2.244038569256621596e+00 5.868938221043895282e+02
2.244138593262382742e+00 5.868505231698975422e+02
2.244238617268144331e+00 5.868048261639901284e+02
2.244338641273905477e+00 5.867567411635848202e+02
2.244438665279667067e+00 5.867062792405345135e+02
2.244538689285428212e+00 5.866534524534224602e+02
2.244638713291189802e+00 5.865982738388883035e+02
2.244738737296951392e+00 5.865407574024842461e+02
2.244838761302712538e+00 5.864809181090730590e+02
2.244938785308474127e+00 5.864187718727689571e+02
2.245038809314235273e+00 5.863543355464323668e+02
2.245138833319996863e+00 5.862876269107231337e+02
2.245238857325758008e+00 5.862186646627181972e+02
2.245338881331519598e+00 5.861474684041078262e+02
2.245438905337280744e+00 5.860740586289641669e+02
2.245538929343042334e+00 5.859984567111076785e+02
2.245638953348803479e+00 5.859206848910648660e+02
2.245738977354565069e+00 5.858407662626311776e+02
2.245839001360326215e+00 5.857587247590505513e+02
2.245939025366087805e+00 5.856745851388120627e+02
2.246039049371848950e+00 5.855883729710834587e+02
2.246139073377610540e+00 5.855001146207773672e+02
2.246239097383371686e+00 5.854098372332720146e+02
2.246339121389133275e+00 5.853175687187883796e+02
2.246439145394894865e+00 5.852233377364339049e+02
2.246539169400656011e+00 5.851271736779253843e+02
2.246639193406417601e+00 5.850291066510003475e+02
2.246739217412178746e+00 5.849291674625200130e+02
2.246839241417940336e+00 5.848273876012857500e+02
2.246939265423701482e+00 5.847237992205731416e+02
2.247039289429463071e+00 5.846184351203881988e+02
2.247139313435224217e+00 5.845113287294697102e+02
2.247239337440985807e+00 5.844025140870348878e+02
2.247339361446746953e+00 5.842920258242879754e+02
2.247439385452508542e+00 5.841798991457031889e+02
2.247539409458269688e+00 5.840661698100792592e+02
2.247639433464031278e+00 5.839508741114001396e+02
2.247739457469792423e+00 5.838340488594892577e+02
2.247839481475554013e+00 5.837157313604850515e+02
2.247939505481315159e+00 5.835959593971415416e+02
2.248039529487076749e+00 5.834747712089668994e+02
2.248139553492837894e+00 5.833522054722111534e+02
2.248239577498599484e+00 5.832283012797149695e+02
2.248339601504361074e+00 5.831030981206334900e+02
2.248439625510122220e+00 5.829766358600411422e+02
2.248539649515883809e+00 5.828489547184308321e+02
2.248639673521645399e+00 5.827200952511279866e+02
2.248739697527406545e+00 5.825900983276135321e+02
2.248839721533167690e+00 5.824590051107851423e+02
2.248939745538929280e+00 5.823268570361569800e+02
2.249039769544690870e+00 5.821936957910143065e+02
2.249139793550452016e+00 5.820595632935348931e+02
2.249239817556213161e+00 5.819245016718848547e+02
2.249339841561974751e+00 5.817885532433047047e+02
2.249439865567736341e+00 5.816517604931959795e+02
2.249539889573497486e+00 5.815141660542212776e+02
2.249639913579258632e+00 5.813758126854230568e+02
2.249739937585020222e+00 5.812367432513792664e+02
2.249839961590781812e+00 5.810970007014088878e+02
2.249939985596542957e+00 5.809566280488271559e+02
2.250040009602304103e+00 5.808156683502769511e+02
2.250140033608066137e+00 5.806741646851339738e+02
2.250240057613827283e+00 5.805321601350069614e+02
2.250340081619588872e+00 5.803896977633346523e+02
2.250440105625350018e+00 5.802468205951032587e+02
2.250540129631111608e+00 5.801035715966770567e+02
2.250640153636872753e+00 5.799599936557713136e+02
2.250740177642634343e+00 5.798161295615637982e+02
2.250840201648395489e+00 5.796720219849677278e+02
2.250940225654157079e+00 5.795277134590611468e+02
2.251040249659918224e+00 5.793832463596996831e+02
2.251140273665679814e+00 5.792386628863098395e+02
2.251240297671440960e+00 5.790940050428771428e+02
2.251340321677202549e+00 5.789493146191429105e+02
2.251440345682963695e+00 5.788046331720117905e+02
2.251540369688725285e+00 5.786600020071819017e+02
2.251640393694486431e+00 5.785154621610137156e+02
2.251740417700248020e+00 5.783710543826352932e+02
2.251840441706009166e+00 5.782268191162974063e+02
2.251940465711770756e+00 5.780827964839949118e+02
2.252040489717532346e+00 5.779390262683477886e+02
2.252140513723293491e+00 5.777955478957660489e+02
2.252240537729055081e+00 5.776524004198903413e+02
2.252340561734816227e+00 5.775096225053334820e+02
2.252440585740577816e+00 5.773672524117150715e+02
2.252540609746338962e+00 5.772253279780055664e+02
2.252640633752100552e+00 5.770838866071869688e+02
2.252740657757861698e+00 5.769429652512317261e+02
2.252840681763623287e+00 5.768026003964121173e+02
2.252940705769384433e+00 5.766628280489433109e+02
2.253040729775146023e+00 5.765236837209661189e+02
2.253140753780907168e+00 5.763852024168862727e+02
2.253240777786668758e+00 5.762474186200498707e+02
2.253340801792429904e+00 5.761103662797966081e+02
2.253440825798191494e+00 5.759740787988630473e+02
2.253540849803952639e+00 5.758385890211643527e+02
2.253640873809714229e+00 5.757039292199447118e+02
2.253740897815475375e+00 5.755701310863112212e+02
2.253840921821236964e+00 5.754372257181476016e+02
2.253940945826998554e+00 5.753052436094191080e+02
2.254040969832759700e+00 5.751742146398671593e+02
2.254140993838521290e+00 5.750441680650993703e+02
2.254241017844282435e+00 5.749151325070776011e+02
2.254341041850044025e+00 5.747871359450111868e+02
2.254441065855805171e+00 5.746602057066518228e+02
2.254541089861566761e+00 5.745343684599956759e+02
2.254641113867327906e+00 5.744096502053992026e+02
2.254741137873089496e+00 5.742860762681015103e+02
2.254841161878850642e+00 5.741636712911658833e+02
2.254941185884612231e+00 5.740424592288325130e+02
2.255041209890373377e+00 5.739224633402909603e+02
2.255141233896134967e+00 5.738037061838679165e+02
2.255241257901896113e+00 5.736862096116362864e+02
2.255341281907657702e+00 5.735699947644432086e+02
2.255441305913418848e+00 5.734550820673530325e+02
2.255541329919180438e+00 5.733414912255165063e+02
2.255641353924941583e+00 5.732292412204578795e+02
2.255741377930703173e+00 5.731183503067735501e+02
2.255841401936464763e+00 5.730088360092611310e+02
2.255941425942226353e+00 5.729007151204556294e+02
2.256041449947987498e+00 5.727940036985844472e+02
2.256141473953748644e+00 5.726887170659427966e+02
2.256241497959510234e+00 5.725848698076698611e+02
2.256341521965271824e+00 5.724824757709474170e+02
2.256441545971032969e+00 5.723815480645994285e+02
2.256541569976794115e+00 5.722820990591026202e+02
2.256641593982555705e+00 5.721841403869951819e+02
2.256741617988317294e+00 5.720876829436916751e+02
2.256841641994078440e+00 5.719927368886907288e+02
2.256941665999839586e+00 5.718993116471781377e+02
2.257041690005601176e+00 5.718074159120212698e+02
2.257141714011362765e+00 5.717170576461468272e+02
2.257241738017123911e+00 5.716282440853028675e+02
2.257341762022885057e+00 5.715409817412022448e+02
2.257441786028646646e+00 5.714552764050297355e+02
2.257541810034408236e+00 5.713711331513277401e+02
2.257641834040169826e+00 5.712885563422416908e+02
2.257741858045930972e+00 5.712075496321241417e+02
2.257841882051692561e+00 5.711281159724895815e+02
2.257941906057453707e+00 5.710502576173229272e+02
2.258041930063215297e+00 5.709739761287260080e+02
2.258141954068976442e+00 5.708992723829007900e+02
2.258241978074738032e+00 5.708261465764608147e+02
2.258342002080499178e+00 5.707545982330723291e+02
2.258442026086260768e+00 5.706846262104056677e+02
2.258542050092021913e+00 5.706162287074023425e+02
2.258642074097783503e+00 5.705494032718435164e+02
2.258742098103544649e+00 5.704841468082172469e+02
2.258842122109306239e+00 5.704204555858727872e+02
2.258942146115067384e+00 5.703583252474637675e+02
2.259042170120828974e+00 5.702977508176593346e+02
2.259142194126590120e+00 5.702387267121278001e+02
2.259242218132351709e+00 5.701812467467807437e+02
2.259342242138112855e+00 5.701253041472674568e+02
2.259442266143874445e+00 5.700708915587157435e+02
2.259542290149636035e+00 5.700180010557093055e+02
2.259642314155397180e+00 5.699666241524932957e+02
2.259742338161158770e+00 5.699167518134000829e+02
2.259842362166919916e+00 5.698683744634888626e+02
2.259942386172681505e+00 5.698214819993875153e+02
2.260042410178442651e+00 5.697760638003308031e+02
2.260142434184204241e+00 5.697321087393844437e+02
2.260242458189965387e+00 5.696896051948490367e+02
2.260342482195726976e+00 5.696485410618323613e+02
2.260442506201488122e+00 5.696089037639826529e+02
2.260542530207249712e+00 5.695706802653746763e+02
2.260642554213010857e+00 5.695338570825397255e+02
2.260742578218772447e+00 5.694984202966263638e+02
2.260842602224533593e+00 5.694643555656926992e+02
2.260942626230295183e+00 5.694316481371110967e+02
2.261042650236056328e+00 5.694002828600781640e+02
2.261142674241817918e+00 5.693702441982330811e+02
2.261242698247579508e+00 5.693415162423539186e+02
2.261342722253340654e+00 5.693140827231422918e+02
2.261442746259102243e+00 5.692879270240782716e+02
2.261542770264863389e+00 5.692630321943371428e+02
2.261642794270624979e+00 5.692393809617582292e+02
2.261742818276386124e+00 5.692169557458630607e+02
2.261842842282147714e+00 5.691957386709078719e+02
2.261942866287908860e+00 5.691757115789590671e+02
2.262042890293670450e+00 5.691568560429935815e+02
2.262142914299431595e+00 5.691391533800049274e+02
2.262242938305193185e+00 5.691225846641086719e+02
2.262342962310954331e+00 5.691071307396448447e+02
2.262442986316715920e+00 5.690927722342580637e+02
2.262543010322477066e+00 5.690794895719564011e+02
2.262643034328238656e+00 5.690672629861363703e+02
2.262743058333999802e+00 5.690560725325615294e+02
2.262843082339761391e+00 5.690458981022978833e+02
2.262943106345522537e+00 5.690367194345845974e+02
2.263043130351284127e+00 5.690285161296402521e+02
2.263143154357045717e+00 5.690212676613939493e+02
2.263243178362807306e+00 5.690149533901344512e+02
2.263343202368568452e+00 5.690095525750680281e+02
2.263443226374329598e+00 5.690050443867764898e+02
2.263543250380091187e+00 5.690014079195718750e+02
2.263643274385852777e+00 5.689986222037362040e+02
2.263743298391613923e+00 5.689966662176411774e+02
2.263843322397375069e+00 5.689955188997391815e+02
2.263943346403136658e+00 5.689951591604190071e+02
2.264043370408898248e+00 5.689955658937219596e+02
2.264143394414659394e+00 5.689967179889046065e+02
2.264243418420420539e+00 5.689985943418506622e+02
2.264343442426182129e+00 5.690011738663190499e+02
2.264443466431943719e+00 5.690044355050239346e+02
2.264543490437704865e+00 5.690083582405396783e+02
2.264643514443466010e+00 5.690129211060260559e+02
2.264743538449227600e+00 5.690181031957675941e+02
2.264843562454989190e+00 5.690238836755206648e+02
2.264943586460750780e+00 5.690302417926632188e+02
2.265043610466511925e+00 5.690371568861418154e+02
2.265143634472273515e+00 5.690446083962116290e+02
2.265243658478034661e+00 5.690525758739618141e+02
2.265343682483796250e+00 5.690610389906270257e+02
2.265443706489557396e+00 5.690699775466723622e+02
2.265543730495318986e+00 5.690793714806559365e+02
2.265643754501080132e+00 5.690892008778600939e+02
2.265743778506841721e+00 5.690994459786845709e+02
2.265843802512602867e+00 5.691100871868093236e+02
2.265943826518364457e+00 5.691211050771053124e+02
2.266043850524125602e+00 5.691324804033100691e+02
2.266143874529887192e+00 5.691441941054473546e+02
2.266243898535648338e+00 5.691562273170001163e+02
2.266343922541409928e+00 5.691685613718279910e+02
2.266443946547171073e+00 5.691811778108287854e+02
2.266543970552932663e+00 5.691940583883396130e+02
2.266643994558693809e+00 5.692071850782784850e+02
2.266744018564455398e+00 5.692205400800243069e+02
2.266844042570216988e+00 5.692341058240289158e+02
2.266944066575978134e+00 5.692478649771662731e+02
2.267044090581739724e+00 5.692618004478121065e+02
2.267144114587500869e+00 5.692758953906583201e+02
2.267244138593262459e+00 5.692901332112531918e+02
2.267344162599023605e+00 5.693044975702778174e+02
2.267444186604785195e+00 5.693189723875470918e+02
2.267544210610546340e+00 5.693335418457454580e+02
2.267644234616307930e+00 5.693481903938851474e+02
2.267744258622069076e+00 5.693629027505020304e+02
2.267844282627830665e+00 5.693776639065764584e+02
2.267944306633591811e+00 5.693924591281869425e+02
2.268044330639353401e+00 5.694072739588954164e+02
2.268144354645114547e+00 5.694220942218652226e+02
2.268244378650876136e+00 5.694369060217111382e+02
2.268344402656637282e+00 5.694516957460901949e+02
2.268444426662398872e+00 5.694664500670215830e+02
2.268544450668160017e+00 5.694811559419531477e+02
2.268644474673921607e+00 5.694958006145647005e+02
2.268744498679683197e+00 5.695103716153137157e+02
2.268844522685444343e+00 5.695248567617306890e+02
2.268944546691205932e+00 5.695392441584591552e+02
2.269044570696967078e+00 5.695535221970473003e+02
2.269144594702728668e+00 5.695676795554951468e+02
2.269244618708489813e+00 5.695817051975567438e+02
2.269344642714251403e+00 5.695955883718057748e+02
2.269444666720012549e+00 5.696093186104609458e+02
2.269544690725774139e+00 5.696228857279825206e+02
2.269644714731535284e+00 5.696362798194405741e+02
2.269744738737296874e+00 5.696494912586541659e+02
2.269844762743058020e+00 5.696625106961162146e+02
2.269944786748819610e+00 5.696753290566989563e+02
2.270044810754580755e+00 5.696879375371481729e+02
2.270144834760342345e+00 5.697003276033694874e+02
2.270244858766103491e+00 5.697124909875174126e+02
2.270344882771865080e+00 5.697244196848805586e+02
2.270444906777626226e+00 5.697361059505782350e+02
2.270544930783388260e+00 5.697475422960706055e+02
2.270644954789149406e+00 5.697587214854856938e+02
2.270744978794910551e+00 5.697696365317685832e+02
2.270845002800672141e+00 5.697802806926662242e+02
2.270945026806433731e+00 5.697906474665372798e+02
2.271045050812194876e+00 5.698007305880119020e+02
2.271145074817956022e+00 5.698105240234921212e+02
2.271245098823717612e+00 5.698200219665081931e+02
2.271345122829479202e+00 5.698292188329302235e+02
2.271445146835240347e+00 5.698381092560480283e+02
2.271545170841001493e+00 5.698466880815183231e+02
2.271645194846763083e+00 5.698549503621942449e+02
2.271745218852524673e+00 5.698628913528312978e+02
2.271845242858285818e+00 5.698705065046892742e+02
2.271945266864046964e+00 5.698777914600291297e+02
2.272045290869808554e+00 5.698847420465119740e+02
2.272145314875570143e+00 5.698913542715067706e+02
2.272245338881331289e+00 5.698976243163194795e+02
2.272345362887092879e+00 5.699035485303396626e+02
2.272445386892854469e+00 5.699091234251201286e+02
2.272545410898615614e+00 5.699143456683902969e+02
2.272645434904377204e+00 5.699192120780171535e+02
2.272745458910138350e+00 5.699237196159149335e+02
2.272845482915899940e+00 5.699278653819098963e+02
2.272945506921661085e+00 5.699316466075680410e+02
2.273045530927422675e+00 5.699350606500012191e+02
2.273145554933183821e+00 5.699381049856417576e+02
2.273245578938945410e+00 5.699407772040050304e+02
2.273345602944706556e+00 5.699430750014469140e+02
2.273445626950468146e+00 5.699449961749123759e+02
2.273545650956229291e+00 5.699465386156944078e+02
2.273645674961990881e+00 5.699477003032025095e+02
2.273745698967752027e+00 5.699484792987477704e+02
2.273845722973513617e+00 5.699488737393577367e+02
2.273945746979274762e+00 5.699488818316172001e+02
2.274045770985036352e+00 5.699485018455513909e+02
2.274145794990797498e+00 5.699477321085507810e+02
2.274245818996559088e+00 5.699465709993490918e+02
2.274345843002320677e+00 5.699450169420595103e+02
2.274445867008081823e+00 5.699430684002701355e+02
2.274545891013843413e+00 5.699407238712169601e+02
2.274645915019604558e+00 5.699379818800259727e+02
2.274745939025366148e+00 5.699348409740400712e+02
2.274845963031127294e+00 5.699312997172379482e+02
2.274945987036888884e+00 5.699273566847401753e+02
2.275046011042650029e+00 5.699230104574224924e+02
2.275146035048411619e+00 5.699182596166285748e+02
2.275246059054172765e+00 5.699131027389972814e+02
2.275346083059934355e+00 5.699075383914075701e+02
2.275446107065695500e+00 5.699015651260422146e+02
2.275546131071457090e+00 5.698951814755808982e+02
2.275646155077218236e+00 5.698883859485267749e+02
2.275746179082979825e+00 5.698811770246641117e+02
2.275846203088740971e+00 5.698735531506696361e+02
2.275946227094502561e+00 5.698655127358574646e+02
2.276046251100264151e+00 5.698570541480848988e+02
2.276146275106025296e+00 5.698481757098101070e+02
2.276246299111786886e+00 5.698388756943095359e+02
2.276346323117548032e+00 5.698291523220610770e+02
2.276446347123309621e+00 5.698190037572946949e+02
2.276546371129070767e+00 5.698084281047135846e+02
2.276646395134832357e+00 5.697974234063923404e+02
2.276746419140593503e+00 5.697859876388545217e+02
2.276846443146355092e+00 5.697741187103276843e+02
2.276946467152116238e+00 5.697618144581920205e+02
2.277046491157877828e+00 5.697490726466101023e+02
2.277146515163638973e+00 5.697358909643485276e+02
2.277246539169400563e+00 5.697222670227969274e+02
2.277346563175161709e+00 5.697081983541803538e+02
2.277446587180923299e+00 5.696936824099689147e+02
2.277546611186684444e+00 5.696787165594896578e+02
2.277646635192446034e+00 5.696632980887396798e+02
2.277746659198207180e+00 5.696474241994028489e+02
2.277846683203968770e+00 5.696310920080716187e+02
2.277946707209730359e+00 5.696142985456771157e+02
2.278046731215491505e+00 5.695970407571240912e+02
2.278146755221253095e+00 5.695793155011363069e+02
2.278246779227014684e+00 5.695611195503103090e+02
2.278346803232775830e+00 5.695424495913799774e+02
2.278446827238536976e+00 5.695233022256895765e+02
2.278546851244298566e+00 5.695036739698798556e+02
2.278646875250060155e+00 5.694835612567801491e+02
2.278746899255821301e+00 5.694629604365136402e+02
2.278846923261582447e+00 5.694418677778113533e+02
2.278946947267344036e+00 5.694202794695339662e+02
2.279046971273105626e+00 5.693981916224048518e+02
2.279146995278866772e+00 5.693756002709427548e+02
2.279247019284627918e+00 5.693525013756093358e+02
2.279347043290389507e+00 5.693288908251538487e+02
2.279447067296151097e+00 5.693047644391647282e+02
2.279547091301912243e+00 5.692801179708210384e+02
2.279647115307673388e+00 5.692549471098391223e+02
2.279747139313435422e+00 5.692292474856219542e+02
2.279847163319196568e+00 5.692030146705994866e+02
2.279947187324958158e+00 5.691762441837586266e+02
2.280047211330719303e+00 5.691489314943689806e+02
2.280147235336480893e+00 5.691210720258865194e+02
2.280247259342242039e+00 5.690926611600450542e+02
2.280347283348003629e+00 5.690636942411292694e+02
2.280447307353764774e+00 5.690341665804169224e+02
2.280547331359526364e+00 5.690040734607999866e+02
2.280647355365287510e+00 5.689734101415733676e+02
2.280747379371049099e+00 5.689421718633874434e+02
2.280847403376810245e+00 5.689103538533601068e+02
2.280947427382571835e+00 5.688779513303484237e+02
2.281047451388332981e+00 5.688449595103716092e+02
2.281147475394094570e+00 5.688113736121765669e+02
2.281247499399855716e+00 5.687771888629564501e+02
2.281347523405617306e+00 5.687424005041941655e+02
2.281447547411378451e+00 5.687070037976496906e+02
2.281547571417140041e+00 5.686709940314694904e+02
2.281647595422901631e+00 5.686343665264165566e+02
2.281747619428662777e+00 5.685971166422244778e+02
2.281847643434424366e+00 5.685592397840539434e+02
2.281947667440185512e+00 5.685207314090608861e+02
2.282047691445947102e+00 5.684815870330623966e+02
2.282147715451708248e+00 5.684418022372956329e+02
2.282247739457469837e+00 5.684013726752651792e+02
2.282347763463230983e+00 5.683602940796735083e+02
2.282447787468992573e+00 5.683185622694226140e+02
2.282547811474753718e+00 5.682761731566898789e+02
2.282647835480515308e+00 5.682331227540616965e+02
2.282747859486276454e+00 5.681894071817253007e+02
2.282847883492038044e+00 5.681450226747110719e+02
2.282947907497799189e+00 5.680999655901737242e+02
2.283047931503560779e+00 5.680542324147147610e+02
2.283147955509321925e+00 5.680078197717273270e+02
2.283247979515083514e+00 5.679607244287707317e+02
2.283348003520844660e+00 5.679129433049506588e+02
2.283448027526606250e+00 5.678644734783191552e+02
2.283548051532367840e+00 5.678153121932650720e+02
2.283648075538128985e+00 5.677654568679056410e+02
2.283748099543890575e+00 5.677149051014599763e+02
2.283848123549651721e+00 5.676636546816052942e+02
2.283948147555413311e+00 5.676117035918067586e+02
2.284048171561174456e+00 5.675590500186078771e+02
2.284148195566936046e+00 5.675056923588825839e+02
2.284248219572697192e+00 5.674516292270400299e+02
2.284348243578458781e+00 5.673968594621653665e+02
2.284448267584219927e+00 5.673413821351072102e+02
2.284548291589981517e+00 5.672851965554842764e+02
2.284648315595742663e+00 5.672283022786239144e+02
2.284748339601504252e+00 5.671706991124042361e+02
2.284848363607265398e+00 5.671123871240151857e+02
2.284948387613026988e+00 5.670533666466116074e+02
2.285048411618788133e+00 5.669936382858638808e+02
2.285148435624549723e+00 5.669332029263947561e+02
2.285248459630311313e+00 5.668720617380938620e+02
2.285348483636072459e+00 5.668102161823053393e+02
2.285448507641834048e+00 5.667476680178838251e+02
2.285548531647595638e+00 5.666844193071025302e+02
2.285648555653356784e+00 5.666204724214223916e+02
2.285748579659117929e+00 5.665558300470988797e+02
2.285848603664879519e+00 5.664904951906291899e+02
2.285948627670641109e+00 5.664244711840375430e+02
2.286048651676402255e+00 5.663577616899775649e+02
2.286148675682163400e+00 5.662903707066616334e+02
2.286248699687924990e+00 5.662223025725977550e+02
2.286348723693686580e+00 5.661535619711387426e+02
2.286448747699447726e+00 5.660841539348291462e+02
2.286548771705208871e+00 5.660140838495501612e+02
2.286648795710970461e+00 5.659433574584527378e+02
2.286748819716732051e+00 5.658719808656743453e+02
2.286848843722493196e+00 5.657999605398358653e+02
2.286948867728254342e+00 5.657273033173116801e+02
2.287048891734015932e+00 5.656540164052672708e+02
2.287148915739777522e+00 5.655801073844597795e+02
2.287248939745539111e+00 5.655055842117963039e+02
2.287348963751300257e+00 5.654304552226482201e+02
2.287448987757061847e+00 5.653547291329114159e+02
2.287549011762822992e+00 5.652784150408126607e+02
2.287649035768584582e+00 5.652015224284548367e+02
2.287749059774345728e+00 5.651240611631023967e+02
2.287849083780107318e+00 5.650460414981916983e+02
2.287949107785868463e+00 5.649674740740773586e+02
2.288049131791630053e+00 5.648883699185003024e+02
2.288149155797391199e+00 5.648087404467770511e+02
2.288249179803152789e+00 5.647285974617091142e+02
2.288349203808913934e+00 5.646479531532066858e+02
2.288449227814675524e+00 5.645668200976267599e+02
2.288549251820436670e+00 5.644852112568198663e+02
2.288649275826198259e+00 5.644031399768882693e+02
2.288749299831959405e+00 5.643206199866431234e+02
2.288849323837720995e+00 5.642376653957730923e+02
2.288949347843482585e+00 5.641542906927105605e+02
2.289049371849243730e+00 5.640705107422006677e+02
2.289149395855005320e+00 5.639863407825691866e+02
2.289249419860766466e+00 5.639017964226861750e+02
2.289349443866528055e+00 5.638168936386325640e+02
2.289449467872289201e+00 5.637316487700576317e+02
2.289549491878050791e+00 5.636460785162377078e+02
2.289649515883811937e+00 5.635601999318267872e+02
2.289749539889573526e+00 5.634740304223078056e+02
2.289849563895334672e+00 5.633875877391363929e+02
2.289949587901096262e+00 5.633008899745834697e+02
2.290049611906857407e+00 5.632139555562752093e+02
2.290149635912618997e+00 5.631268032414341178e+02
2.290249659918380143e+00 5.630394521108137269e+02
2.290349683924141733e+00 5.629519215623415676e+02
2.290449707929902878e+00 5.628642313044584853e+02
2.290549731935664468e+00 5.627764013491695323e+02
2.290649755941425614e+00 5.626884520047954084e+02
2.290749779947187204e+00 5.626004038684357056e+02
2.290849803952948793e+00 5.625122778181425929e+02
2.290949827958709939e+00 5.624240950048144896e+02
2.291049851964471529e+00 5.623358768437956314e+02
2.291149875970232674e+00 5.622476450062079039e+02
2.291249899975994264e+00 5.621594214099999363e+02
2.291349923981755410e+00 5.620712282107260762e+02
2.291449947987517000e+00 5.619830877920575176e+02
2.291549971993278145e+00 5.618950227560260373e+02
2.291649995999039735e+00 5.618070559130135280e+02
2.291750020004800881e+00 5.617192102714781186e+02
2.291850044010562470e+00 5.616315090274392787e+02
2.291950068016323616e+00 5.615439755537079236e+02
2.292050092022085206e+00 5.614566333888810732e+02
2.292150116027846352e+00 5.613695062261023168e+02
2.292250140033607941e+00 5.612826179015887647e+02
2.292350164039369087e+00 5.611959923829361969e+02
2.292450188045130677e+00 5.611096537572083207e+02
2.292550212050891822e+00 5.610236262188112732e+02
2.292650236056653412e+00 5.609379340571640569e+02
2.292750260062415002e+00 5.608526016441712727e+02
2.292850284068176592e+00 5.607676534215033826e+02
2.292950308073937737e+00 5.606831138876891600e+02
2.293050332079698883e+00 5.605990075850367020e+02
2.293150356085460473e+00 5.605153590863774298e+02
2.293250380091222063e+00 5.604321929816478587e+02
2.293350404096983208e+00 5.603495338643213017e+02
2.293450428102744354e+00 5.602674063176846175e+02
2.293550452108505944e+00 5.601858349009773974e+02
2.293650476114267533e+00 5.601048441354035958e+02
2.293750500120028679e+00 5.600244584900113978e+02
2.293850524125789825e+00 5.599447023674654247e+02
2.293950548131551415e+00 5.598656000897065041e+02
2.294050572137313004e+00 5.597871758835193532e+02
2.294150596143074150e+00 5.597094538660019225e+02
2.294250620148835296e+00 5.596324580299641411e+02
2.294350644154596885e+00 5.595562122292463982e+02
2.294450668160358475e+00 5.594807401639809541e+02
2.294550692166120065e+00 5.594060653657993498e+02
2.294650716171881211e+00 5.593322111829926371e+02
2.294750740177642800e+00 5.592592007656390933e+02
2.294850764183403946e+00 5.591870570507080629e+02
2.294950788189165536e+00 5.591158027471437890e+02
2.295050812194926682e+00 5.590454603209493598e+02
2.295150836200688271e+00 5.589760519802671297e+02
2.295250860206449417e+00 5.589075996604776719e+02
2.295350884212211007e+00 5.588401250093201043e+02
2.295450908217972152e+00 5.587736493720442468e+02
2.295550932223733742e+00 5.587081937766070041e+02
2.295650956229494888e+00 5.586437789189217256e+02
2.295750980235256478e+00 5.585804251481683878e+02
2.295851004241017623e+00 5.585181524521773326e+02
2.295951028246779213e+00 5.584569804428959969e+02
2.296051052252540359e+00 5.583969283419482963e+02
2.296151076258301948e+00 5.583380149662957592e+02
2.296251100264063094e+00 5.582802587140101878e+02
2.296351124269824684e+00 5.582236775501720558e+02
2.296451148275586274e+00 5.581682889928980558e+02
2.296551172281347419e+00 5.581141100995122315e+02
2.296651196287109009e+00 5.580611574528705887e+02
2.296751220292870155e+00 5.580094471478453215e+02
2.296851244298631745e+00 5.579589947779832073e+02
2.296951268304392890e+00 5.579098154223435131e+02
2.297051292310154480e+00 5.578619236325300790e+02
2.297151316315915626e+00 5.578153334199215578e+02
2.297251340321677215e+00 5.577700582431139082e+02
2.297351364327438361e+00 5.577261109955819620e+02
2.297451388333199951e+00 5.576835039935720033e+02
2.297551412338961097e+00 5.576422489642317259e+02
2.297651436344722686e+00 5.576023570339873459e+02
2.297751460350483832e+00 5.575638387171791237e+02
2.297851484356245422e+00 5.575267039049639379e+02
2.297951508362006567e+00 5.574909618544905925e+02
2.298051532367768157e+00 5.574566211783587732e+02
2.298151556373529303e+00 5.574236898343725670e+02
2.298251580379290893e+00 5.573921751155918400e+02
2.298351604385052482e+00 5.573620836406953458e+02
2.298451628390813628e+00 5.573334213446581771e+02
2.298551652396575218e+00 5.573061934697584547e+02
2.298651676402336363e+00 5.572804045569118898e+02
2.298751700408097953e+00 5.572560584373518395e+02
2.298851724413859099e+00 5.572331582246557673e+02
2.298951748419620689e+00 5.572117063071270877e+02
2.299051772425381834e+00 5.571917043405408094e+02
2.299151796431143424e+00 5.571731532412562728e+02
2.299251820436904570e+00 5.571560531797126714e+02
2.299351844442666160e+00 5.571404035742995120e+02
2.299451868448427305e+00 5.571262030856242973e+02
2.299551892454188895e+00 5.571134496111686758e+02
2.299651916459950041e+00 5.571021402803535238e+02
2.299751940465711630e+00 5.570922714500045458e+02
2.299851964471472776e+00 5.570838387002356740e+02
2.299951988477234366e+00 5.570768368307483343e+02
2.300052012482995956e+00 5.570712598575538550e+02
2.300152036488757545e+00 5.570671010101227694e+02
2.300252060494518691e+00 5.570643527289706753e+02
2.300352084500279837e+00 5.570630066636745141e+02
2.300452108506041426e+00 5.570630536713347283e+02
2.300552132511803016e+00 5.570644838154792069e+02
2.300652156517564162e+00 5.570672863654195908e+02
2.300752180523325308e+00 5.570714497960490235e+02
2.300852204529086897e+00 5.570769617881060185e+02
2.300952228534848487e+00 5.570838092288881853e+02
2.301052252540609633e+00 5.570919782134267280e+02
2.301152276546370778e+00 5.571014540461258093e+02
2.301252300552132368e+00 5.571122212428595049e+02
2.301352324557893958e+00 5.571242635335393061e+02
2.301452348563655104e+00 5.571375638651452391e+02
2.301552372569416249e+00 5.571521044052290108e+02
2.301652396575177839e+00 5.571678665458766773e+02
2.301752420580939429e+00 5.571848309081506159e+02
2.301852444586700575e+00 5.572029773469930660e+02
2.301952468592462164e+00 5.572222849566045397e+02
2.302052492598223754e+00 5.572427320762831187e+02
2.302152516603984900e+00 5.572642962967410085e+02
2.302252540609746490e+00 5.572869544668814115e+02
2.302352564615507635e+00 5.573106827010427651e+02
2.302452588621269225e+00 5.573354563867097795e+02
2.302552612627030371e+00 5.573612501926829736e+02
2.302652636632791960e+00 5.573880380777109167e+02
2.302752660638553106e+00 5.574157932995805140e+02
2.302852684644314696e+00 5.574444884246601077e+02
2.302952708650075841e+00 5.574740953378963013e+02
2.303052732655837431e+00 5.575045852532595063e+02
2.303152756661598577e+00 5.575359287246369604e+02
2.303252780667360167e+00 5.575680956571585511e+02
2.303352804673121312e+00 5.576010553189705661e+02
2.303452828678882902e+00 5.576347763534340629e+02
2.303552852684644048e+00 5.576692267917563868e+02
2.303652876690405638e+00 5.577043740660404865e+02
2.303752900696167227e+00 5.577401850227563500e+02
2.303852924701928373e+00 5.577766259366189843e+02
2.303952948707689963e+00 5.578136625248787368e+02
2.304052972713451108e+00 5.578512599620073615e+02
2.304152996719212698e+00 5.578893828947739166e+02
2.304253020724973844e+00 5.579279954577187937e+02
2.304353044730735434e+00 5.579670612889919994e+02
2.304453068736496579e+00 5.580065435465771770e+02
2.304553092742258169e+00 5.580464049248741958e+02
2.304653116748019315e+00 5.580866076716375801e+02
2.304753140753780905e+00 5.581271136052682778e+02
2.304853164759542050e+00 5.581678841324430778e+02
2.304953188765303640e+00 5.582088802660788360e+02
2.305053212771064786e+00 5.582500626436175253e+02
2.305153236776826375e+00 5.582913915456284712e+02
2.305253260782587521e+00 5.583328269147148148e+02
2.305353284788349111e+00 5.583743283747149917e+02
2.305453308794110256e+00 5.584158552501929762e+02
2.305553332799871846e+00 5.584573665862028520e+02
2.305653356805633436e+00 5.584988211683215695e+02
2.305753380811394582e+00 5.585401775429338613e+02
2.305853404817156171e+00 5.585813940377689732e+02
2.305953428822917317e+00 5.586224287826667023e+02
2.306053452828678907e+00 5.586632397305706945e+02
2.306153476834440053e+00 5.587037846787333137e+02
2.306253500840201642e+00 5.587440212901201448e+02
2.306353524845962788e+00 5.587839071150119707e+02
2.306453548851724378e+00 5.588233996127769387e+02
2.306553572857485523e+00 5.588624561738142802e+02
2.306653596863247113e+00 5.589010341416529855e+02
2.306753620869008259e+00 5.589390908351927010e+02
2.306853644874769849e+00 5.589765835710755937e+02
2.306953668880530994e+00 5.590134696861782686e+02
2.307053692886292584e+00 5.590497065602077100e+02
2.307153716892053730e+00 5.590852516383931743e+02
2.307253740897815319e+00 5.591200624542562991e+02
2.307353764903576465e+00 5.591540966524548821e+02
2.307453788909338499e+00 5.591873120116755445e+02
2.307553812915099645e+00 5.592196664675745978e+02
2.307653836920860790e+00 5.592511181357451733e+02
2.307753860926622380e+00 5.592816253347020847e+02
2.307853884932383970e+00 5.593111466088710131e+02
2.307953908938145116e+00 5.593396407515667761e+02
2.308053932943906261e+00 5.593670668279486335e+02
2.308153956949667851e+00 5.593933841979410317e+02
2.308253980955429441e+00 5.594185525391022793e+02
2.308354004961190586e+00 5.594425318694312637e+02
2.308454028966951732e+00 5.594652825701012944e+02
2.308554052972713322e+00 5.594867654080989041e+02
2.308654076978474912e+00 5.595069415587638559e+02
2.308754100984236057e+00 5.595257726282110298e+02
2.308854124989997203e+00 5.595432206756244113e+02
2.308954148995758793e+00 5.595592482354061303e+02
2.309054173001520383e+00 5.595738183391712255e+02
2.309154197007281528e+00 5.595868945375733574e+02
2.309254221013042674e+00 5.595984409219461213e+02
2.309354245018804708e+00 5.596084221457507510e+02
2.309454269024565853e+00 5.596168034458128204e+02
2.309554293030327443e+00 5.596235506633422574e+02
2.309654317036088589e+00 5.596286302647129105e+02
2.309754341041850179e+00 5.596320093619990530e+02
2.309854365047611324e+00 5.596336557332494976e+02
2.309954389053372914e+00 5.596335378424903411e+02
2.310054413059134060e+00 5.596316248594448552e+02
2.310154437064895649e+00 5.596278866789516542e+02
2.310254461070656795e+00 5.596222939400743144e+02
2.310354485076418385e+00 5.596148180448928997e+02
2.310454509082179531e+00 5.596054311769588594e+02
2.310554533087941120e+00 5.595941063194021581e+02
2.310654557093702266e+00 5.595808172726896146e+02
2.310754581099463856e+00 5.595655386720029583e+02
2.310854605105225001e+00 5.595482460042489947e+02
2.310954629110986591e+00 5.595289156246697075e+02
2.311054653116747737e+00 5.595075247730576393e+02
2.311154677122509327e+00 5.594840515895506314e+02
2.311254701128270916e+00 5.594584751300127436e+02
2.311354725134032062e+00 5.594307753809765700e+02
2.311454749139793652e+00 5.594009332741406979e+02
2.311554773145554798e+00 5.593689307004190141e+02
2.311654797151316387e+00 5.593347505235235531e+02
2.311754821157077533e+00 5.592983765930755453e+02
2.311854845162839123e+00 5.592597937572367073e+02
2.311954869168600268e+00 5.592189878748483807e+02
2.312054893174361858e+00 5.591759458270728373e+02
2.312154917180123004e+00 5.591306555285278819e+02
2.312254941185884594e+00 5.590831059379040653e+02
2.312354965191645739e+00 5.590332870680615542e+02
2.312454989197407329e+00 5.589811899955942636e+02
2.312555013203168475e+00 5.589268068698564775e+02
2.312655037208930064e+00 5.588701309214463890e+02
2.312755061214691210e+00 5.588111564701333691e+02
2.312855085220452800e+00 5.587498789322337416e+02
2.312955109226213946e+00 5.586862948274167593e+02
2.313055133231975535e+00 5.586204017849462389e+02
2.313155157237737125e+00 5.585521985493408010e+02
2.313255181243498271e+00 5.584816849854586280e+02
2.313355205249259861e+00 5.584088620829961656e+02
2.313455229255021006e+00 5.583337319603971309e+02
2.313555253260782596e+00 5.582562978681645518e+02
2.313655277266543742e+00 5.581765641915817469e+02
2.313755301272305331e+00 5.580945364528256505e+02
2.313855325278066477e+00 5.580102213124808941e+02
2.313955349283828067e+00 5.579236265704441848e+02
2.314055373289589213e+00 5.578347611662210284e+02
2.314155397295350802e+00 5.577436351786086561e+02
2.314255421301111948e+00 5.576502598247692504e+02
2.314355445306873538e+00 5.575546474586833483e+02
2.314455469312634683e+00 5.574568115689943397e+02
2.314555493318396273e+00 5.573567667762301880e+02
2.314655517324157419e+00 5.572545288294128341e+02
2.314755541329919009e+00 5.571501146020464148e+02
2.314855565335680598e+00 5.570435420874957799e+02
2.314955589341441744e+00 5.569348303937418905e+02
2.315055613347203334e+00 5.568239997375289931e+02
2.315155637352964924e+00 5.567110714378948160e+02
2.315255661358726069e+00 5.565960679090904932e+02
2.315355685364487215e+00 5.564790126528905603e+02
2.315455709370248805e+00 5.563599302503013178e+02
2.315555733376010394e+00 5.562388463526566511e+02
2.315655757381771540e+00 5.561157876721226785e+02
2.315755781387532686e+00 5.559907819715975847e+02
2.315855805393294276e+00 5.558638580540252860e+02
2.315955829399055865e+00 5.557350457511143986e+02
2.316055853404817011e+00 5.556043759114796785e+02
2.316155877410578157e+00 5.554718803881980875e+02
2.316255901416339746e+00 5.553375920257963116e+02
2.316355925422101336e+00 5.552015446466675712e+02
2.316455949427862482e+00 5.550637730369272731e+02
2.316555973433623627e+00 5.549243129317142120e+02
2.316655997439385217e+00 5.547832009999419824e+02
2.316756021445146807e+00 5.546404748285079904e+02
2.316856045450908397e+00 5.544961729059702975e+02
2.316956069456669542e+00 5.543503346056967303e+02
2.317056093462431132e+00 5.542030001684955778e+02
2.317156117468192278e+00 5.540542106847337891e+02
2.317256141473953868e+00 5.539040080759588136e+02
2.317356165479715013e+00 5.537524350760227208e+02
2.317456189485476603e+00 5.535995352117275843e+02
2.317556213491237749e+00 5.534453527829912218e+02
2.317656237496999339e+00 5.532899328425568228e+02
2.317756261502760484e+00 5.531333211752416901e+02
2.317856285508522074e+00 5.529755642767468089e+02
2.317956309514283220e+00 5.528167093320344065e+02
2.318056333520044809e+00 5.526568041932807773e+02
2.318156357525805955e+00 5.524958973574230185e+02
2.318256381531567545e+00 5.523340379433033149e+02
2.318356405537328691e+00 5.521712756684290753e+02
2.318456429543090280e+00 5.520076608253576751e+02
2.318556453548851870e+00 5.518432442577167194e+02
2.318656477554613016e+00 5.516780773358792658e+02
2.318756501560374605e+00 5.515122119322955996e+02
2.318856525566135751e+00 5.513457003965048671e+02
2.318956549571897341e+00 5.511785955298339559e+02
2.319056573577658487e+00 5.510109505598018131e+02
2.319156597583420076e+00 5.508428191142342030e+02
2.319256621589181222e+00 5.506742551951118685e+02
2.319356645594942812e+00 5.505053131521627847e+02
2.319456669600703957e+00 5.503360476562116901e+02
2.319556693606465547e+00 5.501665136722991747e+02
2.319656717612226693e+00 5.499967664325915848e+02
2.319756741617988283e+00 5.498268614090885649e+02
2.319856765623749428e+00 5.496568542861493825e+02
2.319956789629511018e+00 5.494868009328484959e+02
2.320056813635272164e+00 5.493167573751780992e+02
2.320156837641033754e+00 5.491467797681127649e+02
2.320256861646794899e+00 5.489769243675457346e+02
2.320356885652556489e+00 5.488072475021232322e+02
2.320456909658318079e+00 5.486378055449838484e+02
2.320556933664079224e+00 5.484686548854156172e+02
2.320656957669840814e+00 5.482998519004624995e+02
2.320756981675601960e+00 5.481314529264735711e+02
2.320857005681363550e+00 5.479635142306283342e+02
2.320957029687124695e+00 5.477960919824454322e+02
2.321057053692886285e+00 5.476292422252964798e+02
2.321157077698647431e+00 5.474630208479296698e+02
2.321257101704409020e+00 5.472974835560347628e+02
2.321357125710170166e+00 5.471326858438510499e+02
2.321457149715931756e+00 5.469686829658432998e+02
2.321557173721692902e+00 5.468055299084578564e+02
2.321657197727454491e+00 5.466432813619750277e+02
2.321757221733215637e+00 5.464819916924736845e+02
2.321857245738977227e+00 5.463217149139234152e+02
2.321957269744738372e+00 5.461625046604233376e+02
2.322057293750499962e+00 5.460044141585974558e+02
2.322157317756261108e+00 5.458474962001662334e+02
2.322257341762022698e+00 5.456918031147101829e+02
2.322357365767784287e+00 5.455373867426374090e+02
2.322457389773545877e+00 5.453842984083752299e+02
2.322557413779307023e+00 5.452325888937953096e+02
2.322657437785068169e+00 5.450823084118941324e+02
2.322757461790829758e+00 5.449335065807401861e+02
2.322857485796591348e+00 5.447862323976981997e+02
2.322957509802352494e+00 5.446405342139587447e+02
2.323057533808113639e+00 5.444964597093701286e+02
2.323157557813875229e+00 5.443540558676012324e+02
2.323257581819636819e+00 5.442133689516440427e+02
2.323357605825397965e+00 5.440744444796665675e+02
2.323457629831159110e+00 5.439373272012409188e+02
2.323557653836920700e+00 5.438020610739455378e+02
2.323657677842682290e+00 5.436686892403660067e+02
2.323757701848443435e+00 5.435372540055060426e+02
2.323857725854204581e+00 5.434077968146175408e+02
2.323957749859966171e+00 5.432803582314679716e+02
2.324057773865727761e+00 5.431549779170513830e+02
2.324157797871489350e+00 5.430316946087635870e+02
2.324257821877250496e+00 5.429105461000448258e+02
2.324357845883012086e+00 5.427915692205100413e+02
2.324457869888773232e+00 5.426747998165725448e+02
2.324557893894534821e+00 5.425602727325740489e+02
2.324657917900295967e+00 5.424480217924367480e+02
2.324757941906057557e+00 5.423380797818360861e+02
2.324857965911818702e+00 5.422304784309231991e+02
2.324957989917580292e+00 5.421252483975873702e+02
2.325058013923341438e+00 5.420224192512846457e+02
2.325158037929103028e+00 5.419220194574323841e+02
2.325258061934864173e+00 5.418240763623831526e+02
2.325358085940625763e+00 5.417286161789853622e+02
2.325458109946386909e+00 5.416356639727418951e+02
2.325558133952148498e+00 5.415452436485701355e+02
2.325658157957909644e+00 5.414573779381770464e+02
2.325758181963671234e+00 5.413720883880532710e+02
2.325858205969432380e+00 5.412893953480945584e+02
2.325958229975193969e+00 5.412093179608564242e+02
2.326058253980955559e+00 5.411318741514528483e+02
2.326158277986716705e+00 5.410570806180992349e+02
2.326258301992478295e+00 5.409849528233071396e+02
2.326358325998239440e+00 5.409155049857430413e+02
2.326458350004001030e+00 5.408487500727433144e+02
2.326558374009762176e+00 5.407846997935039326e+02
2.326658398015523765e+00 5.407233645929397881e+02
2.326758422021284911e+00 5.406647536462191965e+02
2.326858446027046501e+00 5.406088748539816606e+02
2.326958470032807647e+00 5.405557348382391183e+02
2.327058494038569236e+00 5.405053389389584027e+02
2.327158518044330382e+00 5.404576912113398066e+02
2.327258542050091972e+00 5.404127944237801557e+02
2.327358566055853117e+00 5.403706500565325541e+02
2.327458590061614707e+00 5.403312583010539356e+02
2.327558614067375853e+00 5.402946180600558819e+02
2.327658638073137443e+00 5.402607269482391530e+02
2.327758662078898588e+00 5.402295812937340997e+02
2.327858686084660178e+00 5.402011761402254706e+02
2.327958710090421768e+00 5.401755052497791212e+02
2.328058734096182913e+00 5.401525611063561882e+02
2.328158758101944503e+00 5.401323349200184794e+02
2.328258782107705649e+00 5.401148166318253061e+02
2.328358806113467239e+00 5.400999949194143710e+02
2.328458830119228384e+00 5.400878572032688680e+02
2.328558854124989974e+00 5.400783896536611337e+02
2.328658878130751120e+00 5.400715771982770548e+02
2.328758902136512710e+00 5.400674035305130474e+02
2.328858926142273855e+00 5.400658511184385588e+02
2.328958950148035445e+00 5.400669012144270482e+02
2.329058974153796591e+00 5.400705338654421439e+02
2.329158998159558180e+00 5.400767279239777281e+02
2.329259022165319326e+00 5.400854610596475140e+02
2.329359046171080916e+00 5.400967097714134297e+02
2.329459070176842062e+00 5.401104494004480330e+02
2.329559094182603651e+00 5.401266541436273201e+02
2.329659118188365241e+00 5.401452970676393761e+02
2.329759142194126831e+00 5.401663501237103446e+02
2.329859166199887976e+00 5.401897841629266850e+02
2.329959190205649122e+00 5.402155689521644035e+02
2.330059214211410712e+00 5.402436731905920624e+02
2.330159238217172302e+00 5.402740645267625723e+02
2.330259262222933447e+00 5.403067095762659164e+02
2.330359286228694593e+00 5.403415739399434869e+02
2.330459310234456183e+00 5.403786222226498239e+02
2.330559334240217773e+00 5.404178180525511834e+02
2.330659358245978918e+00 5.404591241009512714e+02
2.330759382251740064e+00 5.405025021026324339e+02
2.330859406257501654e+00 5.405479128767032080e+02
2.330959430263263243e+00 5.405953163479343857e+02
2.331059454269024389e+00 5.406446715685772233e+02
2.331159478274785535e+00 5.406959367406515184e+02
2.331259502280547125e+00 5.407490692386872979e+02
2.331359526286308714e+00 5.408040256329095428e+02
2.331459550292069860e+00 5.408607617128513994e+02
2.331559574297831450e+00 5.409192325113859852e+02
2.331659598303593040e+00 5.409793923291590545e+02
2.331759622309354185e+00 5.410411947594105868e+02
2.331859646315115775e+00 5.411045927131699500e+02
2.331959670320876921e+00 5.411695384448140658e+02
2.332059694326638510e+00 5.412359835779684545e+02
2.332159718332399656e+00 5.413038791317394498e+02
2.332259742338161246e+00 5.413731755472662144e+02
2.332359766343922391e+00 5.414438227145672045e+02
2.332459790349683981e+00 5.415157699996771044e+02
2.332559814355445127e+00 5.415889662720539945e+02
2.332659838361206717e+00 5.416633599322362898e+02
2.332759862366967862e+00 5.417388989397444448e+02
2.332859886372729452e+00 5.418155308412002569e+02
2.332959910378490598e+00 5.418932027986558069e+02
2.333059934384252188e+00 5.419718616181111202e+02
2.333159958390013333e+00 5.420514537782082698e+02
2.333259982395774923e+00 5.421319254590786159e+02
2.333360006401536513e+00 5.422132225713382923e+02
2.333460030407297658e+00 5.422952907851996542e+02
2.333560054413059248e+00 5.423780755596981180e+02
2.333660078418820394e+00 5.424615221720058571e+02
2.333760102424581984e+00 5.425455757468215552e+02
2.333860126430343129e+00 5.426301812858151834e+02
2.333960150436104719e+00 5.427152836971193892e+02
2.334060174441865865e+00 5.428008278248346414e+02
2.334160198447627454e+00 5.428867584785518829e+02
2.334260222453388600e+00 5.429730204628571073e+02
2.334360246459150190e+00 5.430595586068124021e+02
2.334460270464911336e+00 5.431463177933928819e+02
2.334560294470672925e+00 5.432332429888601837e+02
2.334660318476434071e+00 5.433202792720622938e+02
2.334760342482195661e+00 5.434073718636338981e+02
2.334860366487956806e+00 5.434944661550892988e+02
2.334960390493718396e+00 5.435815077377853868e+02
2.335060414499479542e+00 5.436684424317412549e+02
2.335160438505241132e+00 5.437552163142935342e+02
2.335260462511002721e+00 5.438417757485774473e+02
2.335360486516763867e+00 5.439280674118126626e+02
2.335460510522525457e+00 5.440140383233771217e+02
2.335560534528286603e+00 5.440996358726592916e+02
2.335660558534048192e+00 5.441848078466607603e+02
2.335760582539809338e+00 5.442695024573480396e+02
2.335860606545570928e+00 5.443536683687252662e+02
2.335960630551332073e+00 5.444372547236208675e+02
2.336060654557093663e+00 5.445202111701680678e+02
2.336160678562854809e+00 5.446024878879646849e+02
2.336260702568616399e+00 5.446840356139009600e+02
2.336360726574377544e+00 5.447648056676341639e+02
2.336460750580139134e+00 5.448447499767029285e+02
2.336560774585900280e+00 5.449238211012592501e+02
2.336660798591661869e+00 5.450019722584100919e+02
2.336760822597423015e+00 5.450791573461534654e+02
2.336860846603184605e+00 5.451553309668918246e+02
2.336960870608945751e+00 5.452304484505132223e+02
2.337060894614707784e+00 5.453044658770257911e+02
2.337160918620468930e+00 5.453773400987337254e+02
2.337260942626230076e+00 5.454490287619382798e+02
2.337360966631991666e+00 5.455194903281554843e+02
2.337460990637753255e+00 5.455886840948426197e+02
2.337561014643514401e+00 5.456565702156046882e+02
2.337661038649275547e+00 5.457231097198952057e+02
2.337761062655037136e+00 5.457882645321734572e+02
2.337861086660798726e+00 5.458519974905318577e+02
2.337961110666559872e+00 5.459142723647612456e+02
2.338061134672321018e+00 5.459750538738609293e+02
2.338161158678082607e+00 5.460343077029731376e+02
2.338261182683844197e+00 5.460920005197376668e+02
2.338361206689605343e+00 5.461480999900555844e+02
2.338461230695366488e+00 5.462025747932536888e+02
2.338561254701128078e+00 5.462553946366410855e+02
2.338661278706889668e+00 5.463065302694506045e+02
2.338761302712650814e+00 5.463559534961551662e+02
2.338861326718411959e+00 5.464036371891570525e+02
2.338961350724173993e+00 5.464495553008350726e+02
2.339061374729935139e+00 5.464936828749520146e+02
2.339161398735696729e+00 5.465359960574071465e+02
2.339261422741457874e+00 5.465764721063380875e+02
2.339361446747219464e+00 5.466150894015554513e+02
2.339461470752980610e+00 5.466518274533178783e+02
2.339561494758742199e+00 5.466866669104290395e+02
2.339661518764503345e+00 5.467195895676652526e+02
2.339761542770264935e+00 5.467505783725214314e+02
2.339861566776026081e+00 5.467796174312750281e+02
2.339961590781787670e+00 5.468066920143677407e+02
