2.200084018484066206e+00 5.181138667002937837e+02
2.200184040488907478e+00 5.180208903030362535e+02
2.200284062493748305e+00 5.179291513239586493e+02
2.200384084498589576e+00 5.178386809891120492e+02
2.200484106503430404e+00 5.177495102361240242e+02
2.200584128508271675e+00 5.176616697040526560e+02
2.200684150513112947e+00 5.175751897233582213e+02
2.200784172517953774e+00 5.174901003060123230e+02
2.200884194522795045e+00 5.174064311357392398e+02
2.200984216527635873e+00 5.173242115583960867e+02
2.201084238532477144e+00 5.172434705724953119e+02
2.201184260537317972e+00 5.171642368198768054e+02
2.201284282542159243e+00 5.170865385765242763e+02
2.201384304547000070e+00 5.170104037435406781e+02
2.201484326551841342e+00 5.169358598382804075e+02
2.201584348556682613e+00 5.168629339856398701e+02
2.201684370561523441e+00 5.167916529095150509e+02
2.201784392566364268e+00 5.167220429244255229e+02
2.201884414571205539e+00 5.166541299273102368e+02
2.201984436576046811e+00 5.165879393894964551e+02
2.202084458580887638e+00 5.165234963488444464e+02
2.202184480585728910e+00 5.164608254020779441e+02
2.202284502590569737e+00 5.163999506972902509e+02
2.202384524595410564e+00 5.163408959266402007e+02
2.202484546600251836e+00 5.162836843192361584e+02
2.202584568605093107e+00 5.162283386342105587e+02
2.202684590609933935e+00 5.161748811539860071e+02
2.202784612614775206e+00 5.161233336777402201e+02
2.202884634619616477e+00 5.160737175150673011e+02
2.202984656624457305e+00 5.160260534798391063e+02
2.203084678629298132e+00 5.159803618842694277e+02
2.203184700634139404e+00 5.159366625331804244e+02
2.203284722638980231e+00 5.158949747184780108e+02
2.203384744643821502e+00 5.158553172138339278e+02
2.203484766648662774e+00 5.158177082695743820e+02
2.203584788653503601e+00 5.157821656077852595e+02
2.203684810658344873e+00 5.157487064176236800e+02
2.203784832663185700e+00 5.157173473508458983e+02
2.203884854668026527e+00 5.156881045175518921e+02
2.203984876672867799e+00 5.156609934821416346e+02
2.204084898677709070e+00 5.156360292594928296e+02
2.204184920682549897e+00 5.156132263113512408e+02
2.204284942687391169e+00 5.155925985429443017e+02
2.204384964692232440e+00 5.155741592998115266e+02
2.204484986697073268e+00 5.155579213648550194e+02
2.204585008701914095e+00 5.155438969556106485e+02
2.204685030706755366e+00 5.155320977217375003e+02
2.204785052711596194e+00 5.155225347427322049e+02
2.204885074716437465e+00 5.155152185258606323e+02
2.204985096721278737e+00 5.155101590043105944e+02
2.205085118726119564e+00 5.155073655355673736e+02
2.205185140730960391e+00 5.155068469000082132e+02
2.205285162735801663e+00 5.155086112997171313e+02
2.205385184740642934e+00 5.155126663575191515e+02
2.205485206745483762e+00 5.155190191162362225e+02
2.205585228750325033e+00 5.155276760381580061e+02
2.205685250755165860e+00 5.155386430047319664e+02
2.205785272760007132e+00 5.155519253164725342e+02
2.205885294764847959e+00 5.155675276930840027e+02
2.205985316769689231e+00 5.155854542737989732e+02
2.206085338774530058e+00 5.156057086179303042e+02
2.206185360779371329e+00 5.156282937056381570e+02
2.206285382784212601e+00 5.156532119389036097e+02
2.206385404789053428e+00 5.156804651427183899e+02
2.206485426793894256e+00 5.157100545664760602e+02
2.206585448798735527e+00 5.157419808855752308e+02
2.206685470803576798e+00 5.157762442032261561e+02
2.206785492808417626e+00 5.158128440524587859e+02
2.206885514813258897e+00 5.158517793983343154e+02
2.206985536818099725e+00 5.158930486403546638e+02
2.207085558822940996e+00 5.159366496150702233e+02
2.207185580827781823e+00 5.159825795988808750e+02
2.207285602832623095e+00 5.160308353110308417e+02
2.207385624837463922e+00 5.160814129167956708e+02
2.207485646842305194e+00 5.161343080308517983e+02
2.207585668847146465e+00 5.161895157208377896e+02
2.207685690851987292e+00 5.162470305110949766e+02
2.207785712856828564e+00 5.163068463865895410e+02
2.207885734861669391e+00 5.163689567970102416e+02
2.207985756866510219e+00 5.164333546610439498e+02
2.208085778871351490e+00 5.165000323708188716e+02
2.208185800876192761e+00 5.165689817965217117e+02
2.208285822881033589e+00 5.166401942911767264e+02
2.208385844885874860e+00 5.167136606955887146e+02
2.208485866890716132e+00 5.167893713434451683e+02
2.208585888895556515e+00 5.168673160665766773e+02
2.208685910900397786e+00 5.169474842003686490e+02
2.208785932905239058e+00 5.170298645893233243e+02
2.208885954910079885e+00 5.171144455927698118e+02
2.208985976914921157e+00 5.172012150907138448e+02
2.209085998919762428e+00 5.172901604898315782e+02
2.209186020924603255e+00 5.173812687295937849e+02
2.209286042929444083e+00 5.174745262885297734e+02
2.209386064934285354e+00 5.175699191906146552e+02
2.209486086939126182e+00 5.176674330117826912e+02
2.209586108943967453e+00 5.177670528865644428e+02
2.209686130948808724e+00 5.178687635148403388e+02
2.209786152953649552e+00 5.179725491687077010e+02
2.209886174958490823e+00 5.180783936994599799e+02
2.209986196963331651e+00 5.181862805446709217e+02
2.210086218968172922e+00 5.182961927353803731e+02
2.210186240973013749e+00 5.184081129033843354e+02
2.210286262977855021e+00 5.185220232886113081e+02
2.210386284982695848e+00 5.186379057465959477e+02
2.210486306987537120e+00 5.187557417560394697e+02
2.210586328992378391e+00 5.188755124264492906e+02
2.210686350997219218e+00 5.189971985058616610e+02
2.210786373002060046e+00 5.191207803886371721e+02
2.210886395006901317e+00 5.192462381233273163e+02
2.210986417011742589e+00 5.193735514206123298e+02
2.211086439016583416e+00 5.195026996612939456e+02
2.211186461021424687e+00 5.196336619043560177e+02
2.211286483026265515e+00 5.197664168950753947e+02
2.211386505031106786e+00 5.199009430731847488e+02
2.211486527035947613e+00 5.200372185810838346e+02
2.211586549040788885e+00 5.201752212720914486e+02
2.211686571045629712e+00 5.203149287187403615e+02
2.211786593050470984e+00 5.204563182211044250e+02
2.211886615055312255e+00 5.205993668151580778e+02
2.211986637060153083e+00 5.207440512811622284e+02
2.212086659064993910e+00 5.208903481520776495e+02
2.212186681069835181e+00 5.210382337219906503e+02
2.212286703074676453e+00 5.211876840545634195e+02
2.212386725079517280e+00 5.213386749914878919e+02
2.212486747084358552e+00 5.214911821609533717e+02
2.212586769089199379e+00 5.216451809861165430e+02
2.212686791094040650e+00 5.218006466935701155e+02
2.212786813098881478e+00 5.219575543218142002e+02
2.212886835103722749e+00 5.221158787297119943e+02
2.212986857108563576e+00 5.222755946049435352e+02
2.213086879113404848e+00 5.224366764724396717e+02
2.213186901118246119e+00 5.225990987027998926e+02
2.213286923123086947e+00 5.227628355206912829e+02
2.213386945127928218e+00 5.229278610132193990e+02
2.213486967132769045e+00 5.230941491382715185e+02
2.213586989137609873e+00 5.232616737328303316e+02
2.213687011142451144e+00 5.234304085212515929e+02
2.213787033147292416e+00 5.236003271235039165e+02
2.213887055152133243e+00 5.237714030633652555e+02
2.213987077156974514e+00 5.239436097765772047e+02
2.214087099161815786e+00 5.241169206189515535e+02
2.214187121166656169e+00 5.242913088744239758e+02
2.214287143171497441e+00 5.244667477630555368e+02
2.214387165176338712e+00 5.246432104489776975e+02
2.214487187181179539e+00 5.248206700482762699e+02
2.214587209186020811e+00 5.249990996368136393e+02
2.214687231190862082e+00 5.251784722579861864e+02
2.214787253195702910e+00 5.253587609304128137e+02
2.214887275200543737e+00 5.255399386555540104e+02
2.214987297205385008e+00 5.257219784252572481e+02
2.215087319210225836e+00 5.259048532292254095e+02
2.215187341215067107e+00 5.260885360624106397e+02
2.215287363219908379e+00 5.262729999323235006e+02
2.215387385224749206e+00 5.264582178662614069e+02
2.215487407229590477e+00 5.266441629184554358e+02
2.215587429234431305e+00 5.268308081771218667e+02
2.215687451239272576e+00 5.270181267714337991e+02
2.215787473244113404e+00 5.272060918783946590e+02
2.215887495248954675e+00 5.273946767296239386e+02
2.215987517253795502e+00 5.275838546180423236e+02
2.216087539258636774e+00 5.277735989044670077e+02
2.216187561263478045e+00 5.279638830241020742e+02
2.216287583268318873e+00 5.281546804929325845e+02
2.216387605273159700e+00 5.283459649140168040e+02
2.216487627278000971e+00 5.285377099836765638e+02
2.216587649282842243e+00 5.287298894975776875e+02
2.216687671287683070e+00 5.289224773567144666e+02
2.216787693292524342e+00 5.291154475732764695e+02
2.216887715297365169e+00 5.293087742764161021e+02
2.216987737302206440e+00 5.295024317179014588e+02
2.217087759307047268e+00 5.296963942776623071e+02
2.217187781311888539e+00 5.298906364692240913e+02
2.217287803316729367e+00 5.300851329450292724e+02
2.217387825321570638e+00 5.302798585016469133e+02
2.217487847326411909e+00 5.304747880848691466e+02
2.217587869331252737e+00 5.306698967946933863e+02
2.217687891336093564e+00 5.308651598901901707e+02
2.217787913340934836e+00 5.310605527942573190e+02
2.217887935345776107e+00 5.312560510982551705e+02
2.217987957350616934e+00 5.314516305665324580e+02
2.218087979355458206e+00 5.316472671408303086e+02
2.218188001360299033e+00 5.318429369445748307e+02
2.218288023365140305e+00 5.320386162870498765e+02
2.218388045369981132e+00 5.322342816674585038e+02
2.218488067374822403e+00 5.324299097788640438e+02
2.218588089379663231e+00 5.326254775120195291e+02
2.218688111384504502e+00 5.328209619590759303e+02
2.218788133389345774e+00 5.330163404171834145e+02
2.218888155394186601e+00 5.332115903919694802e+02
2.218988177399027872e+00 5.334066896009077254e+02
2.219088199403868700e+00 5.336016159765716793e+02
2.219188221408709527e+00 5.337963476697738088e+02
2.219288243413550799e+00 5.339908630525922035e+02
2.219388265418392070e+00 5.341851407212885761e+02
2.219488287423232897e+00 5.343791594991096190e+02
2.219588309428074169e+00 5.345728984389795642e+02
2.219688331432915440e+00 5.347663368260873540e+02
2.219788353437755823e+00 5.349594541803585344e+02
2.219888375442597095e+00 5.351522302588231241e+02
2.219988397447438366e+00 5.353446450578776421e+02
2.220088419452279194e+00 5.355366788154386768e+02
2.220188441457120465e+00 5.357283120129940244e+02
2.220288463461961737e+00 5.359195253775500305e+02
2.220388485466802564e+00 5.361102998834783193e+02
2.220488507471643391e+00 5.363006167542571347e+02
2.220588529476484663e+00 5.364904574641216186e+02
2.220688551481325490e+00 5.366798037396089285e+02
2.220788573486166761e+00 5.368686375610077448e+02
2.220888595491008033e+00 5.370569411637189887e+02
2.220988617495848860e+00 5.372446970395151311e+02
2.221088639500690132e+00 5.374318879377134408e+02
2.221188661505530959e+00 5.376184968662547590e+02
2.221288683510372231e+00 5.378045070926989411e+02
2.221388705515213058e+00 5.379899021451255976e+02
2.221488727520054329e+00 5.381746658129604839e+02
2.221588749524895157e+00 5.383587821477058242e+02
2.221688771529736428e+00 5.385422354636014006e+02
2.221788793534577700e+00 5.387250103381944655e+02
2.221888815539418527e+00 5.389070916128405315e+02
2.221988837544259354e+00 5.390884643931228766e+02
2.222088859549100626e+00 5.392691140492023578e+02
2.222188881553941897e+00 5.394490262160863949e+02
2.222288903558782724e+00 5.396281867938370169e+02
2.222388925563623996e+00 5.398065819477052401e+02
2.222488947568464823e+00 5.399841981081992799e+02
2.222588969573306095e+00 5.401610219710901220e+02
2.222688991578146922e+00 5.403370404973502446e+02
2.222789013582988193e+00 5.405122409130375445e+02
2.222889035587829021e+00 5.406866107091153708e+02
2.222989057592670292e+00 5.408601376412184436e+02
2.223089079597511564e+00 5.410328097293644305e+02
2.223189101602352391e+00 5.412046152576104987e+02
2.223289123607193218e+00 5.413755427736614365e+02
2.223389145612034490e+00 5.415455810884283210e+02
2.223489167616875761e+00 5.417147192755410288e+02
2.223589189621716589e+00 5.418829466708137943e+02
2.223689211626557860e+00 5.420502528716715460e+02
2.223789233631398687e+00 5.422166277365337237e+02
2.223889255636239515e+00 5.423820613841579643e+02
2.223989277641080786e+00 5.425465441929497956e+02
2.224089299645922058e+00 5.427100668002359498e+02
2.224189321650762885e+00 5.428726201015049355e+02
2.224289343655604156e+00 5.430341952496155500e+02
2.224389365660445428e+00 5.431947836539808350e+02
2.224489387665286255e+00 5.433543769797169034e+02
2.224589409670127083e+00 5.435129671467743719e+02
2.224689431674968354e+00 5.436705463290404623e+02
2.224789453679809181e+00 5.438271069534249591e+02
2.224889475684650453e+00 5.439826416989197924e+02
2.224989497689491724e+00 5.441371434956452049e+02
2.225089519694332552e+00 5.442906055238785257e+02
2.225189541699173823e+00 5.444430212130660038e+02
2.225289563704014650e+00 5.445943842408252067e+02
2.225389585708855478e+00 5.447446885319322973e+02
2.225489607713696749e+00 5.448939282573021501e+02
2.225589629718538021e+00 5.450420978329590298e+02
2.225689651723378848e+00 5.451891919190005638e+02
2.225789673728220119e+00 5.453352054185560291e+02
2.225889695733061391e+00 5.454801334767415710e+02
2.225989717737902218e+00 5.456239714796132603e+02
2.226089739742743046e+00 5.457667150531184461e+02
2.226189761747584317e+00 5.459083600620454035e+02
2.226289783752425144e+00 5.460489026089801428e+02
2.226389805757266416e+00 5.461883390332581030e+02
2.226489827762107687e+00 5.463266659099278968e+02
2.226589849766948515e+00 5.464638800487149410e+02
2.226689871771789342e+00 5.465999784929917951e+02
2.226789893776630613e+00 5.467349585187566845e+02
2.226889915781471885e+00 5.468688176336223705e+02
2.226989937786312712e+00 5.470015535758079750e+02
2.227089959791153984e+00 5.471331643131488818e+02
2.227189981795994811e+00 5.472636480421122087e+02
2.227290003800836082e+00 5.473930031868220567e+02
2.227390025805676910e+00 5.475212283981065866e+02
2.227490047810518181e+00 5.476483225525463467e+02
2.227590069815359008e+00 5.477742847515464746e+02
2.227690091820200280e+00 5.478991143204150376e+02
2.227790113825041551e+00 5.480228108074619513e+02
2.227890135829882379e+00 5.481453739831134726e+02
2.227990157834723650e+00 5.482668038390356742e+02
2.228090179839564478e+00 5.483871005872825890e+02
2.228190201844405749e+00 5.485062646594549278e+02
2.228290223849246576e+00 5.486242967058781232e+02
2.228390245854087848e+00 5.487411975947978817e+02
2.228490267858928675e+00 5.488569684115874452e+02
2.228590289863769947e+00 5.489716104579811145e+02
2.228690311868611218e+00 5.490851252513158443e+02
2.228790333873452045e+00 5.491975145237956895e+02
2.228890355878292873e+00 5.493087802217725084e+02
2.228990377883134144e+00 5.494189245050393993e+02
2.229090399887975416e+00 5.495279497461471010e+02
2.229190421892816243e+00 5.496358585297325590e+02
2.229290443897657514e+00 5.497426536518649982e+02
2.229390465902498342e+00 5.498483381194081403e+02
2.229490487907339169e+00 5.499529151493964036e+02
2.229590509912180440e+00 5.500563881684295211e+02
2.229690531917021712e+00 5.501587608120770483e+02
2.229790553921862539e+00 5.502600369242999250e+02
2.229890575926703811e+00 5.503602205568853378e+02
2.229990597931545082e+00 5.504593159688924970e+02
2.230090619936385909e+00 5.505573276261114870e+02
2.230190641941226737e+00 5.506542602005338267e+02
2.230290663946068008e+00 5.507501185698321251e+02
2.230390685950908836e+00 5.508449078168509914e+02
2.230490707955750107e+00 5.509386332291047665e+02
2.230590729960591379e+00 5.510313002982842363e+02
2.230690751965432206e+00 5.511229147197700513e+02
2.230790773970273477e+00 5.512134823921518318e+02
2.230890795975114305e+00 5.513030094167517063e+02
2.230990817979955132e+00 5.513915020971504646e+02
2.231090839984796403e+00 5.514789669387195090e+02
2.231190861989637675e+00 5.515654106481497365e+02
2.231290883994478502e+00 5.516508401329832623e+02
2.231390905999319774e+00 5.517352625011441205e+02
2.231490928004161045e+00 5.518186850604633946e+02
2.231590950009001872e+00 5.519011153182051430e+02
2.231690972013842700e+00 5.519825609805837985e+02
2.231790994018683971e+00 5.520630299522754285e+02
2.231891016023524799e+00 5.521425303359219470e+02
2.231991038028366070e+00 5.522210704316262309e+02
2.232091060033207341e+00 5.522986587364343904e+02
2.232191082038048169e+00 5.523753039438083761e+02
2.232291104042888996e+00 5.524510149430824413e+02
2.232391126047730268e+00 5.525258008189061911e+02
2.232491148052571539e+00 5.525996708506685309e+02
2.232591170057412366e+00 5.526726345119043344e+02
2.232691192062253638e+00 5.527447014696824681e+02
2.232791214067094465e+00 5.528158815839685758e+02
2.232891236071935737e+00 5.528861849069676282e+02
2.232991258076776564e+00 5.529556216824405510e+02
2.233091280081617835e+00 5.530242023449936823e+02
2.233191302086458663e+00 5.530919375193407177e+02
2.233291324091299934e+00 5.531588380195358923e+02
2.233391346096141206e+00 5.532249148481712382e+02
2.233491368100982033e+00 5.532901791955476938e+02
2.233591390105823304e+00 5.533546424388043761e+02
2.233691412110664132e+00 5.534183161410163621e+02
2.233791434115505403e+00 5.534812120502512016e+02
2.233891456120346231e+00 5.535433420985890507e+02
2.233991478125187502e+00 5.536047184010948286e+02
2.234091500130028329e+00 5.536653532547568375e+02
2.234191522134869601e+00 5.537252591373719497e+02
2.234291544139710872e+00 5.537844487063903216e+02
2.234391566144551700e+00 5.538429347977075849e+02
2.234491588149392527e+00 5.539007304244112220e+02
2.234591610154233798e+00 5.539578487754753269e+02
2.234691632159075070e+00 5.540143032143993196e+02
2.234791654163915897e+00 5.540701072777975469e+02
2.234891676168757169e+00 5.541252746739294253e+02
2.234991698173597996e+00 5.541798192811735362e+02
2.235091720178438823e+00 5.542337551464437411e+02
2.235191742183280095e+00 5.542870964835452696e+02
2.235291764188121366e+00 5.543398576714671435e+02
2.235391786192962194e+00 5.543920532526152556e+02
2.235491808197803465e+00 5.544436979309780327e+02
2.235591830202644736e+00 5.544948065702285476e+02
2.235691852207485564e+00 5.545453941917589873e+02
2.235791874212326391e+00 5.545954759726489556e+02
2.235891896217167663e+00 5.546450672435589695e+02
2.235991918222008490e+00 5.546941834865639294e+02
2.236091940226849761e+00 5.547428403329024604e+02
2.236191962231691033e+00 5.547910535606644089e+02
2.236291984236531860e+00 5.548388390923983025e+02
2.236392006241373132e+00 5.548862129926477564e+02
2.236492028246213959e+00 5.549331914654092088e+02
2.236592050251054786e+00 5.549797908515173503e+02
2.236692072255896058e+00 5.550260276259489274e+02
2.236792094260737329e+00 5.550719183950528759e+02
2.236892116265578156e+00 5.551174798936971229e+02
2.236992138270419428e+00 5.551627289823410365e+02
2.237092160275260699e+00 5.552076826440236346e+02
2.237192182280101527e+00 5.552523579812725529e+02
2.237292204284942354e+00 5.552967722129352524e+02
2.237392226289783626e+00 5.553409426709210948e+02
2.237492248294624453e+00 5.553848867968707737e+02
2.237592270299465724e+00 5.554286221387357045e+02
2.237692292304306996e+00 5.554721663472801083e+02
2.237792314309147823e+00 5.555155371724986253e+02
2.237892336313988650e+00 5.555587524599483231e+02
2.237992358318829922e+00 5.556018301470049892e+02
2.238092380323671193e+00 5.556447882590287008e+02
2.238192402328512021e+00 5.556876449054509521e+02
2.238292424333353292e+00 5.557304182757794706e+02
2.238392446338194119e+00 5.557731266355176558e+02
2.238492468343035391e+00 5.558157883220051190e+02
2.238592490347876218e+00 5.558584217401726164e+02
2.238692512352717490e+00 5.559010453582213813e+02
2.238792534357558317e+00 5.559436777032141208e+02
2.238892556362399588e+00 5.559863373565922302e+02
2.238992578367240860e+00 5.560290429496084244e+02
2.239092600372081687e+00 5.560718131586844493e+02
2.239192622376922959e+00 5.561146667006859161e+02
2.239292644381763786e+00 5.561576223281241482e+02
2.239392666386605057e+00 5.562006988242793568e+02
2.239492688391445885e+00 5.562439149982475328e+02
2.239592710396287156e+00 5.562872896799131013e+02
2.239692732401127984e+00 5.563308417148514309e+02
2.239792754405969255e+00 5.563745899591538091e+02
2.239892776410810526e+00 5.564185532741864790e+02
2.239992798415651354e+00 5.564627505212758933e+02
2.240092820420492181e+00 5.565072005563296216e+02
2.240192842425333453e+00 5.565519222243879085e+02
2.240292864430174724e+00 5.565969343541122498e+02
2.240392886435015551e+00 5.566422557522083707e+02
2.240492908439856823e+00 5.566879051977888366e+02
2.240592930444697650e+00 5.567339014366756373e+02
2.240692952449538478e+00 5.567802631756445635e+02
2.240792974454379749e+00 5.568270090766128533e+02
2.240892996459221020e+00 5.568741577507735201e+02
2.240993018464061848e+00 5.569217277526767020e+02
2.241093040468903119e+00 5.569697375742612167e+02
2.241193062473744391e+00 5.570182056388390492e+02
2.241293084478584774e+00 5.570671502950320928e+02
2.241393106483426045e+00 5.571165898106680743e+02
2.241493128488267317e+00 5.571665423666338484e+02
2.241593150493108144e+00 5.572170260506912882e+02
2.241693172497949416e+00 5.572680588512557733e+02
2.241793194502790687e+00 5.573196586511419355e+02
2.241893216507631514e+00 5.573718432212806420e+02
2.241993238512472342e+00 5.574246302144014180e+02
2.242093260517313613e+00 5.574780371587008858e+02
2.242193282522154441e+00 5.575320814514728909e+02
2.242293304526995712e+00 5.575867803527337401e+02
2.242393326531836983e+00 5.576421509788218600e+02
2.242493348536677811e+00 5.576982102959854046e+02
2.242593370541519082e+00 5.577549751139597447e+02
2.242693392546359910e+00 5.578124620795360897e+02
2.242793414551201181e+00 5.578706876701239707e+02
2.242893436556042008e+00 5.579296681873178159e+02
2.242993458560883280e+00 5.579894197504547719e+02
2.243093480565724107e+00 5.580499582901870781e+02
2.243193502570565379e+00 5.581112995420560310e+02
2.243293524575406650e+00 5.581734590400792513e+02
2.243393546580247477e+00 5.582364521103535253e+02
2.243493568585088305e+00 5.583002938646720850e+02
2.243593590589929576e+00 5.583649991941662165e+02
2.243693612594770848e+00 5.584305827629702890e+02
2.243793634599611675e+00 5.584970590019134988e+02
2.243893656604452946e+00 5.585644421022468578e+02
2.243993678609293774e+00 5.586327460093996251e+02
2.244093700614135045e+00 5.587019844167789415e+02
2.244193722618975873e+00 5.587721707596102760e+02
2.244293744623817144e+00 5.588433182088197100e+02
2.244393766628657971e+00 5.589154396649726095e+02
2.244493788633499243e+00 5.589885477522564088e+02
2.244593810638340514e+00 5.590626548125278532e+02
2.244693832643181342e+00 5.591377728994118570e+02
2.244793854648022169e+00 5.592139137724720968e+02
2.244893876652863440e+00 5.592910888914414045e+02
2.244993898657704712e+00 5.593693094105275350e+02
2.245093920662545539e+00 5.594485861727897600e+02
2.245193942667386811e+00 5.595289297045956118e+02
2.245293964672227638e+00 5.596103502101593676e+02
2.245393986677068909e+00 5.596928575661594323e+02
2.245494008681909737e+00 5.597764613164554248e+02
2.245594030686751008e+00 5.598611706668867782e+02
2.245694052691591835e+00 5.599469944801683141e+02
2.245794074696433107e+00 5.600339412708943883e+02
2.245894096701274378e+00 5.601220192006314846e+02
2.245994118706115206e+00 5.602112360731273384e+02
2.246094140710956477e+00 5.603015993296262423e+02
2.246194162715797304e+00 5.603931160442938335e+02
2.246294184720638132e+00 5.604857929197639805e+02
2.246394206725479403e+00 5.605796362828006068e+02
2.246494228730320675e+00 5.606746520800854796e+02
2.246594250735161502e+00 5.607708458741298045e+02
2.246694272740002774e+00 5.608682228393155356e+02
2.246794294744844045e+00 5.609667877580708364e+02
2.246894316749684428e+00 5.610665450171806015e+02
2.246994338754525700e+00 5.611674986042336286e+02
2.247094360759366971e+00 5.612696521042154245e+02
2.247194382764207798e+00 5.613730086962418682e+02
2.247294404769049070e+00 5.614775711504430546e+02
2.247394426773890341e+00 5.615833418249994793e+02
2.247494448778731169e+00 5.616903226633252189e+02
2.247594470783571996e+00 5.617985151914160724e+02
2.247694492788413267e+00 5.619079205153484509e+02
2.247794514793254095e+00 5.620185393189462957e+02
2.247894536798095366e+00 5.621303718616068181e+02
2.247994558802936638e+00 5.622434179762985877e+02
2.248094580807777465e+00 5.623576770677219656e+02
2.248194602812618736e+00 5.624731481106455249e+02
2.248294624817459564e+00 5.625898296484156162e+02
2.248394646822300835e+00 5.627077197916416935e+02
2.248494668827141663e+00 5.628268162170553524e+02
2.248594690831982934e+00 5.629471161665572936e+02
2.248694712836823761e+00 5.630686164464384547e+02
2.248794734841665033e+00 5.631913134267906571e+02
2.248894756846506304e+00 5.633152030410974476e+02
2.248994778851347132e+00 5.634402807860174107e+02
2.249094800856187959e+00 5.635665417213535875e+02
2.249194822861029230e+00 5.636939804702110450e+02
2.249294844865870502e+00 5.638225912193510112e+02
2.249394866870711329e+00 5.639523677197340703e+02
2.249494888875552601e+00 5.640833032872596959e+02
2.249594910880393428e+00 5.642153908037003021e+02
2.249694932885234699e+00 5.643486227178287891e+02
2.249794954890075527e+00 5.644829910467499303e+02
2.249894976894916798e+00 5.646184873774226389e+02
2.249994998899757626e+00 5.647551028683851655e+02
2.250095020904598897e+00 5.648928282516791342e+02
2.250195042909440168e+00 5.650316538349708253e+02
2.250295064914280996e+00 5.651715695038740250e+02
2.250395086919121823e+00 5.653125647244773972e+02
2.250495108923963095e+00 5.654546285460617128e+02
2.250595130928804366e+00 5.655977496040306960e+02
2.250695152933645193e+00 5.657419161230318423e+02
2.250795174938486465e+00 5.658871159202828949e+02
2.250895196943327292e+00 5.660333364090981831e+02
2.250995218948168564e+00 5.661805646026107297e+02
2.251095240953009391e+00 5.663287871177000170e+02
2.251195262957850662e+00 5.664779901791091561e+02
2.251295284962691490e+00 5.666281596237698750e+02
2.251395306967532761e+00 5.667792809053153178e+02
2.251495328972374033e+00 5.669313390987949788e+02
2.251595350977214860e+00 5.670843189055806306e+02
2.251695372982056131e+00 5.672382046584677937e+02
2.251795394986896959e+00 5.673929803269686545e+02
2.251895416991737786e+00 5.675486295227935898e+02
2.251995438996579058e+00 5.677051355055268687e+02
2.252095461001420329e+00 5.678624811884858445e+02
2.252195483006261156e+00 5.680206491447645476e+02
2.252295505011102428e+00 5.681796216134662245e+02
2.252395527015943699e+00 5.683393805061123203e+02
2.252495549020784082e+00 5.684999074132349506e+02
2.252595571025625354e+00 5.686611836111433149e+02
2.252695593030466625e+00 5.688231900688685982e+02
2.252795615035307453e+00 5.689859074552784932e+02
2.252895637040148724e+00 5.691493161463610022e+02
2.252995659044989996e+00 5.693133962326783148e+02
2.253095681049830823e+00 5.694781275269868956e+02
2.253195703054671650e+00 5.696434895720085478e+02
2.253295725059512922e+00 5.698094616483726895e+02
2.253395747064353749e+00 5.699760227827065364e+02
2.253495769069195021e+00 5.701431517558777387e+02
2.253595791074036292e+00 5.703108271113883347e+02
2.253695813078877119e+00 5.704790271639116099e+02
2.253795835083718391e+00 5.706477300079706083e+02
2.253895857088559218e+00 5.708169135267571619e+02
2.253995879093400490e+00 5.709865554010808637e+02
2.254095901098241317e+00 5.711566331184533283e+02
2.254195923103082588e+00 5.713271239822920506e+02
2.254295945107923416e+00 5.714980051212564831e+02
2.254395967112764687e+00 5.716692534986907503e+02
2.254495989117605959e+00 5.718408459221916473e+02
2.254596011122446786e+00 5.720127590532754311e+02
2.254696033127287613e+00 5.721849694171595502e+02
2.254796055132128885e+00 5.723574534126382787e+02
2.254896077136970156e+00 5.725301873220589641e+02
2.254996099141810983e+00 5.727031473213855861e+02
2.255096121146652255e+00 5.728763094903541742e+02
2.255196143151493082e+00 5.730496498227045095e+02
2.255296165156334354e+00 5.732231442364961822e+02
2.255396187161175181e+00 5.733967685844870630e+02
2.255496209166016452e+00 5.735704986645896497e+02
2.255596231170857280e+00 5.737443102303819842e+02
2.255696253175698551e+00 5.739181790016772311e+02
2.255796275180539823e+00 5.740920806751470309e+02
2.255896297185380650e+00 5.742659909349899863e+02
2.255996319190221477e+00 5.744398854636399392e+02
2.256096341195062749e+00 5.746137399525134697e+02
2.256196363199904020e+00 5.747875301127827470e+02
2.256296385204744848e+00 5.749612316861790760e+02
2.256396407209586119e+00 5.751348204558100861e+02
2.256496429214426946e+00 5.753082722569976113e+02
2.256596451219268218e+00 5.754815629881150016e+02
2.256696473224109045e+00 5.756546686214353485e+02
2.256796495228950317e+00 5.758275652139715248e+02
2.256896517233791144e+00 5.760002289183105404e+02
2.256996539238632415e+00 5.761726359934305037e+02
2.257096561243473687e+00 5.763447628154997346e+02
2.257196583248314514e+00 5.765165858886487058e+02
2.257296605253155786e+00 5.766880818557137900e+02
2.257396627257996613e+00 5.768592275089355326e+02
2.257496649262837440e+00 5.770299998006228179e+02
2.257596671267678712e+00 5.772003758537625799e+02
2.257696693272519983e+00 5.773703329725764206e+02
2.257796715277360811e+00 5.775398486530148148e+02
2.257896737282202082e+00 5.777089005931882184e+02
2.257996759287042909e+00 5.778774667037217796e+02
2.258096781291883737e+00 5.780455251180389951e+02
2.258196803296725008e+00 5.782130542025493014e+02
2.258296825301566280e+00 5.783800325667609741e+02
2.258396847306407107e+00 5.785464390732888660e+02
2.258496869311248378e+00 5.787122528477617607e+02
2.258596891316089650e+00 5.788774532886307043e+02
2.258696913320930477e+00 5.790420200768535324e+02
2.258796935325771305e+00 5.792059331854734410e+02
2.258896957330612576e+00 5.793691728890652257e+02
2.258996979335453403e+00 5.795317197730562384e+02
2.259097001340294675e+00 5.796935547429148983e+02
2.259197023345135946e+00 5.798546590331933430e+02
2.259297045349976774e+00 5.800150142164324052e+02
2.259397067354817601e+00 5.801746022119095869e+02
2.259497089359658872e+00 5.803334052942362860e+02
2.259597111364500144e+00 5.804914061017883569e+02
2.259697133369340971e+00 5.806485876449767147e+02
2.259797155374182243e+00 5.808049333143422928e+02
2.259897177379023070e+00 5.809604268884776275e+02
2.259997199383864341e+00 5.811150525417624522e+02
2.260097221388705169e+00 5.812687948519209158e+02
2.260197243393546440e+00 5.814216388073813278e+02
2.260297265398387268e+00 5.815735698144428625e+02
2.260397287403228539e+00 5.817245737042433120e+02
2.260497309408069810e+00 5.818746367395189054e+02
2.260597331412910638e+00 5.820237456211599465e+02
2.260697353417751909e+00 5.821718874945484004e+02
2.260797375422592737e+00 5.823190499556811801e+02
2.260897397427434008e+00 5.824652210570704938e+02
2.260997419432274835e+00 5.826103893134160217e+02
2.261097441437116107e+00 5.827545437070548360e+02
2.261197463441956934e+00 5.828976736931679170e+02
2.261297485446798206e+00 5.830397692047586133e+02
2.261397507451639477e+00 5.831808206573841744e+02
2.261497529456480304e+00 5.833208189536475174e+02
2.261597551461321132e+00 5.834597554874364960e+02
2.261697573466162403e+00 5.835976221479190826e+02
2.261797595471003675e+00 5.837344113232799145e+02
2.261897617475844502e+00 5.838701159042003610e+02
2.261997639480685773e+00 5.840047292870817728e+02
2.262097661485526601e+00 5.841382453770054326e+02
2.262197683490367428e+00 5.842706585904247731e+02
2.262297705495208699e+00 5.844019638575957742e+02
2.262397727500049971e+00 5.845321566247333749e+02
2.262497749504890798e+00 5.846612328558984473e+02
2.262597771509732070e+00 5.847891890346105583e+02
2.262697793514573341e+00 5.849160221651844722e+02
2.262797815519414169e+00 5.850417297737913032e+02
2.262897837524254996e+00 5.851663099092405673e+02
2.262997859529096267e+00 5.852897611434796090e+02
2.263097881533937095e+00 5.854120825718132437e+02
2.263197903538778366e+00 5.855332738128423671e+02
2.263297925543619638e+00 5.856533350081178924e+02
2.263397947548460465e+00 5.857722668215083104e+02
2.263497969553301736e+00 5.858900704382840559e+02
2.263597991558142564e+00 5.860067475639185659e+02
2.263698013562983391e+00 5.861223004225987552e+02
2.263798035567824662e+00 5.862367317554542296e+02
2.263898057572665934e+00 5.863500448184965990e+02
2.263998079577506761e+00 5.864622433802749129e+02
2.264098101582348033e+00 5.865733317192463119e+02
2.264198123587189304e+00 5.866833146208596190e+02
2.264298145592030131e+00 5.867921973743553963e+02
2.264398167596870959e+00 5.868999857692820115e+02
2.264498189601712230e+00 5.870066860917295344e+02
2.264598211606553058e+00 5.871123051202814622e+02
2.264698233611394329e+00 5.872168501216854111e+02
2.264798255616235600e+00 5.873203288462466389e+02
2.264898277621076428e+00 5.874227495229416718e+02
2.264998299625917255e+00 5.875241208542605591e+02
2.265098321630758527e+00 5.876244520107678682e+02
2.265198343635599798e+00 5.877237526254016302e+02
2.265298365640440625e+00 5.878220327874955728e+02
2.265398387645281897e+00 5.879193030365366894e+02
2.265498409650122724e+00 5.880155743556591688e+02
2.265598431654963996e+00 5.881108581648759355e+02
2.265698453659804823e+00 5.882051663140496203e+02
2.265798475664646094e+00 5.882985110756134191e+02
2.265898497669486922e+00 5.883909051370299039e+02
2.265998519674328193e+00 5.884823615930104097e+02
2.266098541679169465e+00 5.885728939374814672e+02
2.266198563684010292e+00 5.886625160553107889e+02
2.266298585688851563e+00 5.887512422137987187e+02
2.266398607693692391e+00 5.888390870539307116e+02
2.266498629698533662e+00 5.889260655813989160e+02
2.266598651703374490e+00 5.890121931574030896e+02
2.266698673708215761e+00 5.890974854892222083e+02
2.266798695713056588e+00 5.891819586205763244e+02
2.266898717717897860e+00 5.892656289217702579e+02
2.266998739722739131e+00 5.893485130796315161e+02
2.267098761727579959e+00 5.894306280872463049e+02
2.267198783732420786e+00 5.895119912334960190e+02
2.267298805737262057e+00 5.895926200924008072e+02
2.267398827742103329e+00 5.896725325122775985e+02
2.267498849746944156e+00 5.897517466047170274e+02
2.267598871751785428e+00 5.898302807333784585e+02
2.267698893756626255e+00 5.899081535026202801e+02
2.267798915761467082e+00 5.899853837459655779e+02
2.267898937766308354e+00 5.900619905144021686e+02
2.267998959771149625e+00 5.901379930645371132e+02
2.268098981775990453e+00 5.902134108466009366e+02
2.268199003780831724e+00 5.902882634923109890e+02
2.268299025785672995e+00 5.903625708026039547e+02
2.268399047790513823e+00 5.904363527352350047e+02
2.268499069795354650e+00 5.905096293922616724e+02
2.268599091800195922e+00 5.905824210074086977e+02
2.268699113805036749e+00 5.906547479333282809e+02
2.268799135809878020e+00 5.907266306287572206e+02
2.268899157814719292e+00 5.907980896455799211e+02
2.268999179819560119e+00 5.908691456158059054e+02
2.269099201824401391e+00 5.909398192384674076e+02
2.269199223829242218e+00 5.910101312664386342e+02
2.269299245834083045e+00 5.910801024931975007e+02
2.269399267838924317e+00 5.911497537395239306e+02
2.269499289843765588e+00 5.912191058401444934e+02
2.269599311848606416e+00 5.912881796303412330e+02
2.269699333853447687e+00 5.913569959325144509e+02
2.269799355858288958e+00 5.914255755427234362e+02
2.269899377863129786e+00 5.914939392172038879e+02
2.269999399867970613e+00 5.915621076588685128e+02
2.270099421872811885e+00 5.916301015038055766e+02
2.270199443877652712e+00 5.916979413077751815e+02
2.270299465882493983e+00 5.917656475327164571e+02
2.270399487887335255e+00 5.918332405332716917e+02
2.270499509892176082e+00 5.919007405433318354e+02
2.270599531897016909e+00 5.919681676626174749e+02
2.270699553901858181e+00 5.920355418432956185e+02
2.270799575906699452e+00 5.921028828766482093e+02
2.270899597911540280e+00 5.921702103797920245e+02
2.270999619916381551e+00 5.922375437824640585e+02
2.271099641921222378e+00 5.923049023138743223e+02
2.271199663926063650e+00 5.923723049896394741e+02
2.271299685930904477e+00 5.924397705988012603e+02
2.271399707935745749e+00 5.925073176909392032e+02
2.271499729940586576e+00 5.925749645633829914e+02
2.271599751945427847e+00 5.926427292485358294e+02
2.271699773950269119e+00 5.927106295013096542e+02
2.271799795955109946e+00 5.927786827866916610e+02
2.271899817959951218e+00 5.928469062674341785e+02
2.271999839964792045e+00 5.929153167918888130e+02
2.272099861969633317e+00 5.929839308819853159e+02
2.272199883974474144e+00 5.930527647213605178e+02
2.272299905979315415e+00 5.931218341436567698e+02
2.272399927984156243e+00 5.931911546209773860e+02
2.272499949988997514e+00 5.932607412525243262e+02
2.272599971993838786e+00 5.933306087534188009e+02
2.272699993998679613e+00 5.934007714437059349e+02
2.272800016003520440e+00 5.934712432375592925e+02
2.272900038008361712e+00 5.935420376326883343e+02
2.273000060013202983e+00 5.936131676999527826e+02
2.273100082018043810e+00 5.936846460731986781e+02
2.273200104022885082e+00 5.937564849393098712e+02
2.273300126027725909e+00 5.938286960284962106e+02
2.273400148032566737e+00 5.939012906048138802e+02
2.273500170037408008e+00 5.939742794569258422e+02
2.273600192042249279e+00 5.940476728891165976e+02
2.273700214047090107e+00 5.941214807125509196e+02
2.273800236051931378e+00 5.941957122368060027e+02
2.273900258056772650e+00 5.942703762616555423e+02
2.274000280061613477e+00 5.943454810691351895e+02
2.274100302066454304e+00 5.944210344158798307e+02
2.274200324071295576e+00 5.944970435257432655e+02
2.274300346076136403e+00 5.945735150827088091e+02
2.274400368080977675e+00 5.946504552240880912e+02
2.274500390085818946e+00 5.947278695340198738e+02
2.274600412090659773e+00 5.948057630372688891e+02
2.274700434095501045e+00 5.948841401933341331e+02
2.274800456100341872e+00 5.949630048908671824e+02
2.274900478105182700e+00 5.950423604424039468e+02
2.275000500110023971e+00 5.951222095794227016e+02
2.275100522114865242e+00 5.952025544477148742e+02
2.275200544119706070e+00 5.952833966030957527e+02
2.275300566124547341e+00 5.953647370074369292e+02
2.275400588129388169e+00 5.954465760250384392e+02
2.275500610134229440e+00 5.955289134193369591e+02
2.275600632139070267e+00 5.956117483499567697e+02
2.275700654143911539e+00 5.956950793700993927e+02
2.275800676148752366e+00 5.957789044242894079e+02
2.275900698153593638e+00 5.958632208464605355e+02
2.276000720158434909e+00 5.959480253583998319e+02
2.276100742163275736e+00 5.960333140685409035e+02
2.276200764168116564e+00 5.961190824711163714e+02
2.276300786172957835e+00 5.962053254456664035e+02
2.276400808177799107e+00 5.962920372569096799e+02
2.276500830182639934e+00 5.963792115549694017e+02
2.276600852187481205e+00 5.964668413759669647e+02
2.276700874192322033e+00 5.965549191429774964e+02
2.276800896197163304e+00 5.966434366673419163e+02
2.276900918202004132e+00 5.967323851503601873e+02
2.277000940206845403e+00 5.968217551853302894e+02
2.277100962211686230e+00 5.969115367599642923e+02
2.277200984216527502e+00 5.970017192591665207e+02
2.277301006221368773e+00 5.970922914681779048e+02
2.277401028226209601e+00 5.971832415760818549e+02
2.277501050231050428e+00 5.972745571796758668e+02
2.277601072235891699e+00 5.973662252877081755e+02
2.277701094240732971e+00 5.974582323254734320e+02
2.277801116245573798e+00 5.975505641397713816e+02
2.277901138250415070e+00 5.976432060042241119e+02
2.278001160255255897e+00 5.977361426249518672e+02
2.278101182260097168e+00 5.978293581466055002e+02
2.278201204264937996e+00 5.979228361587504423e+02
2.278301226269779267e+00 5.980165597026052637e+02
2.278401248274620094e+00 5.981105112781281150e+02
2.278501270279461366e+00 5.982046728514512779e+02
2.278601292284302637e+00 5.982990258626571176e+02
2.278701314289143465e+00 5.983935512338969147e+02
2.278801336293984736e+00 5.984882293778456415e+02
2.278901358298825564e+00 5.985830402064939335e+02
2.279001380303666391e+00 5.986779631402658879e+02
2.279101402308507662e+00 5.987729771174663256e+02
2.279201424313348934e+00 5.988680606040509247e+02
2.279301446318189761e+00 5.989631916037116071e+02
2.279401468323031033e+00 5.990583476682789978e+02
2.279501490327872304e+00 5.991535059084339991e+02
2.279601512332712687e+00 5.992486430047197246e+02
2.279701534337553959e+00 5.993437352188562954e+02
2.279801556342395230e+00 5.994387584053500859e+02
2.279901578347236057e+00 5.995336880233900274e+02
2.280001600352077329e+00 5.996284991490267657e+02
2.280101622356918600e+00 5.997231664876325112e+02
2.280201644361759428e+00 5.998176643866261202e+02
2.280301666366600255e+00 5.999119668484735257e+02
2.280401688371441526e+00 6.000060475439352103e+02
2.280501710376282354e+00 6.000998798255781139e+02
2.280601732381123625e+00 6.001934367415258293e+02
2.280701754385964897e+00 6.002866910494512922e+02
2.280801776390805724e+00 6.003796152308028695e+02
2.280901798395646995e+00 6.004721815052545253e+02
2.281001820400487823e+00 6.005643618453750605e+02
2.281101842405329094e+00 6.006561279915057412e+02
2.281201864410169922e+00 6.007474514668489292e+02
2.281301886415011193e+00 6.008383035927427045e+02
2.281401908419852020e+00 6.009286555041306883e+02
2.281501930424693292e+00 6.010184781652106949e+02
2.281601952429534563e+00 6.011077423852520951e+02
2.281701974434375391e+00 6.011964188345826869e+02
2.281801996439216218e+00 6.012844780607266557e+02
2.281902018444057489e+00 6.013718905046949885e+02
2.282002040448898761e+00 6.014586265174067421e+02
2.282102062453739588e+00 6.015446563762511687e+02
2.282202084458580860e+00 6.016299503017613688e+02
2.282302106463421687e+00 6.017144784744097024e+02
2.282402128468262958e+00 6.017982110514975602e+02
2.282502150473103786e+00 6.018811181841521147e+02
2.282602172477945057e+00 6.019631700343952616e+02
2.282702194482785885e+00 6.020443367923002143e+02
2.282802216487627156e+00 6.021245886932119902e+02
2.282902238492468427e+00 6.022038960350215575e+02
2.283002260497309255e+00 6.022822291954988714e+02
2.283102282502150082e+00 6.023595586496545593e+02
2.283202304506991354e+00 6.024358549871398054e+02
2.283302326511832625e+00 6.025110889296591949e+02
2.283402348516673452e+00 6.025852313484045908e+02
2.283502370521514724e+00 6.026582532814796878e+02
2.283602392526355551e+00 6.027301259513226341e+02
2.283702414531196823e+00 6.028008207821093265e+02
2.283802436536037650e+00 6.028703094171262364e+02
2.283902458540878921e+00 6.029385637361124282e+02
2.284002480545719749e+00 6.030055558725450737e+02
2.284102502550561020e+00 6.030712582308776746e+02
2.284202524555402292e+00 6.031356435037043866e+02
2.284302546560243119e+00 6.031986846888523814e+02
2.284402568565084390e+00 6.032603551063854184e+02
2.284502590569925218e+00 6.033206284155139656e+02
2.284602612574766045e+00 6.033794786313991381e+02
2.284702634579607317e+00 6.034368801418390831e+02
2.284802656584448588e+00 6.034928077238348578e+02
2.284902678589289415e+00 6.035472365600198827e+02
2.285002700594130687e+00 6.036001422549436484e+02
2.285102722598971958e+00 6.036515008512053555e+02
2.285202744603812341e+00 6.037012888454232780e+02
2.285302766608653613e+00 6.037494832040299571e+02
2.285402788613494884e+00 6.037960613788902720e+02
2.285502810618335712e+00 6.038410013227244235e+02
2.285602832623176983e+00 6.038842815043317387e+02
2.285702854628018255e+00 6.039258809236071102e+02
2.285802876632859082e+00 6.039657791263368836e+02
2.285902898637699909e+00 6.040039562187697584e+02
2.286002920642541181e+00 6.040403928819498560e+02
2.286102942647382008e+00 6.040750703858054749e+02
2.286202964652223280e+00 6.041079706029842100e+02
2.286302986657064551e+00 6.041390760224272753e+02
2.286403008661905378e+00 6.041683697626707499e+02
2.286503030666746650e+00 6.041958355848728388e+02
2.286603052671587477e+00 6.042214579055472541e+02
2.286703074676428749e+00 6.042452218090066935e+02
2.286803096681269576e+00 6.042671130595043678e+02
2.286903118686110847e+00 6.042871181130591367e+02
2.287003140690951675e+00 6.043052241289678932e+02
2.287103162695792946e+00 6.043214189809892787e+02
2.287203184700634218e+00 6.043356912681927042e+02
2.287303206705475045e+00 6.043480303254723367e+02
2.287403228710315872e+00 6.043584262337085420e+02
2.287503250715157144e+00 6.043668698295764443e+02
2.287603272719998415e+00 6.043733527149933025e+02
2.287703294724839242e+00 6.043778672662019744e+02
2.287803316729680514e+00 6.043804066424726216e+02
2.287903338734521341e+00 6.043809647944336803e+02
2.288003360739362613e+00 6.043795364720098178e+02
2.288103382744203440e+00 6.043761172319721027e+02
2.288203404749044712e+00 6.043707034450868605e+02
2.288303426753885539e+00 6.043632923028678761e+02
2.288403448758726810e+00 6.043538818239140937e+02
2.288503470763568082e+00 6.043424708598395227e+02
2.288603492768408909e+00 6.043290591007825014e+02
2.288703514773249736e+00 6.043136470804918190e+02
2.288803536778091008e+00 6.042962361809906042e+02
2.288903558782932279e+00 6.042768286368051349e+02
2.289003580787773107e+00 6.042554275387597045e+02
2.289103602792614378e+00 6.042320368373361816e+02
2.289203624797455205e+00 6.042066613455858715e+02
2.289303646802296477e+00 6.041793067416034546e+02
2.289403668807137304e+00 6.041499795705465203e+02
2.289503690811978576e+00 6.041186872462072870e+02
2.289603712816819403e+00 6.040854380521304847e+02
2.289703734821660674e+00 6.040502411422746718e+02
2.289803756826501946e+00 6.040131065412167573e+02
2.289903778831342773e+00 6.039740451438952960e+02
2.290003800836184045e+00 6.039330687148940342e+02
2.290103822841024872e+00 6.038901898872627498e+02
2.290203844845865699e+00 6.038454221608723174e+02
2.290303866850706971e+00 6.037987799003074088e+02
2.290403888855548242e+00 6.037502783322918276e+02
2.290503910860389070e+00 6.036999335426520474e+02
2.290603932865230341e+00 6.036477624728111095e+02
2.290703954870071613e+00 6.035937829158169734e+02
2.290803976874911996e+00 6.035380135119073657e+02
2.290903998879753267e+00 6.034804737436127198e+02
2.291004020884594539e+00 6.034211839303887928e+02
2.291104042889435366e+00 6.033601652227919203e+02
2.291204064894276637e+00 6.032974395961903156e+02
2.291304086899117909e+00 6.032330298440197112e+02
2.291404108903958736e+00 6.031669595705758411e+02
2.291504130908799564e+00 6.030992531833560406e+02
2.291604152913640835e+00 6.030299358849456439e+02
2.291704174918481662e+00 6.029590336644540685e+02
2.291804196923322934e+00 6.028865732885051330e+02
2.291904218928164205e+00 6.028125822917793357e+02
2.292004240933005033e+00 6.027370889671198029e+02
2.292104262937846304e+00 6.026601223551957673e+02
2.292204284942687131e+00 6.025817122337385854e+02
2.292304306947528403e+00 6.025018891063414230e+02
2.292404328952369230e+00 6.024206841908405750e+02
2.292504350957210502e+00 6.023381294072727314e+02
2.292604372962051329e+00 6.022542573654169473e+02
2.292704394966892600e+00 6.021691013519258604e+02
2.292804416971733428e+00 6.020826953170559364e+02
2.292904438976574699e+00 6.019950738609906011e+02
2.293004460981415527e+00 6.019062722197769517e+02
2.293104482986256798e+00 6.018163262508717253e+02
2.293204504991098069e+00 6.017252724183014152e+02
2.293304526995938897e+00 6.016331477774588166e+02
2.293404549000780168e+00 6.015399899595173565e+02
2.293504571005620996e+00 6.014458371554921996e+02
2.293604593010462267e+00 6.013507280999490376e+02
2.293704615015303094e+00 6.012547020543553344e+02
2.293804637020144366e+00 6.011577987901039251e+02
2.293904659024985193e+00 6.010600585711970325e+02
2.294004681029826465e+00 6.009615221366110518e+02
2.294104703034667736e+00 6.008622306823394865e+02
2.294204725039508563e+00 6.007622258431355249e+02
2.294304747044349391e+00 6.006615496739518676e+02
2.294404769049190662e+00 6.005602446310879259e+02
2.294504791054031934e+00 6.004583535530637164e+02
2.294604813058872761e+00 6.003559196412097663e+02
2.294704835063714032e+00 6.002529864400046336e+02
2.294804857068554860e+00 6.001495978171523120e+02
2.294904879073395687e+00 6.000457979434165736e+02
2.295004901078236959e+00 5.999416312722228213e+02
2.295104923083078230e+00 5.998371425190321133e+02
2.295204945087919057e+00 5.997323766405027072e+02
2.295304967092760329e+00 5.996273788134454890e+02
2.295404989097601600e+00 5.995221944135872718e+02
2.295505011102442428e+00 5.994168689941471939e+02
2.295605033107283255e+00 5.993114482642417897e+02
2.295705055112124526e+00 5.992059780671278304e+02
2.295805077116965354e+00 5.991005043582898679e+02
2.295905099121806625e+00 5.989950731833910140e+02
2.296005121126647897e+00 5.988897306560904781e+02
2.296105143131488724e+00 5.987845229357455992e+02
2.296205165136329995e+00 5.986794962049991682e+02
2.296305187141170823e+00 5.985746966472790973e+02
2.296405209146011650e+00 5.984701704242070264e+02
2.296505231150852921e+00 5.983659636529338286e+02
2.296605253155694193e+00 5.982621223834147486e+02
2.296705275160535020e+00 5.981586925756336086e+02
2.296805297165376292e+00 5.980557200767850645e+02
2.296905319170217563e+00 5.979532505984343516e+02
2.297005341175058390e+00 5.978513296936555435e+02
2.297105363179899218e+00 5.977500027341731084e+02
2.297205385184740489e+00 5.976493148875025554e+02
2.297305407189581317e+00 5.975493110941197301e+02
2.297405429194422588e+00 5.974500360446559171e+02
2.297505451199263860e+00 5.973515341571380759e+02
2.297605473204104687e+00 5.972538495542844430e+02
2.297705495208945514e+00 5.971570260408682316e+02
2.297805517213786786e+00 5.970611070811579566e+02
2.297905539218628057e+00 5.969661357764537115e+02
2.298005561223468884e+00 5.968721548427183734e+02
2.298105583228310156e+00 5.967792065883334089e+02
2.298205605233150983e+00 5.966873328919702999e+02
2.298305627237992255e+00 5.965965751806104436e+02
2.298405649242833082e+00 5.965069744077086398e+02
2.298505671247674353e+00 5.964185710315190363e+02
2.298605693252515181e+00 5.963314049935976300e+02
2.298705715257356452e+00 5.962455156974845067e+02
2.298805737262197724e+00 5.961609419875884441e+02
2.298905759267038551e+00 5.960777221282742175e+02
2.299005781271879822e+00 5.959958937831709136e+02
2.299105803276720650e+00 5.959154939947119374e+02
2.299205825281561921e+00 5.958365591639144441e+02
2.299305847286402749e+00 5.957591250304133155e+02
2.299405869291244020e+00 5.956832266527579804e+02
2.299505891296084847e+00 5.956088983889831070e+02
2.299605913300926119e+00 5.955361738774653304e+02
2.299705935305767390e+00 5.954650860180760219e+02
2.299805957310608218e+00 5.953956669536421487e+02
2.299905979315449045e+00 5.953279480517174989e+02
2.300006001320290316e+00 5.952619598866917840e+02
2.300106023325131588e+00 5.951977322222245448e+02
2.300206045329972415e+00 5.951352939940368287e+02
2.300306067334813687e+00 5.950746732930533653e+02
2.300406089339654514e+00 5.950158973489117216e+02
2.300506111344495341e+00 5.949589925138509443e+02
2.300606133349336613e+00 5.949039842469837822e+02
2.300706155354177884e+00 5.948508970989589670e+02
2.300806177359018712e+00 5.947997546970345866e+02
2.300906199363859983e+00 5.947505797305566375e+02
2.301006221368701254e+00 5.947033939368639039e+02
2.301106243373542082e+00 5.946582180876151824e+02
2.301206265378382909e+00 5.946150719755605678e+02
2.301306287383224181e+00 5.945739744017532757e+02
2.301406309388065008e+00 5.945349431632130290e+02
2.301506331392906279e+00 5.944979950410584024e+02
2.301606353397747551e+00 5.944631457890923230e+02
2.301706375402588378e+00 5.944304101228779018e+02
2.301806397407429650e+00 5.943998017092834516e+02
2.301906419412270477e+00 5.943713331565223825e+02
2.302006441417111304e+00 5.943450160046852488e+02
2.302106463421952576e+00 5.943208607167754280e+02
2.302206485426793847e+00 5.942988766702428620e+02
2.302306507431634675e+00 5.942790721490422357e+02
2.302406529436475946e+00 5.942614543362001314e+02
2.302506551441317217e+00 5.942460293069045747e+02
2.302606573446158045e+00 5.942328020221302722e+02
2.302706595450998872e+00 5.942217763227854448e+02
2.302806617455840144e+00 5.942129549244040163e+02
2.302906639460680971e+00 5.942063394123724720e+02
2.303006661465522242e+00 5.942019302377052554e+02
2.303106683470363514e+00 5.941997267133668856e+02
2.303206705475204341e+00 5.941997270111423859e+02
2.303306727480045168e+00 5.942019281590679611e+02
2.303406749484886440e+00 5.942063260394147619e+02
2.303506771489727711e+00 5.942129153872301686e+02
2.303606793494568539e+00 5.942216897894481917e+02
2.303706815499409810e+00 5.942326416845550057e+02
2.303806837504250637e+00 5.942457623628237116e+02
2.303906859509091909e+00 5.942610419671159434e+02
2.304006881513932736e+00 5.942784694942507713e+02
2.304106903518774008e+00 5.942980327969388554e+02
2.304206925523614835e+00 5.943197185862889000e+02
2.304306947528456107e+00 5.943435124348799263e+02
2.304406969533297378e+00 5.943693987804053904e+02
2.304506991538138205e+00 5.943973609298814154e+02
2.304607013542979477e+00 5.944273810644264131e+02
2.304707035547820304e+00 5.944594402446026606e+02
2.304807057552661576e+00 5.944935184163297208e+02
2.304907079557502403e+00 5.945295944173518592e+02
2.305007101562343674e+00 5.945676459842768509e+02
2.305107123567184502e+00 5.946076497601662822e+02
2.305207145572025773e+00 5.946495813026887163e+02
2.305307167576867045e+00 5.946934150928218514e+02
2.305407189581707872e+00 5.947391245441104957e+02
2.305507211586548699e+00 5.947866820124677361e+02
2.305607233591389971e+00 5.948360588065246475e+02
2.305707255596231242e+00 5.948872251985158073e+02
2.305807277601072069e+00 5.949401504357036856e+02
2.305907299605913341e+00 5.949948027523339533e+02
2.306007321610754168e+00 5.950511493821165914e+02
2.306107343615594996e+00 5.951091565712295051e+02
2.306207365620436267e+00 5.951687895918373670e+02
2.306307387625277538e+00 5.952300127561235286e+02
2.306407409630118366e+00 5.952927894308223813e+02
2.306507431634959637e+00 5.953570820522569420e+02
2.306607453639800909e+00 5.954228521418604032e+02
2.306707475644641736e+00 5.954900603221919937e+02
2.306807497649482563e+00 5.955586663334255491e+02
2.306907519654323835e+00 5.956286290503102236e+02
2.307007541659164662e+00 5.956999064995989102e+02
2.307107563664005934e+00 5.957724558779293602e+02
2.307207585668847205e+00 5.958462335701537995e+02
2.307307607673688032e+00 5.959211951681124901e+02
2.307407629678529304e+00 5.959972954898344142e+02
2.307507651683370131e+00 5.960744885991642832e+02
2.307607673688210959e+00 5.961527278258030265e+02
2.307707695693052230e+00 5.962319657857515267e+02
2.307807717697893501e+00 5.963121544021548743e+02
2.307907739702734329e+00 5.963932449265278137e+02
2.308007761707575600e+00 5.964751879603591078e+02
2.308107783712416872e+00 5.965579334770828837e+02
2.308207805717257699e+00 5.966414308444050221e+02
2.308307827722098526e+00 5.967256288469757237e+02
2.308407849726939798e+00 5.968104757093994976e+02
2.308507871731780625e+00 5.968959191195664289e+02
2.308607893736621897e+00 5.969819062522996092e+02
2.308707915741463168e+00 5.970683837933032692e+02
2.308807937746303995e+00 5.971552979634054736e+02
2.308907959751144823e+00 5.972425945430765069e+02
2.309007981755986094e+00 5.973302188972174918e+02
2.309108003760827366e+00 5.974181160002063962e+02
2.309208025765668193e+00 5.975062304611849413e+02
2.309308047770509464e+00 5.975945065495843664e+02
2.309408069775350292e+00 5.976828882208608320e+02
2.309508091780191563e+00 5.977713191424517163e+02
2.309608113785032391e+00 5.978597427199167669e+02
2.309708135789873662e+00 5.979481021232651301e+02
2.309808157794714489e+00 5.980363403134560940e+02
2.309908179799555761e+00 5.981244000690510347e+02
2.310008201804397032e+00 5.982122240130157707e+02
2.310108223809237860e+00 5.982997546396486541e+02
2.310208245814078687e+00 5.983869343416287165e+02
2.310308267818919958e+00 5.984737054371726117e+02
2.310408289823761230e+00 5.985600101972783023e+02
2.310508311828602057e+00 5.986457908730485542e+02
2.310608333833443329e+00 5.987309897230827573e+02
2.310708355838284156e+00 5.988155490409142203e+02
2.310808377843125427e+00 5.988994111824940774e+02
2.310908399847966255e+00 5.989825185936898606e+02
2.311008421852807526e+00 5.990648138378060139e+02
2.311108443857648354e+00 5.991462396230916738e+02
2.311208465862489625e+00 5.992267388302394693e+02
2.311308487867330896e+00 5.993062545398545353e+02
2.311408509872171724e+00 5.993847300598746415e+02
2.311508531877012995e+00 5.994621089529392748e+02
2.311608553881853823e+00 5.995383350636869864e+02
2.311708575886694650e+00 5.996133525459657676e+02
2.311808597891535921e+00 5.996871058899504305e+02
2.311908619896377193e+00 5.997595399491453918e+02
2.312008641901218020e+00 5.998305999672638791e+02
2.312108663906059292e+00 5.999002316049707133e+02
2.312208685910900563e+00 5.999683809664704768e+02
2.312308707915740946e+00 6.000349946259347007e+02
2.312408729920582218e+00 6.001000196537486318e+02
2.312508751925423489e+00 6.001634036425659815e+02
2.312608773930264316e+00 6.002250947331626776e+02
2.312708795935105588e+00 6.002850416400697213e+02
2.312808817939946859e+00 6.003431936769777622e+02
2.312908839944787687e+00 6.003995007818987233e+02
2.313008861949628514e+00 6.004539135420690172e+02
2.313108883954469785e+00 6.005063832185885531e+02
2.313208905959310613e+00 6.005568617707738213e+02
2.313308927964151884e+00 6.006053018802203951e+02
2.313408949968993156e+00 6.006516569745607512e+02
2.313508971973833983e+00 6.006958812509017207e+02
2.313608993978675255e+00 6.007379296989328168e+02
2.313709015983516082e+00 6.007777581236948663e+02
2.313809037988357353e+00 6.008153231679921191e+02
2.313909059993198181e+00 6.008505823344446526e+02
2.314009081998039452e+00 6.008834940071578785e+02
2.314109104002880279e+00 6.009140174730113131e+02
2.314209126007721551e+00 6.009421129425456911e+02
2.314309148012562822e+00 6.009677415704412624e+02
2.314409170017403650e+00 6.009908654755790849e+02
2.314509192022244477e+00 6.010114477606681476e+02
2.314609214027085748e+00 6.010294525314373004e+02
2.314709236031927020e+00 6.010448449153716410e+02
2.314809258036767847e+00 6.010575910799942676e+02
2.314909280041609119e+00 6.010676582506753221e+02
2.315009302046449946e+00 6.010750147279643443e+02
2.315109324051291217e+00 6.010796299044320676e+02
2.315209346056132045e+00 6.010814742810202915e+02
2.315309368060973316e+00 6.010805194828783442e+02
2.315409390065814144e+00 6.010767382746971634e+02
2.315509412070655415e+00 6.010701045755112091e+02
2.315609434075496686e+00 6.010605934729775299e+02
2.315709456080337514e+00 6.010481812371135675e+02
2.315809478085178341e+00 6.010328453334927872e+02
2.315909500090019613e+00 6.010145644358874506e+02
2.316009522094860884e+00 6.009933184383548905e+02
2.316109544099701711e+00 6.009690884667547834e+02
2.316209566104542983e+00 6.009418568896975330e+02
2.316309588109383810e+00 6.009116073289189899e+02
2.316409610114225082e+00 6.008783246690650230e+02
2.316509632119065909e+00 6.008419950668939009e+02
2.316609654123907180e+00 6.008026059598793154e+02
2.316709676128748008e+00 6.007601460742221207e+02
2.316809698133589279e+00 6.007146054322533928e+02
2.316909720138430551e+00 6.006659753592333573e+02
2.317009742143271378e+00 6.006142484895391362e+02
2.317109764148112649e+00 6.005594187722348352e+02
2.317209786152953477e+00 6.005014814760273794e+02
2.317309808157794304e+00 6.004404331936005974e+02
2.317409830162635576e+00 6.003762718453244815e+02
2.317509852167476847e+00 6.003089966823375789e+02
2.317609874172317674e+00 6.002386082890037642e+02
2.317709896177158946e+00 6.001651085847362310e+02
2.317809918182000217e+00 6.000885008251927957e+02
2.317909940186840601e+00 6.000087896028338719e+02
2.318009962191681872e+00 5.999259808468543724e+02
2.318109984196523143e+00 5.998400818224745308e+02
2.318210006201363971e+00 5.997511011295998742e+02
2.318310028206205242e+00 5.996590487008453465e+02
2.318410050211046514e+00 5.995639357989290374e+02
2.318510072215887341e+00 5.994657750134289245e+02
2.318610094220728168e+00 5.993645802569111538e+02
2.318710116225569440e+00 5.992603667604244038e+02
2.318810138230410267e+00 5.991531510683691977e+02
2.318910160235251539e+00 5.990429510327364824e+02
2.319010182240092810e+00 5.989297858067252491e+02
2.319110204244933637e+00 5.988136758377359001e+02
2.319210226249774909e+00 5.986946428597452723e+02
2.319310248254615736e+00 5.985727098850669563e+02
2.319410270259457008e+00 5.984479011954995258e+02
2.319510292264297835e+00 5.983202423328634723e+02
2.319610314269139106e+00 5.981897600889385558e+02
2.319710336273979934e+00 5.980564824947979332e+02
2.319810358278821205e+00 5.979204388095508875e+02
2.319910380283662477e+00 5.977816595084922255e+02
2.320010402288503304e+00 5.976401762706705085e+02
2.320110424293344131e+00 5.974960219658762526e+02
2.320210446298185403e+00 5.973492306410569199e+02
2.320310468303026674e+00 5.971998375061654087e+02
2.320410490307867502e+00 5.970478789194525007e+02
2.320510512312708773e+00 5.968933923721990595e+02
2.320610534317549600e+00 5.967364164729106051e+02
2.320710556322390872e+00 5.965769909309663035e+02
2.320810578327231699e+00 5.964151565397404511e+02
2.320910600332072971e+00 5.962509551592013395e+02
2.321010622336913798e+00 5.960844296979942101e+02
2.321110644341755069e+00 5.959156240950172787e+02
2.321210666346596341e+00 5.957445833005024269e+02
2.321310688351437168e+00 5.955713532566046524e+02
2.321410710356277995e+00 5.953959808775135798e+02
2.321510732361119267e+00 5.952185140290929439e+02
2.321610754365960538e+00 5.950390015080653257e+02
2.321710776370801366e+00 5.948574930207380476e+02
2.321810798375642637e+00 5.946740391612939902e+02
2.321910820380483464e+00 5.944886913896534679e+02
2.322010842385324736e+00 5.943015020089131895e+02
2.322110864390165563e+00 5.941125241423792431e+02
2.322210886395006835e+00 5.939218117101999042e+02
2.322310908399847662e+00 5.937294194056169090e+02
2.322410930404688933e+00 5.935354026708342872e+02
2.322510952409530205e+00 5.933398176725324902e+02
2.322610974414371032e+00 5.931427212770240658e+02
2.322710996419212304e+00 5.929441710250733877e+02
2.322811018424053131e+00 5.927442251063856702e+02
2.322911040428893958e+00 5.925429423337874368e+02
2.323011062433735230e+00 5.923403821170950323e+02
2.323111084438576501e+00 5.921366044366992583e+02
2.323211106443417329e+00 5.919316698168731818e+02
2.323311128448258600e+00 5.917256392988077778e+02
2.323411150453099872e+00 5.915185744134082597e+02
2.323511172457940255e+00 5.913105371538415511e+02
2.323611194462781526e+00 5.911015899478618394e+02
2.323711216467622798e+00 5.908917956299287653e+02
2.323811238472463625e+00 5.906812174131198390e+02
2.323911260477304896e+00 5.904699188608661871e+02
2.324011282482146168e+00 5.902579638585111752e+02
2.324111304486986995e+00 5.900454165847156673e+02
2.324211326491827823e+00 5.898323414827191300e+02
2.324311348496669094e+00 5.896188032314689735e+02
2.324411370501509921e+00 5.894048667166413225e+02
2.324511392506351193e+00 5.891905970015504863e+02
2.324611414511192464e+00 5.889760592979828289e+02
2.324711436516033292e+00 5.887613189369482143e+02
2.324811458520874563e+00 5.885464413393776795e+02
2.324911480525715390e+00 5.883314919867746084e+02
2.325011502530556662e+00 5.881165363918369167e+02
2.325111524535397489e+00 5.879016400690627506e+02
2.325211546540238761e+00 5.876868685053550507e+02
2.325311568545079588e+00 5.874722871306349816e+02
2.325411590549920859e+00 5.872579612884894686e+02
2.325511612554762131e+00 5.870439562068517034e+02
2.325611634559602958e+00 5.868303369687429267e+02
2.325711656564443786e+00 5.866171684830802633e+02
2.325811678569285057e+00 5.864045154555699355e+02
2.325911700574126328e+00 5.861924423596969973e+02
2.326011722578967156e+00 5.859810134078276178e+02
2.326111744583808427e+00 5.857702925224406272e+02
2.326211766588649255e+00 5.855603433074871873e+02
2.326311788593490526e+00 5.853512290199233803e+02
2.326411810598331353e+00 5.851430125413884298e+02
2.326511832603172625e+00 5.849357563500838069e+02
2.326611854608013452e+00 5.847295224928345760e+02
2.326711876612854724e+00 5.845243725573616302e+02
2.326811898617695995e+00 5.843203676447809585e+02
2.326911920622536822e+00 5.841175683423305145e+02
2.327011942627377650e+00 5.839160346963520851e+02
2.327111964632218921e+00 5.837158261855307728e+02
2.327211986637060193e+00 5.835170016944073268e+02
2.327312008641901020e+00 5.833196194871831040e+02
2.327412030646742291e+00 5.831237371818200472e+02
2.327512052651583119e+00 5.829294117244552353e+02
2.327612074656423946e+00 5.827366993641383033e+02
2.327712096661265218e+00 5.825456556279075357e+02
2.327812118666106489e+00 5.823563352962129329e+02
2.327912140670947316e+00 5.821687923787021646e+02
2.328012162675788588e+00 5.819830800903777117e+02
2.328112184680629859e+00 5.817992508281352002e+02
2.328212206685470687e+00 5.816173561477005478e+02
2.328312228690311514e+00 5.814374467409742238e+02
2.328412250695152785e+00 5.812595724137846673e+02
2.328512272699993613e+00 5.810837820640776954e+02
2.328612294704834884e+00 5.809101236605418990e+02
2.328712316709676156e+00 5.807386442216784417e+02
2.328812338714516983e+00 5.805693897953324267e+02
2.328912360719358254e+00 5.804024054386936768e+02
2.329012382724199082e+00 5.802377351987678367e+02
2.329112404729039909e+00 5.800754220933451961e+02
2.329212426733881180e+00 5.799155080924539334e+02
2.329312448738722452e+00 5.797580341003281319e+02
2.329412470743563279e+00 5.796030399378782931e+02
2.329512492748404551e+00 5.794505643256948133e+02
2.329612514753245822e+00 5.793006448675685078e+02
2.329712536758086650e+00 5.791533180345614937e+02
2.329812558762927477e+00 5.790086191496080801e+02
2.329912580767768748e+00 5.788665823726812505e+02
2.330012602772609576e+00 5.787272406865070025e+02
2.330112624777450847e+00 5.785906258828508726e+02
2.330212646782292119e+00 5.784567685493721001e+02
2.330312668787132946e+00 5.783256980570571386e+02
2.330412690791973773e+00 5.781974425482370634e+02
2.330512712796815045e+00 5.780720289251910344e+02
2.330612734801656316e+00 5.779494828393480930e+02
2.330712756806497143e+00 5.778298286810843365e+02
2.330812778811338415e+00 5.777130895701247937e+02
2.330912800816179242e+00 5.775992873465540924e+02
2.331012822821020514e+00 5.774884425624370579e+02
2.331112844825861341e+00 5.773805744740558339e+02
2.331212866830702612e+00 5.772757010347656887e+02
2.331312888835543440e+00 5.771738388884724600e+02
2.331412910840384711e+00 5.770750033637335719e+02
2.331512932845225983e+00 5.769792084684894462e+02
2.331612954850066810e+00 5.768864668854181446e+02
2.331712976854908081e+00 5.767967899679268839e+02
2.331812998859748909e+00 5.767101877367708767e+02
2.331913020864590180e+00 5.766266688773092710e+02
2.332013042869431008e+00 5.765462407373951237e+02
2.332113064874272279e+00 5.764689093258942876e+02
2.332213086879113106e+00 5.763946793118503820e+02
2.332313108883954378e+00 5.763235540242731076e+02
2.332413130888795649e+00 5.762555354525683242e+02
2.332513152893636477e+00 5.761906242476007947e+02
2.332613174898477304e+00 5.761288197233867550e+02
2.332713196903318575e+00 5.760701198594198331e+02
2.332813218908159847e+00 5.760145213036272480e+02
2.332913240913000674e+00 5.759620193759521953e+02
2.333013262917841946e+00 5.759126080725609427e+02
2.333113284922682773e+00 5.758662800706753160e+02
2.333213306927523600e+00 5.758230267340221644e+02
2.333313328932364872e+00 5.757828381189005995e+02
2.333413350937206143e+00 5.757457029808617790e+02
2.333513372942046971e+00 5.757116087819974837e+02
2.333613394946888242e+00 5.756805416988356683e+02
2.333713416951729513e+00 5.756524866308317314e+02
2.333813438956570341e+00 5.756274272094625530e+02
2.333913460961411168e+00 5.756053458079045413e+02
2.334013482966252440e+00 5.755862235513005771e+02
2.334113504971093267e+00 5.755700403276058523e+02
2.334213526975934538e+00 5.755567747990083944e+02
2.334313548980775810e+00 5.755464044139152975e+02
2.334413570985616637e+00 5.755389054195026119e+02
2.334513592990457909e+00 5.755342528748188897e+02
2.334613614995298736e+00 5.755324206644326068e+02
2.334713637000139563e+00 5.755333815126278978e+02
2.334813659004980835e+00 5.755371069981238179e+02
2.334913681009822106e+00 5.755435675693240682e+02
2.335013703014662934e+00 5.755527325600843369e+02
2.335113725019504205e+00 5.755645702059816813e+02
2.335213747024345476e+00 5.755790476610917494e+02
2.335313769029186304e+00 5.755961310152514443e+02
2.335413791034027131e+00 5.756157853118064622e+02
2.335513813038868403e+00 5.756379745658327920e+02
2.335613835043709230e+00 5.756626617828155759e+02
2.335713857048550501e+00 5.756898089777905625e+02
2.335813879053391773e+00 5.757193771949224583e+02
2.335913901058232600e+00 5.757513265275186995e+02
2.336013923063073427e+00 5.757856161384680718e+02
2.336113945067914699e+00 5.758222042810908761e+02
2.336213967072755970e+00 5.758610483203906369e+02
2.336313989077596798e+00 5.759021047546976888e+02
2.336414011082438069e+00 5.759453292376920217e+02
2.336514033087278897e+00 5.759906766007958367e+02
2.336614055092120168e+00 5.760381008759212591e+02
2.336714077096960995e+00 5.760875553185676381e+02
2.336814099101802267e+00 5.761389924312461517e+02
2.336914121106643094e+00 5.761923639872337617e+02
2.337014143111484366e+00 5.762476210546301445e+02
2.337114165116325637e+00 5.763047140207173697e+02
2.337214187121166464e+00 5.763635926166010677e+02
2.337314209126007736e+00 5.764242059421248996e+02
2.337414231130848563e+00 5.764865024910493503e+02
2.337514253135689835e+00 5.765504301764692627e+02
2.337614275140530662e+00 5.766159363564739806e+02
2.337714297145371933e+00 5.766829678600245188e+02
2.337814319150212761e+00 5.767514710130409412e+02
2.337914341155054032e+00 5.768213916646828920e+02
2.338014363159895304e+00 5.768926752138164602e+02
2.338114385164736131e+00 5.769652666356439568e+02
2.338214407169576958e+00 5.770391105084959236e+02
2.338314429174418230e+00 5.771141510407571786e+02
2.338414451179259501e+00 5.771903320979298542e+02
2.338514473184100328e+00 5.772675972298043234e+02
2.338614495188941600e+00 5.773458896977371069e+02
2.338714517193782427e+00 5.774251525020129066e+02
2.338814539198623255e+00 5.775053284092819013e+02
2.338914561203464526e+00 5.775863599800588872e+02
2.339014583208305798e+00 5.776681895962678936e+02
2.339114605213146625e+00 5.777507594888209042e+02
2.339214627217987896e+00 5.778340117652161325e+02
2.339314649222829168e+00 5.779178884371406184e+02
2.339414671227669995e+00 5.780023314480699810e+02
2.339514693232510822e+00 5.780872827008399781e+02
2.339614715237352094e+00 5.781726840851896441e+02
2.339714737242192921e+00 5.782584775052516761e+02
2.339814759247034193e+00 5.783446049069826813e+02
2.339914781251875464e+00 5.784310083055197538e+02
2.340014803256716291e+00 5.785176298124434879e+02
2.340114825261557563e+00 5.786044116629450400e+02
2.340214847266398390e+00 5.786912962428725677e+02
2.340314869271239218e+00 5.787782261156519326e+02
2.340414891276080489e+00 5.788651440490667710e+02
2.340514913280921760e+00 5.789519930418790636e+02
2.340614935285762588e+00 5.790387163502887233e+02
2.340714957290603859e+00 5.791252575142076466e+02
2.340814979295445131e+00 5.792115603833432260e+02
2.340915001300285958e+00 5.792975691430751795e+02
2.341015023305126785e+00 5.793832283401147834e+02
2.341115045309968057e+00 5.794684829079330939e+02
2.341215067314808884e+00 5.795532781919474701e+02
2.341315089319650156e+00 5.796375599744536657e+02
2.341415111324491427e+00 5.797212744992862099e+02
2.341515133329332254e+00 5.798043684962102589e+02
2.341615155334173082e+00 5.798867892050124055e+02
2.341715177339014353e+00 5.799684843993002232e+02
2.341815199343855625e+00 5.800494024099775743e+02
2.341915221348696452e+00 5.801294921484104634e+02
2.342015243353537723e+00 5.802087031292435313e+02
2.342115265358378551e+00 5.802869854928821951e+02
2.342215287363219822e+00 5.803642900276113323e+02
2.342315309368060650e+00 5.804405681913524404e+02
2.342415331372901921e+00 5.805157721330417644e+02
2.342515353377742748e+00 5.805898547136230263e+02
2.342615375382584020e+00 5.806627695266424780e+02
2.342715397387425291e+00 5.807344709184417297e+02
2.342815419392266119e+00 5.808049140079299377e+02
2.342915441397107390e+00 5.808740547059377377e+02
2.343015463401948217e+00 5.809418497341359853e+02
2.343115485406789489e+00 5.810082566435090712e+02
2.343215507411630316e+00 5.810732338323887234e+02
2.343315529416471588e+00 5.811367405640164634e+02
2.343415551421312415e+00 5.811987369836512016e+02
2.343515573426153686e+00 5.812591841351968469e+02
2.343615595430994958e+00 5.813180439773532271e+02
2.343715617435835785e+00 5.813752793992765646e+02
2.343815639440676613e+00 5.814308542357441638e+02
2.343915661445517884e+00 5.814847332818204677e+02
2.344015683450359155e+00 5.815368823070140252e+02
2.344115705455199983e+00 5.815872680689197978e+02
2.344215727460041254e+00 5.816358583263430546e+02
2.344315749464882082e+00 5.816826218518986025e+02
2.344415771469722909e+00 5.817275284440756877e+02
2.344515793474564180e+00 5.817705489387717535e+02
2.344615815479405452e+00 5.818116552202870935e+02
2.344715837484246279e+00 5.818508202317682390e+02
2.344815859489087551e+00 5.818880179851100820e+02
2.344915881493928822e+00 5.819232235703013885e+02
2.345015903498769205e+00 5.819564131642152915e+02
2.345115925503610477e+00 5.819875640388398779e+02
2.345215947508451748e+00 5.820166545689488657e+02
2.345315969513292575e+00 5.820436642392041904e+02
2.345415991518133847e+00 5.820685736506919739e+02
2.345516013522975118e+00 5.820913645268904020e+02
2.345616035527815946e+00 5.821120197190680301e+02
2.345716057532656773e+00 5.821305232111005807e+02
2.345816079537498045e+00 5.821468601237245366e+02
2.345916101542338872e+00 5.821610167182124087e+02
2.346016123547180143e+00 5.821729803994649046e+02
2.346116145552021415e+00 5.821827397185400059e+02
2.346216167556862242e+00 5.821902843745945120e+02
2.346316189561703514e+00 5.821956052162574906e+02
2.346416211566544341e+00 5.821986942424248355e+02
2.346516233571385612e+00 5.821995446024789089e+02
2.346616255576226440e+00 5.821981505959386141e+02
2.346716277581067711e+00 5.821945076715339837e+02
2.346816299585908538e+00 5.821886124257101756e+02
2.346916321590749810e+00 5.821804626005673526e+02
2.347016343595591081e+00 5.821700570812322439e+02
2.347116365600431909e+00 5.821573958926626347e+02
2.347216387605272736e+00 5.821424801958985427e+02
2.347316409610114007e+00 5.821253122837506453e+02
2.347416431614955279e+00 5.821058955759360742e+02
2.347516453619796106e+00 5.820842346136621472e+02
2.347616475624637378e+00 5.820603350536694052e+02
2.347716497629478205e+00 5.820342036617233816e+02
2.347816519634319476e+00 5.820058483055775014e+02
2.347916541639160304e+00 5.819752779473955115e+02
2.348016563644001575e+00 5.819425026356507260e+02
2.348116585648842403e+00 5.819075334965004913e+02
2.348216607653683674e+00 5.818703827246432638e+02
2.348316629658524946e+00 5.818310635736640961e+02
2.348416651663365773e+00 5.817895903458767179e+02
2.348516673668206600e+00 5.817459783816603931e+02
2.348616695673047872e+00 5.817002440483131522e+02
2.348716717677889143e+00 5.816524047284109429e+02
2.348816739682729970e+00 5.816024788076906589e+02
2.348916761687571242e+00 5.815504856624622789e+02
2.349016783692412069e+00 5.814964456465551166e+02
2.349116805697253341e+00 5.814403800778072764e+02
2.349216827702094168e+00 5.813823112241082072e+02
2.349316849706935439e+00 5.813222622889963986e+02
2.349416871711776267e+00 5.812602573968285924e+02
2.349516893716617538e+00 5.811963215775232356e+02
2.349616915721458810e+00 5.811304807508879549e+02
2.349716937726299637e+00 5.810627617105417357e+02
2.349816959731140908e+00 5.809931921074369257e+02
2.349916981735981736e+00 5.809218004329998166e+02
2.350017003740822563e+00 5.808486160018829878e+02
2.350117025745663835e+00 5.807736689343561238e+02
2.350217047750505106e+00 5.806969901383343995e+02
2.350317069755345933e+00 5.806186112910565953e+02
2.350417091760187205e+00 5.805385648204271547e+02
2.350517113765028476e+00 5.804568838860265032e+02
2.350617135769868860e+00 5.803736023598016800e+02
2.350717157774710131e+00 5.802887548064511520e+02
2.350817179779551402e+00 5.802023764635152929e+02
2.350917201784392230e+00 5.801145032211687749e+02
2.351017223789233501e+00 5.800251716017523904e+02
2.351117245794074773e+00 5.799344187390279330e+02
2.351217267798915600e+00 5.798422823571864910e+02
2.351317289803756427e+00 5.797488007496101545e+02
2.351417311808597699e+00 5.796540127574070311e+02
2.351517333813438526e+00 5.795579577477211615e+02
2.351617355818279798e+00 5.794606755918425733e+02
2.351717377823121069e+00 5.793622066431108806e+02
2.351817399827961896e+00 5.792625917146431220e+02
2.351917421832803168e+00 5.791618720568840217e+02
2.352017443837643995e+00 5.790600893349950411e+02
2.352117465842485267e+00 5.789572856060970025e+02
2.352217487847326094e+00 5.788535032963735603e+02
2.352317509852167365e+00 5.787487851780477968e+02
2.352417531857008193e+00 5.786431743462504755e+02
2.352517553861849464e+00 5.785367141957799504e+02
2.352617575866690736e+00 5.784294483977802201e+02
2.352717597871531563e+00 5.783214208763357647e+02
2.352817619876372390e+00 5.782126757850068088e+02
2.352917641881213662e+00 5.781032574833053559e+02
2.353017663886054933e+00 5.779932105131351818e+02
2.353117685890895761e+00 5.778825795752044314e+02
2.353217707895737032e+00 5.777714095054146810e+02
2.353317729900577859e+00 5.776597452512510245e+02
2.353417751905419131e+00 5.775476318481788667e+02
2.353517773910259958e+00 5.774351143960581112e+02
2.353617795915101230e+00 5.773222380355909991e+02
2.353717817919942057e+00 5.772090479248123529e+02
2.353817839924783328e+00 5.770955892156317759e+02
2.353917861929624600e+00 5.769819070304511115e+02
2.354017883934465427e+00 5.768680464388501150e+02
2.354117905939306254e+00 5.767540524343714878e+02
2.354217927944147526e+00 5.766399699114019768e+02
2.354317949948988797e+00 5.765258436421695478e+02
2.354417971953829625e+00 5.764117182538677753e+02
2.354517993958670896e+00 5.762976382059094931e+02
2.354618015963511723e+00 5.761836477673372201e+02
2.354718037968352995e+00 5.760697909943842205e+02
2.354818059973193822e+00 5.759561117082100736e+02
2.354918081978035094e+00 5.758426534728165507e+02
2.355018103982875921e+00 5.757294595731524396e+02
2.355118125987717193e+00 5.756165729934226647e+02
2.355218147992558464e+00 5.755040363956110241e+02
2.355318169997399291e+00 5.753918920982232521e+02
2.355418192002240563e+00 5.752801820552667778e+02
2.355518214007081390e+00 5.751689478354696803e+02
2.355618236011922217e+00 5.750582306017590781e+02
2.355718258016763489e+00 5.749480710909971322e+02
2.355818280021604760e+00 5.748385095939950133e+02
2.355918302026445588e+00 5.747295859358055168e+02
2.356018324031286859e+00 5.746213394563092152e+02
2.356118346036128131e+00 5.745138089911039287e+02
2.356218368040968514e+00 5.744070328526986486e+02
2.356318390045809785e+00 5.743010488120335140e+02
2.356418412050651057e+00 5.741958940803189080e+02
2.356518434055491884e+00 5.740916052912205032e+02
2.356618456060333155e+00 5.739882184833788870e+02
2.356718478065174427e+00 5.738857690832868457e+02
2.356818500070015254e+00 5.737842918885241943e+02
2.356918522074856082e+00 5.736838210513641343e+02
2.357018544079697353e+00 5.735843900627494349e+02
2.357118566084538180e+00 5.734860317366535583e+02
2.357218588089379452e+00 5.733887781948312750e+02
2.357318610094220723e+00 5.732926608519653655e+02
2.357418632099061551e+00 5.731977104012144082e+02
2.357518654103902822e+00 5.731039568001710904e+02
2.357618676108743649e+00 5.730114292572349086e+02
2.357718698113584921e+00 5.729201562184055092e+02
2.357818720118425748e+00 5.728301653545023555e+02
2.357918742123267020e+00 5.727414835488184508e+02
2.358018764128107847e+00 5.726541368852081177e+02
2.358118786132949118e+00 5.725681506366187250e+02
2.358218808137790390e+00 5.724835492540676114e+02
2.358318830142631217e+00 5.724003563560739849e+02
2.358418852147472045e+00 5.723185947185406803e+02
2.358518874152313316e+00 5.722382862650980542e+02
2.358618896157154587e+00 5.721594520579138816e+02
2.358718918161995415e+00 5.720821122889631170e+02
2.358818940166836686e+00 5.720062862717742291e+02
2.358918962171677514e+00 5.719319924336421082e+02
2.359018984176518785e+00 5.718592483083209572e+02
2.359119006181359612e+00 5.717880705291935328e+02
2.359219028186200884e+00 5.717184748229199158e+02
2.359319050191041711e+00 5.716504760035682011e+02
2.359419072195882983e+00 5.715840879672299479e+02
2.359519094200724254e+00 5.715193236871200497e+02
2.359619116205565081e+00 5.714561952091629564e+02
2.359719138210405909e+00 5.713947136480658173e+02
2.359819160215247180e+00 5.713348891838809323e+02
2.359919182220088452e+00 5.712767310590541001e+02
2.360019204224929279e+00 5.712202475759659137e+02
2.360119226229770550e+00 5.711654460949553140e+02
2.360219248234611378e+00 5.711123330328363181e+02
2.360319270239452649e+00 5.710609138619006444e+02
2.360419292244293477e+00 5.710111931094064630e+02
2.360519314249134748e+00 5.709631743575546352e+02
2.360619336253975575e+00 5.709168602439452798e+02
2.360719358258816847e+00 5.708722524625213737e+02
2.360819380263658118e+00 5.708293517649931346e+02
2.360919402268498946e+00 5.707881579627361361e+02
2.361019424273340217e+00 5.707486699291725927e+02
2.361119446278181044e+00 5.707108856026219428e+02
2.361219468283021872e+00 5.706748019896244841e+02
2.361319490287863143e+00 5.706404151687329431e+02
2.361419512292704415e+00 5.706077202947694786e+02
2.361519534297545242e+00 5.705767116035427762e+02
2.361619556302386513e+00 5.705473824170244370e+02
2.361719578307227785e+00 5.705197251489778409e+02
2.361819600312068168e+00 5.704937313110369814e+02
2.361919622316909440e+00 5.704693915192312943e+02
2.362019644321750711e+00 5.704466955009510230e+02
2.362119666326591538e+00 5.704256321023466398e+02
2.362219688331432810e+00 5.704061892961607327e+02
2.362319710336274081e+00 5.703883541899858756e+02
2.362419732341114909e+00 5.703721130349407531e+02
2.362519754345955736e+00 5.703574512347627206e+02
2.362619776350797007e+00 5.703443533553084990e+02
2.362719798355637835e+00 5.703328031344541387e+02
2.362819820360479106e+00 5.703227834923972068e+02
2.362919842365320378e+00 5.703142765423458513e+02
2.363019864370161205e+00 5.703072636015887156e+02
2.363119886375002032e+00 5.703017252029490010e+02
2.363219908379843304e+00 5.702976411065959610e+02
2.363319930384684575e+00 5.702949903122331534e+02
2.363419952389525402e+00 5.702937510716308225e+02
2.363519974394366674e+00 5.702939009015110514e+02
2.363619996399207501e+00 5.702954165967735207e+02
2.363720018404048773e+00 5.702982742440497077e+02
2.363820040408889600e+00 5.703024492355855273e+02
2.363920062413730871e+00 5.703079162834399085e+02
2.364020084418571699e+00 5.703146494339890751e+02
2.364120106423412970e+00 5.703226220827332327e+02
2.364220128428254242e+00 5.703318069893940674e+02
2.364320150433095069e+00 5.703421762932930505e+02
2.364420172437936341e+00 5.703537015290074805e+02
2.364520194442777168e+00 5.703663536422899369e+02
2.364620216447618439e+00 5.703801030062440987e+02
2.364720238452459267e+00 5.703949194377464664e+02
2.364820260457300538e+00 5.704107722141094428e+02
2.364920282462141365e+00 5.704276300899721264e+02
2.365020304466982637e+00 5.704454613144088171e+02
2.365120326471823908e+00 5.704642336482505698e+02
2.365220348476664736e+00 5.704839143816053593e+02
2.365320370481505563e+00 5.705044703515716265e+02
2.365420392486346834e+00 5.705258679601295171e+02
2.365520414491188106e+00 5.705480731922091309e+02
2.365620436496028933e+00 5.705710516339174774e+02
2.365720458500870205e+00 5.705947684909167492e+02
2.365820480505711032e+00 5.706191886069485690e+02
2.365920502510551859e+00 5.706442764824886353e+02
2.366020524515393131e+00 5.706699962935210806e+02
2.366120546520234402e+00 5.706963119104336783e+02
2.366220568525075230e+00 5.707231869170054779e+02
2.366320590529916501e+00 5.707505846294932326e+02
2.366420612534757772e+00 5.707784681158004787e+02
2.366520634539598600e+00 5.708068002147163043e+02
2.366620656544439427e+00 5.708355435552167592e+02
2.366720678549280699e+00 5.708646605758198120e+02
2.366820700554121526e+00 5.708941135439855543e+02
2.366920722558962797e+00 5.709238645755397101e+02
2.367020744563804069e+00 5.709538756541294333e+02
2.367120766568644896e+00 5.709841086506858119e+02
2.367220788573486168e+00 5.710145253428881915e+02
2.367320810578326995e+00 5.710450874346247474e+02
2.367420832583167822e+00 5.710757565754300913e+02
2.367520854588009094e+00 5.711064943799004823e+02
2.367620876592850365e+00 5.711372624470685651e+02
2.367720898597691193e+00 5.711680223797317240e+02
2.367820920602532464e+00 5.711987358037237072e+02
2.367920942607373735e+00 5.712293643871192899e+02
2.368020964612214563e+00 5.712598698593650397e+02
2.368120986617055390e+00 5.712902140303201577e+02
2.368221008621896662e+00 5.713203588092060272e+02
2.368321030626737489e+00 5.713502662234519676e+02
2.368421052631578760e+00 5.713798984374219572e+02
2.368521074636420032e+00 5.714092177710246006e+02
2.368621096641260859e+00 5.714381867181872394e+02
2.368721118646101687e+00 5.714667679651907974e+02
2.368821140650942958e+00 5.714949244088545584e+02
2.368921162655784229e+00 5.715226191745614415e+02
2.369021184660625057e+00 5.715498156341161575e+02
2.369121206665466328e+00 5.715764774234291963e+02
2.369221228670307156e+00 5.716025684600135719e+02
2.369321250675148427e+00 5.716280529602914839e+02
2.369421272679989254e+00 5.716528954566994116e+02
2.369521294684830526e+00 5.716770608145827737e+02
2.369621316689671353e+00 5.717005142488753791e+02
2.369721338694512625e+00 5.717232213405552557e+02
2.369821360699353896e+00 5.717451480528656020e+02
2.369921382704194723e+00 5.717662607472983609e+02
2.370021404709035995e+00 5.717865261993290460e+02
2.370121426713876822e+00 5.718059116138981608e+02
2.370221448718718094e+00 5.718243846406328430e+02
2.370321470723558921e+00 5.718419133887971384e+02
2.370421492728400192e+00 5.718584664419701085e+02
2.370521514733241020e+00 5.718740128724415399e+02
2.370621536738082291e+00 5.718885222553203675e+02
2.370721558742923563e+00 5.719019646823485346e+02
2.370821580747764390e+00 5.719143107754155153e+02
2.370921602752605217e+00 5.719255316997673617e+02
2.371021624757446489e+00 5.719355991769029970e+02
2.371121646762287760e+00 5.719444854971557106e+02
2.371221668767128588e+00 5.719521635319481447e+02
2.371321690771969859e+00 5.719586067457273657e+02
2.371421712776810686e+00 5.719637892075598984e+02
2.371521734781651514e+00 5.719676856023943401e+02
2.371621756786492785e+00 5.719702712419807540e+02
2.371721778791334057e+00 5.719715220754454776e+02
2.371821800796174884e+00 5.719714146995137298e+02
2.371921822801016155e+00 5.719699263683816071e+02
2.372021844805857427e+00 5.719670350032256465e+02
2.372121866810698254e+00 5.719627192013560943e+02
2.372221888815539081e+00 5.719569582450023972e+02
2.372321910820380353e+00 5.719497321097308031e+02
2.372421932825221180e+00 5.719410214724928210e+02
2.372521954830062452e+00 5.719308077192998780e+02
2.372621976834903723e+00 5.719190729525205370e+02
2.372721998839744550e+00 5.719057999978008411e+02
2.372822020844585822e+00 5.718909724106039221e+02
2.372922042849426649e+00 5.718745744823648920e+02
2.373022064854267477e+00 5.718565912462652250e+02
2.373122086859108748e+00 5.718370084826206039e+02
2.373222108863950019e+00 5.718158127238772295e+02
2.373322130868790847e+00 5.717929912592280743e+02
2.373422152873632118e+00 5.717685321388330522e+02
2.373522174878473390e+00 5.717424241776521967e+02
2.373622196883314217e+00 5.717146569588911689e+02
2.373722218888155044e+00 5.716852208370507924e+02
2.373822240892996316e+00 5.716541069405901681e+02
2.373922262897837143e+00 5.716213071741998419e+02
2.374022284902678415e+00 5.715868142206828679e+02
2.374122306907519686e+00 5.715506215424461516e+02
2.374222328912360513e+00 5.715127233826034399e+02
2.374322350917201341e+00 5.714731147656939356e+02
2.374422372922042612e+00 5.714317914980068736e+02
2.374522394926883884e+00 5.713887501675294516e+02
2.374622416931724711e+00 5.713439881435029974e+02
2.374722438936565982e+00 5.712975035756021498e+02
2.374822460941406810e+00 5.712492953927313692e+02
2.374922482946248081e+00 5.711993633014445777e+02
2.375022504951088909e+00 5.711477077839897447e+02
2.375122526955930180e+00 5.710943300959766020e+02
2.375222548960771007e+00 5.710392322636773770e+02
2.375322570965612279e+00 5.709824170809570205e+02
2.375422592970453550e+00 5.709238881058424795e+02
2.375522614975294378e+00 5.708636496567243057e+02
2.375622636980135649e+00 5.708017068082067453e+02
2.375722658984976476e+00 5.707380653865968725e+02
2.375822680989817748e+00 5.706727319650483423e+02
2.375922702994658575e+00 5.706057138583543065e+02
2.376022724999499847e+00 5.705370191173975627e+02
2.376122747004340674e+00 5.704666565232656694e+02
2.376222769009181945e+00 5.703946355810261366e+02
2.376322791014023217e+00 5.703209665131748807e+02
2.376422813018864044e+00 5.702456602527608993e+02
2.376522835023704872e+00 5.701687284361870525e+02
2.376622857028546143e+00 5.700901833956972951e+02
2.376722879033387414e+00 5.700100381515546815e+02
2.376822901038228242e+00 5.699283064039107103e+02
2.376922923043069513e+00 5.698450025243821528e+02
2.377022945047910341e+00 5.697601415473246789e+02
2.377122967052751168e+00 5.696737391608253347e+02
2.377222989057592439e+00 5.695858116974101222e+02
2.377323011062433711e+00 5.694963761244734997e+02
2.377423033067274538e+00 5.694054500344403777e+02
2.377523055072115810e+00 5.693130516346591321e+02
2.377623077076957081e+00 5.692191997370427998e+02
2.377723099081797908e+00 5.691239137474519794e+02
2.377823121086638736e+00 5.690272136548369417e+02
2.377923143091480007e+00 5.689291200201377023e+02
2.378023165096320835e+00 5.688296539649568331e+02
2.378123187101162106e+00 5.687288371600002392e+02
2.378223209106003377e+00 5.686266918133064792e+02
2.378323231110844205e+00 5.685232406582588283e+02
2.378423253115685476e+00 5.684185069413956626e+02
2.378523275120526304e+00 5.683125144100247326e+02
2.378623297125367131e+00 5.682052872996450787e+02
2.378723319130208402e+00 5.680968503211834104e+02
2.378823341135049674e+00 5.679872286480635921e+02
2.378923363139890501e+00 5.678764479030974144e+02
2.379023385144731773e+00 5.677645341452220009e+02
2.379123407149573044e+00 5.676515138560789637e+02
2.379223429154413871e+00 5.675374139264509949e+02
2.379323451159254699e+00 5.674222616425587375e+02
2.379423473164095970e+00 5.673060846722274846e+02
2.379523495168936797e+00 5.671889110509276861e+02
2.379623517173778069e+00 5.670707691677062030e+02
2.379723539178619340e+00 5.669516877510020549e+02
2.379823561183460168e+00 5.668316958543701958e+02
2.379923583188300995e+00 5.667108228421058129e+02
2.380023605193142267e+00 5.665890983747877954e+02
2.380123627197983538e+00 5.664665523947453494e+02
2.380223649202824365e+00 5.663432151114526505e+02
2.380323671207665637e+00 5.662191169868661973e+02
2.380423693212506464e+00 5.660942887207046397e+02
2.380523715217347736e+00 5.659687612356851787e+02
2.380623737222188563e+00 5.658425656627216540e+02
2.380723759227029834e+00 5.657157333260888663e+02
2.380823781231870662e+00 5.655882957285693919e+02
2.380923803236711933e+00 5.654602845365814119e+02
2.381023825241553205e+00 5.653317315652996058e+02
2.381123847246394032e+00 5.652026687637752502e+02
2.381223869251234859e+00 5.650731282000700730e+02
2.381323891256076131e+00 5.649431420463940867e+02
2.381423913260917402e+00 5.648127425642770731e+02
2.381523935265758229e+00 5.646819620897631467e+02
2.381623957270599501e+00 5.645508330186454486e+02
2.381723979275440328e+00 5.644193877917459758e+02
2.381824001280281600e+00 5.642876588802442939e+02
2.381924023285122427e+00 5.641556787710705976e+02
2.382024045289963698e+00 5.640234799523592528e+02
2.382124067294804526e+00 5.638910948989824874e+02
2.382224089299645797e+00 5.637585560581555910e+02
2.382324111304487069e+00 5.636258958351386354e+02
2.382424133309327896e+00 5.634931465790266429e+02
2.382524155314169167e+00 5.633603405686407086e+02
2.382624177319009995e+00 5.632275099985305360e+02
2.382724199323850822e+00 5.630946869650859981e+02
2.382824221328692094e+00 5.629619034527726171e+02
2.382924243333533365e+00 5.628291913204934644e+02
2.383024265338374192e+00 5.626965822880829364e+02
2.383124287343215464e+00 5.625641079229412753e+02
2.383224309348056735e+00 5.624317996268136994e+02
2.383324331352897119e+00 5.622996886227202822e+02
2.383424353357738390e+00 5.621678059420446516e+02
2.383524375362579661e+00 5.620361824117854894e+02
2.383624397367420489e+00 5.619048486419748087e+02
2.383724419372261760e+00 5.617738350132705136e+02
2.383824441377103032e+00 5.616431716647322219e+02
2.383924463381943859e+00 5.615128884817754624e+02
2.384024485386784686e+00 5.613830150843203910e+02
2.384124507391625958e+00 5.612535808151351375e+02
2.384224529396466785e+00 5.611246147283745813e+02
2.384324551401308057e+00 5.609961455783288784e+02
2.384424573406149328e+00 5.608682018083778758e+02
2.384524595410990155e+00 5.607408115401581199e+02
2.384624617415831427e+00 5.606140025629516686e+02
2.384724639420672254e+00 5.604878023232927262e+02
2.384824661425513526e+00 5.603622379148008577e+02
2.384924683430354353e+00 5.602373360682469183e+02
2.385024705435195624e+00 5.601131231418498828e+02
2.385124727440036452e+00 5.599896251118120745e+02
2.385224749444877723e+00 5.598668675630933649e+02
2.385324771449718995e+00 5.597448756804323011e+02
2.385424793454559822e+00 5.596236742396139334e+02
2.385524815459400649e+00 5.595032875989825243e+02
2.385624837464241921e+00 5.593837396912171016e+02
2.385724859469083192e+00 5.592650540153525753e+02
2.385824881473924020e+00 5.591472536290672224e+02
2.385924903478765291e+00 5.590303611412247164e+02
2.386024925483606118e+00 5.589143987046851407e+02
2.386124947488447390e+00 5.587993880093744110e+02
2.386224969493288217e+00 5.586853502756279113e+02
2.386324991498129489e+00 5.585723062477954954e+02
2.386425013502970316e+00 5.584602761881242259e+02
2.386525035507811587e+00 5.583492798709057752e+02
2.386625057512652859e+00 5.582393365769048614e+02
2.386725079517493686e+00 5.581304650880543932e+02
2.386825101522334514e+00 5.580226836824321026e+02
2.386925123527175785e+00 5.579160101295093455e+02
2.387025145532017056e+00 5.578104616856796838e+02
2.387125167536857884e+00 5.577060550900635008e+02
2.387225189541699155e+00 5.576028065605909205e+02
2.387325211546539983e+00 5.575007317903613284e+02
2.387425233551381254e+00 5.573998459442850617e+02
2.387525255556222081e+00 5.573001636560002225e+02
2.387625277561063353e+00 5.572016990250671142e+02
2.387725299565904180e+00 5.571044656144416649e+02
2.387825321570745452e+00 5.570084764482260198e+02
2.387925343575586723e+00 5.569137440096944829e+02
2.388025365580427550e+00 5.568202802395961726e+02
2.388125387585268822e+00 5.567280965347337087e+02
2.388225409590109649e+00 5.566372037468092913e+02
2.388325431594950476e+00 5.565476121815504484e+02
2.388425453599791748e+00 5.564593315981062460e+02
2.388525475604633019e+00 5.563723712087047488e+02
2.388625497609473847e+00 5.562867396785889014e+02
2.388725519614315118e+00 5.562024451262118419e+02
2.388825541619156390e+00 5.561194951236977886e+02
2.388925563623996773e+00 5.560378966975665662e+02
2.389025585628838044e+00 5.559576563297137000e+02
2.389125607633679316e+00 5.558787799586551728e+02
2.389225629638520143e+00 5.558012729810189967e+02
2.389325651643361415e+00 5.557251402532967859e+02
2.389425673648202686e+00 5.556503860938381649e+02
2.389525695653043513e+00 5.555770142850976754e+02
2.389625717657884341e+00 5.555050280761248587e+02
2.389725739662725612e+00 5.554344301852905801e+02
2.389825761667566439e+00 5.553652228032578932e+02
2.389925783672407711e+00 5.552974075961824383e+02
2.390025805677248982e+00 5.552309857091479444e+02
2.390125827682089810e+00 5.551659577698246721e+02
2.390225849686931081e+00 5.551023238923564804e+02
2.390325871691771908e+00 5.550400836814673085e+02
2.390425893696613180e+00 5.549792362367801388e+02
2.390525915701454007e+00 5.549197801573558309e+02
2.390625937706295279e+00 5.548617135464342027e+02
2.390725959711136106e+00 5.548050340163840701e+02
2.390825981715977377e+00 5.547497386938500767e+02
2.390926003720818649e+00 5.546958242251008642e+02
2.391026025725659476e+00 5.546432867815635746e+02
2.391126047730500304e+00 5.545921220655502566e+02
2.391226069735341575e+00 5.545423253161648063e+02
2.391326091740182846e+00 5.544938913153893054e+02
2.391426113745023674e+00 5.544468143943445284e+02
2.391526135749864945e+00 5.544010884397198424e+02
2.391626157754705773e+00 5.543567069003657934e+02
2.391726179759547044e+00 5.543136627940493781e+02
2.391826201764387871e+00 5.542719487143599508e+02
2.391926223769229143e+00 5.542315568377712225e+02
2.392026245774069970e+00 5.541924789308395702e+02
2.392126267778911242e+00 5.541547063575525272e+02
2.392226289783752513e+00 5.541182300868018729e+02
2.392326311788593340e+00 5.540830406999931483e+02
2.392426333793434168e+00 5.540491283987790894e+02
2.392526355798275439e+00 5.540164830129077700e+02
2.392626377803116711e+00 5.539850940081928456e+02
2.392726399807957538e+00 5.539549504945834997e+02
2.392826421812798809e+00 5.539260412343463713e+02
2.392926443817639637e+00 5.538983546503400248e+02
2.393026465822480908e+00 5.538718788343854840e+02
2.393126487827321736e+00 5.538466015557246465e+02
2.393226509832163007e+00 5.538225102695590749e+02
2.393326531837003834e+00 5.537995921256664360e+02
2.393426553841845106e+00 5.537778339770920866e+02
2.393526575846686377e+00 5.537572223889004590e+02
2.393626597851527205e+00 5.537377436469946588e+02
2.393726619856368476e+00 5.537193837669855156e+02
2.393826641861209303e+00 5.537021285031164552e+02
2.393926663866050131e+00 5.536859633572280472e+02
2.394026685870891402e+00 5.536708735877668914e+02
2.394126707875732674e+00 5.536568442188248582e+02
2.394226729880573501e+00 5.536438600492112982e+02
2.394326751885414772e+00 5.536319056615462841e+02
2.394426773890256044e+00 5.536209654313728379e+02
2.394526795895096427e+00 5.536110235362830281e+02
2.394626817899937699e+00 5.536020639650535031e+02
2.394726839904778970e+00 5.535940705267795465e+02
2.394826861909619797e+00 5.535870268600133386e+02
2.394926883914461069e+00 5.535809164418901673e+02
2.395026905919302340e+00 5.535757225972441802e+02
2.395126927924143168e+00 5.535714285077066279e+02
2.395226949928983995e+00 5.535680172207828491e+02
2.395326971933825266e+00 5.535654716588998099e+02
2.395426993938666094e+00 5.535637746284260174e+02
2.395527015943507365e+00 5.535629088286492561e+02
2.395627037948348637e+00 5.535628568607172610e+02
2.395727059953189464e+00 5.535636012365315537e+02
2.395827081958030735e+00 5.535651243875861383e+02
2.395927103962871563e+00 5.535674086737595871e+02
2.396027125967712834e+00 5.535704363920386868e+02
2.396127147972553662e+00 5.535741897851831936e+02
2.396227169977394933e+00 5.535786510503203317e+02
2.396327191982235760e+00 5.535838023474653937e+02
2.396427213987077032e+00 5.535896258079698100e+02
2.396527235991918303e+00 5.535961035428819059e+02
2.396627257996759131e+00 5.536032176512288743e+02
2.396727280001599958e+00 5.536109502282025687e+02
2.396827302006441229e+00 5.536192833732612826e+02
2.396927324011282501e+00 5.536281991981256851e+02
2.397027346016123328e+00 5.536376798346827854e+02
2.397127368020964600e+00 5.536477074427778007e+02
2.397227390025805427e+00 5.536582642179062077e+02
2.397327412030646698e+00 5.536693323987886970e+02
2.397427434035487526e+00 5.536808942748353957e+02
2.397527456040328797e+00 5.536929321934923109e+02
2.397627478045169624e+00 5.537054285674644234e+02
2.397727500050010896e+00 5.537183658818204322e+02
2.397827522054852167e+00 5.537317267009636907e+02
2.397927544059692995e+00 5.537454936754807022e+02
2.398027566064533822e+00 5.537596495488522805e+02
2.398127588069375093e+00 5.537741771640335173e+02
2.398227610074216365e+00 5.537890594698927771e+02
2.398327632079057192e+00 5.538042795275141543e+02
2.398427654083898464e+00 5.538198205163566854e+02
2.398527676088739291e+00 5.538356657402678138e+02
2.398627698093580118e+00 5.538517986333523595e+02
2.398727720098421390e+00 5.538682027656905120e+02
2.398827742103262661e+00 5.538848618489088267e+02
2.398927764108103489e+00 5.539017597415979708e+02
2.399027786112944760e+00 5.539188804545710809e+02
2.399127808117786032e+00 5.539362081559778517e+02
2.399227830122626859e+00 5.539537271762490036e+02
2.399327852127467686e+00 5.539714220128932993e+02
2.399427874132308958e+00 5.539892773351278947e+02
2.399527896137149785e+00 5.540072779883506655e+02
2.399627918141991056e+00 5.540254089984521215e+02
2.399727940146832328e+00 5.540436555759604289e+02
2.399827962151673155e+00 5.540620031200273843e+02
2.399927984156514427e+00 5.540804372222493157e+02
2.400028006161355254e+00 5.540989436703207502e+02
2.400128028166196081e+00 5.541175084515247136e+02
2.400228050171037353e+00 5.541361177560580700e+02
2.400328072175878624e+00 5.541547579801889469e+02
2.400428094180719452e+00 5.541734157292512464e+02
2.400528116185560723e+00 5.541920778204683984e+02
2.400628138190401994e+00 5.542107312856151111e+02
2.400728160195242822e+00 5.542293633735127969e+02
2.400828182200083649e+00 5.542479615523562870e+02
2.400928204204924921e+00 5.542665135118780881e+02
2.401028226209765748e+00 5.542850071653482473e+02
2.401128248214607019e+00 5.543034306514073251e+02
2.401228270219448291e+00 5.543217723357380464e+02
2.401328292224289118e+00 5.543400208125730160e+02
2.401428314229129946e+00 5.543581649060411110e+02
2.401528336233971217e+00 5.543761936713522118e+02
2.401628358238812488e+00 5.543940963958239081e+02
2.401728380243653316e+00 5.544118625997458594e+02
2.401828402248494587e+00 5.544294820370904517e+02
2.401928424253335415e+00 5.544469446960654295e+02
2.402028446258176686e+00 5.544642407995113444e+02
2.402128468263017513e+00 5.544813608051483698e+02
2.402228490267858785e+00 5.544982954056666813e+02
2.402328512272699612e+00 5.545150355286740478e+02
2.402428534277540884e+00 5.545315723364874430e+02
2.402528556282382155e+00 5.545478972257852774e+02
2.402628578287222982e+00 5.545640018271109284e+02
2.402728600292064254e+00 5.545798780042362068e+02
2.402828622296905081e+00 5.545955178533830576e+02
2.402928644301746353e+00 5.546109137023104267e+02
2.403028666306587180e+00 5.546260581092607254e+02
2.403128688311428451e+00 5.546409438617779415e+02
2.403228710316269279e+00 5.546555639753908054e+02
2.403328732321110550e+00 5.546699116921693076e+02
2.403428754325951822e+00 5.546839804791571851e+02
2.403528776330792649e+00 5.546977640266753724e+02
2.403628798335633476e+00 5.547112562465118799e+02
2.403728820340474748e+00 5.547244512699884353e+02
2.403828842345316019e+00 5.547373434459134387e+02
2.403928864350156847e+00 5.547499273384242997e+02
2.404028886354998118e+00 5.547621977247182485e+02
2.404128908359838945e+00 5.547741495926766220e+02
2.404228930364679773e+00 5.547857781383894462e+02
2.404328952369521044e+00 5.547970787635706529e+02
2.404428974374362316e+00 5.548080470728884848e+02
2.404528996379203143e+00 5.548186788711906274e+02
2.404629018384044414e+00 5.548289701606437347e+02
2.404729040388885686e+00 5.548389171377843923e+02
2.404829062393726513e+00 5.548485161904845882e+02
2.404929084398567340e+00 5.548577638948351023e+02
2.405029106403408612e+00 5.548666570119540893e+02
2.405129128408249439e+00 5.548751924847174450e+02
2.405229150413090711e+00 5.548833674344186875e+02
2.405329172417931982e+00 5.548911791573621031e+02
2.405429194422772810e+00 5.548986251213906371e+02
2.405529216427614081e+00 5.549057029623509152e+02
2.405629238432454908e+00 5.549124104805038087e+02
2.405729260437295736e+00 5.549187456368787252e+02
2.405829282442137007e+00 5.549247065495753759e+02
2.405929304446978279e+00 5.549302914900230235e+02
2.406029326451819106e+00 5.549354988791908454e+02
2.406129348456660377e+00 5.549403272837608938e+02
2.406229370461501649e+00 5.549447754122628567e+02
2.406329392466342476e+00 5.549488421111766456e+02
2.406429414471183303e+00 5.549525263610041748e+02
2.406529436476024575e+00 5.549558272723129448e+02
2.406629458480865402e+00 5.549587440817630295e+02
2.406729480485706674e+00 5.549612761481042753e+02
2.406829502490547945e+00 5.549634229481667944e+02
2.406929524495388772e+00 5.549651840728358820e+02
2.407029546500229600e+00 5.549665592230146558e+02
2.407129568505070871e+00 5.549675482055853308e+02
2.407229590509912143e+00 5.549681509293640147e+02
2.407329612514752970e+00 5.549683674010616414e+02
2.407429634519594241e+00 5.549681977212434276e+02
2.407529656524435069e+00 5.549676420803008341e+02
2.407629678529276340e+00 5.549667007544286434e+02
2.407729700534117168e+00 5.549653741016240929e+02
2.407829722538958439e+00 5.549636625576955566e+02
2.407929744543799266e+00 5.549615666322977177e+02
2.408029766548640538e+00 5.549590869049844741e+02
2.408129788553481809e+00 5.549562240212958386e+02
2.408229810558322637e+00 5.549529786888659828e+02
2.408329832563163908e+00 5.549493516735740286e+02
2.408429854568004735e+00 5.549453437957205324e+02
2.408529876572846007e+00 5.549409559262518314e+02
2.408629898577686834e+00 5.549361889830173595e+02
2.408729920582528106e+00 5.549310439270795996e+02
2.408829942587368933e+00 5.549255217590635993e+02
2.408929964592210204e+00 5.549196235155648083e+02
2.409029986597051476e+00 5.549133502655995471e+02
2.409130008601892303e+00 5.549067031071197107e+02
2.409230030606733131e+00 5.548996831635798799e+02
2.409330052611574402e+00 5.548922915805657112e+02
2.409430074616415673e+00 5.548845295224866732e+02
2.409530096621256501e+00 5.548763981693315372e+02
2.409630118626097772e+00 5.548678987134917406e+02
2.409730140630938600e+00 5.548590323566563711e+02
2.409830162635779427e+00 5.548498003067750233e+02
2.409930184640620698e+00 5.548402037750980753e+02
2.410030206645461970e+00 5.548302439732923403e+02
2.410130228650302797e+00 5.548199221106287951e+02
2.410230250655144069e+00 5.548092393912613716e+02
2.410330272659985340e+00 5.547981970115740751e+02
2.410430294664826167e+00 5.547867961576238258e+02
2.410530316669666995e+00 5.547750380026573112e+02
2.410630338674508266e+00 5.547629237047217430e+02
2.410730360679349094e+00 5.547504544043612213e+02
2.410830382684190365e+00 5.547376312224013191e+02
2.410930404689031636e+00 5.547244552578264347e+02
2.411030426693872464e+00 5.547109275857488910e+02
2.411130448698713735e+00 5.546970492554706880e+02
2.411230470703554563e+00 5.546828212886384790e+02
2.411330492708395390e+00 5.546682446774987056e+02
2.411430514713236661e+00 5.546533203832435674e+02
2.411530536718077933e+00 5.546380493344580600e+02
2.411630558722918760e+00 5.546224324256641012e+02
2.411730580727760032e+00 5.546064705159616324e+02
2.411830602732601303e+00 5.545901644277746527e+02
2.411930624737442130e+00 5.545735149456910449e+02
2.412030646742282958e+00 5.545565228154064243e+02
2.412130668747124229e+00 5.545391887427684878e+02
2.412230690751965057e+00 5.545215133929234526e+02
2.412330712756806328e+00 5.545034973895621988e+02
2.412430734761647599e+00 5.544851413142689580e+02
2.412530756766488427e+00 5.544664457059733422e+02
2.412630778771329254e+00 5.544474110605016222e+02
2.412730800776170526e+00 5.544280378302318013e+02
2.412830822781011797e+00 5.544083264238481661e+02
2.412930844785852624e+00 5.543882772061991773e+02
2.413030866790693896e+00 5.543678904982562017e+02
2.413130888795534723e+00 5.543471665771712651e+02
2.413230910800375995e+00 5.543261056764358727e+02
2.413330932805216822e+00 5.543047079861387374e+02
2.413430954810058093e+00 5.542829736533254845e+02
2.413530976814898921e+00 5.542609027824502164e+02
2.413630998819740192e+00 5.542384954359330322e+02
2.413731020824581464e+00 5.542157516348042918e+02
2.413831042829422291e+00 5.541926713594536977e+02
2.413931064834263562e+00 5.541692545504677128e+02
2.414031086839104390e+00 5.541455011095634973e+02
2.414131108843945661e+00 5.541214109006149329e+02
2.414231130848786488e+00 5.540969837507658440e+02
2.414331152853627760e+00 5.540722194516417858e+02
2.414431174858468587e+00 5.540471177606405035e+02
2.414531196863309859e+00 5.540216784023166383e+02
2.414631218868150686e+00 5.539959010698469228e+02
2.414731240872991958e+00 5.539697854265829164e+02
2.414831262877832785e+00 5.539433311076853670e+02
2.414931284882674056e+00 5.539165377218369031e+02
2.415031306887515328e+00 5.538894048530362397e+02
2.415131328892356155e+00 5.538619320624711690e+02
2.415231350897197427e+00 5.538341188904582850e+02
2.415331372902038254e+00 5.538059648584686556e+02
2.415431394906879081e+00 5.537774694712134078e+02
2.415531416911720353e+00 5.537486322188058239e+02
2.415631438916561624e+00 5.537194525789875570e+02
2.415731460921402451e+00 5.536899300194195348e+02
2.415831482926243723e+00 5.536600640000390285e+02
2.415931504931084994e+00 5.536298539754739068e+02
2.416031526935925378e+00 5.535992993975144145e+02
2.416131548940766649e+00 5.535683997176465709e+02
2.416231570945607920e+00 5.535371543896346793e+02
2.416331592950448748e+00 5.535055628721539733e+02
2.416431614955290019e+00 5.534736246314777190e+02
2.416531636960131291e+00 5.534413391442043348e+02
2.416631658964972118e+00 5.534087059000326008e+02
2.416731680969812945e+00 5.533757244045767720e+02
2.416831702974654217e+00 5.533423941822201186e+02
2.416931724979495044e+00 5.533087147790046174e+02
2.417031746984336316e+00 5.532746857655544090e+02
2.417131768989177587e+00 5.532403067400292684e+02
2.417231790994018414e+00 5.532055773311083158e+02
2.417331812998859686e+00 5.531704972009955554e+02
2.417431835003700513e+00 5.531350660484509945e+02
2.417531857008541785e+00 5.530992836118402920e+02
2.417631879013382612e+00 5.530631496722010070e+02
2.417731901018223883e+00 5.530266640563248757e+02
2.417831923023064711e+00 5.529898266398514579e+02
2.417931945027905982e+00 5.529526373503658760e+02
2.418031967032747254e+00 5.529150961705108784e+02
2.418131989037588081e+00 5.528772031410919681e+02
2.418232011042428908e+00 5.528389583641944682e+02
2.418332033047270180e+00 5.528003620062845584e+02
2.418432055052111451e+00 5.527614143013156536e+02
2.418532077056952279e+00 5.527221155538217090e+02
2.418632099061793550e+00 5.526824661420002940e+02
2.418732121066634377e+00 5.526424665207812268e+02
2.418832143071475649e+00 5.526021172248775883e+02
2.418932165076316476e+00 5.525614188718210471e+02
2.419032187081157748e+00 5.525203721649706949e+02
2.419132209085998575e+00 5.524789778964966445e+02
2.419232231090839846e+00 5.524372369503388427e+02
2.419332253095681118e+00 5.523951503051325744e+02
2.419432275100521945e+00 5.523527190371021334e+02
2.419532297105362773e+00 5.523099443229153849e+02
2.419632319110204044e+00 5.522668274425041091e+02
2.419732341115045315e+00 5.522233697818379596e+02
2.419832363119886143e+00 5.521795728356570407e+02
2.419932385124727414e+00 5.521354382101584406e+02
2.420032407129568242e+00 5.520909676256299008e+02
2.420132429134409513e+00 5.520461629190343729e+02
2.420232451139250340e+00 5.520010260465385272e+02
2.420332473144091612e+00 5.519555590859856693e+02
2.420432495148932439e+00 5.519097642393084016e+02
2.420532517153773711e+00 5.518636438348780757e+02
2.420632539158614982e+00 5.518172003297928541e+02
2.420732561163455809e+00 5.517704363120961943e+02
2.420832583168297081e+00 5.517233545029288280e+02
2.420932605173137908e+00 5.516759577586069554e+02
2.421032627177978735e+00 5.516282490726296146e+02
2.421132649182820007e+00 5.515802315776091973e+02
2.421232671187661278e+00 5.515319085471247718e+02
2.421332693192502106e+00 5.514832833974942332e+02
2.421432715197343377e+00 5.514343596894675557e+02
2.421532737202184649e+00 5.513851411298319363e+02
2.421632759207025032e+00 5.513356315729369044e+02
2.421732781211866303e+00 5.512858350221276851e+02
2.421832803216707575e+00 5.512357556310900009e+02
2.421932825221548402e+00 5.511853977051051743e+02
2.422032847226389674e+00 5.511347657022108706e+02
2.422132869231230945e+00 5.510838642342721414e+02
2.422232891236071772e+00 5.510326980679471944e+02
2.422332913240912600e+00 5.509812721255648285e+02
2.422432935245753871e+00 5.509295914859013692e+02
2.422532957250594698e+00 5.508776613848508532e+02
2.422632979255435970e+00 5.508254872160046034e+02
2.422733001260277241e+00 5.507730745311171177e+02
2.422833023265118069e+00 5.507204290404761196e+02
2.422933045269959340e+00 5.506675566131642654e+02
2.423033067274800167e+00 5.506144632772142131e+02
2.423133089279641439e+00 5.505611552196583034e+02
2.423233111284482266e+00 5.505076387864710341e+02
2.423333133289323538e+00 5.504539204823977343e+02
2.423433155294164365e+00 5.504000069706829663e+02
2.423533177299005636e+00 5.503459050726783062e+02
2.423633199303846908e+00 5.502916217673483743e+02
2.423733221308687735e+00 5.502371641906587456e+02
2.423833243313528563e+00 5.501825396348567665e+02
2.423933265318369834e+00 5.501277555476385714e+02
2.424033287323211106e+00 5.500728195312018443e+02
2.424133309328051933e+00 5.500177393411888715e+02
2.424233331332893204e+00 5.499625228855154546e+02
2.424333353337734032e+00 5.499071782230854524e+02
2.424433375342575303e+00 5.498517135623947070e+02
2.424533397347416130e+00 5.497961372600209415e+02
2.424633419352257402e+00 5.497404578189999711e+02
2.424733441357098229e+00 5.496846838870910688e+02
2.424833463361939501e+00 5.496288242549277356e+02
2.424933485366780772e+00 5.495728878540583082e+02
2.425033507371621599e+00 5.495168837548756073e+02
2.425133529376462427e+00 5.494608211644323319e+02
2.425233551381303698e+00 5.494047094241489049e+02
2.425333573386144970e+00 5.493485580074100199e+02
2.425433595390985797e+00 5.492923765170530714e+02
2.425533617395827068e+00 5.492361746827476736e+02
2.425633639400667896e+00 5.491799623582672893e+02
2.425733661405509167e+00 5.491237495186538808e+02
2.425833683410349995e+00 5.490675462572789911e+02
2.425933705415191266e+00 5.490113627827986420e+02
2.426033727420032093e+00 5.489552094160065963e+02
2.426133749424873365e+00 5.488990965865818907e+02
2.426233771429714636e+00 5.488430348297399632e+02
2.426333793434555464e+00 5.487870347827815749e+02
2.426433815439396735e+00 5.487311071815454397e+02
2.426533837444237562e+00 5.486752628567619468e+02
2.426633859449078390e+00 5.486195127303141135e+02
2.426733881453919661e+00 5.485638678114046343e+02
2.426833903458760933e+00 5.485083391926298191e+02
2.426933925463601760e+00 5.484529380459653112e+02
2.427033947468443031e+00 5.483976756186643797e+02
2.427133969473284303e+00 5.483425632290663998e+02
2.427233991478124686e+00 5.482876122623241599e+02
2.427334013482965958e+00 5.482328341660490878e+02
2.427434035487807229e+00 5.481782404458715519e+02
2.427534057492648056e+00 5.481238426609322687e+02
2.427634079497489328e+00 5.480696524192853758e+02
2.427734101502330599e+00 5.480156813732386354e+02
2.427834123507171427e+00 5.479619412146149671e+02
2.427934145512012254e+00 5.479084436699488379e+02
2.428034167516853525e+00 5.478552004956136443e+02
2.428134189521694353e+00 5.478022234728867943e+02
2.428234211526535624e+00 5.477495244029464629e+02
2.428334233531376896e+00 5.476971151018202590e+02
2.428434255536217723e+00 5.476450073952656794e+02
2.428534277541058994e+00 5.475932131136021326e+02
2.428634299545899822e+00 5.475417440864914624e+02
2.428734321550741093e+00 5.474906121376651527e+02
2.428834343555581921e+00 5.474398290796108313e+02
2.428934365560423192e+00 5.473894067082107995e+02
2.429034387565264019e+00 5.473393567973422478e+02
2.429134409570105291e+00 5.472896910934381367e+02
2.429234431574946562e+00 5.472404213100146535e+02
2.429334453579787390e+00 5.471915591221638806e+02
2.429434475584628217e+00 5.471431161610200888e+02
2.429534497589469488e+00 5.470951040081974952e+02
2.429634519594310760e+00 5.470475341902052833e+02
2.429734541599151587e+00 5.470004181728439789e+02
2.429834563603992859e+00 5.469537673555797710e+02
2.429934585608833686e+00 5.469075930659111009e+02
2.430034607613674957e+00 5.468619065537181996e+02
2.430134629618515785e+00 5.468167189856054620e+02
2.430234651623357056e+00 5.467720414392441626e+02
2.430334673628197883e+00 5.467278848977025518e+02
2.430434695633039155e+00 5.466842602437899359e+02
2.430534717637880426e+00 5.466411782543915479e+02
2.430634739642721254e+00 5.465986495948225183e+02
2.430734761647562081e+00 5.465566848131838924e+02
2.430834783652403353e+00 5.465152943347352448e+02
2.430934805657244624e+00 5.464744884562867355e+02
2.431034827662085451e+00 5.464342773406061724e+02
2.431134849666926723e+00 5.463946710108492653e+02
2.431234871671767550e+00 5.463556793450221676e+02
2.431334893676608822e+00 5.463173120704650501e+02
2.431434915681449649e+00 5.462795787583735319e+02
2.431534937686290920e+00 5.462424888183523990e+02
2.431634959691131748e+00 5.462060514930103636e+02
2.431734981695973019e+00 5.461702758525952959e+02
2.431835003700814291e+00 5.461351707896719745e+02
2.431935025705655118e+00 5.461007450138519062e+02
2.432035047710495945e+00 5.460670070465702111e+02
2.432135069715337217e+00 5.460339652159182151e+02
2.432235091720178044e+00 5.460016276515331128e+02
2.432335113725019315e+00 5.459700022795434506e+02
2.432435135729860587e+00 5.459390968175845273e+02
2.432535157734701414e+00 5.459089187698722299e+02
2.432635179739542686e+00 5.458794754223501968e+02
2.432735201744383513e+00 5.458507738379057628e+02
2.432835223749224340e+00 5.458228208516611630e+02
2.432935245754065612e+00 5.457956230663420456e+02
2.433035267758906883e+00 5.457691868477248818e+02
2.433135289763747711e+00 5.457435183201680502e+02
2.433235311768588982e+00 5.457186233622263671e+02
2.433335333773430254e+00 5.456945076023562251e+02
2.433435355778271081e+00 5.456711764147084978e+02
2.433535377783111908e+00 5.456486349150158048e+02
2.433635399787953180e+00 5.456268879565755014e+02
2.433735421792794007e+00 5.456059401263310065e+02
2.433835443797635278e+00 5.455857957410524932e+02
2.433935465802476550e+00 5.455664588436206941e+02
2.434035487807317377e+00 5.455479331994176846e+02
2.434135509812158205e+00 5.455302222928232823e+02
2.434235531816999476e+00 5.455133293238226315e+02
2.434335553821840747e+00 5.454972572047230415e+02
2.434435575826681575e+00 5.454820085569895127e+02
2.434535597831522846e+00 5.454675857081924732e+02
2.434635619836363674e+00 5.454539906890759084e+02
2.434735641841204945e+00 5.454412252307430435e+02
2.434835663846045772e+00 5.454292907619681046e+02
2.434935685850887044e+00 5.454181884066287012e+02
2.435035707855727871e+00 5.454079189812648565e+02
2.435135729860569143e+00 5.453984829927658211e+02
2.435235751865410414e+00 5.453898806361847846e+02
2.435335773870251241e+00 5.453821117926873967e+02
2.435435795875092513e+00 5.453751760276263667e+02
2.435535817879933340e+00 5.453690725887570352e+02
2.435635839884774612e+00 5.453638004045818661e+02
2.435735861889615439e+00 5.453593580828353424e+02
2.435835883894456710e+00 5.453557439091036940e+02
2.435935905899297538e+00 5.453529558455851429e+02
2.436035927904138809e+00 5.453509915299887325e+02
2.436135949908980081e+00 5.453498482745754927e+02
2.436235971913820908e+00 5.453495230653406907e+02
2.436335993918661735e+00 5.453500125613384171e+02
2.436436015923503007e+00 5.453513130941510099e+02
2.436536037928344278e+00 5.453534206675018368e+02
2.436636059933185106e+00 5.453563309570132560e+02
2.436736081938026377e+00 5.453600393101112331e+02
2.436836103942867204e+00 5.453645407460750221e+02
2.436936125947708032e+00 5.453698299562331613e+02
2.437036147952549303e+00 5.453759013043104460e+02
2.437136169957390575e+00 5.453827488269141668e+02
2.437236191962231402e+00 5.453903662341773497e+02
2.437336213967072673e+00 5.453987469105438777e+02
2.437436235971913945e+00 5.454078839157023140e+02
2.437536257976754772e+00 5.454177699856684285e+02
2.437636279981595600e+00 5.454283975340175630e+02
2.437736301986436871e+00 5.454397586532591049e+02
2.437836323991277698e+00 5.454518451163647796e+02
2.437936345996118970e+00 5.454646483784392785e+02
2.438036368000960241e+00 5.454781595785400441e+02
2.438136390005801069e+00 5.454923695416435976e+02
2.438236412010642340e+00 5.455072687807570446e+02
2.438336434015483167e+00 5.455228474991733947e+02
2.438436456020323995e+00 5.455390955928746735e+02
2.438536478025165266e+00 5.455560026530757796e+02
2.438636500030006538e+00 5.455735579689159067e+02
2.438736522034847365e+00 5.455917505302827522e+02
2.438836544039688636e+00 5.456105690307916802e+02
2.438936566044529908e+00 5.456300018708924426e+02
2.439036588049370735e+00 5.456500371611217588e+02
2.439136610054211562e+00 5.456706627254926616e+02
2.439236632059052834e+00 5.456918661050192441e+02
2.439336654063893661e+00 5.457136345613780577e+02
2.439436676068734933e+00 5.457359550807032065e+02
2.439536698073576204e+00 5.457588143775118397e+02
2.439636720078417031e+00 5.457821988987665236e+02
2.439736742083257859e+00 5.458060948280591447e+02
2.439836764088099130e+00 5.458304880899277123e+02
2.439936786092940402e+00 5.458553643543002636e+02
2.440036808097781229e+00 5.458807090410580258e+02
